# SAXS profile: number of points = 501, q_min = 0, q_max = 0.5, delta_q = 0.001
#    q    intensity    error
0.00000000 1646666.22097350 395.19989303
0.00100000 1646580.92738582 543.37171894
0.00200000 1646325.01171567 1037.18479022
0.00300000 1645898.69129373 1086.29317495
0.00400000 1645301.83459687 1357.37406512
0.00500000 1644535.09754238 2220.12246956
0.00600000 1643598.32375320 1898.35614122
0.00700000 1642492.23643168 1970.99076563
0.00800000 1641216.63402561 3101.89956927
0.00900000 1639772.92481816 2951.59139085
0.01000000 1638160.49059164 2973.26141881
0.01100000 1636380.80288866 3829.13124548
0.01200000 1634433.87134660 4462.00466441
0.01300000 1632320.98417279 5141.81132692
0.01400000 1630042.34886604 4034.35499229
0.01500000 1627599.41558813 5859.35815703
0.01600000 1624991.91599870 4558.10252814
0.01700000 1622221.96484187 5255.99940186
0.01800000 1619290.03767106 6922.46522254
0.01900000 1616197.30142429 6788.02897228
0.02000000 1612944.17378774 6096.92925272
0.02100000 1609533.69005387 6373.75370159
0.02200000 1605964.18363446 7756.80735936
0.02300000 1602239.03014650 6344.86684819
0.02400000 1598358.52621138 5993.84474660
0.02500000 1594325.21643342 7461.44235368
0.02600000 1590139.44998336 7084.07157369
0.02700000 1585803.16008761 6660.37357742
0.02800000 1581316.66402904 11005.96448637
0.02900000 1576683.43439817 11352.12124889
0.03000000 1571904.00636373 8771.22475868
0.03100000 1566979.97237828 8273.65463485
0.03200000 1561912.63750586 9277.76149410
0.03300000 1556705.90958330 10320.96065634
0.03400000 1551358.34663741 9773.55803477
0.03500000 1545874.09690620 8347.72050878
0.03600000 1540253.69180766 10258.09006150
0.03700000 1534500.10409553 10495.98119743
0.03800000 1528614.84814669 9836.63700306
0.03900000 1522600.44488637 9135.60309239
0.04000000 1516457.00073955 12124.07428273
0.04100000 1510188.48213944 12368.44424220
0.04200000 1503796.41109919 10669.43603173
0.04300000 1497282.44681641 13834.89045077
0.04400000 1490649.82332232 14086.64148461
0.04500000 1483900.33562495 13310.58662903
0.04600000 1477034.67311969 16660.95188731
0.04700000 1470057.16384599 13759.73569354
0.04800000 1462968.99603025 18279.79845592
0.04900000 1455772.95407693 16377.44649569
0.05000000 1448470.89774275 14405.04374884
0.05100000 1441066.47552833 14612.41474256
0.05200000 1433558.85353961 11396.79341674
0.05300000 1425953.55241334 11550.22431299
0.05400000 1418251.60019575 12870.63387198
0.05500000 1410456.39199058 21326.10164174
0.05600000 1402568.93954003 17987.94748899
0.05700000 1394593.88467899 14559.56083567
0.05800000 1386530.75294253 14724.95728379
0.05900000 1378383.37410063 18608.17641947
0.06000000 1370155.42630213 13790.61501001
0.06100000 1361848.26657157 13931.70841807
0.06200000 1353464.57726440 14069.26493831
0.06300000 1345007.82033090 14203.28324677
0.06400000 1336476.76807558 19545.97364721
0.06500000 1327879.06299117 17089.80434012
0.06600000 1319214.38309019 14583.91568742
0.06700000 1310485.08247146 20050.42270015
0.06800000 1301694.67144921 14819.79452815
0.06900000 1292846.93248805 19004.85079736
0.07000000 1283941.18327572 20510.96136333
0.07100000 1274982.22381006 17900.75126072
0.07200000 1265971.38102316 13862.38727161
0.07300000 1256912.49458373 19532.42108103
0.07400000 1247808.41562158 14037.84533361
0.07500000 1238659.39253929 16944.86128419
0.07600000 1229468.90333951 18460.47644908
0.07700000 1220240.87399463 17132.18267419
0.07800000 1210975.91879746 21525.09796607
0.07900000 1201676.45443568 15862.12994254
0.08000000 1192347.55673834 18833.13054216
0.08100000 1182989.72043622 17460.92909287
0.08200000 1173604.71030269 16072.51726180
0.08300000 1164195.35413800 23470.17944092
0.08400000 1154765.06372172 17667.90630425
0.08500000 1145315.62986579 19206.94401452
0.08600000 1135849.49878718 19269.68765167
0.08700000 1126368.66750863 16354.87382021
0.08800000 1116875.14569550 20874.39745339
0.08900000 1107372.31407802 16444.47963645
0.09000000 1097862.06469414 16484.39967575
0.09100000 1088346.20692870 16521.09619736
0.09200000 1078826.58155381 16554.59467179
0.09300000 1069307.60575335 15077.23794963
0.09400000 1059787.93239753 22652.96811963
0.09500000 1050271.57759773 16636.30257110
0.09600000 1040760.41013269 18171.67761513
0.09700000 1031258.93520306 16675.45776619
0.09800000 1021766.23265992 18207.87512209
0.09900000 1012285.89542780 18221.14697450
0.10000000 1002817.75525456 15192.68970658
0.10100000 993365.40943735 18238.18977504
0.10200000 983930.74280654 21282.42296795
0.10300000 974515.08765055 19763.16690723
0.10400000 965121.12109241 19760.85588402
0.10500000 955752.08457983 18235.75063176
0.10600001 946404.29485274 18227.74757654
0.10700001 937085.79862138 16698.86971724
0.10800001 927793.90944094 19720.26047324
0.10900001 918533.45779757 16671.38304368
0.11000001 909304.30974000 15139.91746980
0.11100001 900108.02636761 22682.72333222
0.11200001 890947.30593171 16611.71330113
0.11300001 881822.09573303 16587.07440167
0.11400001 872735.05772322 21076.55263639
0.11500001 863688.17386396 16530.99242617
0.11600001 854681.83524318 19499.56698934
0.11700001 845717.91206078 14969.20774845
0.11800001 836796.83788767 22405.23638969
0.11900001 827920.04164801 16392.81759676
0.12000001 819089.27934176 16353.11823237
0.12100001 810307.26350187 19277.21070682
0.12200001 801573.00749684 14789.02268505
0.12300001 792889.09079268 19172.05911865
0.12400001 784255.48272587 19116.22829215
0.12500001 775672.79467859 16126.23816124
0.12600001 767144.82845428 16075.52063779
0.12700001 758670.13023000 14566.46718688
0.12800001 750250.04258336 14517.33900818
0.12900001 741885.88985265 17360.13064077
0.13000001 733578.66449230 15856.30358039
0.13100001 725328.30252709 17233.80128040
0.13200001 717136.20491342 21460.30194368
0.13300001 709004.35420041 15676.08701039
0.13400001 700931.28345502 18452.01690688
0.13500001 692919.42061013 21203.33527037
0.13600001 684968.22278520 15483.70740613
0.13700001 677079.34801017 15417.09748116
0.13800001 669251.84543019 18140.07212579
0.13900001 661488.54117023 13891.26001966
0.14000001 653788.12758134 23506.95323579
0.14100001 646151.80911643 20644.55127493
0.14200001 638579.42648075 15067.28227847
0.14300001 631073.34943808 16357.42198898
0.14400001 623629.68440502 16276.73553074
0.14500001 616253.37320674 16195.13941183
0.14600001 608942.39805078 17455.33466357
0.14700001 601699.23457709 13357.72363778
0.14800001 594519.60147623 17273.76783585
0.14900001 587407.90633933 15860.01421945
0.15000001 580362.40673499 14459.73004605
0.15100001 573384.23837316 15687.79350212
0.15200001 566473.27094856 13000.56218173
0.15300001 559630.30611949 15512.95281767
0.15400001 552852.22539219 14139.19633165
0.15500001 546143.11140501 15335.69929199
0.15600001 539498.60335187 19057.78906284
0.15700001 532924.82008027 17682.44636482
0.15800001 526414.52218808 18832.48042015
0.15900001 519973.61513309 12479.36735223
0.16000001 513597.19195598 18605.05915681
0.16100001 507290.78275919 17258.03324412
0.16200001 501049.58167777 18375.99427549
0.16300001 494874.74241354 15826.09500950
0.16400001 488766.35591488 16935.75503198
0.16500001 482723.63654000 13221.80102905
0.16600001 476747.67581365 13136.78282727
0.16700001 470835.59101325 13051.56319911
0.16800001 464988.62175945 12966.20832998
0.16900001 459208.57715187 12880.80119732
0.17000001 453491.78317950 11632.06478782
0.17100001 447839.27913050 12709.67934189
0.17200001 442251.25957378 18362.27316462
0.17300001 436726.65393258 12538.42282652
0.17400001 431265.31714315 13584.85813157
0.17500001 425866.63204643 13491.45554040
0.17600001 420528.95425402 12281.54868904
0.17700001 415255.09763975 13304.77395677
0.17800001 410041.04959215 15413.44378218
0.17900001 404888.78052504 14211.59686769
0.18000001 399797.17695882 15196.29141400
0.18100001 394766.78285149 19398.84062565
0.18200001 389793.39378407 12839.79499777
0.18300001 384880.10944583 15934.03728377
0.18400001 380025.03815472 12654.83436838
0.18500001 375229.52091325 11515.79454086
0.18600001 370489.62835787 14549.12839296
0.18700001 365806.43728825 11347.31622078
0.18800001 361179.64489977 10239.44341668
0.18900001 356610.62101557 12196.08381497
0.19000001 352092.85240222 13113.69890733
0.19100001 347633.89057652 12014.22782600
0.19200001 343225.87080772 9936.38942939
0.19300001 338873.76919101 14791.84072414
0.19400001 334572.56986849 10764.87294420
0.19500001 330324.57962432 14567.31464981
0.19600001 326128.03227808 12528.20895200
0.19700001 321982.05872189 10519.15435555
0.19800001 317887.19640389 15182.29321775
0.19900001 313842.57225579 11298.33313517
0.20000001 309845.79304119 12144.40643221
0.20100001 305899.07181780 10195.61654556
0.20200001 301999.06841464 11035.04648143
0.20300001 298148.00317072 15509.65985800
0.20400001 294343.10587265 10861.26112007
0.20500001 290584.23955966 12570.67479753
0.20600001 286871.10643098 11579.55275843
0.20700001 283203.43123283 9719.54221934
0.20800001 279579.08201566 9641.28509906
0.20900001 276001.03480211 11302.24290942
0.21000001 272464.12808462 9485.83906768
0.21100001 268970.67971623 9408.59482125
0.21200001 265519.00357557 9331.66582181
0.21300001 262107.98001887 10096.39986764
0.21400001 258738.94753707 8344.33145256
0.21500001 255411.21816580 9930.38863177
0.21600001 252122.14959820 8206.57635742
0.21700001 248872.66908001 13021.01866189
0.21800001 245661.84604637 8069.99202418
0.21900001 242488.40083713 11202.96464837
0.22000001 239352.47217177 11108.34875872
0.22100001 236255.09516736 8654.02454517
0.22200001 233194.02475040 7800.34049674
0.22300001 230167.75615758 7733.63697258
0.22400001 227176.77895466 9200.65998273
0.22500001 224222.81491211 10641.61529894
0.22600001 221301.22065284 7535.30691956
0.22700001 218415.65909828 11204.72384160
0.22800001 215562.54609981 8885.48857043
0.22900001 212741.50321641 11009.37331209
0.23000001 209954.17063763 8002.40359230
0.23100001 207199.61132266 9373.71085955
0.23200001 204474.94990642 10719.59975581
0.23300001 201782.02632797 7790.80440498
0.23400001 199120.51360985 9826.59781140
0.23500001 196487.58244976 8346.79289724
0.23600001 193885.84216302 7581.90621639
0.23700001 191313.21855813 8195.85867068
0.23800001 188769.63066284 9474.34821109
0.23900001 186254.28921248 10057.73209320
0.24000001 183767.12717168 8636.13654993
0.24100001 181308.73907473 11188.56281753
0.24200001 178877.42710669 7172.09077910
0.24300001 176473.00184009 8396.58582473
0.24400001 174095.03216627 8957.18982866
0.24500001 171743.59369894 6971.07279800
0.24600001 169418.11333014 6904.63553539
0.24700001 167118.60715865 9946.89996863
0.24800001 164844.52370162 6772.63757667
0.24900001 162594.39908207 6707.01927943
0.25000001 160370.09362402 7245.52117271
0.25100001 158168.75807034 7772.41313928
0.25200001 155993.40619229 7695.93505859
0.25300001 153841.56258269 7033.63657405
0.25400001 151712.53916825 6383.30538751
0.25500001 149606.57988250 6319.38223322
0.25600001 147524.25190775 7961.88425216
0.25700001 145463.86491777 6192.39702253
0.25800001 143426.59079988 6686.54797946
0.25900001 141411.43799625 5515.04634280
0.26000001 139418.19470675 6549.86709723
0.26100001 137445.78816587 7562.26762270
0.26200001 135496.23768764 6414.39219564
0.26300001 133566.89415319 5289.24925874
0.26400001 131658.83389725 6280.12667406
0.26500001 129772.04077028 5695.69513892
0.26600001 127904.92206909 6147.11084552
0.26700001 126059.31958533 5067.58488713
0.26800001 124234.13200789 6015.41695648
0.26900001 122427.69822439 4958.32201272
0.27000001 120642.23915760 5394.51797921
0.27100001 118875.71036595 5335.14213370
0.27200001 117130.24900640 5755.78070856
0.27300001 115403.14558669 5217.37645888
0.27400001 113693.44161560 7503.76750174
0.27500001 112005.66609355 5564.44175487
0.27600001 110334.19120951 5501.26303406
0.27700001 108683.27929650 7251.34873784
0.27800001 107049.78335343 5376.04037444
0.27900001 105436.04817205 5313.97707937
0.28000001 103839.10999031 6127.54617054
0.28100001 102261.14120724 4325.64647779
0.28200001 100701.61208793 4702.26199900
0.28300001 99159.57758865  5913.87748729
0.28400001 97634.99686810  5426.06520776
0.28500001 96128.59995185  5773.48398638
0.28600001 94639.59638410  4481.65829889
0.28700001 93167.87368496  5232.30803381
0.28800001 91712.83944198  4770.90213359
0.28900001 90276.77176232  4319.74373330
0.29000001 88856.37943338  5817.87171878
0.29100001 87453.74208357  5745.71112686
0.29200001 86067.90289995  4160.95296266
0.29300001 84698.81607856  3735.21796587
0.29400001 83345.75229116  4056.85468481
0.29500001 82010.54570119  4369.52208180
0.29600001 80691.11337459  5032.70497941
0.29700001 79388.03061702  4968.10319119
0.29800001 78101.36307468  4203.41555966
0.29900001 76831.44919991  4494.63999097
0.30000001 75576.95773264  5459.67968507
0.30100001 74339.53283901  5051.37149554
0.30200001 73116.35050212  3655.45211641
0.30300001 71910.55061739  3607.03338973
0.30400001 70720.47441742  4853.19278665
0.30500001 69545.77835755  3830.58165328
0.30600001 68385.78985189  3778.99892612
0.30700001 67242.71657800  4349.25911417
0.30800001 66114.32395890  3370.83896663
0.30900001 65001.57773557  3627.08820937
0.31000001 63904.41598975  3875.48349118
0.31100001 62821.50659823  3528.05597759
0.31200001 61754.45409870  3479.24610865
0.31300001 60701.74789722  2859.05246132
0.31400001 59665.11666131  4510.68303316
0.31500001 58642.41555309  3057.61569171
0.31600002 57634.85613725  3014.59129299
0.31700002 56641.83190965  2971.99706102
0.31800002 55663.57790458  2929.85256173
0.31900002 54699.92193572  2888.15601496
0.32000002 53750.67624886  2588.09518393
0.32100002 52815.15859107  2550.97228074
0.32200002 51895.17743934  3520.05005239
0.32300002 50987.73029220  3221.40495240
0.32400002 50095.01171173  3418.98471122
0.32500002 49216.12361365  2647.33541453
0.32600002 48351.51746425  2371.64204392
0.32700002 47499.99180910  3038.09961997
0.32800002 46663.10734680  2533.10690227
0.32900002 45839.03710284  3176.64542165
0.33000002 45029.31993887  2459.27642492
0.33100002 44230.64006980  2863.49177372
0.33200002 43448.40735384  3472.39688015
0.33300002 42677.80361076  2993.42128701
0.33400002 41920.75248133  2106.51791194
0.33500002 41175.84707129  2905.36790694
0.33600002 40444.67987007  2862.27012995
0.33700002 39725.52893842  2618.30973633
0.33800002 39019.94006251  2380.99685537
0.33900002 38325.93593821  2736.47195558
0.34000002 37645.09223178  2310.65587061
0.34100002 36976.14393508  2655.62678318
0.34200002 36320.18818948  2429.27590210
0.34300002 35675.43776944  2577.19374652
0.34400002 35043.84235775  2538.92649906
0.34500002 34423.34293060  2679.85737407
0.34600002 33815.68532157  2288.13845565
0.34700002 33218.01669861  1907.37860917
0.34800002 32633.58211802  2562.55215718
0.34900002 32059.87869334  2356.40119556
0.35000002 31497.65019241  1990.02163341
0.35100002 30947.29130899  2124.22217606
0.35200002 30406.76826850  1610.03845607
0.35300002 29877.76715606  1745.16046224
0.35400002 29359.95840718  1563.41785923
0.35500002 28852.99043116  2157.04966680
0.35600002 28355.79016117  1518.45263505
0.35700002 27869.81386662  1945.59179818
0.35800002 27394.45054601  1770.22947813
0.35900002 26929.41564117  1745.02621620
0.36000002 26474.69945028  1433.60504314
0.36100002 26029.33100430  1978.74983667
0.36200002 25595.04636777  1533.01537481
0.36300002 25169.60931812  1374.26073386
0.36400002 24753.93945016  1897.38954873
0.36500002 24347.69960743  1604.02652612
0.36600002 23951.28935139  2241.48152012
0.36700002 23563.71629490  1690.93236142
0.36800002 23186.78789675  1540.06652505
0.36900002 22817.96935870  1266.39735940
0.37000002 22457.69730085  1249.77091399
0.37100002 22106.23567882  1603.58641210
0.37200002 21764.35133300  1704.80172067
0.37300002 21430.42567526  1322.47163107
0.37400002 21105.09954174  1424.59428655
0.37500002 20788.53438356  1875.95743164
0.37600002 20480.33591170  1968.87718614
0.37700002 20179.59588993  1373.01976939
0.37800002 19886.85077907  1243.62427238
0.37900002 19602.64900980  1117.35104649
0.38000002 19326.08878726  1656.72903977
0.38100002 19056.21109360  1419.49723161
0.38200002 18794.80682098  1295.71404362
0.38300002 18540.21369516  1067.91635943
0.38400002 18293.54948794  1690.32405276
0.38500002 18053.07855144  1567.90994647
0.38600002 17820.70537882  1344.83959512
0.38700002 17594.51560731  1331.20111391
0.38800002 17375.45893269  1419.40130746
0.38900002 17162.26217568  1204.79086181
0.39000002 16956.98743197  1193.43283200
0.39100002 16757.04621737  1182.37723711
0.39200002 16563.98599561  1074.09172277
0.39300002 16376.84242436  967.87143313
0.39400002 16197.06766939  959.67630488
0.39500002 16021.95688324  1237.21556914
0.39600002 15853.00693588  1321.66525086
0.39700002 15689.68063123  1217.67617148
0.39800002 15532.35857363  1208.49521608
0.39900002 15380.26698592  1199.66088174
0.40000002 15233.54000447  1191.18671709
0.40100002 15092.52563901  1365.11900873
0.40200002 14956.72570480  1446.61457871
0.40300002 14825.50454042  1527.32355012
0.40400002 14699.75303905  893.01003943
0.40500002 14579.02917738  976.64921087
0.40600002 14463.08486112  882.97137261
0.40700002 14351.71632172  1493.15263686
0.40800002 14245.02693968  961.32568857
0.40900002 14142.72441623  869.77759281
0.41000002 14045.23740931  1039.06671277
0.41100002 13951.76734834  862.21926298
0.41200002 13862.20787888  1116.39296442
0.41300002 13777.56806152  855.58701716
0.41400002 13696.34447290  1023.11698060
0.41500002 13619.31213305  1104.79865258
0.41600002 13545.53701213  1355.63740841
0.41700002 13475.95979015  844.94271888
0.41800002 13410.98800602  1180.03289056
0.41900002 13347.68516609  1345.44672849
0.42000002 13288.94440949  923.11656715
0.42100002 13233.97611366  1424.10823707
0.42200002 13182.25651378  1170.97990161
0.42300002 13133.18761461  918.79784906
0.42400002 13087.22247923  1084.60361436
0.42500002 13044.85305590  1000.27937973
0.42600002 13004.43837716  1332.69490804
0.42700002 12968.37658285  832.56981607
0.42800002 12934.04605746  1248.45885486
0.42900002 12903.61464630  1248.42477619
0.43000002 12875.29687768  1082.10437736
0.43100002 12848.66376172  915.85279634
0.43200002 12825.67938239  1082.93628997
0.43300002 12804.92310455  1000.32064033
0.43400002 12786.44107972  834.31531999
0.43500002 12770.17677577  1002.20352086
0.43600002 12756.58505047  836.19418968
0.43700002 12744.49413122  1172.23862574
0.43800002 12734.53266972  1090.13972085
0.43900002 12727.24601022  923.99810413
0.44000002 12721.53525492  1093.98847609
0.44100002 12718.02267928  1096.16642667
0.44200002 12716.03902181  929.47891635
0.44300002 12716.13498095  846.89462987
0.44400002 12718.16043152  1018.72469884
0.44500002 12720.63165057  936.11132753
0.44600002 12725.27851459  1450.49094023
0.44700002 12732.30769542  941.17222945
0.44800002 12739.47140006  943.80378340
0.44900002 12749.60843672  1032.71833232
0.45000002 12760.49471631  1035.89701016
0.45100002 12772.42165109  1039.16427478
0.45200002 12785.83673560  1129.43694157
0.45300002 12800.26643782  1220.37746002
0.45400002 12816.15772532  1399.52448993
0.45500002 12833.17805251  965.56836243
0.45600002 12851.09490775  880.94259768
0.45700002 12870.12405807  1061.01307763
0.45800002 12889.70516579  976.20186700
0.45900002 12910.47107982  979.90480140
0.46000002 12932.70759788  894.29677278
0.46100002 12954.72820886  897.76270742
0.46200002 12978.45456358  1261.89519702
0.46300002 13002.90633425  1629.00418276
0.46400002 13027.29909914  908.65415523
0.46500002 13052.98704874  1368.60575693
0.46600002 13078.98806882  1007.80147341
0.46700002 13105.41589584  1104.00028739
0.46800002 13133.25752080  923.92471038
0.46900002 13160.59302999  1298.95059363
0.47000002 13188.78566433  1118.14530162
0.47100002 13217.52275624  1310.12091769
0.47200002 13246.76379075  1127.82952260
0.47300002 13276.49819804  1038.35497328
0.47400002 13305.86871481  1327.26046721
0.47500002 13335.95315264  1142.62452028
0.47600002 13366.80352856  956.39483780
0.47700002 13397.03697528  1632.96491432
0.47800002 13427.66276908  1157.73313882
