# SAXS profile: number of points = 501, q_min = 0, q_max = 0.5, delta_q = 0.001
#    q    intensity    error
0.00000000 1646666.22097350 271.69992646
0.00100000 1646580.76656908 493.97424170
0.00200000 1646324.37068449 963.09978735
0.00300000 1645897.24568303 1382.55373562
0.00400000 1645299.25499225 1480.76938576
0.00500000 1644531.08828748 2072.10925326
0.00600000 1643592.52932171 1898.34944865
0.00700000 1642484.36204756 2168.07944801
0.00800000 1641206.36226942 2215.62868261
0.00900000 1639759.91005365 2951.56796427
0.01000000 1638144.41340791 2702.93839883
0.01100000 1636361.37261971 2945.45059896
0.01200000 1634410.79974251 3824.52143908
0.01300000 1632293.92464571 4456.16261082
0.01400000 1630011.00835621 6234.79238336
0.01500000 1627563.42107591 4296.76762297
0.01600000 1624950.99740439 4557.98775148
0.01700000 1622175.83407967 5255.84993819
0.01800000 1619238.41305964 5076.31265336
0.01900000 1616139.79991490 5818.10354222
0.02000000 1612880.57304456 5080.57403491
0.02100000 1609463.57598513 5842.35304571
0.02200000 1605887.38756956 6648.37408659
0.02300000 1602155.14881377 9228.41407723
0.02400000 1598267.38713519 8390.90416506
0.02500000 1594226.45243295 9326.22517267
0.02600000 1590032.81148602 7083.59649916
0.02700000 1585688.31407585 8657.85859139
0.02800000 1581193.34415161 9629.46790749
0.02900000 1576551.39671911 8513.37793317
0.03000000 1571762.90740147 8039.56764090
0.03100000 1566829.63601606 9777.01737861
0.03200000 1561752.69639809 10822.94668452
0.03300000 1556536.06766051 9526.00117324
0.03400000 1551178.45759577 12215.53091720
0.03500000 1545683.89132925 10850.70141820
0.03600000 1540052.83021561 13675.66976432
0.03700000 1534288.49865928 11369.07830086
0.03800000 1528392.07025317 10729.31282973
0.03900000 1522366.31558677 17354.97680140
0.04000000 1516211.27418402 11189.63972199
0.04100000 1509930.96436817 12366.33517156
0.04200000 1503526.87529881 10667.52367514
0.04300000 1497000.67408705 10868.22539835
0.04400000 1490355.48986495 13077.87003093
0.04500000 1483593.31270367 13307.83263330
0.04600000 1476714.78961898 12493.00770094
0.04700000 1469724.10822981 10582.01407140
0.04800000 1462622.53018365 10750.27609704
0.04900000 1455412.94427162 10915.59759013
0.05000000 1448097.08586146 14401.32618951
0.05100000 1440678.78785749 17979.67211003
0.05200000 1433157.02758286 14811.67857031
0.05300000 1425537.57899676 12701.54042098
0.05400000 1417820.96620742 15206.13057170
0.05500000 1410011.20311893 15397.32305633
0.05600000 1402108.76033177 17982.04569037
0.05700000 1394118.76951987 13341.71724708
0.05800000 1386040.53494233 18399.68896049
0.05900000 1377877.81064616 13640.99096251
0.06000000 1369634.46048977 13785.37148887
0.06100000 1361311.76325723 13926.21998891
0.06200000 1352912.28302368 14063.52383941
0.06300000 1344439.68178184 14197.28370341
0.06400000 1335892.84962108 13024.95589294
0.06500000 1327278.92857138 17082.08060978
0.06600000 1318598.15683746 17227.48572513
0.06700000 1309852.48183697 14696.54553399
0.06800000 1301045.65860117 16158.98783621
0.06900000 1292181.29966373 18995.06599439
0.07000000 1283259.08994733 21866.73591669
0.07100000 1274283.40428557 19267.16597523
0.07200000 1265255.87745375 16625.46300859
0.07300000 1256180.05817491 19521.03901871
0.07400000 1247058.95167020 18238.23802290
0.07500000 1237893.02161046 21167.97166173
0.07600000 1228685.56628676 21286.97843386
0.07700000 1219440.41566309 18547.68959191
0.07800000 1210158.47087304 17208.45426283
0.07900000 1200841.67971834 18733.13108226
0.08000000 1191495.56730324 17372.00618622
0.08100000 1182120.59027819 17448.10073114
0.08200000 1172718.07327900 14600.34069745
0.08300000 1163291.52382293 21986.21083211
0.08400000 1153844.10665553 16182.66435544
0.08500000 1144377.31451710 16238.71485533
0.08600000 1134893.83515299 16291.40176853
0.08700000 1125395.86076275 22282.83908945
0.08800000 1115884.93420779 23835.30331407
0.08900000 1106364.78622414 23897.48050490
0.09000000 1096837.31912803 19463.37914223
0.09100000 1087304.21729920 25508.15813624
0.09200000 1077767.34073153 16538.34062061
0.09300000 1068231.29460806 15062.06196177
0.09400000 1058694.47338333 21120.95573663
0.09500000 1049161.10454855 19640.29680030
0.09600000 1039632.87804613 18151.99090397
0.09700000 1030114.57279982 18171.22191847
0.09800000 1020604.86758476 16671.58129586
0.09900000 1011107.73251256 19716.60171112
0.10000000 1001622.85365828 19726.96303050
0.10100000 992153.78554262 16697.94899602
0.10200000 982702.47749643 24292.40638634
0.10300000 973270.55501973 16701.32350978
0.10400000 963860.03768717 15180.79630775
0.10500000 954474.80259902 21246.61010549
0.10600001 945110.85125302 16685.93286400
0.10700001 935776.33581623 18191.49282432
0.10800001 926468.38423346 19692.08643363
0.10900001 917192.12294649 16647.03781498
0.11000001 907947.36674753 16629.05680470
0.11100001 898735.46912761 21138.25922893
0.11200001 889559.28956859 15078.03066802
0.11300001 880418.79316928 15055.16207200
0.11400001 871316.68098820 22545.32018210
0.11500001 862254.51477028 21004.52096886
0.11600001 853233.59061261 14974.25022041
0.11700001 844255.00924450 16437.64580412
0.11800001 835319.34218386 20874.63134433
0.11900001 826428.22445221 17850.85048897
0.12000001 817583.20583657 19290.87665041
0.12100001 808787.14561732 20721.12764685
0.12200001 800039.08418608 16236.79397849
0.12300001 791341.45061831 14718.95167498
0.12400001 782694.33399982 17610.62334476
0.12500001 774098.55404036 17556.55603291
0.12600001 765557.48702400 14583.87081505
0.12700001 757069.75528495 14535.73998649
0.12800001 748636.97717969 17383.35142938
0.12900001 740260.53988859 21652.62181227
0.13000001 731940.83322384 18697.42946600
0.13100001 723678.44003278 14328.83378808
0.13200001 715474.55305652 15701.08980698
0.13300001 707330.93256614 19904.29338076
0.13400001 699246.44610513 16991.68944144
0.13500001 691223.55677286 15511.05734530
0.13600001 683261.31224725 15445.12269160
0.13700001 675361.85817324 15377.99023573
0.13800001 667523.80656262 25052.16964165
0.13900001 659750.11840169 22167.60502368
0.14000001 652039.70118879 13790.64033052
0.14100001 644393.59852109 15098.14272542
0.14200001 636811.69596250 13659.61152266
0.14300001 629296.27212963 13592.80011914
0.14400001 621843.31675131 18935.12988825
0.14500001 614458.42857614 17493.63228677
0.14600001 607138.83717276 17403.63558856
0.14700001 599887.41011206 18644.50158587
0.14800001 592699.76832671 17220.89258119
0.14900001 585580.24049985 14493.11163617
0.15000001 578527.17307151 18345.09752367
0.15100001 571541.54207437 15637.37732900
0.15200001 564623.76693341 20732.98570012
0.15300001 557774.06618978 14173.03969069
0.15400001 550989.46717509 12810.50571636
0.15500001 544274.06981141 15283.21660156
0.15600001 537623.60639933 16459.34748671
0.15700001 531044.19792102 16361.47251016
0.15800001 524528.46186365 15012.00528709
0.15900001 518082.47271658 12433.97993209
0.16000001 511701.08887615 13593.34006763
0.16100001 505389.96558508 15965.26976646
0.16200001 499144.36286166 14644.89629769
0.16300001 492965.37660667 12126.94883701
0.16400001 486853.18171160 15664.50186109
0.16500001 480806.91336682 13169.30197886
0.16600001 474827.79062084 19031.09874660
0.16700001 468912.62443368 12998.25856301
0.16800001 463062.69734618 14086.36791838
0.16900001 457280.32135355 15158.84336864
0.17000001 451561.30298525 12740.80276535
0.17100001 445906.82497390 14955.71561585
0.17200001 440317.21750997 14854.10203415
0.17300001 434791.18700832 13617.66062019
0.17400001 429328.67194413 16904.81725615
0.17500001 423929.13102657 20145.11325779
0.17600001 418590.89858598 12224.94777058
0.17700001 413316.72749331 11035.55714529
0.17800001 408102.63111145 15340.57862805
0.17900001 402950.51465487 13055.59729148
0.18000001 397859.36185116 17283.01149518
0.18100001 392829.73665629 13941.52801248
0.18200001 387857.36247812 13840.69063384
0.18300001 382945.30214080 14797.00717372
0.18400001 378091.71395994 11541.25011384
0.18500001 373297.83281631 12498.01203312
0.18600001 368560.11269825 13439.54514447
0.18700001 363879.17359910 11287.53249832
0.18800001 359254.87505194 13240.33904559
0.18900001 354688.52406791 12130.34809625
0.19000001 350173.84202956 12038.97725780
0.19100001 345718.17537888 19913.36784273
0.19200001 341313.65739660 11857.23701823
0.19300001 336965.34101934 12747.39945311
0.19400001 332667.92143724 11676.64459421
0.19500001 328424.37022137 10621.24463487
0.19600001 324232.13919948 15329.69626578
0.19700001 320090.98310880 10457.37291235
0.19800001 316000.96310209 10375.89211381
0.19900001 311961.51634797 13102.38430583
0.20000001 307970.11988384 9285.29955333
0.20100001 304029.03068377 11054.49607812
0.20200001 300134.78109293 10053.01496785
0.20300001 296289.85206888 10879.76388220
0.20400001 292491.23297634 12591.74817479
0.20500001 288738.77669051 13383.04293218
0.20600001 285032.30640214 15045.43100460
0.20700001 281371.56171164 8778.79314037
0.20800001 277754.34712951 9578.35911353
0.20900001 274183.45789730 9500.45726524
0.21000001 270654.10553255 10279.44341406
0.21100001 267168.24748425 9345.54573879
0.21200001 263724.49552024 9268.59783323
0.21300001 260321.65480803 10863.22316870
0.21400001 256960.92824231 9944.38839311
0.21500001 253641.53602569 11505.18061806
0.21600001 250361.17635913 11408.95934608
0.21700001 247120.41337564 9697.00547933
0.21800001 243918.67722788 10416.54760352
0.21900001 240754.38381049 8739.38454553
0.22000001 237627.66665935 10240.56477888
0.22100001 234539.77490143 8591.19236086
0.22200001 231488.40965127 7743.28766897
0.22300001 228471.87685072 8444.32096770
0.22400001 225490.79895020 7610.31482443
0.22500001 222547.02913576 7544.34464445
0.22600001 219635.67371747 9722.17355685
0.22700001 216760.52107377 8895.85220554
0.22800001 213917.88305037 8817.69555633
0.22900001 211107.56417711 8011.53243939
0.23000001 208330.87820237 11549.86443375
0.23100001 205587.20458433 8585.32206946
0.23200001 202873.66151012 7799.47828562
0.23300001 200191.98923788 9134.76090095
0.23400001 197541.73011761 8356.01557918
0.23500001 194920.23961166 7590.19448947
0.23600001 192330.00351088 8204.79833784
0.23700001 189768.93214504 8807.17655741
0.23800001 187237.14764002 7383.69726642
0.23900001 184733.59461127 8645.53263674
0.24000001 182258.38398565 7906.36907127
0.24100001 179811.97692748 7179.89257833
0.24200001 177392.70503031 9052.35016589
0.24300001 175000.58987894 7045.52408180
0.24400001 172634.94394844 8247.63483728
0.24500001 170295.78628117 6912.30629213
0.24600001 167982.80548674 6846.13956147
0.24700001 165695.92005296 8629.44392458
0.24800001 163434.19881621 8545.97466038
0.24900001 161196.71265436 7253.85241261
0.25000001 158985.13307958 5985.79054362
0.25100001 156796.64718354 7704.98760711
0.25200001 154634.00143523 8215.70488494
0.25300001 152494.98685378 8134.08298361
0.25400001 150378.96571830 7477.59442412
0.25500001 148285.90779161 5694.17912860
0.25600001 146216.63771586 9018.64264101
0.25700001 144169.17015294 8369.02072334
0.25800001 142145.00442746 6074.56705162
0.25900001 140143.04996993 6012.13712817
0.26000001 138162.85221340 7031.79869611
0.26100001 136203.70117700 6958.64742239
0.26200001 134267.21012395 8474.94670403
0.26300001 132351.07878494 6289.32356146
0.26400001 130456.13194476 6741.32093723
0.26500001 128582.63055793 5643.49192223
0.26600001 126728.66612854 5583.03165048
0.26700001 124896.25896329 7029.16178708
0.26800001 123084.38567565 6456.39175614
0.26900001 121291.14823752 4912.29173608
0.27000001 119518.89286567 5344.28754739
0.27100001 117765.56089552 6246.28564549
0.27200001 116033.26205627 7127.34345910
0.27300001 114319.31851055 5168.37663445
0.27400001 112622.70606674 6503.96158315
0.27500001 110948.06093704 5971.22492222
0.27600001 109289.83859849 4540.99300867
0.27700001 107651.86774575 6284.71633643
0.27800001 106031.49738852 7099.86940115
0.27900001 104430.78390112 4824.70244457
0.28000001 102846.76944571 4768.49069104
0.28100001 101281.76890704 5997.90663855
0.28200001 99735.23847392  4657.13718096
0.28300001 98206.03728234  5438.65060211
0.28400001 96694.26936974  4960.41625345
0.28500001 95200.72688660  6126.16706511
0.28600001 93724.33128205  5245.28244847
0.28700001 92265.38107024  4783.03758107
0.28800001 90823.00140041  4330.89502677
0.28900001 89399.50928110  5055.54248914
0.29000001 87991.55527627  4993.08104050
0.29100001 86601.33900413  3793.13882793
0.29200001 85227.92046570  3745.76728177
0.29300001 83871.16296325  4068.59030794
0.29400001 82530.35854864  4017.16539251
0.29500001 81207.30898100  3605.60468943
0.29600001 79899.96388037  3915.49791531
0.29700001 78608.97375120  4567.96768092
0.29800001 77334.18334467  3815.28211592
0.29900001 76076.09722281  3423.42453709
0.30000001 74833.42141896  4054.47496442
0.30100001 73607.82525095  5001.65196258
0.30200001 72396.24683661  3948.49148939
0.30300001 71202.04297489  4220.85730737
0.30400001 70023.44434610  4164.64454965
0.30500001 68860.08839653  3792.81384844
0.30600001 67711.42547067  3429.92241960
0.30700001 66579.50186361  3691.16775807
0.30800001 65462.27815628  3641.01208343
0.30900001 64360.50856331  2992.76378988
0.31000001 63274.33515518  4722.79659958
0.31100001 62202.12823460  4075.48363489
0.31200001 61145.80728609  3444.95494560
0.31300001 60103.69181024  4812.50283110
0.31400001 59077.57479020  3628.84020330
0.31500001 58065.36523864  3302.75813115
0.31600002 57068.10968791  2713.58874414
0.31700002 56085.33043430  4012.90558258
0.31800002 55117.09549543  2637.35314433
0.31900002 54163.34859770  2859.82494137
0.32000002 53224.05001374  3587.83338131
0.32100002 52298.43204474  3283.81870358
0.32200002 51388.01019737  3485.64889673
0.32300002 50490.19801657  3435.35323571
0.32400002 49606.87611779  4111.17005293
0.32500002 48737.27157408  2859.90323139
0.32600002 47881.88791818  2583.46738496
0.32700002 47039.51084690  2545.77844758
0.32800002 46211.65410620  3192.76333338
0.32900002 45396.39373067  2247.12159608
0.33000002 44595.55183460  2214.16925344
0.33100002 43805.44381324  2399.66232572
0.33200002 43031.81643428  2579.32719921
0.33300002 42269.61184721  2329.47841921
0.33400002 41520.86838780  2295.06610882
0.33500002 40784.12787109  2466.62417045
0.33600002 40061.12411231  2835.12588769
0.33700002 39349.88523973  2593.55105897
0.33800002 38652.04882017  3341.27651849
0.33900002 37965.84956373  2129.88426139
0.34000002 37292.62478195  2289.02141752
0.34100002 36631.15517748  2255.01401952
0.34200002 35982.56604986  2591.82435532
0.34300002 35345.00117537  2188.56257643
0.34400002 34720.52829482  2156.14490922
0.34500002 34107.13276481  1947.17630176
0.34600002 33506.42795602  2092.81158925
0.34700002 32915.52755973  2233.64780599
0.34800002 32337.74437892  2200.74529794
0.34900002 31770.65489709  2001.55135331
0.35000002 31214.73619663  2300.83831403
0.35100002 30670.81973629  1781.36129465
0.35200002 30136.30563952  1914.86095103
0.35300002 29613.45756244  1729.72213815
0.35400002 29101.67342274  2014.56343811
0.35500002 28600.52547409  2290.90219898
0.35600002 28109.06783288  1956.81284987
0.35700002 27628.61528757  2077.11939570
0.35800002 27158.97384215  1901.26405387
0.35900002 26699.20529242  2018.46001571
0.36000002 26249.72001930  1705.70688765
0.36100002 25809.54828867  1821.89609999
0.36200002 25380.35401969  1796.54844438
0.36300002 24959.81634685  1362.80603709
0.36400002 24548.92998346  1478.45937828
0.36500002 24147.48293973  1988.54531428
0.36600002 23755.65692078  1438.52387298
0.36700002 23372.48523300  1548.19349517
0.36800002 23000.00682409  2164.18574463
0.36900002 22635.39846378  1381.89114167
0.37000002 22279.34296195  1363.83004402
0.37100002 21931.87678663  1223.79878267
0.37200002 21593.97687605  1570.63798248
0.37300002 21263.98671272  1789.36456664
0.37400002 20942.34421963  1295.80760997
0.37500002 20629.43743328  1396.20039162
0.37600002 20324.78374032  1149.36657496
0.37700002 20027.51979120  2271.12085191
0.37800002 19738.05468428  1907.58438533
0.37900002 19457.01501302  1552.66987159
0.38000002 19183.63235183  1205.97910493
0.38100002 18916.84362629  1192.32871025
0.38200002 18658.41652542  1179.11868818
0.38300002 18406.61185511  1696.35342893
0.38400002 18162.77593019  1048.90035966
0.38500002 17924.86432051  1245.41963199
0.38600002 17694.97594951  1438.07076354
0.38700002 17471.38295787  1220.20144358
0.38800002 17254.58711584  1006.80520591
0.38900002 17043.74492912  1595.29460094
0.39000002 16840.65078886  1481.55632334
0.39100002 16642.80547430  1174.31640990
0.39200002 16451.76684180  1357.76438178
0.39300002 16266.57051834  1153.62523582
0.39400002 16088.59958791  1048.57452782
0.39500002 15915.26962673  1039.90376668
0.39600002 15747.97043390  1312.90835728
0.39700002 15586.25965309  1209.64966899
0.39800002 15430.38100851  1108.21001654
0.39900002 15279.79134220  1283.50253356
0.40000002 15134.36391387  1365.49804883
0.40100002 14994.56938376  1265.84160735
0.40200002 14860.03087152  1347.43336312
0.40300002 14729.87167567  1249.68237217
0.40400002 14605.19918066  975.99248149
0.40500002 14485.47119340  1058.59828497
0.40600002 14370.39673298  1052.77531454
0.40700002 14259.75799993  872.69723095
0.40800002 14153.96241810  1563.02214389
0.40900002 14052.27979518  1123.47982286
0.41000002 13955.35647304  1118.45209753
0.41100002 13862.47452751  942.37106303
0.41200002 13773.41622191  1023.91581045
0.41300002 13689.13028394  935.10453400
0.41400002 13608.25098363  847.11366387
0.41500002 13531.52787209  1182.11433092
0.41600002 13458.01819363  1178.51870906
0.41700002 13388.58592451  1007.35725269
0.41800002 13323.78240338  921.13974011
0.41900002 13260.46016462  918.94993295
0.42000002 13201.69108301  1417.26761337
0.42100002 13146.72191480  998.62504397
0.42200002 13094.88258223  997.04440706
0.42300002 13045.69406984  1161.58865502
0.42400002 12999.49798366  911.58983930
0.42500002 12956.85567893  827.94311712
0.42600002 12916.13072450  1075.46167574
0.42700002 12879.70740853  1488.37905866
0.42800002 12844.84043429  1157.19172956
0.42900002 12814.03815349  1322.40880010
0.43000002 12785.19993985  826.56321528
0.43100002 12757.97103657  992.05987481
0.43200002 12734.38586648  1075.22792159
0.43300002 12713.02863702  1075.90366454
0.43400002 12693.86294593  1159.58443506
0.43500002 12676.94084072  1160.70075838
0.43600002 12662.50591107  830.02730180
0.43700002 12649.66548655  914.19136804
0.43800002 12638.87494551  832.26995460
0.43900002 12630.76948491  1083.72007316
0.44000002 12624.09626371  918.59240816
0.44100002 12619.67013306  1004.02100337
0.44200002 12616.77549228  1006.06172543
0.44300002 12615.87852467  1008.26105947
0.44400002 12616.88388688  926.39474330
0.44500002 12618.38169401  1181.83768547
0.44600002 12621.90680232  930.92878032
0.44700002 12627.87824685  1018.31215009
0.44800002 12633.84251292  1276.33400036
0.44900002 12642.89693739  1109.41425883
0.45000002 12652.56671004  1283.91926775
0.45100002 12663.29284001  944.42842477
0.45200002 12675.47281439  861.29841856
0.45300002 12688.65660339  1036.91706677
0.45400002 12703.33627197  1127.10356415
0.45500002 12719.07948236  1652.97164787
0.45600002 12735.66924154  1309.54525182
0.45700002 12753.39976676  876.15860550
0.45800002 12771.67787762  967.26306990
0.45900002 12791.11618065  1059.10446995
0.46000002 12812.08728772  885.95587794
0.46100002 12832.76589247  978.24179035
0.46200002 12855.12267335  1160.62480557
0.46300002 12878.22778171  1165.22210492
0.46400002 12901.20799354  1079.83116024
0.46500002 12925.50177017  993.84187821
0.46600002 12950.19066186  997.87698874
0.46700002 12975.22027759  1366.29075999
0.46800002 13001.66385773  1097.60051489
0.46900002 13027.58390818  918.44470906
0.47000002 13054.37903489  1014.52111478
0.47100002 13081.78117974  1018.80916657
0.47200002 13109.56963587  1023.13641072
0.47300002 13137.85010662  1027.51130554
0.47400002 13165.81007631  1407.09601860
0.47500002 13194.51722020  1507.34171868
0.47600002 13223.93274777  1230.02416283
0.47700002 13252.79867853  1045.24828132
0.47800002 13282.06929209  1049.74839626
