# SAXS profile: number of points = 501, q_min = 0, q_max = 0.5, delta_q = 0.001
#    q    intensity    error
0.00000000 1646666.22097350 271.69992646
0.00100000 1646580.78483325 493.97424718
0.00200000 1646324.44023084 889.01522588
0.00300000 1645897.40840050 1283.80002429
0.00400000 1645299.54354817 1233.97470455
0.00500000 1644531.53202822 1776.09412489
0.00600000 1643593.17084009 2070.92747957
0.00700000 1642485.23218835 2365.17883265
0.00800000 1641207.49484784 2658.75625391
0.00900000 1639761.32639877 5411.21260843
0.01000000 1638146.17956601 3513.82370689
0.01100000 1636363.54045464 3829.09085138
0.01200000 1634413.33134691 3824.52736303
0.01300000 1632296.89666892 4798.95308786
0.01400000 1630014.45090652 4034.28594484
0.01500000 1627567.40032584 4296.77812819
0.01600000 1624955.48977655 4972.36402100
0.01700000 1622180.92235694 5255.86642421
0.01800000 1619244.12354248 7383.75353560
0.01900000 1616146.16550043 6302.97032986
0.02000000 1612887.60742080 6604.77505116
0.02100000 1609471.31599051 7435.75781700
0.02200000 1605895.86112765 6648.40916712
0.02300000 1602164.45768017 5767.79231019
0.02400000 1598277.48975004 6592.89494584
0.02500000 1594237.35842608 9326.28897273
0.02600000 1590044.64931401 12235.39413610
0.02700000 1585701.01093186 8657.92791623
0.02800000 1581207.03366398 8253.90109425
0.02900000 1576566.07199660 9222.91194464
0.03000000 1571778.54463748 10232.27879592
0.03100000 1566846.32546368 7520.86270828
0.03200000 1561770.48978297 13142.29927683
0.03300000 1556554.96057694 7938.43066491
0.03400000 1551198.51374380 9772.55108750
0.03500000 1545705.07243344 8346.80777658
0.03600000 1540075.15249826 10256.90098965
0.03700000 1534312.00767430 13118.36827231
0.03800000 1528416.94828007 11623.61142961
0.03900000 1522392.40946098 9134.35487978
0.04000000 1516238.73689046 11189.84239678
0.04100000 1509959.74485631 12366.57088377
0.04200000 1503557.03729986 14546.91501075
0.04300000 1497032.25496875 10868.45467556
0.04400000 1490388.38388002 11066.13426424
0.04500000 1483627.74964792 10237.03194823
0.04600000 1476750.73387973 14575.53042096
0.04700000 1469761.55449660 15873.42552680
0.04800000 1462661.48054828 12900.67485868
0.04900000 1455453.42128210 13099.08140127
0.05000000 1448139.18101600 15509.57135090
0.05100000 1440722.59659365 13485.16413231
0.05200000 1433202.36520168 11393.95933433
0.05300000 1425584.64667486 11547.23617637
0.05400000 1417869.72153135 16376.39604738
0.05500000 1410061.65154765 17766.77763831
0.05600000 1402160.94040671 19181.56255986
0.05700000 1394172.72448340 13342.23359610
0.05800000 1386096.28161483 14720.34319808
0.05900000 1377935.38617015 12401.41905475
0.06000000 1369693.79940169 16292.50850505
0.06100000 1361373.00143084 13926.84645546
0.06200000 1352975.34391157 12785.61759761
0.06300000 1344504.60360921 14197.96927794
0.06400000 1335959.60346624 13025.60674296
0.06500000 1327347.68930039 14454.81701265
0.06600000 1318668.89255834 17228.40988737
0.06700000 1309925.18530406 17369.60877001
0.06800000 1301120.18885639 18853.23241903
0.06900000 1292257.92076278 14925.57968361
0.07000000 1283337.71163129 13667.54726890
0.07100000 1274364.16489261 16515.76035057
0.07200000 1265338.75954425 15241.00607270
0.07300000 1256264.90661385 13944.54111679
0.07400000 1247145.93805214 16836.47095273
0.07500000 1237982.09249896 15524.29616760
0.07600000 1228776.68813746 18450.08283733
0.07700000 1219533.63152554 15695.39857367
0.07800000 1210253.94436812 22946.41586132
0.07900000 1200939.26558340 21616.90779441
0.08000000 1191595.34139363 18821.24930024
0.08100000 1182222.46570791 17449.60441255
0.08200000 1172822.30681342 20442.29376702
0.08300000 1163397.78016085 20522.33780519
0.08400000 1153952.69783705 20598.05662324
0.08500000 1144488.15458441 19193.06725340
0.08600000 1135006.95888491 20736.57811244
0.08700000 1125511.14830450 14856.74785526
0.08800000 1116002.43428693 16388.49651717
0.08900000 1106484.55250526 22406.31324065
0.09000000 1096959.36631205 16470.84565890
0.09100000 1087428.47035771 16507.16495556
0.09200000 1077893.95035553 19547.60770818
0.09300000 1068360.19106625 18076.65528230
0.09400000 1058825.65408969 15088.26627989
0.09500000 1049294.56970859 16620.82676541
0.09600000 1039768.77640195 21180.09097094
0.09700000 1030252.59757440 16659.18528597
0.09800000 1020745.40313650 15158.06994927
0.09900000 1011250.37644063 21236.25890383
0.10000000 1001768.01699181 22765.17925672
0.10100000 992301.25281001 15182.20988204
0.10200000 982852.20716163 18222.08077788
0.10300000 973422.69198919 18222.47365124
0.10400000 964014.53358070 16701.55258001
0.10500000 954631.46446255 19732.23329883
0.10600001 945269.91404187 19723.05768452
0.10700001 935937.80924121 15162.19322320
0.10800001 926632.03113880 25755.73851761
0.10900001 917358.08442863 25731.89547931
0.11000001 908115.71797868 15120.12741604
0.11100001 898905.98958296 16611.78346947
0.11200001 889732.22998803 22621.44301240
0.11300001 880593.99438778 18069.78961558
0.11400001 871494.29461634 21046.58820595
0.11500001 862434.42357183 15006.35967677
0.11600001 853415.78502393 17972.93727898
0.11700001 844439.53919037 19430.55471185
0.11800001 835506.17099929 19387.92161118
0.11900001 826617.37389772 20830.75880339
0.12000001 817774.58947378 14842.60949811
0.12100001 808980.76406552 20726.08815173
0.12200001 800235.01296773 14764.33668482
0.12300001 791539.63634217 16194.90172257
0.12400001 782894.62514873 17615.12989583
0.12500001 774301.10675605 21951.43741090
0.12600001 765762.32267017 21881.65940144
0.12700001 757276.81573104 17447.65865669
0.12800001 748846.36382458 18837.23116979
0.12900001 740472.02240952 20214.88716455
0.13000001 732154.56645989 18702.88928178
0.13100001 723894.25881588 17199.72840022
0.13200001 715692.57145897 21417.10121052
0.13300001 707551.14073917 22754.84575890
0.13400001 699468.65136967 16997.08902962
0.13500001 691447.96305687 18337.20084483
0.13600001 683487.71559974 16854.80786141
0.13700001 675590.49070917 13984.72381711
0.13800001 667754.55603673 16707.21977988
0.13900001 659982.86854142 19403.49725015
0.14000001 652274.52591054 15175.16756098
0.14100001 644630.38403681 15103.69061032
0.14200001 637050.42249428 17764.15186910
0.14300001 629537.12318261 14957.80275234
0.14400001 622086.05598070 14883.40959139
0.14500001 614703.11868142 16154.39872099
0.14600001 607385.53467761 17410.70717287
0.14700001 600136.12045558 14655.32475291
0.14800001 592950.25610155 19878.65827365
0.14900001 585832.51411709 17135.60184640
0.15000001 578781.50355516 15731.28200888
0.15100001 571797.76200329 13036.98958882
0.15200001 564881.81774496 16853.24982768
0.15300001 558033.92188515 20624.93472615
0.15400001 551251.21095762 15379.90951151
0.15500001 544537.46303253 15290.61268356
0.15600001 537888.73143316 15200.73626770
0.15700001 531311.06734966 15110.48746859
0.15800001 524796.97207277 13768.04921216
0.15900001 518352.61930418 13684.50979555
0.16000001 511973.06183687 14836.98003237
0.16100001 505663.67990283 13516.39080183
0.16200001 499419.72596644 18316.21931446
0.16300001 493242.22783235 15773.88719073
0.16400001 487131.56330490 16879.10946537
0.16500001 481086.94918818 13176.97216037
0.16600001 475109.36198267 14281.78809549
0.16700001 469195.63429763 13006.10359681
0.16800001 463347.31237540 16444.19689264
0.16900001 457566.33558960 14001.53053017
0.17000001 451848.68282110 16225.88696629
0.17100001 446195.68466654 14965.40397040
0.17200001 440607.33261340 12577.13690338
0.17300001 435082.78304040 18169.05787779
0.17400001 429621.68811134 13533.08381462
0.17500001 424223.36315359 14559.34651103
0.17600001 418886.52133654 11121.43766674
0.17700001 413613.69240018 14356.53194128
0.17800001 408400.57396395 10965.55592886
0.17900001 403249.75136070 16331.61570151
0.18000001 398159.77872767 10810.03850307
0.18100001 393131.37266066 12878.98437672
0.18200001 388160.05485790 15982.49101375
0.18300001 383249.20709108 11635.44647694
0.18400001 378396.65062004 11550.55830583
0.18500001 373603.80900116 10423.54676356
0.18600001 368867.06447739 10346.72164741
0.18700001 364187.24496009 14378.11311032
0.18800001 359563.96252309 14271.09434680
0.18900001 354998.40811243 15176.18266384
0.19000001 350484.72645937 16066.22062001
0.19100001 346029.98190009 10962.23034456
0.19200001 341626.20678510 9890.07915375
0.19300001 337278.87986074 13740.74221481
0.19400001 332982.19268710 14609.59439451
0.19500001 328739.47536034 12564.42334201
0.19600001 324547.95802647 11508.47113547
0.19700001 320407.54181249 11419.32532985
0.19800001 316318.34723208 11330.52373332
0.19900001 312279.38039590 11242.05822555
0.20000001 308288.68239010 9294.90421335
0.20100001 304348.18093618 9221.75031821
0.20200001 300454.59290988 10063.72706516
0.20300001 296610.09956001 9983.89642307
0.20400001 292811.92378301 12605.55391467
0.20500001 289060.07496503 13397.93510791
0.20600001 285354.17514654 10632.29706853
0.20700001 281693.80568085 9667.73186795
0.20800001 278077.13924382 13076.57809107
0.20900001 274506.53538872 10376.34752820
0.21000001 270977.53741319 11149.37130392
0.21100001 267492.13688110 12759.37553241
0.21200001 264048.60809283 9279.98877013
0.21300001 260646.08507027 9203.41369893
0.21400001 257285.54540755 9127.20515484
0.21500001 253966.47888165 10697.06859623
0.21600001 250686.30867312 8159.83973310
0.21700001 247445.74638942 9709.77154739
0.21800001 244244.15326422 8023.42081408
0.21900001 241079.86571152 11137.89032249
0.22000001 237953.28554101 9465.78214639
0.22100001 234865.42210492 8603.12081849
0.22200001 231814.25103962 10080.44318311
0.22300001 228797.60384628 9993.87980857
0.22400001 225816.56816759 8383.44048964
0.22500001 222872.75556370 7555.38677088
0.22600001 219961.38752843 8987.62271942
0.22700001 217086.10829242 8166.77978016
0.22800001 214243.36168170 8095.18580396
0.22900001 211432.83475308 8023.87645834
0.23000001 208656.07676184 9398.91342223
0.23100001 205912.15152559 9315.46617557
0.23200001 203198.27758155 9942.49219228
0.23300001 200516.41345612 7038.12644517
0.23400001 197866.00069964 7672.25453999
0.23500001 195244.10668674 7602.80587397
0.23600001 192653.50784809 9588.36553910
0.23700001 190092.21201303 7464.92151883
0.23800001 187559.95376359 10086.03699069
0.23900001 185056.00137133 7994.41963737
0.24000001 182580.38068802 7920.33728888
0.24100001 180133.57093971 8500.50361473
0.24200001 177713.68880304 7125.43068961
0.24300001 175321.27055382 8341.78644754
0.24400001 172955.05721451 9534.14797995
0.24500001 170615.27651790 8184.41520172
0.24600001 168301.96670717 8729.82342607
0.24700001 166014.39057666 8028.45630808
0.24800001 163752.03833751 7950.98059761
0.24900001 161513.88943258 6662.44825428
0.25000001 159301.63962105 8996.56052321
0.25100001 157112.33942481 7126.61605346
0.25200001 154949.17583138 7056.38580120
0.25300001 152809.36373576 8150.85184729
0.25400001 150692.62330590 6916.79173698
0.25500001 148598.85491214 6847.43555832
0.25600001 146528.74412348 6778.42002386
0.25700001 144480.34528095 6709.66755230
0.25800001 142455.52128232 10515.35480098
0.25900001 140452.61280257 6573.18259017
0.26000001 138471.45278911 7047.50492316
0.26100001 136511.48057141 6974.37187239
0.26200001 134574.06016235 8494.31507937
0.26300001 132657.07184677 6303.86435244
0.26400001 130761.19430224 8316.41235114
0.26500001 128886.66764683 7713.86742367
0.26600001 127031.69263847 6105.14343710
0.26700001 125198.35978541 6542.86659200
0.26800001 123385.33720293 5476.45845090
0.26900001 121591.21117502 7879.11085699
0.27000001 119817.79291848 5844.71221515
0.27100001 118063.45009308 4816.98899175
0.27200001 116330.02221600 4763.71463518
0.27300001 114614.86906083 6594.93987786
0.27400001 112917.16133112 5123.61643787
0.27500001 111241.33563415 5065.93066453
0.27600001 109581.86881314 5919.06492407
0.27700001 107942.75839830 6301.69853353
0.27800001 106321.20083846 4894.49671224
0.27900001 104719.34004216 5277.85498791
0.28000001 103134.03027100 4781.80953983
0.28100001 101567.69976272 5585.20807429
0.28200001 100019.90340391 5095.01412054
0.28300001 98489.40985098  5873.90868153
0.28400001 96976.42812243  5389.46524799
0.28500001 95481.46645630  5325.00163631
0.28600001 94003.78610725  4856.23582016
0.28700001 92543.48965111  6396.60630745
0.28800001 91099.85086544  5528.85021072
0.28900001 89674.86112796  4290.94230808
0.29000001 88265.55341301  3852.79158885
0.29100001 86873.96312578  4185.58774152
0.29200001 85499.08704679  3757.68505358
0.29300001 84140.88721538  4081.67463203
0.29400001 82798.68312454  3663.84190169
0.29500001 81474.13665332  4702.68739024
0.29600001 80165.32849570  3928.50210890
0.29700001 78872.88364865  4230.74167919
0.29800001 77596.60965399  4524.27054005
0.29900001 76337.03363766  5839.78334973
0.30000001 75092.89945655  3729.48902806
0.30100001 73865.69066277  6692.23189086
0.30200001 72652.60300290  4622.88534793
0.30300001 71456.82316168  5865.17632278
0.30400001 70276.64462536  3215.15664382
0.30500001 69111.79126051  3172.23136904
0.30600001 67961.54218915  4381.48083237
0.30700001 66828.01512756  4322.43622309
0.30800001 65709.21220261  4263.87098169
0.30900001 64605.87289463  3905.42520138
0.31000001 63517.97388164  3555.73634624
0.31100001 62444.14560727  3214.62476806
0.31200001 61386.17102737  3170.28895281
0.31300001 60342.40775974  3694.76580206
0.31400001 59314.80163479  2802.62450994
0.31500001 58300.81722816  3592.49652769
0.31600002 57301.94470777  3542.11987982
0.31700002 56317.47371208  3492.24671024
0.31800002 55347.56566180  3178.05737078
0.31900002 54392.05963343  2610.81898602
0.32000002 53451.15305066  3088.40776950
0.32100002 52523.78188912  3551.65829951
0.32200002 51611.66921011  3750.87823745
0.32300002 50712.09127829  2957.52930339
0.32400002 49827.09118394  4372.32745843
0.32500002 48955.71668327  2633.32812509
0.32600002 48098.65839514  3067.01109780
0.32700002 47254.59731201  2789.91155741
0.32800002 46424.87101133  2291.06749290
0.32900002 45607.86060783  3386.38381049
0.33000002 44805.34231763  2447.04388655
0.33100002 44013.49073820  2191.87194256
0.33200002 43238.04519129  2807.66259745
0.33300002 42474.07872343  2553.54173378
0.33400002 41723.61428832  2306.27288900
0.33500002 40985.00071517  2272.20854725
0.33600002 40260.26340463  2645.70333493
0.33700002 39547.25816368  2005.04608385
0.33800002 38847.61821080  2765.56207140
0.33900002 38159.61189992  2919.21044859
0.34000002 37484.49338643  2492.53150577
0.34100002 36821.29640745  3588.97193080
0.34200002 36170.90518019  2233.19179159
0.34300002 35531.51252725  2750.13919985
0.34400002 34905.25154378  1986.98153823
0.34500002 34290.01771569  1957.61720410
0.34600002 33687.47797064  2104.11997370
0.34700002 33094.71318699  1900.29852120
0.34800002 32515.20626088  2212.82246689
0.34900002 31946.25370876  2012.61407897
0.35000002 31388.50884211  2974.68912385
0.35100002 30842.74390283  1791.34665072
0.35200002 30306.43124761  2246.61585479
0.35300002 29781.69457283  2530.25289075
0.35400002 29268.15117434  1714.38203624
0.35500002 28765.20230387  1689.66806336
0.35600002 28271.84345729  1968.14447550
0.35700002 27789.54900435  2089.21839310
0.35800002 27318.09251533  1618.18728679
0.35900002 26856.47634122  1885.32472845
0.36000002 26405.12238340  1429.83744479
0.36100002 25963.09478009  2114.69417000
0.36200002 25532.11864103  1807.29110361
0.36300002 25109.69428594  2056.48405943
0.36400002 24696.97083074  2028.23882555
0.36500002 24293.59107299  1733.83367701
0.36600002 23899.98888713  1841.97223078
0.36700002 23514.97097037  1817.23704267
0.36800002 23140.66375693  1408.91937958
0.36900002 22774.14426603  1895.94759996
0.37000002 22416.25311184  1247.46454477
0.37100002 22066.98810852  1847.00699218
0.37200002 21727.29335520  1701.89896913
0.37300002 21395.42465604  1680.39673209
0.37400002 21071.94339105  1422.35624627
0.37500002 20757.19613319  1404.84710084
0.37600002 20450.62970887  1619.07643075
0.37700002 20151.55387811  1828.14905442
0.37800002 19860.31693443  1354.87088545
0.37900002 19577.43666027  1227.50533675
0.38000002 19302.17284579  1323.74307647
0.38100002 19033.51917742  1199.68277059
0.38200002 18773.30251964  1294.23153702
0.38300002 18519.62065139  1280.07624007
0.38400002 18274.01586307  1794.05159235
0.38500002 18034.22050171  1670.69026643
0.38600002 17802.56445848  1343.47059051
0.38700002 17577.11646054  1227.58587176
0.38800002 17358.43922189  1316.72446956
0.38900002 17145.83184359  1203.63745244
0.39000002 16940.91045298  1092.94288965
0.39100002 16741.16507443  1082.81860831
0.39200002 16548.31133628  975.52299949
0.39300002 16361.29639235  1063.64792886
0.39400002 16181.56030502  1054.63324285
0.39500002 16006.42281830  1236.01602859
0.39600002 15837.29002736  1697.59919846
0.39700002 15673.76948070  1029.29649056
0.39800002 15516.03789064  1207.22538528
0.39900002 15363.66109276  921.81970924
0.40000002 15216.44483325  915.26920008
0.40100002 15074.81403720  1363.51699427
0.40200002 14938.50552569  1264.24578254
0.40300002 14806.58500070  1166.46282162
0.40400002 14680.12489798  1070.18115577
0.40500002 14558.54028786  1241.26120375
0.40600002 14441.72010209  1058.00046481
0.40700002 14329.25209142  964.64529650
0.40800002 14221.73200787  1221.50462003
0.40900002 14118.26700780  1215.58284697
0.41000002 14019.51448496  950.73341985
0.41100002 13924.87456546  860.55728892
0.41200002 13834.03077759  1114.12372146
0.41300002 13747.89090713  939.11847236
0.41400002 13665.33201049  935.73365376
0.41500002 13586.85667613  932.60188644
0.41600002 13511.57474367  1098.69375234
0.41700002 13440.37954122  926.98302088
0.41800002 13373.78676562  1512.97656849
0.41900002 13308.75131448  922.29650980
0.42000002 13248.32525714  836.63177963
0.42100002 13191.46213609  918.52155206
0.42200002 13137.95152879  1000.32367680
0.42300002 13087.02663254  1082.03541325
0.42400002 13039.04167405  914.36284072
0.42500002 12994.67756789  996.43192312
0.42600002 12952.24927861  1244.38740841
0.42700002 12914.06866745  829.08324774
0.42800002 12877.46366604  911.53130880
0.42900002 12844.92893046  1159.89713738
0.43000002 12814.37178590  828.44917522
0.43100002 12785.44066617  1077.04557276
0.43200002 12760.18104575  911.65117801
0.43300002 12737.03487556  912.09911066
0.43400002 12716.22185392  1078.65356987
0.43500002 12697.57337704  1411.71627496
0.43600002 12681.42155785  1246.90083376
0.43700002 12666.88914764  915.43612208
0.43800002 12654.40850690  999.95140760
0.43900002 12644.63224884  834.54576797
0.44000002 12636.26352996  1421.01108260
0.44100002 12630.16859027  921.11823894
0.44200002 12625.62472827  1174.56192413
0.44300002 12623.01507372  1513.24711875
0.44400002 12622.42458649  926.80156918
0.44500002 12622.25389229  844.42882541
0.44600002 12624.07486029  931.08868545
0.44700002 12628.44593028  1018.35792808
0.44800002 12632.71498058  935.89473369
0.44900002 12640.03850769  1109.16343162
0.45000002 12648.15631880  941.21259707
0.45100002 12657.23908655  858.16085074
0.45200002 12667.72943351  860.77225580
0.45300002 12679.30797415  949.80700536
0.45400002 12692.33242678  1039.50207502
0.45500002 12706.43174983  1042.94396745
0.45600002 12721.42182660  872.05350754
0.45700002 12737.51163213  1225.09392684
0.45800002 12754.14323630  1404.99648550
0.45900002 12772.02958594  969.39709152
0.46000002 12791.39467373  1149.88247869
0.46100002 12810.40783041  1420.41808756
0.46200002 12831.24650893  1336.69516842
0.46300002 12852.67943468  1252.36514347
0.46400002 12874.09937969  987.76532172
0.46500002 12896.79703402  1712.82369527
0.46600002 12919.93066311  1267.05766018
0.46700002 12943.40375535  1272.07778137
0.46800002 12968.27034308  1003.54964806
0.46900002 12992.61792171  1007.57756758
0.47000002 13017.82754513  919.70955965
0.47100002 13043.66593332  1015.84075103
0.47200002 13069.92386160  927.31114193
0.47300002 13096.65865272  931.17247434
0.47400002 13123.09138924  1215.52639754
0.47500002 13150.21780584  1032.81815542
0.47600002 13178.17172641  1320.05752440
0.47700002 13205.45869873  1041.51457693
0.47800002 13233.23935930  1331.13161025
