# SAXS profile: number of points = 501, q_min = 0, q_max = 0.5, delta_q = 0.001
#    q    intensity    error
0.00000000 1664650.74656090 274.66737318
0.00100000 1664564.92681967 499.36948991
0.00200000 1664307.43463326 973.61988009
0.00300000 1663878.48189031 1397.65797458
0.00400000 1663277.94354108 1372.20435556
0.00500000 1662506.48808217 1795.50707820
0.00600000 1661563.92602627 2268.03485136
0.00700000 1660451.00850999 2191.79542232
0.00800000 1659167.53675403 2463.86389610
0.00900000 1657714.88935505 2983.88692839
0.01000000 1656092.46525958 3825.57375994
0.01100000 1654301.80618680 4168.84073310
0.01200000 1652342.83325988 3544.27553274
0.01300000 1650216.85906806 4158.54666826
0.01400000 1647924.11071282 5190.96117887
0.01500000 1645466.01315207 4738.94232890
0.01600000 1642842.31199103 7121.72174085
0.01700000 1640055.16752316 4870.96406605
0.01800000 1637105.04840459 5132.32455769
0.01900000 1633993.03703426 4901.97933229
0.02000000 1630719.66192731 6164.12060092
0.02100000 1627287.84802027 5370.05014194
0.02200000 1623696.10854823 7842.45256059
0.02300000 1619947.63998452 6998.17412328
0.02400000 1616042.86901058 8484.22544917
0.02500000 1611984.29235426 7544.08683276
0.02600000 1607772.25903348 7813.77353629
0.02700000 1603408.68800657 8754.61183749
0.02800000 1598893.98754852 8346.22699776
0.02900000 1594231.55645619 9326.25503348
0.03000000 1589421.89059579 11086.21819649
0.03100000 1584466.76795873 11408.16125423
0.03200000 1579367.30164041 10163.22905416
0.03300000 1574127.52208399 8830.85580600
0.03400000 1568746.04162083 11530.28393792
0.03500000 1563226.83574956 10129.71036343
0.03600000 1557570.54118489 9508.96859338
0.03700000 1551780.19258541 9729.66225748
0.03800000 1545857.23327008 10851.91827978
0.03900000 1539804.24656006 12010.47367937
0.04000000 1533621.31367439 10374.94866777
0.04100000 1527312.32610324 10584.27491065
0.04200000 1520879.04303669 11771.60433922
0.04300000 1514322.98144726 9994.53214148
0.04400000 1507647.16445350 12211.94259922
0.04500000 1500853.82289778 10355.89185918
0.04600000 1493943.50304593 14745.22306052
0.04700000 1486920.27839997 16058.73975358
0.04800000 1479785.64789704 10876.42501810
0.04900000 1472542.35607692 15461.69545851
0.05000000 1465192.08532740 12329.59197217
0.05100000 1457738.82961017 14781.47242083
0.05200000 1450181.43526692 16140.52012669
0.05300000 1442525.80170470 15189.79740007
0.05400000 1434772.43017830 13020.56041107
0.05500000 1426925.22847956 16780.64146972
0.05600000 1418984.77586665 13345.55243978
0.05700000 1410956.20221600 12275.31953227
0.05800000 1402838.76424029 17381.17310051
0.05900000 1394636.21571833 13806.89918047
0.06000000 1386352.39749622 17759.17504161
0.06100000 1377988.81913003 14096.82627846
0.06200000 1369547.76568905 18119.11778702
0.06300000 1361033.13172644 16985.69427812
0.06400000 1352443.57135890 21098.12069989
0.06500000 1343786.40765873 18624.88048138
0.06600000 1335061.90427396 17442.58459545
0.06700000 1326271.94883651 14880.77196235
0.06800000 1317420.20803429 14998.82977055
0.06900000 1308510.59350081 13739.36187502
0.07000000 1299542.35361878 19376.17739981
0.07100000 1290520.12523213 15331.37980585
0.07200000 1281445.70708876 15435.01426497
0.07300000 1272322.42133113 15535.05749236
0.07400000 1263153.41104081 19894.66715624
0.07500000 1253938.94870129 15724.39515376
0.07600000 1244682.41077023 20126.51552570
0.07700000 1235387.71429771 17344.84432201
0.07800000 1226055.79345810 17434.51420059
0.07900000 1216688.62642976 16060.29062216
0.08000000 1207291.45204399 17602.31019654
0.08100000 1197865.10377028 17680.48976119
0.08200000 1188410.83451358 14795.71558399
0.08300000 1178931.85491839 14854.54206913
0.08400000 1169431.60866369 14910.25371033
0.08500000 1159911.54978859 17955.43163365
0.08600000 1150374.44351752 15012.38719276
0.08700000 1140822.25293546 19576.51077964
0.08800000 1131256.84325611 18122.73548007
0.08900000 1121681.68383746 21199.78482028
0.09000000 1112098.84875117 21252.20999797
0.09100000 1102509.96960342 19779.02978393
0.09200000 1092916.91763112 16770.81088906
0.09300000 1083324.20628546 21384.82083699
0.09400000 1073730.34165546 18360.78970522
0.09500000 1064139.59672487 21453.05527832
0.09600000 1054553.70458362 18412.50854756
0.09700000 1044977.04745598 16897.27965175
0.09800000 1035408.90867120 16913.40531837
0.09900000 1025852.93693261 16926.57425532
0.10000000 1016308.79127369 23095.61836782
0.10100000 1006780.09361343 15403.73615675
0.10200000 997269.05822681 24652.49227893
0.10300000 987776.71747881 16950.24926929
0.10400000 978305.65720740 21571.64075626
0.10500000 968859.38963734 20026.32452603
0.10600001 959434.21114761 21558.48773889
0.10700001 950038.25280598 23085.93062956
0.10800001 940668.42563635 21531.90127614
0.10900001 931329.91325229 15366.94429192
0.11000001 922022.72391428 18422.01489092
0.11100001 912748.06070505 16867.58495584
0.11200001 903508.89161044 21440.26700726
0.11300001 894305.00420093 18351.13955019
0.11400001 885139.34814344 18322.38536927
0.11500001 876013.60018123 21339.69230526
0.11600001 866928.42730552 24343.35138510
0.11700001 857885.55239031 16703.03249167
0.11800001 848885.24444301 21213.64325776
0.11900001 839929.39870394 19654.34885542
0.12000001 831019.38853672 15083.00261242
0.12100001 822158.06962485 16550.04272119
0.12200001 813344.53055633 16506.82802530
0.12300001 804581.22621566 16461.73266396
0.12400001 795868.13139041 14922.52816668
0.12500001 787206.25866210 16366.01888876
0.12600001 778598.87801983 22248.46398784
0.12700001 770044.78540801 20698.80480723
0.12800001 761545.37516012 20630.26518538
0.12900001 753102.08449664 14685.49133984
0.13000001 744715.52760048 20487.12512995
0.13100001 736385.87435047 20412.61739920
0.13200001 728114.64262215 17431.06536608
0.13300001 719903.72701184 20258.09183314
0.13400001 711751.57490427 15854.26707845
0.13500001 703661.05594645 15790.15483992
0.13600001 695630.81947631 15724.73541570
0.13700001 687663.48692362 24198.87924590
0.13800001 679757.18340403 18424.81932500
0.13900001 671915.39442614 15521.24634320
0.14000001 664136.81598047 23879.04034473
0.14100001 656422.25147440 22370.87138532
0.14200001 648771.84374825 19482.61938666
0.14300001 641187.92825024 15234.62589381
0.14400001 633666.37425320 20673.36643517
0.14500001 626212.67149943 16456.86978331
0.14600001 618824.23807474 15009.58260257
0.14700001 611504.04442827 14932.92946942
0.14800001 604247.37379478 14855.42238560
0.14900001 597058.89390957 16120.59089614
0.15000001 589936.80526334 18706.89697755
0.15100001 582882.18395723 13289.71442130
0.15200001 575895.29584699 17181.83696235
0.15300001 568976.54718669 14457.69474626
0.15400001 562122.85164811 16990.16399285
0.15500001 555338.24429917 18192.88174182
0.15600001 548618.58968639 12919.96839687
0.15700001 541970.06836070 15413.62947165
0.15800001 535385.10828535 16599.61606587
0.15900001 528869.90483147 15231.45397808
0.16000001 522419.46443404 16401.35986009
0.16100001 516039.28268686 18809.63274183
0.16200001 509724.64570264 13709.04499332
0.16300001 503476.47810004 13624.07414055
0.16400001 497295.28103829 13538.86466543
0.16500001 491179.92231985 17122.53290045
0.16600001 485131.82211134 14583.06326118
0.16700001 479147.75167121 12074.52391221
0.16800001 473229.07366240 14395.62910052
0.16900001 467377.86697514 11918.13617062
0.17000001 461590.08535823 16575.70074791
0.17100001 455866.99084380 15289.77959490
0.17200001 450208.61969395 15187.78850259
0.17300001 444614.15014837 12764.87285357
0.17400001 439083.35518846 13831.12634163
0.17500001 433615.36490754 16026.42464387
0.17600001 428208.90983734 11368.94709313
0.17700001 422866.59786886 12419.59256599
0.17800001 417584.28920691 15696.99417269
0.17900001 412364.28853413 11133.83631631
0.18000001 407205.18196533 12161.18333383
0.18100001 402107.89186793 13173.05515984
0.18200001 397067.86094825 13079.41595748
0.18300001 392088.45236395 11903.80597610
0.18400001 387167.46111754 16115.84633034
0.18500001 382306.41556917 10666.34949828
0.18600001 377501.59603261 10588.92026897
0.18700001 372753.77404505 16818.65107951
0.18800001 368062.70210930 11478.03590757
0.18900001 363429.76230124 12429.29845796
0.19000001 358848.43847985 11309.10907303
0.19100001 354326.50526110 11225.06421706
0.19200001 349855.73566308 14179.65363643
0.19300001 345441.50924025 16083.75743023
0.19400001 341078.29117512 16960.11883011
0.19500001 336769.01517511 10891.11046542
0.19600001 332511.31761828 12773.42286993
0.19700001 328304.89487765 11700.78700639
0.19800001 324149.87562421 12578.63651805
0.19900001 320045.44140213 12481.77280457
0.20000001 315989.26407938 12385.19979093
0.20100001 311983.66980116 11343.72677010
0.20200001 308025.12540224 11255.23861416
0.20300001 304115.86970841 13028.32447409
0.20400001 300253.34895840 13849.18637530
0.20500001 296437.27489289 12823.87711801
0.20600001 292667.37650555 9996.05471704
0.20700001 288943.31376405 11719.54136024
0.20800001 285262.99032999 10731.59420350
0.20900001 281629.31019957 11532.72079784
0.21000001 278037.28909231 9679.86867734
0.21100001 274489.12038943 12220.25621743
0.21200001 270983.10700436 10389.49281370
0.21300001 267518.32552606 10304.80638643
0.21400001 264095.80321443 9368.79906196
0.21500001 260715.05936884 9291.88515520
0.21600001 257373.42139429 10890.75684120
0.21700001 254071.77577472 9969.77695277
0.21800001 250809.27513136 9886.90209314
0.21900001 247584.49606030 9804.34650755
0.22000001 244397.52947731 8911.95633377
0.22100001 241249.68490399 14460.50679689
0.22200001 238138.62837127 8762.31124524
0.22300001 235062.68634445 9477.72796157
0.22400001 232022.29416605 9396.90335807
0.22500001 229019.61807327 10869.27158774
0.22600001 226049.67300688 8466.69090285
0.22700001 223116.23291446 9156.69063182
0.22800001 220215.33045024 9833.71604629
0.22900001 217347.14796561 8248.32465537
0.23000001 214513.00400267 8919.45112825
0.23100001 211712.01370722 8841.09411053
0.23200001 208941.29540827 8032.74848187
0.23300001 206202.93989826 12304.13000565
0.23400001 203496.30669992 9325.21869556
0.23500001 200818.56218007 7819.87518114
0.23600001 198172.44060250 7749.53365629
0.23700001 195555.81118705 10472.01418437
0.23800001 192968.64922983 8993.30432273
0.23900001 190410.07280106 9596.66812309
0.24000001 187880.04703795 6791.86402168
0.24100001 185379.30949313 8075.12310348
0.24200001 182905.79321042 7333.60812567
0.24300001 180459.82862757 6604.83004020
0.24400001 178040.63966685 9160.19134417
0.24500001 175648.21334793 7777.70325497
0.24600001 173282.27214493 8346.14103268
0.24700001 170942.63314540 8266.78612998
0.24800001 168628.65239546 10707.07679037
0.24900001 166339.13505945 8109.03321777
0.25000001 164075.78263752 7412.94421026
0.25100001 161835.70182043 7340.86778186
0.25200001 159622.07050430 7874.95522089
0.25300001 157432.13001787 7797.61376869
0.25400001 155265.57894067 7126.69041055
0.25500001 153122.29908134 7643.86553179
0.25600001 151003.03271490 8149.63406120
0.25700001 148906.01027528 7491.46173140
0.25800001 146832.59874310 8556.67009660
0.25900001 144781.55447624 6211.12898091
0.26000001 142752.61912537 6706.51836383
0.26100001 140745.14161484 5531.28432718
0.26200001 138760.52343378 6568.92349018
0.26300001 136796.64707944 5958.86222874
0.26400001 134854.39112482 6432.55476103
0.26500001 132933.77560404 6895.27526686
0.26600001 131032.94734682 5772.65676852
0.26700001 129154.07243354 8826.38972777
0.26800001 127295.94802852 6677.30926981
0.26900001 125456.89570828 6605.30587161
0.27000001 123638.99871819 6533.70319645
0.27100001 121840.49756415 5965.31104304
0.27200001 120063.31286645 7374.88934183
0.27300001 118304.72417242 5348.55683295
0.27400001 116563.78926619 4808.25653478
0.27500001 114845.18242800 8082.80432180
0.27600001 113143.21565596 6581.54116619
0.27700001 111462.00349264 4647.96576562
0.27800001 109798.60156213 5514.08603142
0.27900001 108155.11053024 4996.76634298
0.28000001 106528.71080732 9429.38928339
0.28100001 104921.59546170 4882.00206789
0.28200001 103333.24614063 6141.09510879
0.28300001 101762.57235479 5635.61152374
0.28400001 100209.73384061 5997.55285423
0.28500001 98675.29482214  4656.48738305
0.28600001 97158.40095920  4182.66935927
0.28700001 95659.16341569  5372.21887171
0.28800001 94176.88099990  4899.08158150
0.28900001 92713.80812102  5646.27118183
0.29000001 91266.60464072  5975.68122171
0.29100001 89837.47093099  6689.29840216
0.29200001 88425.30252145  4663.55067573
0.29300001 87030.19700993  4989.44143076
0.29400001 85651.35871624  4927.09464338
0.29500001 84290.61083283  5239.50461739
0.29600001 82945.79713950  4434.28252499
0.29700001 81617.70380779  4013.14268620
0.29800001 80306.03458322  4322.07098587
0.29900001 79011.53394197  3911.07111527
0.30000001 77732.66881195  3860.59317930
0.30100001 76471.04912855  4156.96642742
0.30200001 75223.99985964  3760.82405102
0.30300001 73994.45021520  3374.14708955
0.30400001 72780.80279405  3662.69407401
0.30500001 71582.72777736  4271.34156869
0.30600001 70399.71139255  3566.09754942
0.30700001 69233.65923145  4478.03329109
0.30800001 68082.66473692  3471.19482595
0.30900001 66947.38332790  3424.35881935
0.31000001 65827.97555521  3070.87520504
0.31100001 64722.87086619  4543.54574992
0.31200001 63633.87679971  3585.13278864
0.31300001 62559.47590379  2946.55145458
0.31400001 61501.44440688  3777.72640156
0.31500001 60457.38616644  3152.24826397
0.31600002 59428.67412902  3108.41694749
0.31700002 58414.67655851  2786.38020377
0.31800002 57415.61999016  4121.00631992
0.31900002 56431.27518671  3792.18187210
0.32000002 55461.72978048  2937.53065691
0.32100002 54505.99638463  3422.43167504
0.32200002 53565.90565520  2854.79507707
0.32300002 52638.48507482  3069.87659493
0.32400002 51726.03913352  3278.13788531
0.32500002 50827.57606867  3479.65602243
0.32600002 49943.56206404  2694.70501877
0.32700002 49072.90527569  2655.82575928
0.32800002 48216.86043158  2855.40260997
0.32900002 47373.80242927  2345.00333129
0.33000002 46545.43170285  3235.37311087
0.33100002 45728.19943146  2732.71732743
0.33200002 44927.46728030  3366.19064538
0.33300002 44138.52112611  3095.87601839
0.33400002 43363.39890126  2832.71416737
0.33500002 42600.38470906  2576.47138922
0.33600002 41851.48301547  2961.82959327
0.33700002 41114.55711170  2709.86058756
0.33800002 40391.47614022  2464.68799080
0.33900002 39679.99712550  2023.67994924
0.34000002 38981.91673785  2193.31764913
0.34100002 38295.80551744  2161.03240769
0.34200002 37622.91811783  2129.26915172
0.34300002 36961.17577369  2670.07546434
0.34400002 36312.96403347  2255.03517328
0.34500002 35675.84549829  2221.89176286
0.34600002 35051.74216381  2189.33191924
0.34700002 34437.70589728  1797.64833298
0.34800002 33837.11280442  1948.51023313
0.34900002 33247.34403117  3316.42272418
0.35000002 32669.13164570  2924.05076644
0.35100002 32102.93882653  2034.04230039
0.35200002 31546.67215903  2171.51528092
0.35300002 31002.12021958  1646.21266163
0.35400002 30468.89503766  1784.71561136
0.35500002 29946.67703708  1599.15262952
0.35600002 29434.23882424  1576.20356369
0.35700002 28932.99780546  1864.44246689
0.35800002 28442.81102440  1684.80999083
0.35900002 27962.83806072  1962.99132484
0.36000002 27493.37676926  1935.39634934
0.36100002 27033.34549868  1467.91073011
0.36200002 26584.59446486  2171.29685576
0.36300002 26144.65358394  1998.49741462
0.36400002 25714.65827746  1689.45312885
0.36500002 25294.23509829  1527.51892994
0.36600002 24883.76838069  2054.77727137
0.36700002 24482.10869665  1351.41246407
0.36800002 24091.39394977  1733.49633377
0.36900002 23708.70626976  1447.41658633
0.37000002 23334.81780293  1818.01574114
0.37100002 22969.76325597  1409.88413544
0.37200002 22614.46863570  1265.27958010
0.37300002 22267.16626925  1249.18808688
0.37400002 21928.55183257  1603.52542872
0.37500002 21598.80267346  1339.98978134
0.37600002 21277.53259821  1323.56897797
0.37700002 20963.86025728  1188.65093290
0.37800002 20658.24700440  1409.30567740
0.37900002 20361.27025753  1624.82944352
0.38000002 20072.03551841  1491.25194948
0.38100002 19789.54343191  1133.94089237
0.38200002 19515.70143577  1233.29481066
0.38300002 19248.65898651  1441.33965319
0.38400002 18989.79918424  1315.99314581
0.38500002 18737.00258521  1627.30875162
0.38600002 18492.57130544  1288.19257816
0.38700002 18254.32310994  1274.88198640
0.38800002 18023.29572336  1787.82090398
0.38900002 17798.28253306  1457.67940852
0.39000002 17581.33412234  1134.25982464
0.39100002 17369.59075269  1021.33198464
0.39200002 17164.97928132  1011.87557657
0.39300002 16966.29353892  1002.70799566
0.39400002 16775.15589991  1689.67765807
0.39500002 16588.75567971  1083.90934746
0.39600002 16408.55944357  1172.55571339
0.39700002 16234.09238349  1066.09289733
0.39800002 16065.61681398  1249.98537543
0.39900002 15902.57283906  954.15441555
0.40000002 15744.94413610  1420.58765199
0.40100002 15593.07527234  1128.31498017
0.40200002 15446.59925063  1213.87105962
0.40300002 15304.70349870  1112.95809116
0.40400002 15168.39577696  1566.51614809
0.40500002 15037.18990669  1098.91789045
0.40600002 14910.78775199  1274.42508955
0.40700002 14789.05904607  1357.63568476
0.40800002 14672.20551940  1440.22376202
0.40900002 14559.70444119  895.42186556
0.41000002 14452.11419008  1069.16745844
0.41100002 14348.62960344  975.41988666
0.41200002 14249.16173221  1235.82985559
0.41300002 14154.56677569  1142.69822995
0.41400002 14063.60535119  1050.55136951
0.41500002 13976.88624356  959.37351722
0.41600002 13893.47327763  1129.74783310
0.41700002 13814.39167575  1472.47607849
0.41800002 13739.89359210  949.90758850
0.41900002 13667.17733549  1033.23865552
0.42000002 13599.19970409  1374.06320321
0.42100002 13534.92171512  1456.49299478
0.42200002 13474.08543687  940.42383763
0.42300002 13415.89760624  1023.90135383
0.42400002 13360.92912990  936.93519963
0.42500002 13309.54217683  1105.62372102
0.42600002 13260.30645325  1104.11946915
0.42700002 13215.38461345  933.27050563
0.42800002 13172.30582512  932.40171201
0.42900002 13133.23722792  931.80322548
0.43000002 13096.29929503  931.34336850
0.43100002 13061.14311251  1184.90695932
0.43200002 13029.72243235  1184.79271692
0.43300002 13000.57801160  930.97143553
0.43400002 12973.84600819  1015.85219058
0.43500002 12949.36369355  1016.26611083
0.43600002 12927.56167450  1016.88204950
0.43700002 12907.39714780  1017.61923936
0.43800002 12889.37561375  1188.27159414
0.43900002 12874.21780050  849.69841510
0.44000002 12860.57481846  1105.94518392
0.44100002 12849.26868619  1107.47852055
0.44200002 12839.60605378  853.19186271
0.44300002 12831.97215459  940.07032460
0.44400002 12826.44707172  856.16538261
0.44500002 12821.42939390  857.75366710
0.44600002 12818.55000069  1203.27734559
0.44700002 12818.23468187  1205.93957602
0.44800002 12817.99378783  1122.27949928
0.44900002 12820.89091895  865.41017804
0.45000002 12824.60642675  867.58466589
0.45100002 12829.43212605  1217.76975512
0.45200002 12835.77372338  1133.84812559
0.45300002 12843.15013584  962.08042227
0.45400002 12852.14113026  1140.30627583
0.45500002 12862.29686622  879.78114735
0.45600002 12873.41762917  970.72010233
0.45700002 12885.75666845  1239.35213511
0.45800002 12898.66749836  1154.49528916
0.45900002 12912.81539209  1158.27959557
0.46000002 12928.64252933  1072.81880793
0.46100002 12944.12974455  1166.13670396
0.46200002 12961.53894806  1260.25049165
0.46300002 12979.63595429  993.72097576
0.46400002 12997.78203980  1359.89301037
0.46500002 13017.28660942  1182.88089026
0.46600002 13037.20296891  1004.58172238
0.46700002 13057.54773941  916.63989475
0.46800002 13079.43834475  1012.15238428
0.46900002 13100.84973665  1108.33194025
0.47000002 13123.19976742  1112.58492901
0.47100002 13146.14594192  1023.82189448
0.47200002 13169.65290664  1027.82560981
0.47300002 13193.71896629  938.07346297
0.47400002 13217.49083298  941.74626649
0.47500002 13242.03383470  1323.67376486
0.47600002 13267.48612005  949.28867688
0.47700002 13292.29437350  1143.66906210
