# SAXS profile: number of points = 501, q_min = 0, q_max = 0.5, delta_q = 0.001
#    q    intensity    error
0.00000000 1646666.22097350 321.09991309
0.00100000 1646580.90070608 790.35885111
0.00200000 1646324.90396295 1037.18472234
0.00300000 1645898.45423380 1283.80084004
0.00400000 1645301.40735610 1727.56654337
0.00500000 1644534.42963748 1776.09725431
0.00600000 1643597.36121105 2933.82140920
0.00700000 1642490.92066362 2562.28594272
0.00800000 1641214.92133818 2437.20426109
0.00900000 1639770.74819314 2705.62185018
0.01000000 1638157.80393284 2702.96049320
0.01100000 1636377.57163036 4123.67166005
0.01200000 1634430.02534278 3505.85255807
0.01300000 1632316.46897528 3427.86473603
0.01400000 1630037.11728303 5501.37551471
0.01500000 1627593.42586440 5468.71415442
0.01600000 1624985.08624697 4143.71215517
0.01700000 1622214.25784293 6131.97016972
0.01800000 1619281.44621385 5999.43802818
0.01900000 1616187.74376196 5818.27614008
0.02000000 1612933.59783010 6096.88927559
0.02100000 1609521.99693055 6373.70739682
0.02200000 1605951.39382177 5540.53256040
0.02300000 1602225.06330818 8652.01573569
0.02400000 1598343.34877274 7192.54539744
0.02500000 1594308.76403142 6217.80446369
0.02600000 1590121.71547304 9015.99053911
0.02700000 1585784.04221708 7992.35193883
0.02800000 1581296.15652889 7566.50245599
0.02900000 1576661.49421521 8513.97245967
0.03000000 1571880.52496906 8771.09373249
0.03100000 1566954.95081584 12786.35298700
0.03200000 1561886.03981565 7731.33625318
0.03300000 1556677.66660770 7939.05646569
0.03400000 1551328.47309026 9773.36983142
0.03500000 1545842.50880142 14190.83488610
0.03600000 1540220.28395655 12822.33445651
0.03700000 1534464.91058823 9621.09543434
0.03800000 1528577.83986795 11624.83501019
0.03900000 1522561.58804837 12789.51793189
0.04000000 1516416.21553228 15854.13226805
0.04100000 1510145.80529265 9513.91901447
0.04200000 1503751.70764458 11639.03875714
0.04300000 1497235.76560760 12846.28346521
0.04400000 1490600.98112065 10061.55708984
0.04500000 1483849.55754879 11262.41866510
0.04600000 1476981.79730903 11453.99437059
0.04700000 1470002.11359190 11642.41728111
0.04800000 1462911.72753384 11827.64186743
0.04900000 1455713.42016583 14193.20650728
0.05000000 1448409.20211787 17728.52945947
0.05100000 1441002.54220226 15735.74849388
0.05200000 1433492.51733988 13675.51925272
0.05300000 1425885.09416597 13859.60376140
0.05400000 1418180.69674547 17549.98694065
0.05500000 1410383.05641892 21324.99280785
0.05600000 1402493.24079887 13190.44954523
0.05700000 1394515.76900169 12132.28775663
0.05800000 1386450.23229054 12270.08512869
0.05900000 1378300.34458857 21087.99625714
0.06000000 1370069.90525479 17550.59630626
0.06100000 1361760.29925357 18996.55706232
0.06200000 1353374.01091416 12789.38500096
0.06300000 1344914.80609533 18075.65583905
0.06400000 1336381.25986913 14332.68968239
0.06500000 1327780.97803955 18403.04521648
0.06600000 1319113.79872631 14582.80372723
0.06700000 1310381.82313169 21385.43235433
0.06800000 1301588.78405180 13471.44454552
0.06900000 1292738.39596138 13573.75379310
0.07000000 1283830.05696160 19141.90704568
0.07100000 1274868.60433817 19276.01420044
0.07200000 1265855.20436802 13861.11513718
0.07300000 1256793.64619258 15345.45113903
0.07400000 1247686.88307208 15440.12590161
0.07500000 1238535.33421448 16943.16416622
0.07600000 1229342.21246574 18458.57418552
0.07700000 1220111.48449440 17130.36604552
0.07800000 1210844.05574693 20087.90382689
0.07900000 1201541.88021675 15860.35356277
0.08000000 1192210.46785015 18830.96522307
0.08100000 1182849.94927351 18913.77157628
0.08200000 1173462.40015179 17531.52908094
0.08300000 1164050.30875090 16133.73803648
0.08400000 1154617.73650491 17665.65219773
0.08500000 1145165.66624904 16249.90156693
0.08600000 1135697.12936892 20749.18752778
0.08700000 1126213.65756264 14866.02097790
0.08800000 1116717.63792606 26834.72609962
0.08900000 1107212.21965721 17936.83880093
0.09000000 1097699.52304214 16481.95911273
0.09100000 1088181.17313549 21023.66125269
0.09200000 1078659.19418987 22570.94469896
0.09300000 1069137.81031491 19597.29698399
0.09400000 1059615.74608307 22649.28763698
0.09500000 1050097.06144808 25706.37727252
0.09600000 1040583.64926977 19682.64065118
0.09700000 1031079.74871742 22735.30952807
0.09800000 1021584.90175247 22755.80475646
0.09900000 1012102.14448541 22772.29932173
0.10000000 1002631.96067941 15189.87491863
0.10100000 993177.41840077 18234.73825945
0.10200000 983740.46629712 16718.67001110
0.10300000 974322.91558165 19759.26965749
0.10400000 964926.97264780 21276.64074785
0.10500000 955555.79936066 16712.67171714
0.10600001 946205.95034511 15186.60621762
0.10700001 936885.68230314 19730.81339779
0.10800001 927591.78417166 18199.35166194
0.10900001 918329.45859625 16667.68045800
0.11000001 909098.63614306 15136.49300425
0.11100001 899900.50110797 16630.16204331
0.11200001 890738.00397634 18117.61185380
0.11300001 881611.23301701 15075.55279436
0.11400001 872522.62674027 18061.21922393
0.11500001 863474.10712771 19531.78522294
0.11600001 854466.36045951 19494.65093192
0.11700001 845501.17814519 20951.52018115
0.11800001 836578.63468713 23892.68693197
0.11900001 827700.58351686 16388.47232556
0.12000001 818868.42878099 22293.69402370
0.12100001 810085.18635529 16307.01556952
0.12200001 801349.83681332 19220.37674146
0.12300001 792664.86827370 16217.92396898
0.12400001 784030.09824325 19110.73454513
0.12500001 775446.60470181 16121.53567141
0.12600001 766917.69963539 17531.73943982
0.12700001 758442.24484350 20386.92850216
0.12800001 750021.42261388 17415.49825387
0.12900001 741656.63029270 14462.30497235
0.13000001 733348.74827363 25938.54644905
0.13100001 725097.72108015 15792.62910955
0.13200001 716905.24079748 14302.26022812
0.13300001 708773.02281003 17095.60611612
0.13400001 700699.59108287 14189.16738839
0.13500001 692687.56086199 18370.07498018
0.13600001 684736.04116176 15478.45894028
0.13700001 676847.25841343 22417.18225570
0.13800001 669019.76720799 15343.96908447
0.13900001 661256.39346291 15275.02340934
0.14000001 653556.18804663 15204.98543198
0.14100001 645920.01325095 16509.71631734
0.14200001 638347.97845237 16431.07774034
0.14300001 630842.10377392 13626.19008423
0.14400001 623398.91741302 14914.81980264
0.14500001 616023.22991417 18887.27312012
0.14600001 608712.95540102 20133.18194966
0.14700001 601470.57342476 14687.91209596
0.14800001 594291.74503742 15938.90535388
0.14900001 587180.72957843 18496.19385439
0.15000001 580136.29273558 14454.09641549
0.15100001 573159.21343387 18295.24295607
0.15200001 566249.40232527 12995.42439658
0.15300001 559407.71736430 16799.01454518
0.15400001 552630.97065402 14133.53774145
0.15500001 545923.21427393 19161.90572532
0.15600001 539280.15479762 13970.05306935
0.15700001 532707.98751527 15150.21587998
0.15800001 526199.19541018 12549.85140287
0.15900001 519760.22135970 13721.67049157
0.16000001 513385.77140527 12398.26696467
0.16100001 507081.31358706 17250.90710255
0.16200001 500842.14508200 14694.70923038
0.16300001 494669.28337445 14602.63793457
0.16400001 488563.06664475 12091.93647031
0.16500001 482522.75585304 14417.78062557
0.16600001 476549.22856534 11937.55873917
0.16700001 470639.59136430 14232.14191482
0.16800001 464795.19258747 11782.55868842
0.16900001 459017.90601337 12875.45287163
0.17000001 453303.75315199 19766.31108955
0.17100001 447654.07822860 12704.42334005
0.17200001 442068.93514971 12618.85834975
0.17300001 436547.44562991 11393.88886901
0.17400001 431089.27289293 13579.31273742
0.17500001 425693.75232083 14609.81026964
0.17600001 420359.46002101 12276.59860973
0.17700001 415089.11268387 12191.16781532
0.17800001 409878.29073822 13206.27915135
0.17900001 404729.64737545 13113.24119435
0.18000001 399641.57690332 10850.26932544
0.18100001 394615.06207069 15082.18838477
0.18200001 389645.41007104 12834.92041403
0.18300001 384736.14185233 12742.46162009
0.18400001 379885.03524095 11595.99124853
0.18500001 375093.50238387 10465.10921090
0.18600001 370357.81728742 11427.39099227
0.18700001 365678.96548989 10312.14731401
0.18800001 361056.49007652 14330.33276819
0.18900001 356491.71940458 11176.01593137
0.19000001 351978.53089392 12101.02246389
0.19100001 347524.16966773 12010.43587121
0.19200001 343120.70101074 16886.68609816
0.19300001 338773.42737123 16759.12224397
0.19400001 334476.86939194 9783.44889202
0.19500001 330233.98709426 10679.76764730
0.19600001 326042.28023780 11561.45980358
0.19700001 321901.39649119 13384.66069863
0.19800001 317811.59598092 10435.34424719
0.19900001 313771.97271633 9413.15962636
0.20000001 309780.55212139 12141.84931424
0.20100001 305839.07892885 16680.46415314
0.20200001 301944.43902092 17468.99634520
0.20300001 298098.80761584 9121.82394418
0.20400001 294299.37381094 10859.64740691
0.20500001 290546.14343789 12569.02675922
0.20600001 286838.62648783 11578.24170546
0.20700001 283176.65010355 13252.66785129
0.20800001 279558.15962237 9640.56359029
0.20900001 275985.85990925 8693.55499810
0.21000001 272454.76579295 9485.51311948
0.21100001 268967.23408464 11119.10598270
0.21200001 265521.59593940 12725.12308697
0.21300001 262116.55574843 9255.33602103
0.21400001 258753.58818753 11682.72505899
0.21500001 255431.97124636 11586.39476351
0.21600001 252149.10403337 9028.19909676
0.21700001 248905.84833961 11394.91027573
0.21800001 245701.31936667 12914.06195650
0.21900001 242534.07242253 8803.98724520
0.22000001 239404.54280728 8729.88706624
0.22100001 236313.50649297 12590.78422128
0.22200001 233259.00744315 8582.76558470
0.22300001 230239.04092437 12377.65142538
0.22400001 227254.66918228 7669.84544758
0.22500001 224307.20006629 12926.82455109
0.22600001 221392.12582779 7538.40224091
0.22700001 218513.16101188 9715.09559801
0.22800001 215666.59468468 9630.59224108
0.22900001 212852.13324892 7343.39894436
0.23000001 210071.46068936 9462.66939426
0.23100001 207323.51797932 9379.31639696
0.23200001 204605.44430222 10011.34486318
0.23300001 201919.26490607 11339.78645343
0.23400001 199264.55650964 9833.70632884
0.23500001 196638.25780533 9049.29305220
0.23600001 194043.23971046 8277.88499757
0.23700001 191477.40074611 7519.31788295
0.23800001 188940.50430622 9482.92435966
0.23900001 186431.87019005 6711.54764429
0.24000001 183951.46019496 6649.84560059
0.24100001 181499.76668039 9223.81857899
0.24200001 179075.03264912 9138.19934834
0.24300001 176677.58161536 7113.03977230
0.24400001 174306.26788600 7686.90677739
0.24500001 171961.45976076 8248.99161494
0.24600001 169642.86489797 6285.26844180
0.24700001 167349.97102715 7470.50306005
0.24800001 165082.43928696 7398.99527886
0.24900001 162838.94623748 9770.33723646
0.25000001 160621.27616534 6047.39133372
0.25100001 158426.44515311 7186.22389212
0.25200001 156257.77009214 7115.97918665
0.25300001 154112.39935687 7046.01923195
0.25400001 151989.95474917 6394.97764863
0.25500001 149890.45180889 5755.79362178
0.25600001 147814.53995267 6837.90094173
0.25700001 145760.47446712 6205.02369165
0.25800001 143729.61329612 7259.06446298
0.25900001 141720.80064918 6632.53378420
0.26000001 139733.72442039 6017.63312689
0.26100001 137767.61993291 7038.54803541
0.26200001 135824.24418097 5894.09335512
0.26300001 133901.05655589 6362.97850862
0.26400001 131999.10243472 6821.05394107
0.26500001 130118.35459898 6749.23937242
0.26600001 128257.15312737 5650.36914840
0.26700001 126417.51394760 5081.98430117
0.26800001 124598.12154332 5530.28788640
0.26900001 122797.60918100 6962.62477004
0.27000001 121017.80565134 6887.12364553
0.27100001 119257.04673976 4865.68773724
0.27200001 117517.11862905 5293.55885915
0.27300001 115795.46511187 6186.95199372
0.27400001 114091.21243605 7530.02037714
0.27500001 112408.80644387 5584.46976842
0.27600001 110742.52699168 6902.02832140
0.27700001 109096.94910121 5914.14589067
0.27800001 107468.62614891 6296.58710406
0.27900001 105859.94926387 5335.34169541
0.28000001 104267.97282943 7031.83242042
0.28100001 102694.83412791 6950.38670273
0.28200001 101140.09587266 4722.73700030
0.28300001 99602.78468919  4243.07882859
0.28400001 98082.84951581  4612.34621679
0.28500001 96580.95168941  5386.31993066
0.28600001 95096.42254870  4503.29130294
0.28700001 93629.06992360  4044.77601215
0.28800001 92178.33255308  5993.89635797
0.28900001 90746.34917486  4736.95965115
0.29000001 89329.97887430  4679.10451492
0.29100001 87931.29933124  3851.39109301
0.29200001 86549.29242624  3803.84158219
0.29300001 85183.95300279  5259.25750734
0.29400001 83834.54177937  5564.51797401
0.29500001 82502.82400342  5494.68833873
0.29600001 81186.76511332  3978.55761271
0.29700001 79887.06676709  4642.23766959
0.29800001 78603.60969173  4935.52088618
0.29900001 77336.75983270  5916.26240727
0.30000001 76085.25646352  4809.34928873
0.30100001 74850.62708791  3729.80692436
0.30200001 73630.23218317  4015.79305338
0.30300001 72427.00631579  3302.67164435
0.30400001 71239.46092734  3585.12604089
0.30500001 70067.21032899  3859.30212763
0.30600001 68909.46547941  3490.60913911
0.30700001 67768.48828595  4070.17559915
0.30800001 66642.22552513  3397.75402926
0.30900001 65531.30335846  3961.36747557
0.31000001 64435.93181246  3306.52999750
0.31100001 63354.57011662  3557.99282620
0.31200001 62289.10153489  2924.47345552
0.31300001 61237.82716125  3749.59233461
0.31400001 60202.58548543  3129.02952875
0.31500001 59180.97072839  3085.69595988
0.31600002 58174.44579668  3319.43403433
0.31700002 57182.27598040  3273.11363209
0.31800002 56204.80080769  3227.27981518
0.31900002 55241.69291198  2916.76152386
0.32000002 54293.08134062  2614.21199033
0.32100002 53357.91678105  3350.34375332
0.32200002 52438.26927238  2794.69769320
0.32300002 51530.83093074  3506.15790255
0.32400002 50638.19116963  3209.19551734
0.32500002 49759.12526410  3649.83201095
0.32600002 48894.28230289  2398.26466052
0.32700002 48042.46114178  2836.42704012
0.32800002 47204.99718130  3261.39340969
0.32900002 46380.25788320  2295.82287393
0.33000002 45569.84821837  2941.30599254
0.33100002 44770.22119385  3121.37996945
0.33200002 43986.94722116  2416.86292952
0.33300002 43215.14620928  2598.09471314
0.33400002 42456.88143132  2560.15007155
0.33500002 41710.46600081  2522.64910319
0.33600002 40977.85350437  2485.71671129
0.33700002 40256.99536024  2857.44166599
0.33800002 39549.59642676  2212.20678089
0.33900002 38853.66403979  3170.45913579
0.34000002 38170.71337677  2538.16170619
0.34100002 37499.63530175  2308.47765850
0.34200002 36841.41374396  2085.03990958
0.34300002 36194.20764614  2614.66968419
0.34400002 35560.11144129  2576.33019594
0.34500002 34936.90222796  2719.83796726
0.34600002 34326.47902176  2858.70930832
0.34700002 33725.85032714  1760.48947046
0.34800002 33138.50391125  2081.76091430
0.34900002 32561.60118010  2735.17462867
0.35000002 31996.12991766  2189.97521594
0.35100002 31442.39355195  2324.22184144
0.35200002 30898.29349886  1963.27766190
0.35300002 30365.73828211  2418.63116872
0.35400002 29844.27806379  2224.89103503
0.35500002 29333.48133092  1879.68957271
0.35600002 28832.31594110  1698.36765095
0.35700002 28342.19963848  2435.16190828
0.35800002 27862.78471719  1800.49323371
0.35900002 27393.39057930  1627.16747748
0.36000002 26934.33605266  1604.34380297
0.36100002 26484.44148706  2013.34733721
0.36200002 26045.70878197  1560.00780139
0.36300002 25615.50123589  2237.77029396
0.36400002 25195.04074559  1793.25711001
0.36500002 24783.85704503  1496.69719784
0.36600002 24382.55966825  1610.71196798
0.36700002 23989.84403302  1456.66339868
0.36800002 23607.78916607  1698.69854991
0.36900002 23233.61906941  1676.30569526
0.37000002 22868.02479846  1272.60564032
0.37100002 22511.15197072  1632.95904131
0.37200002 22163.77737872  1364.06974339
0.37300002 21824.24368347  1346.77414150
0.37400002 21493.19245363  2055.28662574
0.37500002 21170.88699253  1671.65331612
0.37600002 20856.70962825  2005.05987509
0.37700002 20550.11313741  1281.71061710
0.37800002 20251.42106781  1496.68134492
0.37900002 19961.06467827  1479.11496273
0.38000002 19678.35182385  1462.00321801
0.38100002 19402.21707763  1111.74709122
0.38200002 19134.52816836  1209.20656488
0.38300002 18873.55595295  1304.54024927
0.38400002 18620.53193832  1182.86934742
0.38500002 18373.50142440  1595.73867431
0.38600002 18134.60421268  1157.98520686
0.38700002 17901.81433092  1041.88564342
0.38800002 17676.00903916  1443.95324682
0.38900002 17456.17122319  1429.66049091
0.39000002 17244.09135746  1314.77580784
0.39100002 17037.25099364  1602.86464942
0.39200002 16837.35229206  1091.81816111
0.39300002 16643.22708043  1573.78362729
0.39400002 16456.50938686  1560.07716379
0.39500002 16274.46938008  1643.39599586
0.39600002 16098.43501044  958.66185029
0.39700002 15928.03434328  950.90369535
0.39800002 15763.50395580  1037.79033210
0.39900002 15604.28848210  1123.50882394
0.40000002 15450.40404899  1022.27603234
0.40100002 15302.10930236  1291.80412851
0.40200002 15159.11254296  1282.91575529
0.40300002 15020.64109003  1001.27598250
0.40400002 14887.65774821  1175.75282637
0.40500002 14759.50022416  988.73896686
0.40600002 14636.27857363  1072.25381911
0.40700002 14517.49589921  1243.85910758
0.40800002 14403.52913830  972.02220995
0.40900002 14293.78834822  1054.88163008
0.41000002 14188.88182289  962.21906641
0.41100002 14088.03139935  957.70441991
0.41200002 13991.04643730  953.41990465
0.41300002 13898.96418648  1381.00114700
0.41400002 13810.40455961  859.69772457
0.41500002 13725.95041520  1027.79921579
0.41600002 13644.79925868  853.48223407
0.41700002 13567.81064875  1105.91229838
0.41800002 13495.41580078  933.00561560
0.41900002 13424.72040175  1099.48465300
0.42000002 13358.65057875  927.95870642
0.42100002 13296.23685958  1178.31256633
0.42200002 13237.24058566  1007.88354595
0.42300002 13180.84048655  1005.96179360
0.42400002 13127.54459010  836.88100727
0.42500002 13077.88413771  1002.81220320
0.42600002 13030.26260499  1001.50603128
0.42700002 12986.90419969  1083.88707587
0.42800002 12945.30348347  1166.24244609
0.42900002 12907.71580773  915.80247996
0.43000002 12872.22346677  998.62714387
0.43100002 12838.46119867  831.93232510
0.43200002 12808.37393076  915.09431885
0.43300002 12780.52450728  1164.81705879
0.43400002 12755.09138948  832.26975260
0.43500002 12731.79049666  999.19096553
0.43600002 12711.23363541  916.54354471
0.43700002 12692.22616893  1417.59480799
0.43800002 12675.45481217  918.14661283
0.43900002 12661.37967153  919.21620771
0.44000002 12648.88113748  1171.41293765
0.44100002 12638.63992091  1089.32442641
0.44200002 12630.05765079  923.19410774
0.44300002 12623.50268666  924.79785065
0.44400002 12619.07412457  926.55556151
0.44500002 12615.08718950  928.34431027
0.44600002 12613.23259814  1268.57592868
0.44700002 12613.92842468  1017.18723637
0.44800002 12614.73233155  1444.32384675
0.44900002 12618.56485622  1192.45443543
0.45000002 12623.30812915  1024.76020249
0.45100002 12629.16358788  941.88306502
0.45200002 12636.43686535  1030.37511083
0.45300002 12644.85303912  1033.33743933
0.45400002 12654.84165750  1036.43158087
0.45500002 12665.99187483  866.35388530
0.45600002 12678.13139904  1477.44611261
0.45700002 12691.46008685  871.90334929
0.45800002 12705.34664766  1399.62105304
0.45900002 12720.60713321  1492.12728744
0.46000002 12737.38515304  1056.94827009
0.46100002 12753.98240380  1237.39143146
0.46200002 12772.41548649  1419.27087613
0.46300002 12791.58539840  1068.35326311
0.46400002 12810.79385887  982.90820541
0.46500002 12831.40991224  1076.29871445
0.46600002 12852.39076131  1080.37201860
0.46700002 12873.97960143  1717.13148062
0.46800002 12896.97472825  1179.49287968
0.46900002 12919.54019601  1639.48972858
0.47000002 12943.07326453  1280.19943727
0.47100002 12967.22912230  1009.88785191
0.47200002 12991.98015299  1198.31534621
0.47300002 13017.29871677  1295.74197568
0.47400002 13042.36738254  1393.90308008
0.47500002 13068.19141805  1119.68269377
0.47600002 13094.97700948  1030.64021438
0.47700002 13121.12334429  1128.94150605
0.47800002 13147.84189677  1322.54147908
