# SAXS profile: number of points = 501, q_min = 0, q_max = 0.5, delta_q = 0.001
#    q    intensity    error
0.00000000 1646666.22097350 246.99993315
0.00100000 1646580.88217173 592.76913166
0.00200000 1646324.83438988 889.01543872
0.00300000 1645898.29215605 1283.80071361
0.00400000 1645301.12149304 1604.16865441
0.00500000 1644533.98945306 1776.09677891
0.00600000 1643596.72542807 2588.66494794
0.00700000 1642490.05786658 2562.28459676
0.00800000 1641213.79774606 2437.20259255
0.00900000 1639769.34073376 2705.61952787
0.01000000 1638156.05187004 2973.25336253
0.01100000 1636375.42600318 4123.66625307
0.01200000 1634427.51381102 4143.27392917
0.01300000 1632313.51444235 3770.64438467
0.01400000 1630033.69786692 4401.09117935
0.01500000 1627589.47956755 5078.07940237
0.01600000 1624980.62821380 5801.18110206
0.01700000 1622209.19998476 4379.96503644
0.01800000 1619275.77486651 5537.92339924
0.01900000 1616181.42366207 6787.96228567
0.02000000 1612926.61443924 7621.07859797
0.02100000 1609514.31546579 5842.53723003
0.02200000 1605942.98070127 8310.75530271
0.02300000 1602215.82513841 7498.37040296
0.02400000 1598333.31555206 8391.25028927
0.02500000 1594297.93817626 9326.64336428
0.02600000 1590109.97470802 6439.94569212
0.02700000 1585771.44629319 7326.26441743
0.02800000 1581282.57681856 8254.29542953
0.02900000 1576646.93356024 10642.36729017
0.03000000 1571865.01714812 8040.08993228
0.03100000 1566938.38777691 10529.82645037
0.03200000 1561868.37394172 9277.49856852
0.03300000 1556658.92195323 8732.85695475
0.03400000 1551308.57380837 10587.68150476
0.03500000 1545821.48460020 8347.43640231
0.03600000 1540198.13116021 9402.91002528
0.03700000 1534441.58691527 10495.58093990
0.03800000 1528553.15217186 11624.64726025
0.03900000 1522535.68609682 9135.21453963
0.04000000 1516388.95982534 13056.10954910
0.04100000 1510117.23835506 10465.11294703
0.04200000 1503721.79030662 12608.70779668
0.04300000 1497204.42509989 10869.70463077
0.04400000 1490568.33985503 11067.47043742
0.04500000 1483815.38131030 10238.32660676
0.04600000 1476946.11688054 12494.96472966
0.04700000 1469964.93969084 11642.12286380
0.04800000 1462873.06281713 12902.54101438
0.04900000 1455673.24495518 13101.05981442
0.05000000 1448367.42599385 11080.01132481
0.05100000 1440959.06467375 13487.37747364
0.05200000 1433447.54735332 11395.90853252
0.05300000 1425838.35614510 16169.00771245
0.05400000 1418132.28871580 15209.46950575
0.05500000 1410332.99775513 13031.47750717
0.05600000 1402441.47597661 14389.05021497
0.05700000 1394462.23679138 12131.82202638
0.05800000 1386394.89641089 14723.51448736
0.05900000 1378243.20601204 16125.44626349
0.06000000 1370011.02049060 13789.16156545
0.06100000 1361699.54278714 20262.09014355
0.06200000 1353311.41598440 17904.31087038
0.06300000 1344850.35354245 15492.67679717
0.06400000 1336315.00816848 15634.88632676
0.06500000 1327712.73658542 14458.79237777
0.06600000 1319043.62592347 18558.94468509
0.06700000 1310309.66234245 16038.19101764
0.06800000 1301514.81419419 14817.74685321
0.06900000 1292662.36997716 16287.54662428
0.07000000 1283752.02369272 16406.35163108
0.07100000 1274788.45908278 20651.57400441
0.07200000 1265772.94503215 18018.27871663
0.07300000 1256709.43166633 16739.37041413
0.07400000 1247600.55387755 22456.81102222
0.07500000 1238446.93250827 14118.29569235
0.07600000 1229251.77372091 18457.21624770
0.07700000 1220018.99716128 15701.64522969
0.07800000 1210749.31743683 14347.38008446
0.07900000 1201445.04766606 14417.34124822
0.08000000 1192111.45655273 14484.15487658
0.08100000 1182748.87365011 14547.81182845
0.08200000 1173358.96319401 20451.64768817
0.08300000 1163944.88979910 16132.27692974
0.08400000 1154509.96544204 17664.00330039
0.08500000 1145055.64309503 16248.34033830
0.08600000 1135584.84591787 14819.38293502
0.08700000 1126099.26506467 16350.96209654
0.08800000 1116601.02340856 19378.61167135
0.08900000 1107093.37408326 17934.91350255
0.09000000 1097578.40630400 14981.94594983
0.09100000 1088057.84523242 15015.19896964
0.09200000 1078533.56848075 18054.65278470
0.09300000 1069009.90994462 18087.64852624
0.09400000 1059485.57267883 18117.20414427
0.09500000 1049964.58230474 19655.33790460
0.09600000 1040448.78930337 18166.23671519
0.09700000 1030942.81126294 16670.34604184
0.09800000 1021445.45026598 22752.69847445
0.09900000 1011960.59349860 18215.29153950
0.10000000 1002487.89958173 15187.69239290
0.10100000 993031.06157166 18232.05114794
0.10200000 983591.87639429 16716.14472559
0.10300000 974171.93582886 18236.49949657
0.10400000 964773.61710232 18234.22222106
0.10500000 955400.30864726 18229.03874665
0.10600001 946048.15981344 15184.07367947
0.10700001 936725.44912413 19727.43888688
0.10800001 927429.39915118 18196.16566769
0.10900001 918164.75498355 21209.60683836
0.11000001 908931.57725594 15133.71147365
0.11100001 899731.26910390 15115.48603248
0.11200001 890566.37618303 16604.61086563
0.11300001 881437.35568116 21101.61128849
0.11400001 872346.35049206 19562.36783087
0.11500001 863295.54972071 22532.01490870
0.11600001 854285.55528232 19490.52586160
0.11700001 845318.04107035 16458.34303474
0.11800001 836393.21591359 20901.46745010
0.11900001 827512.86596531 22342.84843345
0.12000001 818678.45620724 14859.01468009
0.12100001 809893.07856491 19267.35724671
0.12200001 801155.37406400 17737.58081742
0.12300001 792468.17605181 19161.88139973
0.12400001 783831.35038101 19105.89006576
0.12500001 775245.54394052 16117.35561798
0.12600001 766714.44368338 17527.09300854
0.12700001 758236.74023197 18925.58992808
0.12800001 749813.68946713 15959.78513248
0.12900001 741446.69235059 21687.31677342
0.13000001 733136.65903886 15846.74963206
0.13100001 724883.53326011 14352.69463510
0.13200001 716688.84574669 17157.53177599
0.13300001 708554.47297258 14241.94557816
0.13400001 700479.05777000 15603.17174745
0.13500001 692464.86287330 15538.91225551
0.13600001 684511.34849721 18286.72153734
0.13700001 676620.33563893 15406.64576897
0.13800001 668790.72426855 16733.14471026
0.13900001 661025.41238188 16657.84117758
0.14000001 653323.14715964 23490.23486394
0.14100001 645684.98285494 16503.70894014
0.14200001 638110.97311220 16424.97722260
0.14300001 630603.09298131 17707.33568613
0.14400001 623157.97192105 14909.05518147
0.14500001 615780.35844949 17531.26763204
0.14600001 608468.09626293 16100.06658663
0.14700001 601223.70462403 16016.60024679
0.14800001 594043.09944085 15932.23667867
0.14900001 586930.31053699 19808.89891522
0.15000001 579883.86477936 14447.80717267
0.15100001 572904.93867945 15674.67986188
0.15200001 565993.27947018 12989.54637678
0.15300001 559149.82196920 12916.36149700
0.15400001 552371.14336106 17979.68156488
0.15500001 545661.73912232 12768.48529805
0.15600001 539017.05366061 13963.23743407
0.15700001 532443.07449856 22714.02263014
0.15800001 525932.69080430 13797.84479449
0.15900001 519491.98368334 16208.15065595
0.16000001 513115.76198524 14870.09548424
0.16100001 506809.57578116 12315.47327282
0.16200001 500568.76585522 14686.68828349
0.16300001 494394.40931469 13378.31334762
0.16400001 488286.67359651 15710.62446466
0.16500001 482244.74982675 14409.47380511
0.16600001 476269.71705884 11930.55697560
0.16700001 470358.62338399 13038.34165581
0.16800001 464512.67412216 21195.71432098
0.16900001 458733.89913946 14037.25797648
0.17000001 453018.44771674 17429.88559894
0.17100001 447367.34405970 15004.70142830
0.17200001 441780.85879153 12610.63520971
0.17300001 436257.95792163 15940.86653526
0.17400001 430798.34156370 15831.83980014
0.17500001 425401.62007295 15722.84462045
0.17600001 420065.91286622 11152.75051333
0.17700001 414794.23027449 13290.00776569
0.17800001 409582.45093030 14296.47612497
0.17900001 404432.52856949 10919.67878715
0.18000001 399343.32119874 10842.17168268
0.18100001 394315.54643457 15070.74089662
0.18200001 389344.86847586 17100.02743123
0.18300001 384434.37250304 13793.50593700
0.18400001 379582.23227426 12640.08893186
0.18500001 374789.69634316 14639.28623075
0.18600001 370052.92971845 12455.98220279
0.18700001 365373.04504307 11333.87239270
0.18800001 360749.54140756 12272.69997852
0.18900001 356183.95761666 12181.49192603
0.19000001 351669.75658428 13097.94070284
0.19100001 347214.47128282 9999.77724544
0.19200001 342810.30874245 14886.53836055
0.19300001 338462.00640125 12804.01830718
0.19400001 334164.70142321 11729.18157420
0.19500001 329920.98002788 12609.58045253
0.19600001 325728.61300194 10587.80906597
0.19700001 321586.92101383 11461.35840657
0.19800001 317496.42201323 14215.90296747
0.19900001 313456.18287949 10344.05452388
0.20000001 309464.06570129 17727.64984153
0.20100001 305522.04423572 11108.78205344
0.20200001 301626.78172401 12858.35031262
0.20300001 297780.68174737 14579.34286744
0.20400001 293980.69298914 9039.90673669
0.20500001 290226.88908169 9864.81242617
0.20600001 286518.80691948 17792.81875073
0.20700001 282856.47933997 10590.14708708
0.20800001 279237.44113693 13131.14129018
0.20900001 275664.85779097 8683.44343089
0.21000001 272133.34074612 8613.02064177
0.21100001 268645.41006892 10251.50933285
0.21200001 265199.46911385 10167.74812650
0.21300001 261794.15836890 12605.38932139
0.21400001 258430.97829188 10834.71927712
0.21500001 255109.04993117 10745.19369111
0.21600001 251825.92571287 11475.70797729
0.21700001 248582.51152750 8941.51336240
0.21800001 245377.83602473 13703.12590069
0.21900001 242210.52647012 9591.53730172
0.22000001 239080.81099066 8718.08218499
0.22100001 235989.75064006 9430.15088147
0.22200001 232935.06562229 10129.18180754
0.22300001 229915.17813980 8497.66538586
0.22400001 226930.68691475 11488.36656830
0.22500001 223983.33211470 8352.33884952
0.22600001 221068.27127893 9032.84999160
0.22700001 218189.40105412 9700.70122960
0.22800001 215342.90697931 9616.13796591
0.22900001 212528.61736672 8798.68517508
0.23000001 209748.09662328 7994.54908087
0.23100001 207000.34743219 9364.69616071
0.23200001 204282.64365703 7139.67873347
0.23300001 201596.59952090 9198.85327119
0.23400001 198942.03009839 9116.51896043
0.23500001 196316.11716735 9729.42722698
0.23600001 193721.41360773 7575.47623743
0.23700001 191155.83345863 7506.68993497
0.23800001 188619.34531989 9466.80538937
0.23900001 186111.09439046 9379.99960095
0.24000001 183631.03026578 7965.91446972
0.24100001 181179.76756278 9207.55622307
0.24200001 178755.62478554 7818.77139796
0.24300001 176358.47889474 7745.66475945
0.24400001 173987.69010643 8951.66707942
0.24500001 171643.46604392 6333.64419663
0.24600001 169325.25747002 6900.85119464
0.24700001 167032.97708667 6213.62704157
0.24800001 164766.03630808 6769.41292196
0.24900001 162523.24334559 6704.08410516
0.25000001 160306.14146093 7846.18446499
0.25100001 158112.11134207 7171.96570977
0.25200001 155943.95225908 6509.88059504
0.25300001 153799.34618799 5859.75536699
0.25400001 151677.60516895 6381.83553942
0.25500001 149578.75328669 8041.35415714
0.25600001 147503.67012136 5686.26675221
0.25700001 145450.53410638 6754.72312349
0.25800001 143420.31088722 7800.63107824
0.25900001 141412.38577223 6618.09996727
0.26000001 139426.23308587 5458.53728358
0.26100001 137460.91938148 5942.43582603
0.26200001 135518.48413117 7484.68623272
0.26300001 133596.15601101 8464.65284538
0.26400001 131695.08179545 7852.31962361
0.26500001 129815.29438120 5179.63049090
0.26600001 127955.09787700 6661.98248621
0.26700001 126116.33364913 6083.85222312
0.26800001 124298.05552504 7523.14016665
0.26900001 122498.39009786 5953.42204048
0.27000001 120719.72494729 7360.88557699
0.27100001 118960.00331053 6794.99571066
0.27200001 117221.09567710 4800.20409514
0.27300001 115500.61435665 6171.19811712
0.27400001 113797.44277266 7041.21710478
0.27500001 112116.20329488 5569.93324329
0.27600001 110451.14481096 5507.09434090
0.27700001 108806.65737903 6352.13295841
0.27800001 107179.44623345 4485.46003715
0.27900001 105571.96884439 5320.82748158
0.28000001 103981.23217069 5697.65188645
0.28100001 102409.38230147 4765.10878402
0.28200001 100855.87590241 6421.99820204
0.28300001 99319.79942515  8038.94494596
0.28400001 97801.08203639  5435.29539143
0.28500001 96300.55263532  5370.68207467
0.28600001 94817.24199552  5306.44719944
0.28700001 93351.19669527  4839.32626574
0.28800001 91901.74463405  4780.72898215
0.28900001 90471.20870262  4329.04754133
0.29000001 89056.14765393  6997.14185237
0.29100001 87658.79498240  4991.29202256
0.29200001 86278.20726217  5308.69834413
0.29300001 84914.29964236  4119.19287064
0.29400001 83566.26539432  3697.80741874
0.29500001 82235.97131218  3651.27729910
0.29600001 80921.32410382  3605.04515948
0.29700001 79623.04442466  4982.81035597
0.29800001 78341.03947348  4216.31494406
0.29900001 77075.65452709  4508.92600328
0.30000001 75825.53582018  4792.93234609
0.30100001 74592.48720112  3379.03983018
0.30200001 73373.54784050  4001.79348867
0.30300001 72171.88094167  3620.14171942
0.30400001 70985.84803695  4546.64378201
0.30500001 69815.04791258  3524.96193599
0.30600001 68658.86789261  4110.26332098
0.30700001 67519.46539967  3743.27933898
0.30800001 66394.71806851  3077.39532817
0.30900001 65285.36892924  3642.92375872
0.31000001 64191.63935603  4491.81017660
0.31100001 63111.89566385  4135.09159967
0.31200001 62047.96761037  3787.09788240
0.31300001 60998.29711819  3447.62391635
0.31400001 59964.55997422  2833.32559293
0.31500001 58944.57511127  3632.16489033
0.31600002 57939.72369621  3030.53739142
0.31700002 56949.24914355  3259.77517532
0.31800002 55973.40694609  3213.99317902
0.31900002 55011.97689932  3696.80502267
0.32000002 54064.87859993  3123.86883342
0.32100002 53131.46355080  2822.87479212
0.32200002 52213.46780656  4047.58821602
0.32300002 51307.75655110  2992.26850375
0.32400002 50416.70619633  3195.15890649
0.32500002 49539.38021311  2906.97096856
0.32600002 48676.19331668  2387.56739524
0.32700002 47826.01126928  2588.34385246
0.32800002 46990.35116131  2550.87133358
0.32900002 46167.30697454  2742.33816415
0.33000002 45358.54362870  2702.46215737
0.33100002 44560.61750525  2219.11885685
0.33200002 43779.11981920  2186.76713852
0.33300002 43009.09499137  3663.08479388
0.33400002 42252.47058705  2335.50542230
0.33500002 41507.88045519  2301.19700141
0.33600002 40776.95954361  2679.65802331
0.33700002 40057.83750207  2843.30544055
0.33800002 39352.19060190  2801.48258162
0.33900002 38658.03071746  2168.71562595
0.34000002 37976.92381631  2136.77171972
0.34100002 37307.54762900  2296.65274081
0.34200002 36651.03265706  2639.97400731
0.34300002 36005.62672397  3158.41372581
0.34400002 35373.31249015  2379.73971048
0.34500002 34751.92161109  1983.98729874
0.34600002 34143.22951202  2665.73277040
0.34700002 33544.46945536  1751.02138850
0.34800002 32958.76678264  1897.93067507
0.34900002 32383.69825722  1700.14423903
0.35000002 31819.99795499  1675.32297168
0.35100002 31268.04479803  2146.23869659
0.35200002 30725.74527379  1789.62111823
0.35300002 30195.01146924  2244.69725894
0.35400002 29675.27065899  1896.24988492
0.35500002 29166.25082446  2024.72122813
0.35600002 28666.91478651  1688.62469548
0.35700002 28178.63100297  1815.83106784
0.35800002 27700.95734095  2685.05392224
0.35900002 27233.41721610  1764.72551919
0.36000002 26776.13403033  1884.90604435
0.36100002 26328.05514155  2430.34288523
0.36200002 25891.05099714  1691.72135228
0.36300002 25462.74770441  1668.31930862
0.36400002 25044.08003521  1645.39613625
0.36500002 24634.72117867  1893.42475948
0.36600002 24235.15630286  1600.97450120
0.36700002 23844.29369129  2105.92811857
0.36800002 23464.01890986  1558.48020982
0.36900002 23091.71254692  1666.06713918
0.37000002 22727.91103620  1517.76997089
0.37100002 22372.81424219  1747.76433139
0.37200002 22027.19166955  1355.66357552
0.37300002 21689.50901577  1338.45966477
0.37400002 21360.26399500  1321.66639730
0.37500002 21039.72971504  1423.96897457
0.37600002 20727.42812061  1640.99056204
0.37700002 20422.59206947  1157.96102519
0.37800002 20125.64699415  1144.14308582
0.37900002 19837.11922342  1130.71584930
0.38000002 19556.23072452  1341.16636662
0.38100002 19281.93098934  1104.85469803
0.38200002 19016.00059351  1201.71621444
0.38300002 18756.84202669  1296.47298230
0.38400002 18505.57117539  1389.30582181
0.38500002 18260.40489388  1374.46074148
0.38600002 18023.27226750  1360.12630610
0.38700002 17792.24905048  1242.61073255
0.38800002 17568.27720370  1025.10902340
0.38900002 17350.17694418  1319.48101912
0.39000002 17139.92005926  1407.35890274
0.39100002 16934.94469605  1294.50723389
0.39200002 16736.79616199  1282.62443464
0.39300002 16544.48140853  1271.11256684
0.39400002 16359.51063738  1647.81178702
0.39500002 16179.21374612  1057.14987626
0.39600002 16004.97148183  1048.40570659
0.39700002 15836.33383538  1512.68667962
0.39800002 15673.65675499  1031.87524135
0.39900002 15516.22286644  930.97341609
0.40000002 15364.05544444  1108.97757452
0.40100002 15217.56301769  1284.66673082
0.40200002 15076.30728036  911.36281828
0.40300002 14939.56653176  905.33777472
0.40400002 14808.34268979  989.56754713
0.40500002 14682.03481691  1162.37675153
0.40600002 14560.50363822  1066.70254708
0.40700002 14443.55861858  1237.52416108
0.40800002 14331.27262241  1142.99070216
0.40900002 14223.30993789  962.20696289
0.41000002 14120.21064516  957.56213027
0.41100002 14021.08118424  1126.45371572
0.41200002 13925.88537254  948.97950368
0.41300002 13835.58162822  1116.94655777
0.41400002 13748.67725203  1454.95383914
0.41500002 13665.98154078  1279.13593283
0.41600002 13586.57407866  934.82427378
0.41700002 13511.29628464  1355.45330750
0.41800002 13440.70754650  1013.69821119
0.41900002 13371.70270776  1010.90077261
0.42000002 13307.29774025  1008.42707054
0.42100002 13246.71474220  922.36879121
0.42200002 13189.35989918  920.55141778
0.42300002 13134.72371175  1002.44216118
0.42400002 13083.15616311  1000.86149390
0.42500002 13035.18852914  1082.83316243
0.42600002 12989.25967892  1247.94318279
0.42700002 12947.64893643  1080.61083144
0.42800002 12907.76335385  830.61461118
0.42900002 12871.89670859  913.26111475
0.43000002 12838.11530183  995.98103231
0.43100002 12806.06127570  1161.76593398
0.43200002 12777.64123768  1576.82489166
0.43300002 12751.52655810  1079.16174375
0.43400002 12727.72705664  913.53265278
0.43500002 12706.15108094  830.98232007
0.43600002 12687.31298683  914.81874627
0.43700002 12670.02660459  832.42078737
0.43800002 12654.87606454  1083.32071684
0.43900002 12642.46629388  1001.28337793
0.44000002 12631.65340265  1002.70069462
0.44100002 12623.08133572  920.60136544
0.44200002 12616.18939748  838.34582519
0.44300002 12611.31430954  1427.85307379
0.44400002 12608.46684672  1009.93824228
0.44500002 12606.11510580  1012.01896865
0.44600002 12605.98196359  929.75424379
0.44700002 12608.27961590  1016.73171641
0.44800002 12610.77787027  1104.13670876
0.44900002 12616.32509161  1021.92238085
0.45000002 12622.63203941  1366.27375670
0.45100002 12630.11736764  1113.21859754
0.45200002 12639.05312498  1116.47081071
0.45300002 12649.12265224  947.54582279
0.45400002 12660.77419564  864.09787980
0.45500002 12673.55271872  1126.93236116
0.45600002 12687.30665291  1217.60087719
0.45700002 12702.23005177  959.90757051
0.45800002 12717.81450560  1576.11882638
0.45900002 12734.60653529  966.55668184
0.46000002 12753.01712015  1146.43252835
0.46100002 12771.25978469  973.55317953
0.46200002 12791.24659576  1154.85775363
0.46300002 12812.05918321  1070.06323370
0.46400002 12832.84328001  1521.65446405
0.46500002 12855.04843693  1437.70868533
0.46600002 12877.61129654  902.07671408
0.46700002 12900.75768805  996.19655589
0.46800002 12925.34170800  1000.22761548
0.46900002 12949.49459336  1460.70305936
0.47000002 12974.59471157  1099.98619178
0.47100002 13000.30004133  1196.54767252
0.47200002 13026.63952330  1016.66412978
0.47300002 13053.53417062  1113.72758823
0.47400002 13080.12467414  1025.15481993
0.47500002 13107.55867701  1216.64365407
0.47600002 13135.76780559  1409.79634656
0.47700002 13163.53164936  1038.20779039
0.47800002 13191.77080854  1042.61165527
