# SAXS profile: number of points = 501, q_min = 0, q_max = 0.5, delta_q = 0.001
#    q    intensity    error
0.00000000 1646666.22097350 321.09991309
0.00100000 1646580.84814916 987.94853235
0.00200000 1646324.69135761 963.09997494
0.00300000 1645897.97550336 1086.29270253
0.00400000 1645300.55235382 1604.16809950
0.00500000 1644533.09937230 1480.07984802
0.00600000 1643595.43594342 2243.50786140
0.00700000 1642488.31434523 3350.67630052
0.00800000 1641211.51561889 2437.19920359
0.00900000 1639766.41367725 2951.57967079
0.01000000 1638152.45564039 4324.72266963
0.01100000 1636371.11825356 3829.10858343
0.01200000 1634422.34456770 4143.26082514
0.01300000 1632307.46779710 5141.76875034
0.01400000 1630026.68834945 5134.58429592
0.01500000 1627581.43350623 4687.43473722
0.01600000 1624971.45148723 5386.78060249
0.01700000 1622198.89081718 5693.91836219
0.01800000 1619264.22923695 5537.88391318
0.01900000 1616168.51912969 5333.35635378
0.02000000 1612912.35052378 5080.67413398
0.02100000 1609498.56172890 5842.48004397
0.02200000 1605925.71328855 7756.62154759
0.02300000 1602196.98111378 9228.65503129
0.02400000 1598312.85822789 6593.04084082
0.02500000 1594275.57170848 6839.44251499
0.02600000 1590085.95422989 6439.84840918
0.02700000 1585745.41672454 7992.15726634
0.02800000 1581254.68414417 6878.45819147
0.02900000 1576617.02727953 12061.12081247
0.03000000 1571832.94463365 8770.82823421
0.03100000 1566904.26862435 8273.25491902
0.03200000 1561831.98220456 11596.60300199
0.03300000 1556620.14677882 9526.51573746
0.03400000 1551267.47005325 10587.40097162
0.03500000 1545777.93624421 10016.64148941
0.03600000 1540152.03177840 8547.84417140
0.03700000 1534392.87630712 10495.24775932
0.03800000 1528502.00822088 10730.08459429
0.03900000 1522481.65285390 10048.37937418
0.04000000 1516332.24965706 10257.98814427
0.04100000 1510057.64186514 10464.69994334
0.04200000 1503659.32833865 12608.18405305
0.04300000 1497139.11279182 11857.34232370
0.04400000 1490499.71182517 15091.31028310
0.04500000 1483743.69239359 11261.61514854
0.04600000 1476871.27391647 10411.94296513
0.04700000 1469886.99419765 14816.46159060
0.04800000 1462791.64950047 10751.51912408
0.04900000 1455588.48597632 15283.67981417
0.05000000 1448279.15949940 11079.33608609
0.05100000 1440867.42597880 12362.64309080
0.05200000 1433352.27534269 17092.72668000
0.05300000 1425739.54424639 13858.18901611
0.05400000 1418029.62548501 16378.24293813
0.05500000 1410226.69408528 11845.90478292
0.05600000 1402331.13371577 13188.92492805
0.05700000 1394348.13136304 14556.99517093
0.05800000 1386276.83902809 13495.40565807
0.05900000 1378121.16756039 14883.70930481
0.06000000 1369884.84828160 13787.89164211
0.06100000 1361569.23501677 13928.85392514
0.06200000 1353176.88526466 14066.27437983
0.06300000 1344711.43885265 14200.15345822
0.06400000 1336171.71439475 14330.44230707
0.06500000 1327565.07216954 15771.47379513
0.06600000 1318891.60799192 17231.31966464
0.06700000 1310153.22772805 14699.91990305
0.06800000 1301353.51427838 18856.61330455
0.06900000 1292496.55938526 17642.57886162
0.07000000 1283581.60001741 16404.17361640
0.07100000 1274613.31986092 20648.73674889
0.07200000 1265593.16276265 16629.89493776
0.07300000 1256524.59917735 16736.90844526
0.07400000 1247410.95454344 16840.04867553
0.07500000 1238252.13534951 15527.68250510
0.07600000 1229052.00265955 17034.66155546
0.07700000 1219813.95853261 17126.18878082
0.07800000 1210539.30590131 20082.84802671
0.07900000 1201229.79660130 14414.75823532
0.08000000 1191890.89445758 17377.77005640
0.08100000 1182523.00614031 14545.03365795
0.08200000 1173127.76938038 16065.98555556
0.08300000 1163708.20718284 27859.17578744
0.08400000 1154267.86442422 22075.37394330
0.08500000 1144808.17300034 14768.02612499
0.08600000 1135331.54149652 17779.29277460
0.08700000 1125840.47234930 16347.20442614
0.08800000 1116336.39535119 20864.32820898
0.08900000 1106823.05579867 17930.53434613
0.09000000 1097302.40010235 22467.26769751
0.09100000 1087775.88002544 21015.83098944
0.09200000 1078245.74617278 16545.68175245
0.09300000 1068716.18193877 24110.23819753
0.09400000 1059185.81531863 19621.41815093
0.09500000 1049658.80806733 21161.12256527
0.09600000 1040137.11258753 15133.99569956
0.09700000 1030624.85724890 15150.18611381
0.09800000 1021121.44502139 16680.01958868
0.09900000 1011630.26236428 21244.23650861
0.10000000 1002151.60526217 15182.59753372
0.10100000 992688.31230050 19744.57146028
0.10200000 983242.70630379 18229.32063231
0.10300000 973816.54216807 19749.00040418
0.10400000 964411.68707472 16708.43326462
0.10500000 955031.86871697 16703.50816975
0.10600001 945673.36326664 15178.05819461
0.10700001 936344.17959439 18202.53170788
0.10800001 927041.45226823 16672.84130370
0.10900001 917770.14595171 15143.20812093
0.11000001 908530.42376612 16639.73549450
0.11100001 899323.14974398 22662.94444037
0.11200001 890151.87686657 18105.69002783
0.11300001 881015.92705056 16571.91036804
0.11400001 871918.38976000 15040.59293154
0.11500001 862860.53590452 21019.28364439
0.11600001 853843.90589960 16483.45737962
0.11700001 844869.47216712 16449.60939779
0.11800001 835937.82918321 16413.64004907
0.11900001 827050.54583300 17864.29263143
0.12000001 818209.16627003 19305.64618753
0.12100001 809416.59630645 14812.32441019
0.12200001 800672.02953662 19204.11953317
0.12300001 791977.78029485 19150.02362977
0.12400001 783333.66846368 19093.75906845
0.12500001 774740.96574024 14642.60494246
0.12600001 766202.82273987 16055.78090712
0.12700001 757717.91947309 16003.00321344
0.12800001 749287.75021272 18848.33424491
0.12900001 740913.76908947 17337.38301384
0.13000001 732596.43113683 14395.52055037
0.13100001 724336.15453381 15776.04218939
0.13200001 716134.21959590 15715.56618987
0.13300001 707992.59658662 17076.78223472
0.13400001 699909.74052047 17007.80749649
0.13500001 691888.40687245 15525.97658224
0.13600001 683927.58689530 16865.65508807
0.13700001 676029.48018257 16792.57307956
0.13800001 668192.52258916 16718.17770354
0.13900001 660419.84082248 13868.81731130
0.14000001 652710.16057679 16565.78465669
0.14100001 645064.73149785 16487.85531470
0.14200001 637483.30599945 19143.62458208
0.14300001 629968.29203548 16328.77889975
0.14400001 622515.53161640 14893.68479646
0.14500001 615130.70149518 17512.77189768
0.14600001 607811.19197954 18763.13238155
0.14700001 600559.59361284 14665.66596790
0.14800001 593371.35448014 15914.22047797
0.14900001 586251.22101815 18466.91433336
0.15000001 579197.70466308 22302.00867033
0.15100001 572211.21963358 14351.05806556
0.15200001 565292.41666056 19460.19236181
0.15300001 558441.60589866 16770.00221650
0.15400001 551655.80407810 19238.99707513
0.15500001 544938.97123202 15301.88703434
0.15600001 538286.96529232 13944.32449400
0.15700001 531705.81903135 15121.71420695
0.15800001 525188.20086203 15030.88701811
0.15900001 518740.11779109 14939.71609755
0.16000001 512356.83016061 17322.78524541
0.16100001 506043.53007689 12296.85836133
0.16200001 499795.43846318 14663.99885674
0.16300001 493613.93013897 13357.19358012
0.16400001 487498.97945836 18098.40046681
0.16500001 481450.02252499 17982.15919027
0.16600001 475467.92167137 13101.51920022
0.16700001 469549.67893706 21298.77444220
0.16800001 463696.64817253 19983.00799652
0.16900001 457910.90267682 14012.07428353
0.17000001 452188.27411768 12758.49275668
0.17100001 446530.35242434 16128.67709118
0.17200001 440936.97025166 17163.47237755
0.17300001 435407.22704536 13636.95499506
0.17400001 429940.73020135 12414.53917085
0.17500001 424537.14420553 12328.55924998
0.17600001 419194.82056156 13355.54761386
0.17700001 413916.45466857 13261.88383395
0.17800001 408697.79367848 12070.88990643
0.17900001 403541.22074021 19612.10425432
0.18000001 398445.49179677 16226.69341989
0.18100001 393411.18456808 13962.16359984
0.18200001 388434.00429504 13861.26809805
0.18300001 383517.08862675 14819.10100458
0.18400001 378658.42545644 13660.10334365
0.18500001 373859.44423465 19818.29007514
0.18600001 369116.46340300 18636.69111768
0.18700001 364430.41374494 12332.32578377
0.18800001 359800.82578656 12240.42467157
0.18900001 355228.82627730 11136.42422996
0.19000001 350708.71660633 11052.58572607
0.19100001 346247.42527230 10969.11895092
0.19200001 341837.10458169 9896.18464525
0.19300001 337483.22010874 14731.14325383
0.19400001 333179.91565526 16567.37208883
0.19500001 328930.50445834 11604.66874567
0.19600001 324732.21166499 9595.83730816
0.19700001 320585.06310951 9521.37682431
0.19800001 316489.02702105 9447.19790304
0.19900001 312443.26541707 13122.61776769
0.20000001 308445.72916027 9299.63917369
0.20100001 304498.39180812 11071.56204941
0.20200001 300597.81985816 18306.40809459
0.20300001 296746.48551243 9080.44288586
0.20400001 292941.37703577 12611.12687746
0.20500001 289182.53491901 8935.74075136
0.20600001 285469.69506502 9750.21789582
0.20700001 281802.38175694 10550.68167170
0.20800001 278178.69011969 11337.17305174
0.20900001 274601.02624768 9514.92600926
0.21000001 271065.11323591 11152.97461132
0.21100001 267572.74450795 9359.69504535
0.21200001 264122.23296021 13501.92918722
0.21300001 260712.69777256 10042.65359297
0.21400001 257345.25418828 9959.26180793
0.21500001 254019.16819732 9876.26572644
0.21600001 250732.11732543 9793.59696576
0.21700001 247484.60224293 9711.29625116
0.21800001 244276.12884015 8024.47121180
0.21900001 241104.99428188 7956.46518750
0.22000001 237971.50512113 8677.63134454
0.22100001 234876.80021344 8603.53759862
0.22200001 231818.87795269 11631.51275127
0.22300001 228795.49390540 9225.03475048
0.22400001 225807.68873033 9907.31281152
0.22500001 222857.24741665 9821.31935808
0.22600001 219939.28069795 9735.61272047
0.22700001 217057.34016742 8908.03366172
0.22800001 214208.03081523 8093.85082711
0.22900001 211390.94808571 8022.28685923
0.23000001 208607.83544137 10119.56657583
0.23100001 205857.46109987 7880.22398358
0.23200001 203137.28489377 7809.61328709
0.23300001 200449.11108971 12664.37543760
0.23400001 197792.45678065 6972.18443127
0.23500001 195164.40406861 8290.58427695
0.23600001 192567.76318319 6845.78430495
0.23700001 190000.39389191 8817.91869759
0.23800001 187462.21976021 8064.62507553
0.23900001 184952.35635483 10653.25622993
0.24000001 182470.89085096 9234.85222278
0.24100001 180018.31538687 8495.06470493
0.24200001 177592.72141911 7120.58050212
0.24300001 175194.73759116 7694.55323898
0.24400001 172822.98551580 6351.24501814
0.24500001 170477.76854555 6919.69295260
0.24600001 168159.11984733 9345.44352760
0.24700001 165866.33959642 8638.31937483
0.24800001 163598.78756299 7332.49800545
0.24900001 161355.42571722 7866.07737584
0.25000001 159138.17815141 8388.17376719
0.25100001 156944.07768813 7118.98370073
0.25200001 154776.05857098 7048.50204078
0.25300001 152631.49907739 6396.78642897
0.25400001 150510.14211022 7484.11717051
0.25500001 148411.84788874 9118.42436569
0.25600001 146337.29922039 6205.43346704
0.25700001 144284.58404015 8375.72049981
0.25800001 142255.43505515 6079.28630472
0.25900001 140248.40046819 7110.59424017
0.26000001 138263.23279363 7578.20814799
0.26100001 136299.36672696 6963.53497557
0.26200001 134358.10473529 5300.42748261
0.26300001 132437.30717924 6817.87289619
0.26400001 130537.89094457 5707.76955163
0.26500001 128659.81787138 5646.87967358
0.26600001 126801.45891533 6094.07840384
0.26700001 124964.86504576 6530.66415632
0.26800001 123148.65442081 6459.76297333
0.26900001 121351.38591066 5897.67763434
0.27000001 119575.05227772 7777.16176818
0.27100001 117817.80163354 5287.66318754
0.27200001 116081.65190436 5704.25264453
0.27300001 114363.89232438 4700.35619697
0.27400001 112663.67040790 5112.11428669
0.27500001 110985.41553778 5054.27606279
0.27600001 109323.68792501 4996.63939308
0.27700001 107682.39071781 4939.39149599
0.27800001 106058.74758532 5326.27055581
0.27900001 104454.91395801 5703.23857203
0.28000001 102867.74627740 4769.46328188
0.28100001 101299.67703333 5998.96715784
0.28200001 99750.27375086  5504.71911748
0.28300001 98218.32292594  4184.10075468
0.28400001 96703.92748132  4960.91171460
0.28500001 95207.63684567  6535.05250240
0.28600001 93728.85340842  4035.02733022
0.28700001 92267.47637372  3985.95516801
0.28800001 90822.86809952  4330.88867032
0.28900001 89397.03699394  4277.64842264
0.29000001 87987.00054841  4608.75930688
0.29100001 86594.82159058  5309.99471128
0.29200001 85219.43259181  4119.93366367
0.29300001 83860.85161769  5917.22197024
0.29400001 82518.35949449  4016.58133853
0.29500001 81193.62899306  3965.49702774
0.29600001 79884.72976381  3914.75136739
0.29700001 78592.31753112  3864.38443594
0.29800001 77316.19319362  5201.44714333
0.29900001 76056.88223457  4107.07183509
0.30000001 74813.08229582  5404.49732090
0.30100001 73586.36564933  4000.15502607
0.30200001 72373.80417870  3947.26746677
0.30300001 71178.60953547  3570.31922332
0.30400001 69999.24850755  3522.71234791
0.30500001 68835.29269789  3159.54008441
0.30600001 67685.94931966  5610.48860472
0.30700001 66553.46892329  4612.15561474
0.30800001 65435.83823689  3639.54149505
0.30900001 64333.67800642  2991.51616893
0.31000001 63247.08645113  2950.47672263
0.31100001 62174.67756624  3491.73005744
0.31200001 61118.30115323  4017.30612500
0.31300001 60076.15209429  2829.58689761
0.31400001 59050.20803677  3348.14695421
0.31500001 58037.99287808  2751.00099267
0.31600002 57040.95962028  2983.52753420
0.31700002 56058.44574641  2941.38678758
0.31800002 55090.59944981  3163.30237019
0.31900002 54137.16675176  4417.59301611
0.32000002 53198.49021664  3073.80891026
0.32100002 52273.37301952  2777.28444003
0.32200002 51363.65798840  3732.85402106
0.32300002 50466.44552422  3433.73711606
0.32400002 49583.90718503  3142.38026665
0.32500002 48715.15588572  2620.38835917
0.32600002 47860.71569818  3756.10914585
0.32700002 47019.36377901  3238.69393046
0.32800002 46192.43213602  3419.39495079
0.32900002 45378.31333794  2920.09460157
0.33000002 44578.67500895  2434.66445090
0.33100002 43789.73397394  3053.02039724
0.33200002 43017.30743160  2363.58606876
0.33300002 42256.47274705  2752.16420034
0.33400002 41509.16677949  3128.75359417
0.33500002 40773.71803333  2876.99368067
0.33600002 40052.28090605  2024.64289568
0.33700002 39342.52814824  2393.59952589
0.33800002 38646.20101816  2554.70723929
0.33900002 37961.61768119  2516.85537146
0.34000002 37289.90354449  2098.11652229
0.34100002 36630.27927288  3006.61346511
0.34200002 35983.43883458  1851.34801572
0.34300002 35347.57119240  2006.32823590
0.34400002 34724.95973961  1976.71842679
0.34500002 34113.32939692  2478.67463137
0.34600002 33514.53735464  2616.64762789
0.34700002 32925.46914269  2062.45148478
0.34800002 32349.72712913  2032.20995450
0.34900002 31784.53394764  1835.55692241
0.35000002 31230.60945100  2630.86666476
0.35100002 30688.72466045  1620.36473882
0.35200002 30156.27569763  2395.16231073
0.35300002 29635.43347325  1888.36991036
0.35400002 29125.81420056  2016.23458353
0.35500002 28626.75641530  1528.66886498
0.35600002 28137.38241028  2109.45965921
0.35700002 27659.07827623  2079.40960330
0.35800002 27191.63050266  1610.69630912
0.35900002 26733.96817983  1587.99778510
0.36000002 26286.65675015  1708.10703653
0.36100002 25848.59835836  1684.29474881
0.36200002 25421.68554989  2076.31626564
0.36300002 25003.31484737  1911.25347746
0.36400002 24594.61951805  1481.21103064
0.36500002 24195.30397617  2258.14782706
0.36600002 23805.75164527  1310.50669015
0.36700002 23424.76625044  2198.18016907
0.36800002 23054.48383271  1403.67231464
0.36900002 22692.06952453  1385.35091010
0.37000002 22338.23742708  1367.43526887
0.37100002 21992.99844327  1840.81405690
0.37200002 21657.33445622  1696.41908832
0.37300002 21329.47216327  1794.87516756
0.37400002 21010.01461089  1299.99471563
0.37500002 20699.27888457  1284.18332283
0.37600002 20396.70519035  1499.46385310
0.37700002 20101.59712087  1367.71273290
0.37800002 19814.32268722  1351.73315776
0.37900002 19535.39828033  1224.86953020
0.38000002 19264.04897102  1321.12854102
0.38100002 18999.31490988  1415.25903468
0.38200002 18742.96321868  1722.85326068
0.38300002 18493.17576853  1171.72767220
0.38400002 18251.36888243  1686.42656463
0.38500002 18015.39553559  1668.94632148
0.38600002 17787.54876074  1445.59415627
0.38700002 17565.90399295  1431.26992515
0.38800002 17350.91645921  1518.63903504
0.38900002 17142.07730141  1203.37388357
0.39000002 16940.80069564  1192.29360945
0.39100002 16744.70136890  1378.42388199
0.39200002 16555.50834422  1073.54198944
0.39300002 16372.01565422  1064.34478811
0.39400002 16195.86605205  1055.56561995
0.39500002 16024.21185301  1237.38969791
0.39600002 15858.55184278  1038.81448768
0.39700002 15698.49037165  1218.35989547
0.39800002 15544.17169907  1302.44620837
0.39900002 15395.19695003  1477.93897723
0.40000002 15251.25909273  1009.09960568
0.40100002 15112.94212528  1184.70358933
0.40200002 14979.86066156  1177.19240586
0.40300002 14851.14192828  1079.97509219
0.40400002 14727.88072883  984.19067634
0.40500002 14609.38285615  978.68260390
0.40600002 14495.66252326  1238.94433457
0.40700002 14386.20747486  1496.74109660
0.40800002 14281.68680625  876.18152708
0.40900002 14181.14668397  1133.78273110
0.41000002 14085.29130111  955.19407484
0.41100002 13993.51308886  1037.75897984
0.41200002 13905.43672497  861.44184593
0.41300002 13822.11040833  1287.52964554
0.41400002 13742.23121507  1197.63550714
0.41500002 13666.39945277  1108.61837614
0.41600002 13593.75311606  1275.43394655
0.41700002 13525.10286290  848.02398969
0.41800002 13461.07736408  1184.44025339
0.41900002 13398.42599229  1181.74122852
0.42000002 13340.43051529  842.44822696
0.42100002 13285.93517008  1093.29965695
0.42200002 13234.70979396  1259.61356433
0.42300002 13186.06170764  1341.81370295
0.42400002 13140.28481630  1089.00115575
0.42500002 13098.07800502  1255.45083627
0.42600002 13057.72397929  1003.61671261
0.42700002 13021.60075966  1170.38153174
0.42800002 12986.98033663  1086.42589154
0.42900002 12956.41451620  919.25765349
0.43000002 12927.75760111  1170.09139592
0.43100002 12900.68046747  1086.75337408
0.43200002 12877.19196500  1338.19785242
0.43300002 12855.79324139  1171.67705154
0.43400002 12836.67284072  1005.11153106
0.43500002 12819.60988617  1341.44404206
0.43600002 12805.06069260  923.30894499
0.43700002 12792.04893274  1008.52518565
0.43800002 12781.08023920  1009.96100836
0.43900002 12772.69657279  927.29781513
0.44000002 12765.71692362  1182.23310032
0.44100002 12760.94112081  1015.26052368
0.44200002 12757.70295479  1186.84916213
0.44300002 12756.28250009  1019.48214572
0.44400002 12756.85321615  1277.27998880
0.44500002 12757.81797181  938.84786904
0.44600002 12760.66996514  1454.52503491
0.44700002 12766.09494614  943.66978314
0.44800002 12771.29766158  860.14693827
0.44900002 12779.53167111  1207.66580015
0.45000002 12788.52634576  1124.68700278
0.45100002 12798.37994539  1301.59530213
0.45200002 12809.70679475  957.46157975
0.45300002 12821.97469885  960.49417021
0.45400002 12835.64562979  1664.46242593
0.45500002 12850.37470981  1142.65537335
0.45600002 12865.91166244  1146.54577214
0.45700002 12882.52374472  973.53236553
0.45800002 12899.64856445  1065.76901491
0.45900002 12917.94990015  1515.27559510
0.46000002 12937.68843133  894.64119743
0.46100002 12957.03503242  1167.29934139
0.46200002 12978.16634221  991.46706470
0.46300002 12999.82197519  1085.74518283
0.46400002 13021.44354572  999.07030340
0.46500002 13044.28472763  1002.97510024
0.46600002 13067.51731583  1098.45555763
0.46700002 13091.05171349  1286.58862338
0.46800002 13115.93992934  1107.24770131
0.46900002 13140.29334369  1019.02979710
0.47000002 13165.41710173  1209.17779102
0.47100002 13191.15115776  933.93354623
0.47200002 13217.23903061  1219.09209977
0.47300002 13243.77936881  941.63275775
0.47400002 13269.97394597  1134.58282616
0.47500002 13296.85317151  1139.27443373
0.47600002 13324.51527212  1334.71675807
0.47700002 13351.39317649  1053.02442974
0.47800002 13378.79536817  1634.15303770
