# SAXS profile: number of points = 501, q_min = 0, q_max = 0.5, delta_q = 0.001
#    q    intensity    error
0.00000000 1646666.22097350 246.99993315
0.00100000 1646580.67352688 543.37163517
0.00200000 1646323.99779370 963.09956921
0.00300000 1645896.41090688 1876.32197527
0.00400000 1645297.78208821 1727.56273684
0.00500000 1644528.76833726 1480.07595009
0.00600000 1643589.20642136 2070.92248440
0.00700000 1642479.83449873 1970.97588331
0.00800000 1641200.44026775 2215.62068790
0.00900000 1639752.43272097 2705.59162965
0.01000000 1638135.20808689 3243.50785207
0.01100000 1636350.25870708 5596.31812844
0.01200000 1634397.52936943 3187.07532200
0.01300000 1632278.40111943 3770.56327289
0.01400000 1629992.98827545 4034.23282482
0.01500000 1627542.86249797 4687.32365272
0.01600000 1624927.62402838 4557.92218915
0.01700000 1622149.50006117 4379.80384664
0.01800000 1619208.94092362 5537.69482714
0.01900000 1616107.01410068 5333.15338718
0.02000000 1612844.33784670 5588.50588344
0.02100000 1609423.74385801 6373.31831463
0.02200000 1605843.72723254 6094.17722172
0.02300000 1602107.62583457 10381.65788796
0.02400000 1598215.78991509 8390.63327965
0.02500000 1594170.58304581 8082.44522517
0.02600000 1589972.53438560 7727.26687055
0.02700000 1585623.54744216 7325.58112470
0.02800000 1581123.99724149 8941.25661444
0.02900000 1576477.18273181 7803.56241282
0.03000000 1571683.83310376 7308.33015986
0.03100000 1566745.45305958 9024.45422487
0.03200000 1561663.34757165 10049.30410448
0.03300000 1556441.53129454 11112.99304576
0.03400000 1551078.44143243 8957.47841257
0.03500000 1545578.38440289 9180.73602730
0.03600000 1539941.65185727 9401.34421906
0.03700000 1534171.48628000 9619.25566384
0.03800000 1528269.35934348 10728.45139910
0.03900000 1522237.57705372 10046.76847382
0.04000000 1516076.53216365 10256.25821535
0.04100000 1509790.08023543 13316.34912511
0.04200000 1503379.76701735 11636.15993655
0.04300000 1496847.25057121 13830.86923728
0.04400000 1490195.74256992 11064.70390245
0.04500000 1483427.08543256 12282.77683810
0.04600000 1476541.98344546 14573.47005408
0.04700000 1469544.76313990 11638.79506536
0.04800000 1462436.68797189 11823.80117239
0.04900000 1455220.41876874 12005.56901367
0.05000000 1447897.88752983 15506.98709754
0.05100000 1440472.76146544 16853.53209425
0.05200000 1432944.26574341 11391.90744354
0.05300000 1425317.88057304 13854.09044502
0.05400000 1417594.61447302 12864.67172627
0.05500000 1409777.86838971 11842.13464690
0.05600000 1401868.64991794 13184.57526773
0.05700000 1393871.74386619 15764.69015900
0.05800000 1385786.58305942 15943.47538254
0.05900000 1377617.07758011 13638.40970504
0.06000000 1369366.81262368 17541.58968923
0.06100000 1361037.20438217 15189.17591072
0.06200000 1352630.94883675 16617.07198320
0.06300000 1344151.49255377 15484.62591821
0.06400000 1335597.79678070 14324.28704037
0.06500000 1326977.08681065 14450.78115134
0.06600000 1318289.54941201 18548.33482808
0.06700000 1309537.27494509 20035.92124432
0.06800000 1300723.78463380 17501.23934146
0.06900000 1291852.86956954 14920.90134211
0.07000000 1282924.04344971 17762.08421333
0.07100000 1273942.02318959 16510.28939384
0.07200000 1264908.03394223 16620.89234464
0.07300000 1255825.92872787 18121.56900064
0.07400000 1246698.63495359 16830.43236062
0.07500000 1237526.55317004 19750.92471437
0.07600000 1228312.95616660 15605.71683970
0.07700000 1219061.90884546 19968.23500317
0.07800000 1209774.12030936 20070.15359715
0.07900000 1200451.62421894 15845.96218292
0.08000000 1191099.98103425 15919.05199330
0.08100000 1181719.36593014 20349.20843607
0.08200000 1172311.52340418 20433.39081178
0.08300000 1162879.70554891 17582.74197309
0.08400000 1153427.04696797 22059.29330870
0.08500000 1143955.35508717 20659.83468275
0.08600000 1134467.07189284 17765.75517997
0.08700000 1124964.24794862 19304.38740129
0.08800000 1115448.89373009 17869.49211677
0.08900000 1105924.49846867 19408.97585976
0.09000000 1096392.70203835 16462.33719443
0.09100000 1086855.41720379 19498.18710068
0.09200000 1077314.77594242 18034.25019665
0.09300000 1067774.79610998 16561.18786591
0.09400000 1058234.52598724 16587.82697444
0.09500000 1048697.79780652 16611.37389803
0.09600000 1039166.31593870 18143.84472919
0.09700000 1029645.04564211 16649.36117077
0.09800000 1020132.73381277 19693.66335221
0.09900000 1010632.82082767 27287.08744545
0.10000000 1001145.55568777 16684.09147014
0.10100000 991674.48585714 25793.45459026
0.10200000 982221.09901076 19727.91170156
0.10300000 972787.26668993 16693.03028165
0.10400000 963375.35738584 18207.79511118
0.10500000 953988.57663671 21235.78671506
0.10600001 944623.58819912 15161.20930398
0.10700001 935288.09396133 21212.33496925
0.10800001 925979.54279452 16653.74286091
0.10900001 916702.74371767 19663.27477821
0.11000001 907457.71754440 21152.84039161
0.11100001 898245.91323964 19617.69166862
0.11200001 889069.99242312 18083.68449721
0.11300001 879929.96059286 21065.52424838
0.11400001 870828.68049845 19528.33407966
0.11500001 861767.71279834 16494.23479964
0.11600001 852747.73840919 17958.86821661
0.11700001 843770.55549387 17921.68744271
0.11800001 834836.69533088 16392.01928486
0.11900001 825947.45415176 14867.05487499
0.12000001 817104.71870942 16313.49647748
0.12100001 808311.22984877 22188.14430459
0.12200001 799565.91576790 22127.98776135
0.12300001 790871.17275829 16181.22495700
0.12400001 782227.36426174 20533.46927936
0.12500001 773634.97725654 21932.55263870
0.12600001 765097.64581668 14575.11083964
0.12700001 756614.06349210 14526.99070365
0.12800001 748185.48989175 18820.60688523
0.12900001 739813.48949237 18754.27284256
0.13000001 731498.71639897 20123.53063666
0.13100001 723241.37253290 15752.19783629
0.13200001 715042.78454425 21397.65633618
0.13300001 706904.78526806 15629.66553911
0.13400001 698826.05151986 14151.22821045
0.13500001 690809.12796703 14092.50687496
0.13600001 682853.38767130 19645.69288961
0.13700001 674960.34846758 16766.01584651
0.13800001 667129.30049595 18082.54054264
0.13900001 659362.70318558 20769.92612982
0.14000001 651659.56085405 19295.64050688
0.14100001 644021.01929098 16461.17802944
0.14200001 636447.07207154 19112.50647576
0.14300001 628939.79241960 19019.14021986
0.14400001 621495.41724274 14869.27855891
0.14500001 614118.88508722 17483.96548319
0.14600001 606808.18685785 14718.13326656
0.14700001 599565.84123745 14641.39853375
0.14800001 592387.51822156 19859.79248534
0.14900001 585277.59664319 15802.49585494
0.15000001 578234.40409162 14406.71085769
0.15100001 571259.01648131 16932.11804745
0.15200001 564351.21760281 12951.86105514
0.15300001 557511.95517802 14166.37944957
0.15400001 550738.10157142 12804.66146580
0.15500001 544033.73145778 16549.50689197
0.15600001 537394.44764209 13921.20382318
0.15700001 530826.32443259 15096.70137938
0.15800001 524322.13044828 17507.11676198
0.15900001 517887.94538866 14915.17353120
0.16000001 511518.64160555 12353.17577787
0.16100001 505219.84384455 14732.21134193
0.16200001 498986.64364040 15860.29121681
0.16300001 492820.31781329 14548.05646863
0.16400001 486720.94093250 16864.88139950
0.16500001 480687.70165526 13166.03676992
0.16600001 474721.62018311 13080.95486174
0.16700001 468819.91476662 14177.11489191
0.16800001 462983.73248883 11736.63817275
0.16900001 457214.94877012 20986.16713947
0.17000001 451509.75396178 13897.47088318
0.17100001 445869.41914366 16104.80417996
0.17200001 440293.99421136 14853.31859614
0.17300001 434782.20568192 17021.72415629
0.17400001 429334.32744611 12397.02929047
0.17500001 423949.41231883 12311.49151518
0.17600001 418626.02791872 14448.87803602
0.17700001 413366.71081095 13244.27003992
0.17800001 408167.67580049 14247.09339674
0.17900001 403030.78127421 13058.19793007
0.18000001 397954.91410305 15126.26699955
0.18100001 392940.72555645 13945.46700873
0.18200001 387983.88884358 15975.23737777
0.18300001 383087.46242856 11630.53590875
0.18400001 378249.69091830 11546.07236073
0.18500001 373471.72007649 12503.83377887
0.18600001 368749.79605454 11377.77549479
0.18700001 364084.89652170 11293.91402368
0.18800001 359476.68207371 12229.39730194
0.18900001 354926.67881109 15173.11623607
0.19000001 350428.18160311 15059.65181594
0.19100001 345988.75181605 10960.92417544
0.19200001 341600.63665338 12856.14056792
0.19300001 337268.65613124 12758.87386434
0.19400001 332987.83633647 16557.82094425
0.19500001 328760.69753063 9665.56496415
0.19600001 324585.02623499 16305.52956345
0.19700001 320460.43276226 13324.74542395
0.19800001 316387.01768870 10388.56821676
0.19900001 312364.16140396 10308.01781349
0.20000001 308389.51865240 11157.53331216
0.20100001 304464.96419106 11070.34662120
0.20200001 300587.45654470 10068.17733282
0.20300001 296759.07005063 9080.82797275
0.20400001 292977.16004762 9009.04809728
0.20500001 289241.35144075 12512.58145476
0.20600001 285551.48216820 11526.28612254
0.20700001 281907.33418724 13193.26386360
0.20800001 278306.63539469 9597.40477526
0.20900001 274752.43305832 9520.17225550
0.21000001 271239.44946811 10301.67477778
0.21100001 267770.08242719 11921.12463321
0.21200001 264342.66577512 11824.04799910
0.21300001 260956.14862808 8376.69276697
0.21400001 257611.66002663 9138.77407149
0.21500001 254308.55757424 9887.51718594
0.21600001 251044.27624534 11440.08820937
0.21700001 247819.58993824 8103.70097412
0.21800001 244633.62839936 12054.32260931
0.21900001 241485.31656911 10359.72057064
0.22000001 238374.39507012 11062.95619829
0.22100001 235302.14889272 10186.23050721
0.22200001 232266.42230086 10877.03707066
0.22300001 229265.38615836 9243.98080701
0.22400001 226299.73930433 8401.37821894
0.22500001 223371.13918808 8329.51017420
0.22600001 220474.85371156 10510.03677343
0.22700001 217614.69571082 10419.39212336
0.22800001 214786.99083384 8115.72683245
0.22900001 211991.33798923 8045.07165715
0.23000001 209229.36664827 10874.69684583
0.23100001 206500.14573080 7904.82595242
0.23200001 203800.86556913 7835.12464736
0.23300001 201133.17747946 10589.66229513
0.23400001 198496.95302643 11195.22868017
0.23500001 195889.27866091 6934.48079257
0.23600001 193312.68635945 6872.26632512
0.23700001 190765.20023854 9534.44515888
0.23800001 188246.62551391 6748.64184388
0.23900001 185756.30314314 10030.84084418
0.24000001 183293.95021326 8613.89959771
0.24100001 180860.30591603 7221.75235682
0.24200001 178453.69244876 9106.49235642
0.24300001 176073.90443446 7088.73572785
0.24400001 173720.32387297 7022.64442476
0.24500001 171393.25911038 10751.49965259
0.24600001 169091.96668170 6891.34342811
0.24700001 166816.61603376 6826.13625102
0.24800001 164566.34921492 6761.20877735
0.24900001 162340.06389206 6696.52795234
0.25000001 160139.33443770 6029.24622681
0.25100001 157961.53050927 7762.22997645
0.25200001 155809.49018616 9460.75269169
0.25300001 153680.74722592 7026.28409559
0.25400001 151574.77281970 8696.60300198
0.25500001 149491.55157493 6888.57102248
0.25600001 147431.73587919 8525.24053057
0.25700001 145393.77912003 6752.08742180
0.25800001 143378.61178590 6127.28526458
0.25900001 141385.45098420 7719.64598899
0.26000001 139413.98818746 5458.05789579
0.26100001 137463.16639694 5942.53296452
0.26200001 135534.90836656 8554.96382089
0.26300001 133626.59723262 5820.77485088
0.26400001 131739.41284175 7331.29867155
0.26500001 129873.24559765 6218.33129346
0.26600001 128026.50933367 7178.44671802
0.26700001 126200.99584384 5073.28027299
0.26800001 124395.78299589 8030.99213025
0.26900001 122608.95339455 5462.22913221
0.27000001 120842.83783142 5403.48774934
0.27100001 119095.42258853 6316.82151303
0.27200001 117368.77700456 5286.87681036
0.27300001 115660.27626754 5229.00133751
0.27400001 113968.85204324 5641.45844312
0.27500001 112299.06902823 5114.09984557
0.27600001 110645.36615076 5057.04669925
0.27700001 109011.89415632 5000.37582160
0.27800001 107395.61498168 5842.85870960
0.27900001 105798.70413718 6220.96409769
0.28000001 104218.36142448 6589.20621292
0.28100001 102656.63480766 6079.32620104
0.28200001 101113.11470252 4721.47711450
0.28300001 99586.80312598  5090.87761675
0.28400001 98077.57004004  5031.37958119
0.28500001 96586.36206118  5386.62166711
0.28600001 95112.08048088  6960.77793946
0.28700001 93654.80504608  5259.65410034
0.28800001 92213.92754653  4796.96873803
0.28900001 90791.76374651  5134.27448289
0.29000001 89384.89635195  4681.98109253
0.29100001 87995.47328410  3854.20191228
0.29200001 86622.57480713  4568.47481158
0.29300001 85266.11256626  4136.25931638
0.29400001 83925.35925527  4456.43678741
0.29500001 82602.11288506  4401.04078285
0.29600001 81294.27840565  3983.82630185
0.29700001 80002.58050206  6079.39638014
0.29800001 78726.88053238  4590.17098673
0.29900001 77467.67039797  4531.85893282
0.30000001 76223.50302912  3441.49132468
0.30100001 74996.21320512  4416.52720473
0.30200001 73782.72939837  3688.76773090
0.30300001 72586.42382098  4302.92340781
0.30400001 71405.43559845  4900.19824993
0.30500001 70239.61356366  5158.39746433
0.30600001 69088.01863925  3499.65374985
0.30700001 67953.09026854  4395.20608665
0.30800001 66832.61060557  3717.22997787
0.30900001 65727.29662054  4278.84721258
0.31000001 64637.36079826  3015.33302400
0.31100001 63561.26979430  3867.06783737
0.31200001 62500.93286419  3814.74461798
0.31300001 61454.42720010  3183.95402399
0.31400001 60423.74092600  3426.02627272
0.31500001 59406.69902409  5068.57980072
0.31600002 58404.58668738  3054.85205132
0.31700002 57416.63284399  4108.16027450
0.31800002 56443.03473262  3781.11907577
0.31900002 55483.84273131  3195.86949264
0.32000002 54538.77790192  2626.04228032
0.32100002 53607.11197324  4142.75780945
0.32200002 52690.71171962  2552.86510369
0.32300002 51786.50824827  3020.18930405
0.32400002 50896.82094793  2977.46416644
0.32500002 50020.62972922  3179.81158246
0.32600002 49158.41717457  2893.46457191
0.32700002 48309.00132112  2614.48327530
0.32800002 47474.05196976  3045.69794834
0.32900002 46651.52278279  3232.95068194
0.33000002 45843.15327959  2503.72393493
0.33100002 45045.47786885  2243.26490410
0.33200002 44264.02585815  2432.08701595
0.33300002 43493.92622255  2614.85496833
0.33400002 42737.12081291  2791.80254931
0.33500002 41992.19583770  2751.32880158
0.33600002 41260.76469582  2502.87810498
0.33700002 40541.09413669  2055.43357007
0.33800002 39834.67870847  2430.71220990
0.33900002 39139.68943281  2195.73668117
0.34000002 38457.59852501  3147.37001234
0.34100002 37787.23065373  1938.48502434
0.34200002 37129.53132306  1910.31447704
0.34300002 36482.81656297  2447.26745095
0.34400002 35849.05946605  2226.22669827
0.34500002 35226.14890793  2011.06093640
0.34600002 34615.90052942  2342.28502026
0.34700002 34015.41158685  1953.16502582
0.34800002 33427.93361696  1924.94764850
0.34900002 32850.93192825  2069.60880950
0.35000002 32285.23527126  1699.81771754
0.35100002 31731.26357838  2010.49295555
0.35200002 31186.88500033  1816.48020288
0.35300002 30653.82854381  1953.26204732
0.35400002 30131.80146561  2085.87405525
0.35500002 29620.39909522  1898.07526392
0.35600002 29118.59786901  2027.09128666
0.35700002 28627.81631705  2152.23933266
0.35800002 28147.56501975  1970.47038254
0.35900002 27677.36888923  2540.78258438
0.36000002 27217.40899081  1768.58731999
0.36100002 26766.61155205  1744.11249134
0.36200002 26326.70457472  2006.88478479
0.36300002 25895.53872078  1696.67577735
0.36400002 25473.94076417  1534.16815519
0.36500002 25061.69316144  1513.47572171
0.36600002 24659.10092742  1493.23192739
0.36700002 24265.19547357  1607.32662431
0.36800002 23881.77631804  1454.04202000
0.36900002 23506.41055057  1565.52701683
0.37000002 23139.45303622  1416.48168471
0.37100002 22781.18635926  1398.30928497
0.37200002 22432.39925115  2008.14847609
0.37300002 22091.41872127  1363.26151387
0.37400002 21758.95330907  1468.72941794
0.37500002 21435.16476537  1571.62635505
0.37600002 21119.58885594  1433.17536766
0.37700002 20811.41621703  1652.01029757
0.37800002 20511.15765359  1515.87717820
0.37900002 20219.26929518  1267.74824486
0.38000002 19935.09227014  1481.07775037
0.38100002 19657.39385840  1576.91621002
0.38200002 19388.11955948  1225.23227360
0.38300002 19125.63362527  1101.63654900
0.38400002 18870.96539407  1307.75796376
0.38500002 18622.43854870  1293.88709166
0.38600002 18381.93469647  1387.19276759
0.38700002 18147.62286524  1373.04921103
0.38800002 17920.26431911  1463.90646158
0.38900002 17698.83147184  1035.38169015
0.39000002 17485.19464490  1640.81074321
0.39100002 17276.92451505  1625.41313538
0.39200002 17075.48332667  1207.91974776
0.39300002 16879.85235734  1496.39898237
0.39400002 16691.64828030  1285.67426970
0.39500002 16508.05563563  1372.80997170
0.39600002 16330.59524274  1166.98439134
0.39700002 16158.71254971  1061.14270341
0.39800002 15992.83094239  1531.47356360
0.39900002 15832.22576761  1234.91366838
0.40000002 15676.93230560  1225.85777972
0.40100002 15527.29480247  1029.92551304
0.40200002 15382.88679383  1208.86421597
0.40300002 15243.10617919  1108.47873387
0.40400002 15108.81240202  917.86039691
0.40500002 14979.48489598  1003.47574073
0.40600002 14854.97734976  1541.72389729
0.40700002 14735.03077314  991.96231865
0.40800002 14619.82056674  1345.38905140
0.40900002 14509.00616975  981.53431389
0.41000002 14402.99567070  1154.32814272
0.41100002 14301.05487967  972.18575678
0.41200002 14203.06333278  879.87981516
0.41300002 14109.94625059  963.85047405
0.41400002 14020.31047122  960.04080501
0.41500002 13934.89905374  1478.21416166
0.41600002 13852.84373223  1213.09358311
0.41700002 13774.97157662  950.05983466
0.41800002 13701.76540885  1033.38719610
0.41900002 13630.21008309  1202.18458629
0.42000002 13563.34909506  1199.13575031
0.42100002 13500.25093228  940.02251696
0.42200002 13440.46046002  1108.63643358
0.42300002 13383.44285158  1021.42440683
0.42400002 13329.45781469  1019.70357114
0.42500002 13279.21627975  933.39615653
0.42600002 13230.92258558  1016.92875812
0.42700002 13187.06334062  1185.25330922
0.42800002 13144.98648718  1015.05590464
0.42900002 13106.92751056  1099.01592384
0.43000002 13071.03746201  1183.05965675
0.43100002 13036.86755891  844.78905785
0.43200002 13006.41124432  1013.71974042
0.43300002 12978.22044349  1013.85862909
0.43400002 12952.45509927  929.66250881
0.43500002 12928.93142689  930.10737093
0.43600002 12908.15725375  1523.03354655
0.43700002 12888.99056197  846.80672005
0.43800002 12871.98745798  1017.14449713
0.43900002 12857.75051228  1018.33388883
0.44000002 12845.15036729  1104.61875818
0.44100002 12834.88782780  1106.23903430
0.44200002 12826.22411427  1022.76315934
0.44300002 12819.69587898  853.79178600
0.44400002 12815.17722480  855.41312029
0.44500002 12811.22875786  1028.48549342
0.44600002 12809.44610092  1374.19744283
0.44700002 12810.24234626  1033.01799176
0.44800002 12811.22023309  1121.68644067
0.44900002 12815.23102935  865.02813548
0.45000002 12820.11186170  954.00866940
0.45100002 12826.08805294  1130.49145456
0.45200002 12833.65313577  1220.86548067
0.45300002 12842.32462181  874.56234819
0.45400002 12852.58336735  1052.62662767
0.45500002 12864.00288160  967.88762268
0.45600002 12876.45785803  1235.75371920
0.45700002 12890.05706657  974.10165869
0.45800002 12904.35502780  1243.85084008
0.45900002 12919.91428161  1069.76895322
0.46000002 12937.04487459  984.05636502
0.46100002 12954.05456041  897.71602358
0.46200002 12972.85216627  1081.15755078
0.46300002 12992.47196585  904.27609168
0.46400002 13012.10847949  998.35407041
0.46500002 13033.13987212  1093.21982429
0.46600002 13054.60893846  914.47539948
0.46700002 13076.56891076  1101.57021725
0.46800002 13100.02997738  1198.06329837
0.46900002 13123.05920991  1202.72843359
0.47000002 13147.08934748  1671.91543156
0.47100002 13171.70950742  1678.60273919
0.47200002 13196.95683696  1123.58895835
0.47300002 13222.78112404  1128.16773897
0.47400002 13248.33103914  1038.33799441
0.47500002 13274.65868066  1706.05921450
0.47600002 13301.83042375  1046.92061312
0.47700002 13328.52302832  1051.22066107
