# SAXS profile: number of points = 501, q_min = 0, q_max = 0.5, delta_q = 0.001
#    q    intensity    error
0.00000000 1664650.74656090 249.69761198
0.00100000 1664564.70720888 499.36942402
0.00200000 1664306.55660408 973.61936644
0.00300000 1663876.50576705 1098.15853293
0.00400000 1663274.43856328 1247.45587632
0.00500000 1662501.00031870 1945.12624736
0.00600000 1661556.03496442 1919.09729851
0.00700000 1660440.27709976 2191.78125686
0.00800000 1659153.51300525 2911.81453826
0.00900000 1657697.16527041 3729.81878130
0.01000000 1656070.61069099 3552.27161332
0.01100000 1654275.35638776 3275.46534826
0.01200000 1652311.37222380 3544.20804881
0.01300000 1650180.00870962 3465.37817113
0.01400000 1647881.38889859 4078.50661833
0.01500000 1645417.04385371 4343.90118920
0.01600000 1642786.68383449 5026.92747725
0.01700000 1639992.43413346 5756.37370203
0.01800000 1637034.78780297 5132.10429069
0.01900000 1633914.83833311 6862.44263065
0.02000000 1630633.16128948 5650.14415946
0.02100000 1627192.62613089 5906.70950066
0.02200000 1623591.74159417 8962.22682077
0.02300000 1619833.77908000 5831.40187012
0.02400000 1615919.18685624 7877.60639512
0.02500000 1611850.21288511 7543.45934082
0.02600000 1607627.52739192 7813.07014048
0.02700000 1603252.92598333 7407.02885729
0.02800000 1598726.87413550 8345.35466570
0.02900000 1594052.61635299 7890.56081324
0.03000000 1589230.92819073 12562.87106480
0.03100000 1584263.30897268 8364.91065627
0.03200000 1579150.95633565 11725.19639083
0.03300000 1573898.02151425 8829.56830774
0.03400000 1568502.93547712 8234.64079120
0.03500000 1562969.97000902 9284.04205057
0.03600000 1557299.52659753 10371.61532645
0.03700000 1551494.67628986 9727.87207023
0.03800000 1545556.99666793 10849.81061873
0.03900000 1539488.80331453 13855.39987147
0.04000000 1533290.45847497 15087.57881054
0.04100000 1526965.80437370 15391.81602175
0.04200000 1520516.49409105 12749.53139444
0.04300000 1513944.19424220 11990.43857497
0.04400000 1507251.93788839 12208.74126389
0.04500000 1500441.68905524 13458.96257619
0.04600000 1493514.19511734 14740.98579107
0.04700000 1486473.78680011 17124.17882035
0.04800000 1479321.61948524 15222.22017276
0.04900000 1472060.55754990 12144.50016508
0.05000000 1464692.35804797 20168.81470950
0.05100000 1457220.68438600 11366.32186770
0.05200000 1449645.03562963 13829.61428438
0.05300000 1441970.59830405 15183.95110799
0.05400000 1434198.46611711 14198.56547669
0.05500000 1426332.21185488 13179.31025234
0.05600000 1418372.55705944 16977.92030026
0.05700000 1410324.63987112 14723.78992754
0.05800000 1402187.64238202 12409.36121450
0.05900000 1393965.47747935 16309.39684825
0.06000000 1385661.85964324 15214.56792969
0.06100000 1377278.22886794 14089.55693974
0.06200000 1368817.20059688 18109.45241040
0.06300000 1360282.23150126 18282.19404617
0.06400000 1351672.44152959 17132.44899762
0.06500000 1342994.77280966 14625.21376003
0.06600000 1334249.71114209 14750.13124681
0.06700000 1325439.30721547 13519.48156630
0.06800000 1316566.93154589 16351.76205521
0.06900000 1307636.46375335 16476.22021469
0.07000000 1298647.39654310 17979.77404710
0.07100000 1289604.39756951 15320.50096070
0.07200000 1280509.00431802 21032.36138122
0.07300000 1271364.77830939 18345.79461061
0.07400000 1262174.88444822 25559.04260788
0.07500000 1252939.36217766 15711.86033816
0.07600000 1243661.95194105 18673.58508382
0.07700000 1234346.35273378 17330.22360497
0.07800000 1224993.44333214 21774.25947636
0.07900000 1215605.41433865 18963.44535314
0.08000000 1206187.49417844 14655.17874176
0.08100000 1196740.17916420 19135.87636266
0.08200000 1187264.95023315 16259.59425643
0.08300000 1177765.45358304 14839.84541161
0.08400000 1168244.38563153 14895.11661596
0.08500000 1158703.84582339 16442.00834411
0.08600000 1149146.09254909 20994.90009661
0.08700000 1139573.59274380 16546.60934363
0.08800000 1129987.85827445 19610.94020136
0.08900000 1120392.60862880 27225.54166846
0.09000000 1110789.65287448 19710.96331619
0.09100000 1101180.72459611 25833.70101272
0.09200000 1091567.81781878 21318.32048368
0.09300000 1081955.34024288 19832.24231861
0.09400000 1072341.99399139 18337.04895905
0.09500000 1062731.85384953 19894.34123915
0.09600000 1053126.57781574 18387.59091302
0.09700000 1043531.13662859 21475.87180146
0.09800000 1033944.10430501 16889.47773793
0.09900000 1024369.39838043 15365.54169823
0.10000000 1014806.76895868 15374.32327274
0.10100000 1005259.91620539 16918.52518545
0.10200000 995730.66018810 18460.84730822
0.10300000 986220.41824710 15385.03924838
0.10400000 976731.68105487 15383.52470033
0.10500000 967268.01024515 16917.51829515
0.10600001 957825.80695319 15373.10492496
0.10700001 948412.74460894 21510.00205994
0.10800001 939026.44771383 23029.62471399
0.10900001 929671.46777230 18407.49592825
0.11000001 920348.06724283 24518.07366540
0.11100001 911057.68136839 15305.76976748
0.11200001 901802.91832287 19871.22824072
0.11300001 892583.64632607 19842.13539201
0.11400001 883403.08933838 19810.31521117
0.11500001 874262.60020874 19775.82094793
0.11600001 865162.90007083 18220.33153351
0.11700001 856105.86221495 18183.68936981
0.11800001 847091.88127054 16632.64987212
0.11900001 838122.42486289 15086.20435812
0.12000001 829199.31783800 18059.96199322
0.12100001 820325.09665387 21016.72996633
0.12200001 811499.06855607 20961.02192830
0.12300001 802723.59972333 17916.79158996
0.12400001 793998.77263183 19353.72099480
0.12500001 785325.28951878 16326.91353843
0.12600001 776706.85782505 17755.51960658
0.12700001 768142.02974880 20647.65873270
0.12800001 759631.95049472 20578.43050875
0.12900001 751178.71514416 19042.38132641
0.13000001 742782.49035032 17514.81194802
0.13100001 734443.63354281 17450.38155555
0.13200001 726163.38883282 18833.04837718
0.13300001 717943.83112162 17316.80602302
0.13400001 709783.38149961 17247.73698360
0.13500001 701684.96998622 21471.56109392
0.13600001 693647.48520475 22807.13038891
0.13700001 685672.84962503 19870.80011911
0.13800001 677759.90374423 15544.42412538
0.13900001 669911.96609921 18288.59753697
0.14000001 662127.20892489 21005.98669380
0.14100001 654407.20632755 13938.87415218
0.14200001 646751.78022292 16647.39160812
0.14300001 639163.01068316 16567.10601834
0.14400001 631637.22409152 17859.54335362
0.14500001 624179.53724297 21871.25201671
0.14600001 616787.61676981 14960.18435049
0.14700001 609464.14145671 17589.13595223
0.14800001 602204.80882436 14805.20592344
0.14900001 595014.06795200 13387.81716057
0.15000001 587890.14389281 13315.71238745
0.15100001 580833.90764260 14567.31509103
0.15200001 573845.69768130 17120.68719820
0.15300001 566926.10692324 18334.39116308
0.15400001 560072.05777737 15626.01114940
0.15500001 553287.66134861 18125.70464119
0.15600001 546568.46767013 19307.53203166
0.15700001 539920.69581588 16634.95742320
0.15800001 533337.03211336 13992.09769790
0.15900001 526823.46730905 13908.14019343
0.16000001 520375.01929308 12567.05730912
0.16100001 513997.08783623 13739.14280641
0.16200001 507685.27147907 13654.19602099
0.16300001 501440.41426994 14802.52172804
0.16400001 495262.87279935 14709.30801656
0.16500001 489151.51048261 17051.82246046
0.16600001 483107.61579148 14522.21561633
0.16700001 477128.48741389 18035.45767578
0.16800001 471214.87276892 19112.47614193
0.16900001 465369.06577944 21360.44112787
0.17000001 459587.11216510 18861.45597389
0.17100001 453870.24591701 12880.83818737
0.17200001 448218.59942224 13957.52784512
0.17300001 442630.92683471 13863.20128315
0.17400001 437107.42137043 14916.29145870
0.17500001 431647.15404558 13674.58248598
0.17600001 426248.66946698 12448.59297972
0.17700001 420914.62104263 11238.42091264
0.17800001 415641.34712862 12275.96776726
0.17900001 410430.28667705 13297.94191645
0.18000001 405280.63408538 13204.04368220
0.18100001 400193.00144766 16387.90418339
0.18200001 395163.09986403 11931.95036403
0.18300001 390193.95374523 15077.09508495
0.18400001 385283.77927431 11760.78791794
0.18500001 380433.75449548 11675.51247704
0.18600001 375640.27224078 11590.38114756
0.18700001 370903.99199467 13597.34098893
0.18800001 366224.86373703 17650.20814171
0.18900001 361604.30654671 12366.86786820
0.19000001 357035.53031711 14320.69579765
0.19100001 352526.37173858 12183.31198295
0.19200001 348068.82026361 11084.25210504
0.19300001 343667.81620644 13000.95410142
0.19400001 339318.47208316 9925.06577743
0.19500001 335022.91276684 12804.57633103
0.19600001 330779.45081454 13684.34652687
0.19700001 326587.52645885 10669.61499363
0.19800001 322446.99019263 13475.06035696
0.19900001 318357.68318318 11460.87713624
0.20000001 314316.68716644 11371.97827913
0.20100001 310326.51634164 11283.47266747
0.20200001 306383.59816715 13994.07150769
0.20300001 302490.44601637 10181.82889415
0.20400001 298643.97723979 11019.96328101
0.20500001 294844.09890979 10021.75139564
0.20600001 291090.65385218 10846.03827520
0.20700001 287383.41177315 9862.99915827
0.20800001 283719.90240607 14231.39097741
0.20900001 280103.32851326 10587.90631830
0.21000001 276528.53480303 9627.34139427
0.21100001 272997.76095795 12153.86089240
0.21200001 269509.38908028 9471.90792701
0.21300001 266062.42317368 8540.60418764
0.21400001 262657.90773343 12706.07688730
0.21500001 259295.27344303 10081.40070809
0.21600001 255971.82318774 9165.07156255
0.21700001 252688.37112643 11568.07417710
0.21800001 249444.35252500 9013.67210466
0.21900001 246238.33137143 8125.86531946
0.22000001 243070.03323047 8057.77198258
0.22100001 239941.05530019 12784.06003087
0.22200001 236848.87265276 10299.37371431
0.22300001 233792.11925442 10997.58180975
0.22400001 230770.78917618 9346.21740358
0.22500001 227787.44441400 8494.19420387
0.22600001 224836.76493767 8421.26142897
0.22700001 221922.65317948 9107.70611718
0.22800001 219041.30230109 11286.10363478
0.22900001 216192.63557277 11933.83404798
0.23000001 213378.08606577 8132.90613502
0.23100001 210596.83020376 8061.64704146
0.23200001 207845.82710888 10169.89680141
0.23300001 205127.06947061 10799.94071841
0.23400001 202440.14289889 9990.42152456
0.23500001 199782.22726581 9901.20765158
0.23600001 197155.98403971 9812.45378976
0.23700001 194559.10891008 9029.48867159
0.23800001 191991.83615910 7571.19841704
0.23900001 189453.08974851 8184.37386425
0.24000001 186942.92495018 10812.77929057
0.24100001 184461.99353482 8035.16481845
0.24200001 182008.40932111 7961.04820028
0.24300001 179582.11534672 7229.97630586
0.24400001 177182.66021060 7162.60937783
0.24500001 174810.00076143 6450.48933323
0.24600001 172463.67706306 7667.73544495
0.24700001 170143.76866326 7595.21819243
0.24800001 167849.45864763 7523.01309248
0.24900001 165579.48102253 6830.15391530
0.25000001 163335.68433199 6149.58880603
0.25100001 161115.17312349 8526.21536506
0.25200001 158920.75403336 6634.14719098
0.25300001 156750.25043287 6569.40330644
0.25400001 154602.90384857 8278.98589278
0.25500001 152478.75064943 6440.70273215
0.25600001 150378.55218887 8115.93084562
0.25700001 148300.58332182 6313.15613071
0.25800001 146245.94978659 7386.15204344
0.25900001 144213.75461142 8436.50504394
0.26000001 142203.64716175 6680.72765976
0.26100001 140214.64587209 8265.65376526
0.26200001 138248.49080060 5999.29354216
0.26300001 136302.90744779 9715.67170260
0.26400001 134378.85230624 6409.87155831
0.26500001 132476.27724138 5814.38408325
0.26600001 130593.53071275 5753.29826779
0.26700001 128732.41231194 7245.06050775
0.26800001 126892.09147934 5632.10574683
0.26900001 125070.52416088 6584.96340868
0.27000001 123270.04743855 5512.02043206
0.27100001 121488.76272096 4956.74175358
0.27200001 119728.65789965 5393.17765031
0.27300001 117987.14256184 5334.19896766
0.27400001 116263.03017219 7673.36035450
0.27500001 114561.08020896 8062.80920668
0.27600001 112875.60609651 5627.97798632
0.27700001 111210.64281862 4637.48402501
0.27800001 109563.33344898 5043.74829403
0.27900001 107935.81661967 5439.96541509
0.28000001 106325.18605811 4481.60680446
0.28100001 104733.69706617 7088.37695292
0.28200001 103160.79647931 5255.01122137
0.28300001 101605.43232735 4328.39162201
0.28400001 100067.53538892 4277.88734035
0.28500001 98548.03622238  5918.79533566
0.28600001 97045.81362693  5431.16921670
0.28700001 95561.08083490  4541.06277621
0.28800001 94092.95699331  5302.60884235
0.28900001 92644.09190121  4030.01818846
0.29000001 91210.67735837  3981.34625515
0.29100001 89795.23764666  4326.33475460
0.29200001 88396.60058578  4662.03693557
0.29300001 87014.77824841  5372.29266336
0.29400001 85649.05804179  4168.96809753
0.29500001 84301.22982125  4117.27225937
0.29600001 82969.04633548  4435.52542706
0.29700001 81653.39102362  4014.89742669
0.29800001 80353.94874016  5405.81215740
0.29900001 79071.45816301  5337.32367867
0.30000001 77804.34847601  6674.44634998
0.30100001 76554.45821893  4161.50054579
0.30200001 75318.70594639  3765.55888205
0.30300001 74100.41801590  3716.87714364
0.30400001 72897.73237127  4669.09997942
0.30500001 71710.43533027  3949.81096498
0.30600001 70537.89752233  3573.09736815
0.30700001 69382.16656451  4808.18437056
0.30800001 68241.22141189  3162.98076219
0.30900001 67115.79699496  3120.88470802
0.31000001 66006.04348752  3079.18207448
0.31100001 64910.49363795  3341.59237069
0.31200001 63830.77996123  3296.54078717
0.31300001 62765.32144039  3843.12081375
0.31400001 61715.93576779  3499.29372371
0.31500001 60680.51383578  4026.75908880
0.31600002 59660.19046394  3404.21062905
0.31700002 58654.38624606  3357.37722769
0.31800002 57663.17931090  3586.93823887
0.31900002 56686.65620808  3265.15155219
0.32000002 55724.52708148  2951.44971662
0.32100002 54776.05066585  3174.82004692
0.32200002 53843.07821496  3913.04589456
0.32300002 52922.56055236  3600.85119049
0.32400002 52016.70248464  3296.55867606
0.32500002 51124.73020835  2749.99936812
0.32600002 50246.96313727  2957.53639031
0.32700002 49382.17185394  2915.52356431
0.32800002 48532.05007196  3832.09085514
0.32900002 47694.66446011  2596.97460283
0.33000002 46871.62996603  2327.17653801
0.33100002 46059.58778649  2523.14433843
0.33200002 45263.91732886  2487.02605541
0.33300002 44479.77733002  2451.28064474
0.33400002 43709.20060584  3074.94240824
0.33500002 42950.65478807  3030.59834536
0.33600002 42205.91078062  3200.26333649
0.33700002 41472.99831536  2943.75355983
0.33800002 40753.69108147  2694.02287652
0.33900002 40045.94097537  2042.34308646
0.34000002 39351.23914149  2012.81597741
0.34100002 38668.50834346  2975.54185795
0.34200002 37998.63883518  2346.03607279
0.34300002 37339.80775110  2504.75442257
0.34400002 36694.25736275  2278.71349015
0.34500002 36059.71860146  2620.09927767
0.34600002 35437.95555031  2766.81851063
0.34700002 34826.18243171  2726.89021355
0.34800002 34227.49107282  1970.99016678
0.34900002 33639.54419504  1942.68376927
0.35000002 33063.04384113  2088.92320882
0.35100002 32498.42559759  2573.87542923
0.35200002 31943.51813617  2367.97311159
0.35300002 31400.10992641  2167.54969088
0.35400002 30867.85617940  1972.45610329
0.35500002 30346.48073690  1944.60257772
0.35600002 29834.75383476  1917.18137223
0.35700002 29334.16434992  1732.76917022
0.35800002 28844.32133398  1708.59345515
0.35900002 28364.68369834  1991.20088994
0.36000002 27895.37422948  1661.58804468
0.36100002 27435.36533921  1787.68849018
0.36200002 26986.37842001  1910.23088694
0.36300002 26546.23724677  1739.30954679
0.36400002 26115.77982499  2144.75851972
0.36500002 25694.84621158  1410.64712383
0.36600002 25283.66021361  2226.98489710
0.36700002 24881.23047911  1510.78838625
0.36800002 24489.53180444  1897.69390942
0.36900002 24105.91610030  1337.87840694
0.37000002 23730.80626331  1584.74331733
0.37100002 23364.41589220  1564.48136225
0.37200002 23007.72700262  1544.73886413
0.37300002 22658.91340169  1525.39812246
0.37400002 22318.72456606  1632.05681121
0.37500002 21987.28647244  1488.09961895
0.37600002 21664.24988433  1470.13606679
0.37700002 21348.63062245  1452.56089636
0.37800002 21040.98530679  1674.65209990
0.37900002 20741.87493216  1655.20169800
0.38000002 20450.51534879  1285.62170831
0.38100002 20165.74506155  1617.69614547
0.38200002 19889.50943013  1371.18284507
0.38300002 19620.05028471  1356.13793992
0.38400002 19358.57937345  1117.95801178
0.38500002 19103.21716874  1216.68395912
0.38600002 18856.07960200  1422.97411458
0.38700002 18615.16642037  1083.40273699
0.38800002 18381.26657360  1394.31104200
0.38900002 18153.39237492  1168.17085467
0.39000002 17933.36574043  1051.79195051
0.39100002 17718.78872795  1666.98372250
0.39200002 17511.08530071  1341.96208560
0.39300002 17309.27135750  1125.27578426
0.39400002 17114.91270831  1318.27621381
0.39500002 16925.27625500  1407.50604005
0.39600002 16741.74867314  1196.36541686
0.39700002 16563.92863522  1087.75324501
0.39800002 16392.20844653  1177.28846641
0.39900002 16225.70543643  973.54237231
0.40000002 16064.62324676  1159.54456089
0.40100002 15909.25241564  1151.19355934
0.40200002 15759.22622993  1047.90979781
0.40300002 15613.80398836  1135.43587983
0.40400002 15473.90240852  1034.04357744
0.40500002 15339.13414771  1120.98397663
0.40600002 15209.04179100  928.51204533
0.40700002 15083.71175629  1292.37248451
0.40800002 14963.11093735  1101.58427940
0.40900002 14846.95738088  1095.70550663
0.41000002 14735.67116684  1271.83583867
0.41100002 14628.44524229  1356.05693821
0.41200002 14525.24823844  1169.79092231
0.41300002 14426.95524086  1254.27954807
0.41400002 14332.19282132  892.17904540
0.41500002 14241.67763408  1333.02108971
0.41600002 14154.52462209  1150.97522418
0.41700002 14071.67056593  970.52316492
0.41800002 13993.42144482  1319.22986922
0.41900002 13916.89550970  964.44090452
0.42000002 13845.13577533  961.75240221
0.42100002 13777.18996785  1220.93463280
0.42200002 13712.55629803  1044.07408601
0.42300002 13650.66117078  1302.27313740
0.42400002 13591.93846073  1473.02640048
0.42500002 13536.89446446  865.00759727
0.42600002 13483.87558203  1036.37072634
0.42700002 13435.29416965  1121.30970453
0.42800002 13388.63850041  1206.18249966
0.42900002 13345.90923280  1119.05454220
0.43000002 13305.40471327  946.21390102
0.43100002 13266.60962778  1203.54688247
0.43200002 13231.61124824  1117.21114869
0.43300002 13198.92418397  1031.10000611
0.43400002 13168.66119782  1117.03173904
0.43500002 13140.67050925  1375.03982725
0.43600002 13115.43196732  945.68826682
0.43700002 13091.87262895  1204.19050148
0.43800002 13070.43324585  1291.03210504
0.43900002 13051.84966477  1119.84875431
0.44000002 13034.90440282  1207.16255395
0.44100002 13020.32459278  1294.87134212
0.44200002 13007.35715282  950.77281614
0.44300002 12996.55124844  952.12738958
0.44400002 12987.73110254  953.62420140
0.44500002 12979.58031992  1215.66755038
0.44600002 12973.58491509  1217.83047369
0.44700002 12970.19518062  1133.07630468
0.44800002 12966.99494547  1047.99258116
0.44900002 12966.94537178  962.79573948
0.45000002 12967.69416358  1140.44391726
0.45100002 12969.52482566  1055.20058982
0.45200002 12973.12419800  969.67621414
0.45300002 12977.67108262  1148.91327539
0.45400002 12983.91755001  1063.38289774
0.45500002 12991.36852149  977.47061388
0.45600002 12999.85282536  1247.59593478
0.45700002 13009.50448270  1340.62950048
0.45800002 13019.92770211  986.06427125
0.45900002 13031.50586379  989.09134194
0.46000002 13044.79642690  1172.66203037
0.46100002 13057.97459128  1266.88475489
0.46200002 13072.93651837  1089.49858108
0.46300002 13088.72693754  1002.07298183
0.46400002 13104.60769319  1005.45107291
0.46500002 13121.86958745  1284.10621869
0.46600002 13139.60077607  920.42907799
0.46700002 13157.75491595  1108.40932665
0.46800002 13177.54023891  1019.74399972
0.46900002 13196.94707394  930.38481281
0.47000002 13217.34745239  1213.94733430
0.47100002 13238.34043133  1031.00200166
0.47200002 13259.96258645  1223.03270713
0.47300002 13282.20683414  1133.23794080
0.47400002 13304.18722647  1421.88507722
0.47500002 13327.01292139  1427.32315153
0.47600002 13350.70441911  1146.29153576
0.47700002 13373.91373937  1054.80062662
