# SAXS profile: number of points = 501, q_min = 0, q_max = 0.5, delta_q = 0.001
#    q    intensity    error
0.00000000 1646666.22097350 370.49989972
0.00100000 1646580.65485725 592.76904983
0.00200000 1646323.92811462 740.84579111
0.00300000 1645896.24865332 1382.55289812
0.00400000 1645297.49642943 2221.15170458
0.00500000 1644528.32375120 2368.12087993
0.00600000 1643588.56511909 1898.34487000
0.00700000 1642478.95933682 2168.07231643
0.00800000 1641199.30549022 2437.18107155
0.00900000 1639751.01441344 2459.62662676
0.01000000 1638133.44283741 2973.21232713
0.01100000 1636348.09857166 3239.96937624
0.01200000 1634394.99833022 3505.77742512
0.01300000 1632275.42683160 3427.77854753
0.01400000 1629989.55605189 5867.96266192
0.01500000 1627538.89457920 5859.14028139
0.01600000 1624923.13549542 4972.26501689
0.01700000 1622144.42285110 4817.76915199
0.01800000 1619203.23116654 4614.72941648
0.01900000 1616100.66220521 4848.30220538
0.02000000 1612837.31063136 6096.52530997
0.02100000 1609415.99785742 7435.50224722
0.02200000 1605835.26935013 5540.13193096
0.02300000 1602098.32958448 6921.06509884
0.02400000 1598205.69704489 5993.27163720
0.02500000 1594159.67679037 6838.94532577
0.02600000 1589960.72507395 7727.20947729
0.02700000 1585610.85759014 11321.26204172
0.02800000 1581110.32833762 8253.39629242
0.02900000 1576462.51306703 9222.30612488
0.03000000 1571668.21199757 10231.56053040
0.03100000 1566728.77554978 8272.32831554
0.03200000 1561645.57928543 8503.16057085
0.03300000 1556422.63113665 8731.53136320
0.03400000 1551058.42019577 9771.66849810
0.03500000 1545557.21671901 14188.21590467
0.03600000 1539919.33975954 9401.20800370
0.03700000 1534148.00161648 13991.43042181
0.03800000 1528244.50247503 10728.27690387
0.03900000 1522211.50743397 9133.26946757
0.04000000 1516049.11569339 13985.55374035
0.04100000 1509761.35086750 12364.94603692
0.04200000 1503349.62659935 14544.90831213
0.04300000 1496815.71012699 9878.98414540
0.04400000 1490162.87998734 11064.45989776
0.04500000 1483392.69599388 11258.95108574
0.04600000 1476506.09238682 16654.98949636
0.04700000 1469507.34614715 13754.58939963
0.04800000 1462397.79191907 13973.21155193
0.04900000 1455179.95606632 21827.70035702
0.05000000 1447855.85581573 14398.92715659
0.05100000 1440429.01098622 11235.34680908
0.05200000 1432898.97311590 12530.70210385
0.05300000 1425270.82909581 15008.10253002
0.05400000 1417545.92505971 15203.18075525
0.05500000 1409727.48846398 14210.05374661
0.05600000 1401816.54608937 14382.63843403
0.05700000 1393817.88362783 14551.45938432
0.05800000 1385730.91155873 15942.83488189
0.05900000 1377559.58298600 21076.66260409
0.06000000 1369307.51653921 22552.49585103
0.06100000 1360976.04117371 16454.20110672
0.06200000 1352567.95211788 14059.94451948
0.06300000 1344086.61269477 12903.23208516
0.06400000 1335531.11450004 16927.85766795
0.06500000 1326908.38493102 21018.22980049
0.06600000 1318218.90655465 13248.10063073
0.06700000 1309464.64497486 20034.81000572
0.06800000 1300649.32279706 28269.61435427
0.06900000 1291776.30189084 16276.38216587
0.07000000 1282845.51779153 15028.53594469
0.07100000 1273861.34555990 15133.47349407
0.07200000 1264825.25814211 19389.77211567
0.07300000 1255741.19466241 18120.34628802
0.07400000 1246611.77608555 14024.38313820
0.07500000 1237437.57383113 14106.78900290
0.07600000 1228221.95037460 14185.96419187
0.07700000 1218968.81922789 15688.12943906
0.07800000 1209678.78224199 22935.51078690
0.07900000 1200354.12141368 15844.67514583
0.08000000 1191000.34997979 18811.85141041
0.08100000 1181617.57253473 21800.84523612
0.08200000 1172207.45974455 16053.38191451
0.08300000 1162773.59276962 17581.13754779
0.08400000 1153318.59830747 19116.25666424
0.08500000 1143844.69647590 16231.15700497
0.08600000 1134354.09609839 16283.65381403
0.08700000 1124849.10817121 14848.00892509
0.08800000 1115331.52113897 19356.57945842
0.08900000 1105804.88607826 16421.20332956
0.09000000 1096270.74316141 17956.91561652
0.09100000 1086731.27870226 16496.58158573
0.09200000 1077188.26764158 19534.81015156
0.09300000 1067646.06971246 16559.19131939
0.09400000 1058103.48721166 18093.57048167
0.09500000 1048564.40955774 24158.92513174
0.09600000 1039030.54521293 18141.47417221
0.09700000 1029507.13935064 18160.50679192
0.09800000 1019992.41220015 15146.88803334
0.09900000 1010490.29685352 16673.09068209
0.10000000 1001000.56953304 18198.19120992
0.10100000 991527.14439524 22755.54903410
0.10200000 982071.58781654 19724.90876908
0.10300000 972635.28752765 22759.66679878
0.10400000 963221.07045820 15170.73257343
0.10500000 953832.06622416 19715.70973646
0.10600001 944464.77952047 15158.66042457
0.10700001 935126.79124525 21208.67662347
0.10800001 925816.05610040 24219.34916739
0.10900001 916536.93918995 18147.43225008
0.11000001 907289.58582188 19638.28400948
0.11100001 898075.56412193 19613.97124372
0.11200001 888897.22540034 19586.85128379
0.11300001 879754.90776430 18052.57155725
0.11400001 870651.28323888 16520.60887732
0.11500001 861588.02951659 14991.63241951
0.11600001 852565.75655866 16458.78270543
0.11700001 843586.19025274 14931.47627067
0.11800001 834650.05811652 16388.35466298
0.11900001 825758.58942720 19322.75190273
0.12000001 816913.54174558 16309.67962922
0.12100001 808117.82819546 14788.55695264
0.12200001 799370.20083430 19172.89517027
0.12300001 790673.27399732 22059.78538386
0.12400001 782027.31935278 17595.61551450
0.12500001 773432.54089458 14617.87571171
0.12600001 764893.08380847 17485.45671984
0.12700001 756407.21979778 20332.22702635
0.12800001 747976.40268380 18815.34729626
0.12900001 739602.17392997 20191.14029994
0.13000001 731285.24271508 15806.73126633
0.13100001 723025.81912297 20042.27665083
0.13200001 714825.03247617 14260.76007016
0.13300001 706684.83746591 21306.54885405
0.13400001 698604.10775313 14146.73384896
0.13500001 690584.98861744 14087.93443202
0.13600001 682627.15783706 15430.78763048
0.13700001 674731.87312656 16760.34051877
0.13800001 666898.73522305 13904.83928509
0.13900001 659130.21421459 15225.90866638
0.14000001 651425.04721399 17910.93251784
0.14100001 643784.54882656 13712.61153673
0.14200001 636208.45492180 15011.33920189
0.14300001 628699.12501670 17653.87226316
0.14400001 621252.85456122 18917.15031371
0.14500001 613874.45134704 18821.39156615
0.14600001 606561.74478377 14712.15581377
0.14700001 599317.34348606 17296.29934899
0.14800001 592137.24463531 18527.97525876
0.14900001 585025.55558047 14479.38318377
0.15000001 577980.35491671 14400.38122220
0.15100001 571003.12254542 13018.87180833
0.15200001 564093.45515365 18124.32356932
0.15300001 557252.33575040 21883.30025757
0.15400001 550476.63686582 16638.15713444
0.15500001 543770.56362249 16541.50132604
0.15600001 537129.60773332 17709.16400275
0.15700001 530559.77773332 13831.69405832
0.15800001 524053.92322726 14998.42399067
0.15900001 517617.99642800 14907.39900076
0.16000001 511246.92050871 22223.90468354
0.16100001 504946.32337895 13497.21586105
0.16200001 498711.59338427 14632.19884062
0.16300001 492543.74188882 13328.23428471
0.16400001 486442.84072018 15651.29913906
0.16500001 480407.94003282 13158.37409872
0.16600001 474440.35330319 13073.20455250
0.16700001 468537.21865838 15349.28000796
0.16800001 462699.47854258 12902.37556836
0.16900001 456929.21025999 12816.86495298
0.17000001 451222.74152215 18518.18218649
0.17100001 445580.80491585 13795.18237162
0.17200001 440004.07203043 13701.72745006
0.17300001 434490.87615457 14742.27612412
0.17400001 429041.63638854 13514.81218449
0.17500001 423655.45752962 14539.85598910
0.17600001 418330.70227166 13328.01680385
0.17700001 413070.02924916 13234.76436223
0.17800001 407869.97854602 13141.57132946
0.17900001 402731.84163002 11961.13626138
0.18000001 397654.78615322 11875.96074943
0.18100001 392639.37197146 11790.96089727
0.18200001 387681.41811410 12770.22651592
0.18300001 382783.82486029 10564.83406522
0.18400001 377945.04321249 13634.36807799
0.18500001 373166.04475885 12493.59976875
0.18600001 368443.01036728 14468.75770068
0.18700001 363777.06695887 12310.21652748
0.18800001 359167.90728845 12218.89278325
0.18900001 354616.95773629 14149.21728219
0.19000001 350117.48492249 10030.86641698
0.19100001 345677.22531045 10951.05501527
0.19200001 341288.39790781 11856.35950355
0.19300001 336955.41256530 10785.94326588
0.19400001 332673.96157088 9730.71383576
0.19500001 328445.83925003 11587.56975631
0.19600001 324269.49477494 13415.02963278
0.19700001 320144.13661869 12360.76569899
0.19800001 316070.01617237 13208.56660006
0.19900001 312046.51250286 11233.67498101
0.20000001 308071.15503313 12074.84949219
0.20100001 304146.01834135 13823.43718694
0.20200001 300267.93371960 14629.05442224
0.20300001 296439.08042398 14513.65806354
0.20400001 292656.64024711 10799.03053554
0.20500001 288920.27875592 15176.98296042
0.20600001 285229.81945244 11513.30220641
0.20700001 281585.26288385 10542.55274071
0.20800001 277984.12537208 10457.76329084
0.20900001 274429.59023609 8644.53250107
0.21000001 270916.24144146 14576.64905983
0.21100001 267446.47093402 9355.27799553
0.21200001 264018.80659610 10966.02165038
0.21300001 260631.90218915 11712.79823811
0.21400001 257287.17770471 9127.26306058
0.21500001 253983.89865427 8229.07870545
0.21600001 250719.32432557 10609.18871042
0.21700001 247494.44708085 9711.68256262
0.21800001 244308.35601876 9630.63584960
0.21900001 241159.95940011 8754.10694013
0.22000001 238048.96067076 8680.45576129
0.22100001 234976.70842103 10954.61466456
0.22200001 231940.76223299 7758.41886355
0.22300001 228939.83607652 12307.80616945
0.22400001 225974.12470366 12202.60331101
0.22500001 223045.55316543 9829.61799282
0.22600001 220149.35162300 7496.08577724
0.22700001 217289.25864108 8174.42229664
0.22800001 214461.64656686 7366.75790795
0.22900001 211666.18530193 8762.98048591
0.23000001 208904.35620788 8686.24354191
0.23100001 206175.40260463 10044.86608995
0.23200001 203476.37087487 9244.94934793
0.23300001 200808.86850538 15506.46155936
0.23400001 198172.87606202 11176.95073852
0.23500001 195565.52515969 7615.32190989
0.23600001 192989.30720650 10977.23231310
0.23700001 190442.05575624 6798.78171207
0.23800001 187923.92485232 10105.60953692
0.23900001 185433.95006692 8678.30927361
0.24000001 182972.07314801 7937.32890860
0.24100001 180538.91761362 12451.76973679
0.24200001 178132.85016638 8440.82550440
0.24300001 175753.33496175 7719.08683665
0.24400001 173400.37668508 7009.71055908
0.24500001 171073.82353858 10731.46145822
0.24600001 168773.03441914 7503.64946524
0.24700001 166498.24423694 6193.73497861
0.24800001 164248.64564346 9815.49952799
0.24900001 162023.02888300 9113.79580582
0.25000001 159823.01008137 6017.33661423
0.25100001 157645.89554543 7746.71967359
0.25200001 155494.40816396 7081.21568280
0.25300001 153366.46611264 6427.58889887
0.25400001 151261.13470083 6364.31254364
0.25500001 149178.69457593 6301.30835701
0.25600001 147119.68504065 6238.61053931
0.25700001 145082.57176307 6737.63495146
0.25800001 143068.22898074 7225.66124655
0.25900001 141075.92005332 6052.15725664
0.26000001 139105.42620495 8168.96654040
0.26100001 137155.31398179 6468.24491343
0.26200001 135228.04866698 6935.17080404
0.26300001 133320.66791313 6335.39843901
0.26400001 131434.38837520 5224.51718513
0.26500001 129569.21464984 7237.73667282
0.26600001 127723.48465340 9207.58644436
0.26700001 125898.97078148 6073.36663789
0.26800001 124094.83018115 7010.11728866
0.26900001 122308.93726902 7430.26829070
0.27000001 120543.93884673 7840.17815361
0.27100001 118797.59663861 4846.94217223
0.27200001 117072.03010697 5273.50984573
0.27300001 115364.63331811 5215.63531914
0.27400001 113674.37573078 7971.41597537
0.27500001 112005.81581311 6491.85739176
0.27600001 110353.31255657 4585.18035372
0.27700001 108720.95931550 4987.03063982
0.27800001 107105.77334711 4930.61450939
0.27900001 105510.16261474 5760.85515141
0.28000001 103931.05284854 8323.31876130
0.28100001 102370.62728758 5196.33328705
0.28200001 100828.39497947 5564.21524029
0.28300001 99303.33840138  5499.41914096
0.28400001 97795.39996758  4180.75354649
0.28500001 96305.51437613  4957.80811474
0.28600001 94832.55183653  4490.79570478
0.28700001 93376.65404345  5244.03313929
0.28800001 91937.03815562  5978.20618904
0.28900001 90516.32356579  3937.46026149
0.29000001 89110.83490022  5056.59456576
0.29100001 87722.74423487  4226.48201730
0.29200001 86351.31829386  6831.25311359
0.29300001 84996.26060912  4123.16879732
0.29400001 83656.95276010  4812.36643533
0.29500001 82335.14984282  4021.24890868
0.29600001 81028.84701270  4331.80236636
0.29700001 79738.55175333  4277.17611852
0.29800001 78464.36575221  4222.95236469
0.29900001 77206.63712856  3821.72871878
0.30000001 75963.94148927  4458.70375679
0.30100001 74738.19937748  4739.89682891
0.30200001 73526.21439520  4010.11992296
0.30300001 72331.55074158  3628.15075696
0.30400001 71152.07238924  4557.29045228
0.30500001 69987.71987841  5139.89839120
0.30600001 68837.76113900  4754.96857579
0.30700001 67704.41641421  3753.53302371
0.30800001 66585.41287682  3394.85743625
0.30900001 65481.77158937  3958.37327998
0.31000001 64393.51029704  5106.72757588
0.31100001 63319.14063091  3852.33669837
0.31200001 62260.34146521  3215.43548721
0.31300001 61215.52103407  2883.25117722
0.31400001 60186.34667781  3412.56601821
0.31500001 59171.00916037  3365.64716040
0.31600002 58170.54456243  3042.61047740
0.31700002 57184.29940239  3000.46033171
0.31800002 56212.37793957  3496.69113529
0.31900002 55254.89043918  3447.90532666
0.32000002 54311.47745248  4184.15642106
0.32100002 53381.51325234  3351.82537582
0.32200002 52466.82685502  3304.62324594
0.32300002 51564.40967882  3257.83955777
0.32400002 50676.34783285  2964.56648860
0.32500002 49801.92152777  3652.97111704
0.32600002 48941.41964834  2880.69209691
0.32700002 48093.71955195  3312.69555960
0.32800002 47260.52904466  2565.53794068
0.32900002 46439.76156634  2758.52196767
0.33000002 45633.08280839  2265.68266873
0.33100002 44837.19986211  2902.76045653
0.33200002 44057.54201649  3741.14635749
0.33300002 43289.23389451  3903.82329747
0.33400002 42534.10071833  2137.33866231
0.33500002 41791.05513196  2527.52313407
0.33600002 41061.34897906  2905.91180486
0.33700002 40343.45415511  2659.03718929
0.33800002 39638.88384100  3023.45600816
0.33900002 38945.70975966  2184.85442099
0.34000002 38265.39055123  1957.27481939
0.34100002 37596.82435026  2507.33233466
0.34200002 36940.92456376  3231.03811999
0.34300002 36296.03300600  2060.16293099
0.34400002 35664.08760007  2399.30160692
0.34500002 35043.00151045  2364.35142389
0.34600002 34434.54009713  2688.47684541
0.34700002 33835.93530735  2119.48308803
0.34800002 33250.16742296  2088.77561644
0.34900002 32675.04795167  1886.98410858
0.35000002 32111.19344652  2197.85073954
0.35100002 31559.02391007  1832.94819551
0.35200002 31016.48825466  1970.78775704
0.35300002 30485.28281808  2104.39917260
0.35400002 29965.03392831  2233.89338516
0.35500002 29455.47458628  2044.79914263
0.35600002 28955.49784160  2170.79377600
0.35700002 28466.62768176  1528.65797891
0.35800002 27988.13019784  2411.45741206
0.35900002 27519.83416091  1634.67822659
0.36000002 27061.72543763  2051.54950260
0.36100002 26612.78609364  1445.07435333
0.36200002 26174.62802375  1710.25027608
0.36300002 25745.34808454  1827.40489360
0.36400002 25325.61093097  2079.86589622
0.36500002 24915.22728220  1504.63064684
0.36600002 24514.48993246  1754.37955512
0.36700002 24122.45216322  1464.71536473
0.36800002 23740.87018675  1708.27439521
0.36900002 23367.38367380  1426.57884086
0.37000002 23002.24688219  1792.10513948
0.37100002 22645.79976407  1516.36282403
0.37200002 22298.81387778  1497.14243467
0.37300002 21959.69387107  1601.52054988
0.37400002 21629.09185978  1946.61835959
0.37500002 21307.07952182  1562.23514454
0.37600002 20993.42942972  1424.61418859
0.37700002 20687.08186865  1876.73215603
0.37800002 20388.65185755  1275.00440431
0.37900002 20098.64888118  1145.62304050
0.38000002 19816.26615899  1245.74963110
0.38100002 19540.40185932  1231.63158754
0.38200002 19272.98016573  1771.57242076
0.38300002 19012.31779174  1204.62051235
0.38400002 18759.47071407  1408.36733058
0.38500002 18512.85767089  1607.84176489
0.38600002 18274.13924934  1591.22075052
0.38700002 18041.61842085  1260.02669021
0.38800002 17816.10523723  1247.48374781
0.38900002 17596.47759557  1441.15158335
0.39000002 17384.68673045  1427.45669506
0.39100002 17178.32596244  1111.09417589
0.39200002 16978.66168999  1301.15980026
0.39300002 16784.92213627  1190.38673430
0.39400002 16598.45915360  1180.15050173
0.39500002 16416.68463157  1072.66622465
0.39600002 16241.03569768  1354.01521027
0.39700002 16070.96354179  1151.32388268
0.39800002 15906.97312561  1523.25181868
0.39900002 15748.12633000  1039.37638702
0.40000002 15594.61198957  938.01595562
0.40100002 15446.84003562  931.44449828
0.40200002 15304.21252970  1017.65366038
0.40300002 15166.22495609  1562.42456900
0.40400002 15033.65814750  1369.94216360
0.40500002 14906.24967389  1270.90690741
0.40600002 14783.46181544  992.78342525
0.40700002 14665.38673974  1077.02605320
0.40800002 14551.87136125  892.75735031
0.40900002 14442.89593923  888.23814235
0.41000002 14338.72318452  1060.77879145
0.41100002 14238.51457920  1319.91036403
0.41200002 14142.31965197  1138.95176714
0.41300002 14050.99999736  959.82385530
0.41400002 13963.12430095  1043.04543470
0.41500002 13879.47151941  952.68697023
0.41600002 13799.18836591  1294.70890978
0.41700002 13723.08116528  1290.65584475
0.41800002 13651.65230852  1372.81022119
0.41900002 13581.82985931  1026.78638602
0.42000002 13516.66540754  853.57746093
0.42100002 13455.42508685  1022.07413803
0.42200002 13397.31540548  1275.08955414
0.42300002 13342.01631993  1103.11796160
0.42400002 13289.80847815  1355.56052901
0.42500002 13241.33913639  1269.18241636
0.42600002 13194.74153737  1436.70950038
0.42700002 13152.65267458  1351.04054675
0.42800002 13112.39169982  843.78244587
0.42900002 13076.00641500  1096.42318985
0.43000002 13041.87555444  1096.10448291
0.43100002 13009.41811581  1011.61240062
0.43200002 12980.66266220  1096.02230382
0.43300002 12954.22989147  927.65244649
0.43400002 12930.11715218  1181.16625782
0.43500002 12908.34726157  928.62654600
0.43600002 12889.27233217  1182.84857798
0.43700002 12871.84170822  845.68004031
0.43800002 12856.50291790  846.60075726
0.43900002 12843.98191350  932.47313111
0.44000002 12833.08103772  933.79918596
0.44100002 12824.49852578  935.29072181
0.44200002 12817.50819304  851.72345979
0.44300002 12812.69505427  1023.99063726
0.44400002 12809.78478191  1026.06380966
0.44500002 12807.48966237  1199.54953863
0.44600002 12807.47912318  858.74151591
0.44700002 12809.85159580  946.90427484
0.44800002 12812.53979673  1294.38689431
0.44900002 12818.27956644  951.75730291
0.45000002 12824.71765109  1041.11062826
0.45100002 12832.33610586  957.03567213
0.45200002 12841.62028238  1396.14102327
0.45300002 12851.92740930  1050.25955766
0.45400002 12863.83406564  1404.73074654
0.45500002 12876.90796278  968.85860104
0.45600002 12891.00517344  883.67844652
0.45700002 12906.22561856  1152.65506462
0.45800002 12922.18928050  978.66205154
0.45900002 12939.31581582  1339.21925041
0.46000002 12958.09203159  985.65731710
0.46100002 12976.77392216  989.21952297
0.46200002 12997.11225867  1083.17938697
0.46300002 13018.39320485  906.08021000
0.46400002 13039.59750577  1000.46316605
0.46500002 13062.26518970  1004.35761804
0.46600002 13085.28782268  1099.94934651
0.46700002 13108.81443308  1104.28658018
0.46800002 13133.87436736  1293.55534775
0.46900002 13158.50105830  1020.44180544
0.47000002 13184.07270277  1210.89121478
0.47100002 13210.26239506  1215.87260847
0.47200002 13237.06448876  1033.08674699
0.47300002 13264.47488217  1037.41462971
0.47400002 13291.56363113  1136.42874433
0.47500002 13319.50235047  1046.11376419
0.47600002 13348.12774972  1146.07030291
0.47700002 13376.39798128  1054.99655879
