# SAXS profile: number of points = 501, q_min = 0, q_max = 0.5, delta_q = 0.001
#    q    intensity    error
0.00000000 1664650.74656090 274.66737318
0.00100000 1664564.81433333 699.11723862
0.00200000 1664306.98745970 898.72580169
0.00300000 1663877.47346185 1597.32243142
0.00400000 1663276.16697898 2370.16862801
0.00500000 1662503.69351932 1645.87872173
0.00600000 1661559.91927857 2268.02938215
0.00700000 1660445.55064764 3188.05558974
0.00800000 1659160.40196080 2687.83996466
0.00900000 1657705.89999364 2983.87074754
0.01000000 1656081.37757058 3825.54814737
0.01100000 1654288.38570802 4764.35075828
0.01200000 1652326.86785549 3544.24128694
0.01300000 1650198.16053605 5544.66606395
0.01400000 1647902.42589773 4078.55868490
0.01500000 1645441.20911138 4738.87089326
0.01600000 1642814.14024237 4189.17624489
0.01700000 1640023.41161146 4870.86975099
0.01800000 1637069.48414297 4665.64823975
0.01900000 1633953.46061719 7352.79090455
0.02000000 1630675.92624516 6163.95528004
0.02100000 1627239.74708791 5906.88054974
0.02200000 1623643.42270989 5601.57006284
0.02300000 1619890.18747804 7581.08642248
0.02400000 1615980.48064445 10301.87603385
0.02500000 1611916.77533175 8801.06599526
0.02600000 1607699.37914384 8464.53761835
0.02700000 1603330.37899130 6733.98790019
0.02800000 1598810.03454785 8345.78876307
0.02900000 1594141.68088319 8608.36547202
0.03000000 1589326.13549778 8129.40355674
0.03100000 1584364.77326338 8365.44638775
0.03200000 1579258.96809111 7817.33225210
0.03300000 1574012.81919065 9632.95889753
0.03400000 1568624.64214792 9882.33570151
0.03500000 1563098.70725482 10128.88009074
0.03600000 1557435.52470925 11236.89783008
0.03700000 1551638.07829412 12382.07243743
0.03800000 1545707.98672565 13563.58821123
0.03900000 1539647.64961211 10161.67495803
0.04000000 1533457.25979359 11316.91510169
0.04100000 1527140.71630209 10583.08565467
0.04200000 1520699.71312608 9808.51360471
0.04300000 1514135.81535977 14989.94526786
0.04400000 1507452.29748673 13227.89452478
0.04500000 1500650.82577125 15531.73676841
0.04600000 1493732.32620423 10530.81338928
0.04700000 1486700.93291330 13915.52137925
0.04800000 1479558.18060536 10874.75313343
0.04900000 1472306.55469870 17667.67947877
0.05000000 1464947.92448350 11206.85214416
0.05100000 1457486.01501600 13642.06973605
0.05200000 1449920.23267394 20748.35949646
0.05300000 1442255.74722339 19859.86256509
0.05400000 1434493.95498107 22485.69379292
0.05500000 1426637.95582441 14380.51126555
0.05600000 1418688.90403972 19407.66511291
0.05700000 1410651.52105723 15954.46944789
0.05800000 1402525.21858176 17377.28826962
0.05900000 1394313.93001671 15058.59114750
0.06000000 1386021.27644233 16486.72385352
0.06100000 1377648.75491911 14093.34742142
0.06200000 1369198.97414069 16820.61018357
0.06300000 1360675.43409804 19593.72716712
0.06400000 1352077.10213069 19774.12854343
0.06500000 1343410.98902771 14629.74635486
0.06600000 1334677.57671555 16096.21232831
0.06700000 1325878.90362375 14876.36199486
0.06800000 1317018.54477885 16357.37109183
0.06900000 1308100.08196429 16482.06180442
0.07000000 1299123.08137831 19369.92605041
0.07100000 1290092.23242546 15326.29643906
0.07200000 1281009.10691785 16832.46045345
0.07300000 1271877.38834585 14117.83967214
0.07400000 1262699.91185143 19887.52454367
0.07500000 1253477.02024375 14289.63870057
0.07600000 1244212.15472403 15807.71616684
0.07700000 1234909.30183294 18782.97136158
0.07800000 1225569.08005531 17427.59313567
0.07900000 1216193.90778153 20432.05860907
0.08000000 1206788.90719486 17594.98309230
0.08100000 1197354.57748813 16200.20819350
0.08200000 1187892.48651975 14789.26215116
0.08300000 1178406.01653224 16332.70815566
0.08400000 1168898.03563794 16393.79571932
0.08500000 1159370.67121807 20938.23530515
0.08600000 1149826.29210902 19506.80396150
0.08700000 1140266.91608150 16556.67639897
0.08800000 1130694.59163180 15094.77350719
0.08900000 1121112.73627330 19675.52944575
0.09000000 1111523.09169884 16689.52000586
0.09100000 1101927.61368878 19768.58231833
0.09200000 1092328.26608492 21333.17203901
0.09300000 1082729.22733975 16793.13110518
0.09400000 1073129.41043927 16821.30429919
0.09500000 1063532.75107523 21440.82126945
0.09600000 1053940.99077021 16868.32635022
0.09700000 1044359.03409971 24563.32563682
0.09800000 1034785.66510865 18439.88141924
0.09900000 1025224.53676535 15378.36877461
0.10000000 1015675.30160530 16926.22969725
0.10100000 1006142.05435639 21551.56381792
0.10200000 996626.48350177 18477.45587323
0.10300000 987129.58854493 21558.91122797
0.10400000 977654.56253496 16937.86609276
0.10500000 968204.35884337 21552.23004187
0.10600001 958775.60334741 20004.85390514
0.10700001 949375.98739267 16917.88089145
0.10800001 940003.12239172 18442.86212928
0.10900001 930661.55256781 21498.28287615
0.11000001 921351.55525297 18408.60494044
0.11100001 912074.52476253 22984.27910596
0.11200001 902832.98851956 16833.32186341
0.11300001 893627.05415231 19865.33034908
0.11400001 884459.63244696 21359.70112930
0.11500001 875332.50545939 18276.94357462
0.11600001 866245.79576561 16722.87587476
0.11700001 857201.70319792 27310.44755007
0.11800001 848200.70309441 16654.42158965
0.11900001 839244.20841345 21148.95504817
0.12000001 830333.97937677 15070.56243559
0.12100001 821472.77996074 18039.54309775
0.12200001 812659.45115313 22490.35137021
0.12300001 803896.58934320 25419.21135264
0.12400001 795184.43157196 17891.65055338
0.12500001 786523.31766887 16351.82054484
0.12600001 777917.23556688 20747.05365024
0.12700001 769364.81953193 22157.70784673
0.12800001 760867.12450576 20611.89137428
0.12900001 752425.74929284 16139.53308302
0.13000001 744041.72185234 19006.54668059
0.13100001 735714.76294286 17480.58359152
0.13200001 727446.44082343 17415.06861426
0.13300001 719238.65556194 21685.04648749
0.13400001 711090.01949345 15839.53093098
0.13500001 703002.97221658 22946.01809501
0.13600001 694976.94935501 18566.31007743
0.13700001 687013.53676886 22753.88941070
0.13800001 679111.92081873 15575.43263845
0.13900001 671274.96045102 15506.45231767
0.14000001 663501.37410542 16839.66566896
0.14100001 655792.15318323 13968.37352159
0.14200001 648147.34170616 15293.03724886
0.14300001 640569.24784832 15219.92604676
0.14400001 633054.04601292 16522.71138031
0.14500001 625606.63935107 17811.02186251
0.14600001 618224.84863460 17721.41612211
0.14700001 610911.32088324 21699.57114148
0.14800001 603661.99091960 17539.39997365
0.14900001 596481.04992391 18789.15395909
0.15000001 589366.60627427 16018.98511436
0.15100001 582319.99410675 23898.41368579
0.15200001 575341.06914997 15844.89379206
0.15300001 568430.66206455 17069.97358731
0.15400001 561585.54296811 15668.23738821
0.15500001 554809.89863067 12982.55224064
0.15600001 548099.53944081 16780.06819191
0.15700001 541460.27056354 19248.91352702
0.15800001 534884.96358477 14032.70768197
0.15900001 528379.49715126 15217.33023622
0.16000001 521939.12840844 15125.79665525
0.16100001 515569.19114843 15033.99832356
0.16200001 509265.11330917 13696.68586902
0.16300001 503027.81373827 16086.83024277
0.16400001 496857.61378285 14756.67182601
0.16500001 490753.42404109 13441.73691909
0.16600001 484716.58923568 16999.01158707
0.16700001 478744.17493119 14477.22453346
0.16800001 472837.43383864 13185.07246514
0.16900001 466998.07033904 19053.52216950
0.17000001 461222.53225540 18928.57361756
0.17100001 455511.72267896 11752.20300007
0.17200001 449866.02785763 12841.42637161
0.17300001 444284.10767558 12755.39733373
0.17400001 438766.22889453 20731.70529434
0.17500001 433311.35316334 13727.30431652
0.17600001 427917.97774036 12497.34513015
0.17700001 422588.97585076 14668.06404456
0.17800001 417320.46863806 12325.56062339
0.17900001 412114.13172767 13352.49849866
0.18000001 406968.87735412 12154.12609628
0.18100001 401885.57167713 14262.91961255
0.18200001 396859.66752460 14161.93790460
0.18300001 391894.40686071 12979.54336837
0.18400001 386987.87433371 15034.47962810
0.18500001 382141.46535809 12794.09686461
0.18600001 377351.07955471 11643.16810972
0.18700001 372617.95078944 11558.60937957
0.18800001 367941.70409461 10431.14780391
0.18900001 363323.90294986 12425.67806797
0.19000001 358757.54114824 10278.40403954
0.19100001 354250.71511316 18364.35793918
0.19200001 349795.37537468 11139.23425515
0.19300001 345396.11525485 12061.23291462
0.19400001 341048.66166031 13965.94335493
0.19500001 336754.47634533 14850.87310861
0.19600001 332512.40476021 10808.31622749
0.19700001 328321.44613639 15601.83585771
0.19800001 324182.00570993 11612.19999331
0.19900001 320093.30858542 9602.79971139
0.20000001 316052.93456632 10481.89607028
0.20100001 312062.97837560 13237.71216834
0.20200001 308120.33058894 14073.39676481
0.20300001 304226.93939029 13033.08269948
0.20400001 300380.30655725 12007.70332218
0.20500001 296579.95809919 10997.18536612
0.20600001 292825.85474548 10001.46754158
0.20700001 289117.71178586 12628.66224775
0.20800001 285453.15036426 9843.85235563
0.20900001 281835.57977392 14204.51389207
0.21000001 278259.24726280 10568.28671063
0.21100001 274726.84306931 11357.20822938
0.21200001 271236.73925877 14732.22418930
0.21300001 267787.62691241 18051.56478356
0.21400001 264380.82187724 8526.28190863
0.21500001 261015.85833061 9302.60563071
0.21600001 257689.86163169 14259.26916755
0.21700001 254403.73005202 9150.90260262
0.21800001 251156.65917191 9900.59597266
0.21900001 247947.51286556 12273.40246715
0.22000001 244775.96139627 12171.48525593
0.22100001 241643.48813976 11265.41994974
0.22200001 238547.54631246 10373.24054189
0.22300001 235486.95942910 8703.59843205
0.22400001 232461.69327997 8630.14077111
0.22500001 229473.99905373 9335.00272293
0.22600001 226518.85695148 8484.26418832
0.22700001 223600.22368364 11470.69201741
0.22800001 220714.13446799 12130.44940401
0.22900001 217860.54469772 11274.28372128
0.23000001 215041.04082909 8941.40690053
0.23100001 212254.46192583 8125.10118678
0.23200001 209498.06984262 11715.13261965
0.23300001 206773.64977167 9435.08208531
0.23400001 204080.93607464 9352.00933793
0.23500001 201417.00544065 7130.16232983
0.23600001 198784.73312188 7773.47735639
0.23700001 196181.66486469 10505.52865039
0.23800001 193607.90535733 6940.84373535
0.23900001 191062.62786839 7566.08042146
0.24000001 188545.75164617 8179.11509329
0.24100001 186057.94943627 8780.07504921
0.24200001 183597.44705405 8030.55271401
0.24300001 181163.83927891 8619.77588063
0.24400001 178757.03431844 7226.25345415
0.24500001 176376.96916838 7809.97256422
0.24600001 174022.97325910 7092.30661068
0.24700001 171695.24815942 7025.76988704
0.24800001 169393.17556140 10755.62019108
0.24900001 167115.21607646 6893.50298927
0.25000001 164863.19400520 6827.80950274
0.25100001 162634.29937039 6762.33448774
0.25200001 160431.56044657 6088.37800699
0.25300001 158252.48481541 8441.18793941
0.25400001 156096.40752937 6567.75665753
0.25500001 153963.46947021 7685.85675959
0.25600001 151854.30478949 7024.78047192
0.25700001 149767.38539436 7534.79751569
0.25800001 147703.52011083 10328.90765005
0.25900001 145662.01929227 5680.81902118
0.26000001 143642.54480809 6185.96648485
0.26100001 141643.96923501 7793.25155606
0.26200001 139668.32910304 5509.91584383
0.26300001 137712.89687212 6544.11716901
0.26400001 135779.11047690 6476.66387621
0.26500001 133866.55196133 6943.65837880
0.26600001 131973.83222579 5814.10745383
0.26700001 130102.59480117 7845.18683775
0.26800001 128251.99060639 5692.46487244
0.26900001 126420.09295415 9216.02521247
0.27000001 124609.28749385 5571.90455396
0.27100001 122817.56922050 7015.33988586
0.27200001 121046.93148980 5948.24649490
0.27300001 119294.72462786 8335.12280420
0.27400001 117559.97494535 5334.28411559
0.27500001 115847.18423223 7673.71784670
0.27600001 114150.71856324 5691.55509692
0.27700001 112474.95787690 5159.22656198
0.27800001 110816.62082828 5565.21096138
0.27900001 109177.98342706 4585.47552096
0.28000001 107556.32404803 5440.19912783
0.28100001 105953.59584255 5378.20477951
0.28200001 104369.39319721 6202.67333128
0.28300001 102802.69228905 5693.21336843
0.28400001 101253.46216931 5627.16142640
0.28500001 99722.51471597  5989.33451732
0.28600001 98208.89612953  4650.68249634
0.28700001 96712.55310185  5013.57899011
0.28800001 95232.89509885  4128.34619794
0.28900001 93772.44473293  4487.01169286
0.29000001 92327.43631654  5239.12062177
0.29100001 90900.35902513  4379.57950514
0.29200001 89489.99147878  5506.31943633
0.29300001 88096.48640856  4662.06628142
0.29400001 86718.94284883  4988.50742352
0.29500001 85359.28843702  5684.92887901
0.29600001 84015.37388599  4117.17359218
0.29700001 82687.83425566  5174.60491267
0.29800001 81376.63340264  5839.58748941
0.29900001 80082.35078653  4684.81774279
0.30000001 78803.29122278  4269.56252057
0.30100001 77541.45812011  4215.15386296
0.30200001 76293.86019816  3467.55611016
0.30300001 75063.67020842  5134.35528532
0.30400001 73848.98412065  4730.02765686
0.30500001 72649.82572044  3668.08987428
0.30600001 71465.35995225  3620.07797977
0.30700001 70297.79150078  4871.63718164
0.30800001 69144.91842167  4807.30068086
0.30900001 68007.67551856  3794.82847360
0.31000001 66886.04354262  3120.23407899
0.31100001 65778.65960467  4925.50626440
0.31200001 64687.03317738  3340.76198662
0.31300001 63609.88853286  3595.23107010
0.31400001 62548.69222584  3250.96843236
0.31500001 61501.39757802  4081.23293651
0.31600002 60469.33708006  3450.38053716
0.31700002 59451.79956120  3970.19136268
0.31800002 58448.93630637  3076.45990815
0.31900002 57460.86398756  3309.74592240
0.32000002 56487.02468058  2719.85036715
0.32100002 55526.91256613  3218.34000472
0.32200002 54582.44856247  3437.87568549
0.32300002 53650.34703781  3128.88838740
0.32400002 52733.09626061  3599.03399021
0.32500002 51829.73401602  3041.36893607
0.32600002 50940.56545592  3248.22531011
0.32700002 50064.45162961  3941.07381890
0.32800002 49203.05577929  3642.25637653
0.32900002 48354.43716914  2872.25370386
0.33000002 47520.15016608  2359.37556747
0.33100002 46697.06151796  3023.16790583
0.33200002 45890.19571604  3667.54461530
0.33300002 45095.15694385  3614.82795180
0.33400002 44313.56583312  3340.13518285
0.33500002 43544.19326082  2194.62744427
0.33600002 42788.57392172  3028.14751984
0.33700002 42044.95230558  3410.68669255
0.33800002 41315.05061564  2310.95746563
0.33900002 40596.62410597  2277.47072020
0.34000002 39891.41732307  3060.66913906
0.34100002 39198.16976589  2010.86620422
0.34200002 38517.94366105  2774.44761330
0.34300002 37848.82451522  2343.59932497
0.34400002 37193.09087425  2694.63956146
0.34500002 36548.31647585  2465.91502941
0.34600002 35916.40527473  2430.28367801
0.34700002 35294.69532432  1842.38318319
0.34800002 34686.07585276  2542.14261965
0.34900002 34088.29896535  2505.49009262
0.35000002 33502.11627962  2645.82975849
0.35100002 32927.70794405  1738.58306179
0.35200002 32363.40045329  1885.00634868
0.35300002 31810.47741589  2195.87736002
0.35400002 31268.77925308  2664.10011854
0.35500002 30738.14052595  1805.55846001
0.35600002 30217.22360792  2103.57212110
0.35700002 29707.60262173  2233.41767089
0.35800002 29208.59733921  1730.17134534
0.35900002 28720.08279533  1861.06145329
0.36000002 28242.01577035  1988.09679432
0.36100002 27773.26786553  1809.70621984
0.36200002 27315.61761120  2528.47026395
0.36300002 26866.98036729  1760.32463705
0.36400002 26428.15783838  1591.63588121
0.36500002 25998.85754651  1427.33734691
0.36600002 25579.44081354  1408.14828349
0.36700002 25169.00926353  1806.12819030
0.36800002 24769.21704479  1508.07385121
0.36900002 24377.75729968  1488.26215364
0.37000002 23994.79023255  1735.90318160
0.37100002 23620.81169685  1713.45376166
0.37200002 23256.44908741  1821.67774331
0.37300002 22900.13772158  1541.63734444
0.37400002 22552.60738412  2029.73476072
0.37500002 22213.87139990  1503.43488756
0.37600002 21883.64538273  1856.28030752
0.37700002 21560.97960133  1589.25988170
0.37800002 21246.46849524  1328.64797029
0.37900002 20940.57593798  1671.05803901
0.38000002 20642.44321438  1297.68725415
0.38100002 20351.02982295  1632.55968974
0.38200002 20068.24394883  1844.67307116
0.38300002 19792.42749597  1140.04387778
0.38400002 19524.66825711  1353.05957432
0.38500002 19263.22401477  1449.94294028
0.38600002 19010.08639630  1213.88912434
0.38700002 18763.05068824  1419.61248233
0.38800002 18523.40967404  1188.92510625
0.38900002 18289.76688637  1390.93683761
0.39000002 18064.16424945  1377.30226845
0.39100002 17844.08523849  1468.92516642
0.39200002 17630.94477415  1351.14751678
0.39300002 17423.85064561  1029.74962194
0.39400002 17224.29043286  1530.80888475
0.39500002 17029.61984873  1315.02730702
0.39600002 16841.18377513  1504.33881199
0.39700002 16658.51932000  1093.96501557
0.39800002 16482.07097527  1578.32319137
0.39900002 16310.88913566  1174.38407341
0.40000002 16145.32516907  1456.71203240
0.40100002 15985.60322733  963.93192028
0.40200002 15831.22859315  1052.69759518
0.40300002 15681.63000354  1045.33750556
0.40400002 15537.61120390  1604.64687311
0.40500002 15398.85183065  937.79012092
0.40600002 15264.91664513  1025.11552587
0.40700002 15135.90964583  926.31771421
0.40800002 15011.52859968  1289.34025252
0.40900002 14891.86958420  915.85002282
0.41000002 14777.18618899  1002.11492889
0.41100002 14666.57206593  906.39419662
0.41200002 14560.13522088  1172.60054557
0.41300002 14458.74918380  1167.25487692
0.41400002 14360.94724493  1251.55661170
0.41500002 14267.51946404  1157.38123376
0.41600002 14177.50463303  1064.16354818
0.41700002 14091.91966567  1060.27608589
0.41800002 14010.99600212  1056.70936855
0.41900002 13931.98930899  965.48690486
0.42000002 13857.81532195  1225.16951067
0.42100002 13787.48602088  1047.29748777
0.42200002 13720.55623528  1131.74013470
0.42300002 13656.48283995  955.40758475
0.42400002 13595.73298421  1300.09202822
0.42500002 13538.72800676  951.63723669
0.42600002 13483.84970316  863.64061441
0.42700002 13433.45484525  948.67062613
0.42800002 13385.20662258  947.47189568
0.42900002 13340.81191468  1204.67537298
0.43000002 13298.79555515  1031.72060806
0.43100002 13258.63043380  1030.99115139
0.43200002 13222.29433060  1374.06089195
0.43300002 13188.33229564  1030.27256776
0.43400002 13156.88544680  1116.03286091
0.43500002 13127.79008871  858.55751249
0.43600002 13101.60442670  1116.45327413
0.43700002 13077.09845326  945.08195000
0.43800002 13054.78101299  1031.58884453
0.43900002 13035.46540845  1032.40890927
0.44000002 13017.83637538  1119.46889215
0.44100002 13002.64502949  948.28294694
0.44200002 12989.10214182  1122.06364170
0.44300002 12977.85454050  1123.62269937
0.44400002 12968.65934134  1211.92127288
0.44500002 12960.13102334  953.73608721
0.44600002 12953.95221183  1042.27504436
0.44700002 12950.36303732  957.29088109
0.44800002 12947.10699823  1133.58400695
0.44900002 12946.95498827  873.91950312
0.45000002 12947.74746534  875.91515754
0.45100002 12949.72620592  877.99147837
0.45200002 12953.45045632  1232.26180031
0.45300002 12958.25642677  970.70303493
0.45400002 12964.77352358  1238.78416889
0.45500002 12972.56048643  887.32317932
0.45600002 12981.47906281  1423.80869109
0.45700002 12991.59429592  1160.27934156
0.45800002 13002.52524405  984.74629603
0.45900002 13014.67311024  1436.81997947
0.46000002 13028.55027080  900.92429392
0.46100002 13042.37791198  1265.37156499
0.46200002 13058.06966028  997.57127898
0.46300002 13074.64443832  1000.99482564
0.46400002 13091.33853749  1187.05717815
0.46500002 13109.51940175  1099.62653954
0.46600002 13128.13807359  1195.51395033
0.46700002 13147.24857458  1199.81796178
0.46800002 13168.05013939  1111.64684545
0.46900002 13188.50730801  929.78980928
0.47000002 13209.99476237  933.28617420
0.47100002 13232.04754517  1311.56061484
0.47200002 13254.93406892  1222.56890179
0.47300002 13278.41852207  1604.96252283
0.47400002 13301.63593521  1137.28992636
0.47500002 13325.78338667  1427.19146836
0.47600002 13350.76462872  1241.82143080
0.47700002 13375.34915706  1054.91383802
