# SAXS profile: number of points = 501, q_min = 0, q_max = 0.5, delta_q = 0.001
#    q    intensity    error
0.00000000 1682732.95097188 277.65093691
0.00100000 1682646.38336639 504.79392700
0.00200000 1682386.64921929 757.07401612
0.00300000 1681953.95627397 1211.00689166
0.00400000 1681348.19258145 2017.61790776
0.00500000 1680570.01422215 1966.26699447
0.00600000 1679619.23954370 1939.96030065
0.00700000 1678496.62229974 2014.19603047
0.00800000 1677201.95634546 2717.06728399
0.00900000 1675736.63699333 3016.32607553
0.01000000 1674100.05018868 3038.49172229
0.01100000 1672293.77765340 4214.18050317
0.01200000 1670317.69857228 3582.83162052
0.01300000 1668173.18842577 4554.11300526
0.01400000 1665860.39780814 5247.46048572
0.01500000 1663380.83038255 4391.32558775
0.01600000 1660734.21528847 5081.84692596
0.01700000 1657922.69225388 4924.03061688
0.01800000 1654946.78327826 6131.57810795
0.01900000 1651807.47856408 6442.04945708
0.02000000 1648505.47274878 7269.90946368
0.02100000 1645043.52822147 6514.37266711
0.02200000 1641420.31786594 6795.48042470
0.02300000 1637638.93541944 6485.05047945
0.02400000 1633699.95457476 7351.65013080
0.02500000 1629605.61906705 6991.00842508
0.02600000 1625356.57843267 7240.96388811
0.02700000 1620954.58758367 8850.41245357
0.02800000 1616400.21165732 7734.47536748
0.02900000 1611696.62532514 8703.16217635
0.03000000 1606844.59179480 9713.37600388
0.03100000 1601845.72658284 10764.40377794
0.03200000 1596701.11178860 11065.13921433
0.03300000 1591414.97531970 12174.32512244
0.03400000 1585985.85896210 10824.35398686
0.03500000 1580417.75607450 11094.53315997
0.03600000 1574711.27384203 9613.61277109
0.03700000 1568869.51778590 12519.57933093
0.03800000 1562893.98118026 11885.80927695
0.03900000 1556787.02104901 12142.93932652
0.04000000 1550549.04083626 10489.46474733
0.04100000 1544183.72302374 12646.86527796
0.04200000 1537693.04690899 10909.93267396
0.04300000 1531078.45257362 11115.63008165
0.04400000 1524342.80029754 10289.31437986
0.04500000 1517488.52253522 14658.93980882
0.04600000 1510516.18779085 11714.05358087
0.04700000 1503429.85966111 11907.16504229
0.04800000 1496231.05401861 16495.94813808
0.04900000 1488922.50434320 11166.91930237
0.05000000 1481505.93374842 13600.22510512
0.05100000 1473985.20941884 16095.91923667
0.05200000 1466359.56399782 16320.58270786
0.05300000 1458634.51688353 14177.92816505
0.05400000 1450810.77506269 15559.94628817
0.05500000 1442892.28488248 13332.32533426
0.05600000 1434879.45401459 15948.68587560
0.05700000 1426777.74615660 16136.85706228
0.05800000 1418586.17531813 16320.83470909
0.05900000 1410308.62899476 21577.72303143
0.06000000 1401948.90210880 15393.39966432
0.06100000 1393508.60372915 14255.59368233
0.06200000 1384989.95665385 17014.60241281
0.06300000 1376396.81242026 14534.75101873
0.06400000 1367728.28098607 17335.95677224
0.06500000 1358990.92864922 18835.61515217
0.06600000 1350185.72669855 14926.30390703
0.06700000 1341314.33023801 19153.96953218
0.06800000 1332380.39122904 13790.13769472
0.06900000 1323387.76954374 13895.57223078
0.07000000 1314335.92578200 16797.21391808
0.07100000 1305229.33081435 16915.77291965
0.07200000 1296070.08027021 18449.55845695
0.07300000 1286861.15485427 17140.99138581
0.07400000 1277606.04840778 21559.60307725
0.07500000 1268304.75162531 18796.27730012
0.07600000 1258961.01425857 20357.40055493
0.07700000 1249578.44945262 19006.08910734
0.07800000 1240158.22656133 20574.22594351
0.07900000 1230702.16840460 22152.64007032
0.08000000 1221215.65693877 14837.77092786
0.08100000 1211699.49790902 19375.07588061
0.08200000 1202154.70558776 19456.87482296
0.08300000 1192585.22607787 18031.88946457
0.08400000 1182993.83416951 21116.44093110
0.08500000 1173382.34435610 22704.94942918
0.08600000 1163753.31706133 15186.98150070
0.08700000 1154109.06002100 21327.93643070
0.08800000 1144451.09455124 22917.63424469
0.08900000 1134783.12925785 19915.44485390
0.09000000 1125107.24060498 24572.34328911
0.09100000 1115424.88614131 18471.43698231
0.09200000 1105738.26041786 23137.57418640
0.09300000 1096051.68292701 15454.32945550
0.09400000 1086363.73821899 18576.82079661
0.09500000 1076678.79199045 21705.84546676
0.09600000 1066998.43630690 15524.82797805
0.09700000 1057327.45522508 18651.25718702
0.09800000 1047664.56450259 26448.29317441
0.09900000 1038013.83672965 15570.20828309
0.10000000 1028374.78036040 15579.87865514
0.10100000 1018751.23064312 17145.58401811
0.10200000 1009145.23387165 20268.68297568
0.10300000 999557.88792791 23389.65567778
0.10400000 989991.60795151 18710.84227054
0.10500000 980450.29976796 18706.99259972
0.10600001 970930.30052899 17141.77526242
0.10700001 961439.32141041 26478.04015764
0.10800001 951974.68334663 20234.22284679
0.10900001 942541.25081265 15551.93137037
0.11000001 933139.36059235 21751.47951924
0.11100001 923770.16837381 17071.27351515
0.11200001 914436.55967333 17049.67045776
0.11300001 905138.19266771 21669.00935266
0.11400001 895878.55768160 16999.29643241
0.11500001 886658.72263825 18513.43500045
0.11600001 877479.74850029 15399.77031138
0.11700001 868343.28842991 24591.48308647
0.11800001 859249.64853311 19938.88903330
0.11900001 850200.67470936 22955.41929839
0.12000001 841197.90333941 16794.51693128
0.12100001 832243.97019318 18276.07844639
0.12200001 823338.13851914 19747.76618272
0.12300001 814482.82705771 18179.25755643
0.12400001 805678.08902353 16617.11136907
0.12500001 796924.91118107 18074.25783725
0.12600001 788226.59704425 16517.28911941
0.12700001 779581.93613485 22451.96081876
0.12800001 770992.06371068 16410.56684950
0.12900001 762459.14438673 16354.74941793
0.13000001 753983.15402177 20742.07754481
0.13100001 745564.53920586 20667.05000098
0.13200001 737204.59561508 22060.84856374
0.13300001 728905.53681097 24906.70336701
0.13400001 720665.55050437 17512.17370288
0.13500001 712487.91004739 17441.70486031
0.13600001 704370.87104196 18817.26870713
0.13700001 696317.34528019 17296.52367235
0.13800001 688325.11890701 17221.89528716
0.13900001 680398.23168189 15717.19989305
0.14000001 672534.79385374 21336.16734124
0.14100001 664735.95516558 18406.53946664
0.14200001 657002.01836638 19729.77154210
0.14300001 649334.94118005 16830.76246925
0.14400001 641730.74227903 20936.46645442
0.14500001 634195.14432033 16666.64917894
0.14600001 626725.25604422 19347.00956677
0.14700001 619324.21825234 16498.79795260
0.14800001 611987.36467562 17781.29371955
0.14900001 604719.33513215 20409.27852364
0.15000001 597518.26524827 16240.54721572
0.15100001 590385.13217424 21537.25063795
0.15200001 583320.46040981 14725.92571792
0.15300001 576324.55461750 22632.26632782
0.15400001 569394.37304128 17209.94573733
0.15500001 562533.93351845 13163.29466555
0.15600001 555739.03490087 19631.48233438
0.15700001 549015.98660572 19517.51924500
0.15800001 542357.15039390 14228.74051216
0.15900001 535768.62876409 12858.44769726
0.16000001 529245.68165103 16615.66895973
0.16100001 522793.47490864 12703.88203996
0.16200001 516407.77157750 13888.78767221
0.16300001 510089.00641267 13803.00916514
0.16400001 503838.09579340 13716.99280555
0.16500001 497653.54602442 13630.73126913
0.16600001 491537.04239922 13544.30384278
0.16700001 485485.29149304 12234.22992326
0.16800001 479499.51685122 19448.50132177
0.16900001 473581.97219191 18114.51129167
0.17000001 467728.51204782 13196.96059059
0.17100001 461940.47911424 15493.48440111
0.17200001 456217.89962242 11838.85505427
0.17300001 450559.90019849 15287.49813568
0.17400001 444966.36437546 14016.44113977
0.17500001 439436.27684357 20882.01286181
0.17600001 433968.37733513 12674.04705866
0.17700001 428565.42650228 12586.96717086
0.17800001 423223.32293065 14772.61078464
0.17900001 417943.95927633 16926.73115020
0.18000001 412726.33352717 17928.83277529
0.18100001 407571.23535643 14464.70382606
0.18200001 402474.15513244 13257.49929632
0.18300001 397438.33666492 12066.22847115
0.18400001 392461.62067028 15247.13468333
0.18500001 387545.56058543 12975.02598137
0.18600001 382686.55169613 12881.22993865
0.18700001 377885.10625918 12787.63259996
0.18800001 373141.26087293 15867.83286832
0.18900001 368456.09885920 12601.19917636
0.19000001 363823.26073089 15635.30536866
0.19100001 359250.54085225 11381.05767195
0.19200001 354729.85885973 12323.31587908
0.19300001 350266.05612041 17327.66261505
0.19400001 345854.20595663 15174.35400339
0.19500001 341496.71957052 12048.00483578
0.19600001 337191.65757497 11956.81674264
0.19700001 332938.72628984 14832.42095716
0.19800001 328737.52858554 12756.66039963
0.19900001 324587.80795350 11685.16163857
0.20000001 320486.90590256 15460.28907141
0.20100001 316437.30073209 11505.66079840
0.20200001 312435.28039473 11416.38568520
0.20300001 308483.53818763 15103.35474352
0.20400001 304578.74161574 12175.53577157
0.20500001 300721.14736457 12079.96906062
0.20600001 296910.43457328 10140.97637219
0.20700001 293146.28967470 11890.01407124
0.20800001 289426.24657293 9073.51325897
0.20900001 285753.48873663 10801.48238484
0.21000001 282123.07924395 12500.87423225
0.21100001 278537.10978680 8857.48050994
0.21200001 274993.93540007 9664.66231653
0.21300001 271492.52476219 10457.89254824
0.21400001 268034.11377171 10372.92069336
0.21500001 264617.89008814 12003.06806187
0.21600001 261241.39825192 10204.08949815
0.21700001 257905.20362112 9276.85061286
0.21800001 254609.07321446 10873.08098571
0.21900001 251351.10776429 10782.96303292
0.22000001 248131.28341129 12338.32865101
0.22100001 244951.39263395 11419.63446455
0.22200001 241808.66924302 8897.35040550
0.22300001 238701.66635971 12832.60219029
0.22400001 235630.47254227 13519.29900139
0.22500001 232597.94009111 8673.57759615
0.22600001 229598.37812911 8599.60765949
0.22700001 226635.91485642 7750.94865463
0.22800001 223706.25839688 11526.46550899
0.22900001 220809.93985915 9141.53194248
0.23000001 217948.16577940 7551.90430140
0.23100001 215119.96761038 9732.02779495
0.23200001 212322.42088936 14099.27102596
0.23300001 209557.80838827 7355.47942230
0.23400001 206825.23623120 8748.70790635
0.23500001 204121.96779701 7948.50980195
0.23600001 201450.91587523 8593.89647770
0.23700001 198809.58785289 7807.25288425
0.23800001 196198.28617028 7737.07978108
0.23900001 193615.79044345 9758.23629991
0.24000001 191062.29843052 7597.59265646
0.24100001 188538.57608416 7528.34569914
0.24200001 186042.30641034 8137.49086731
0.24300001 183574.03051356 6718.80983461
0.24400001 181132.88857660 7322.29736708
0.24500001 178718.81243513 7254.19693990
0.24600001 176331.68298394 7839.70699632
0.24700001 173971.07986545 7766.06937257
0.24800001 171636.46003765 8333.80871137
0.24900001 169326.68591914 8254.67632907
0.25000001 167043.42993372 6918.10397799
0.25100001 164783.70582144 7474.58924968
0.25200001 162550.49645643 8636.30828531
0.25300001 160341.57023401 8552.61976091
0.25400001 158156.27102184 8469.26871391
0.25500001 155994.39354312 5990.18499546
0.25600001 153856.84711537 6524.29991061
0.25700001 151741.87643464 6459.65198545
0.25800001 149650.63482316 6395.32018176
0.25900001 147582.15824914 8057.98622166
0.26000001 145535.92136544 6837.27790926
0.26100001 143511.52835304 10716.00632916
0.26200001 141509.97407439 8373.85311208
0.26300001 139529.46146519 6077.90362902
0.26400001 137570.81557505 6562.12821344
0.26500001 135633.93694614 8117.69151035
0.26600001 133717.21492160 5890.91218213
0.26700001 131822.38393357 7948.89012734
0.26800001 129948.79072373 7340.80753536
0.26900001 128094.30203208 7262.94726891
0.27000001 126260.99300582 6159.01153028
0.27100001 124447.37912449 5585.19863941
0.27200001 122655.24714401 6529.55239071
0.27300001 120881.85519019 6458.71782846
0.27400001 119126.26162686 6388.14608206
0.27500001 117393.07973623 8262.12534284
0.27600001 115676.80122439 7690.19410934
0.27700001 113981.19992183 6654.22276636
0.27800001 112303.62842454 6109.87919360
0.27900001 110646.08653717 6970.70378175
0.28000001 109005.75541102 5054.05208883
0.28100001 107384.76655127 4996.61342412
0.28200001 105782.67158728 5388.56954570
0.28300001 104198.46121612 5770.51105527
0.28400001 102632.02415977 4826.27116454
0.28500001 101084.11972483 8239.36698875
0.28600001 99553.80340289  7285.84544689
0.28700001 98041.31282327  4658.92340588
0.28800001 96545.66045161  5440.83095228
0.28900001 95069.51982619  5376.18160065
0.29000001 93608.99951740  4903.23962681
0.29100001 92166.81899739  4036.90686317
0.29200001 90741.63511600  4386.90455734
0.29300001 89333.49933713  4333.56825798
0.29400001 87941.75125847  4280.56494513
0.29500001 86568.10876698  4996.71147456
0.29600001 85210.37018605  4555.34660578
0.29700001 83869.34376869  4123.85582832
0.29800001 82544.86402449  3702.13732675
0.29900001 81237.54222506  4021.25853050
0.30000001 79945.86195413  5414.33375716
0.30100001 78671.54841214  3920.20344296
0.30200001 77411.72021013  4222.03542013
0.30300001 76169.44204669  3473.32672176
0.30400001 74942.96686914  5828.68952419
0.30500001 73732.15413787  3722.73663866
0.30600001 72536.40284247  4008.36181084
0.30700001 71357.52041826  5274.74815904
0.30800001 70193.74918979  3904.17651477
0.30900001 69045.67567826  4173.81129236
0.31000001 67913.46307481  3484.97952268
0.31100001 66795.62155881  3126.03523695
0.31200001 65693.80468262  4009.62155864
0.31300001 64606.53555884  4260.15515645
0.31400001 63535.59685101  3302.26280268
0.31500001 62478.58256620  3849.93044001
0.31600002 61437.00797798  4674.12778827
0.31700002 60410.12204297  3169.71925367
0.31800002 59398.06272997  3410.63692344
0.31900002 58400.71141028  3083.55770847
0.32000002 57418.17962863  3317.62257603
0.32100002 56449.34049756  4635.05556772
0.32200002 55496.20641063  3226.54959349
0.32300002 54555.67068328  3181.68686490
0.32400002 53629.85311259  3137.34655564
0.32500002 52718.30419322  2577.92519712
0.32600002 51821.05583252  3558.55207252
0.32700002 50936.99727428  3257.93049993
0.32800002 50067.63707717  2717.92180744
0.32900002 49211.29463445  3410.34287966
0.33000002 48369.50955443  3362.16476834
0.33100002 47538.86933686  3077.66654661
0.33200002 46724.60214401  3500.84098142
0.33300002 45922.11342194  4371.32618364
0.33400002 45133.44805472  2267.95587215
0.33500002 44356.77283422  2459.13960238
0.33600002 43594.27625429  3085.16707662
0.33700002 42843.58373331  2606.60375778
0.33800002 42106.73549560  2569.35312162
0.33900002 41381.48951677  2321.50167183
0.34000002 40669.50004670  3328.39204145
0.34100002 39969.67215488  2460.53313438
0.34200002 39282.85138037  2223.21307916
0.34300002 38607.02788625  1992.12273328
0.34400002 37944.89892329  2160.01347351
0.34500002 37293.70181767  2129.09753761
0.34600002 36655.52324455  2861.88011286
0.34700002 36027.42857916  3197.07416353
0.34800002 35412.57392843  2595.38766614
0.34900002 34808.58913505  2375.68632098
0.35000002 34216.19190712  2161.77910708
0.35100002 33635.77336697  2131.16270147
0.35200002 33065.22403346  2451.12517369
0.35300002 32506.30096119  2243.91006163
0.35400002 31958.66482273  2042.15877890
0.35500002 31422.05012290  2013.52506724
0.35600002 30895.17435496  1819.88033158
0.35700002 30379.41007724  2610.19903747
0.35800002 29874.81767300  1769.63490868
0.35900002 29380.33381736  1745.19191141
0.36000002 28896.39268503  1721.21371181
0.36100002 28421.77103442  1697.63246430
0.36200002 27958.40019323  1826.80195516
0.36300002 27503.90203298  1651.88443435
0.36400002 27059.28045671  1777.79481022
0.36500002 26624.19832246  1607.83541285
0.36600002 26199.08585982  2019.16364286
0.36700002 25782.70883645  1850.16727374
0.36800002 25377.31770018  1826.02498161
0.36900002 24979.98132204  1940.94464066
0.37000002 24591.35039671  2189.61394304
0.37100002 24211.49714841  1486.10176537
0.37200002 23841.57222975  1600.72323533
0.37300002 23479.53874123  1580.64262294
0.37400002 23126.15729336  1951.26961406
0.37500002 22781.67774159  1541.86402259
0.37600002 22445.70007349  1396.23483921
0.37700002 22117.33480008  1630.26882534
0.37800002 21796.97234604  1734.82111120
0.37900002 21485.30201880  1959.45963694
0.38000002 21181.37440497  1452.61872551
0.38100002 20884.20084088  2034.33010028
0.38200002 20595.70165254  1656.51236239
0.38300002 20313.94407920  1170.08323439
0.38400002 20040.44738436  1157.33589127
0.38500002 19772.95884381  1259.33980842
0.38600002 19513.98162324  1699.18003034
0.38700002 19261.18461072  1233.10109720
0.38800002 19015.50102099  1220.50999085
0.38900002 18776.06108009  1098.39962522
0.39000002 18544.50052303  1087.63500720
0.39100002 18318.36708827  1184.83203940
0.39200002 18099.29387492  1173.64876692
0.39300002 17886.15682914  1162.77911055
0.39400002 17680.66359543  1466.61111472
0.39500002 17479.96761878  1142.14113832
0.39600002 17285.32571547  1235.20943415
0.39700002 17096.59806953  1428.93373435
0.39800002 16914.04837682  1315.99759631
0.39900002 16736.74618849  1205.04578266
0.40000002 16564.99807342  1295.30008572
0.40100002 16398.97818445  1186.63011765
0.40200002 16238.57222992  981.62173781
0.40300002 16082.66967690  1072.07081146
0.40400002 15932.50091342  1064.68942398
0.40500002 15787.43050715  1442.18184516
0.40600002 15647.16243663  955.25931202
0.40700002 15511.73224078  1139.18166974
0.40800002 15381.18039216  1037.99900795
0.40900002 15255.10207462  1219.64546865
0.41000002 15133.95841446  1119.61029655
0.41100002 15016.92831998  1299.26469981
0.41200002 14904.11436922  1477.29588628
0.41300002 14796.15383398  1378.26179494
0.41400002 14691.89478409  914.57049364
0.41500002 14592.01515094  1092.65014628
0.41600002 14495.42473371  1541.37106209
0.41700002 14403.29243458  993.39512628
0.41800002 14315.84461249  1259.65122714
0.41900002 14230.13902467  896.49880103
0.42000002 14149.37813215  1072.23992566
0.42100002 14072.43397500  1692.49171437
0.42200002 13998.88686533  1065.87529643
0.42300002 13928.16973439  974.41480079
0.42400002 13860.77287355  1237.07403758
0.42500002 13796.95975405  1057.95092407
0.42600002 13735.39290501  1231.65274016
0.42700002 13678.21888207  965.95586322
0.42800002 13623.09932418  964.31113136
0.42900002 13572.00149664  962.93355182
0.43000002 13523.17149026  1223.98230958
0.43100002 13476.11642006  1222.55333956
0.43200002 13432.96634477  959.71832598
0.43300002 13392.19007392  1133.38109966
0.43400002 13353.94724558  1394.15215851
0.43500002 13317.97132784  958.09490273
0.43600002 13284.83521886  1132.06728682
0.43700002 13253.52073173  1044.90762401
0.43800002 13224.28243870  870.81903986
0.43900002 13198.07572298  958.18034290
0.44000002 13173.51901937  1132.85682176
0.44100002 13151.39069983  1220.71214261
0.44200002 13131.03925258  1134.32487959
0.44300002 13112.78150607  960.64241866
0.44400002 13096.67454129  1049.04368047
0.44500002 13081.31099656  1050.16769657
0.44600002 13068.06782065  1051.45678668
0.44700002 13057.66066512  1140.71728976
0.44800002 13047.26338343  1054.47987662
0.44900002 13040.25286437  1144.28224308
0.45000002 13034.10791113  881.75744198
0.45100002 13029.08435828  1060.04635363
0.45200002 13025.92630224  1239.15642786
0.45300002 13023.73479039  1152.99129564
0.45400002 13023.36162382  1155.49781484
0.45500002 13024.19240461  979.94028297
0.45600002 13026.15260123  982.23708345
0.45700002 13029.38814608  984.63090886
0.45800002 13033.41625263  1256.29105213
0.45900002 13038.67991171  1259.53653917
0.46000002 13045.79339272  1082.53998703
0.46100002 13052.69849194  995.00725320
0.46200002 13061.59335896  1451.40432284
0.46300002 13071.30319110  1000.73901974
0.46400002 13081.21719219  912.41494240
0.46500002 13092.53027012  1738.81902759
0.46600002 13104.45444536  1101.56049289
0.46700002 13116.75461045  1012.87583902
0.46800002 13130.83358372  1016.12960504
0.46900002 13144.57624488  1019.36193610
0.47000002 13159.36625099  1208.62205061
0.47100002 13174.78106486  1119.32945232
0.47200002 13190.98630058  1403.85078358
0.47300002 13207.79765760  1314.70424115
0.47400002 13224.38419849  1036.46116068
0.47500002 13241.93952045  1040.02197923
0.47600002 13260.48165634  1043.66625823
0.47700002 13278.49836114  1142.48205314
