# SAXS profile: number of points = 501, q_min = 0, q_max = 0.5, delta_q = 0.001
#    q    intensity    error
0.00000000 1682732.95097188 252.40994265
0.00100000 1682646.60861367 656.23219294
0.00200000 1682387.55260132 832.78186491
0.00300000 1681955.98781174 1009.17362864
0.00400000 1681351.81838904 1387.11530288
0.00500000 1680575.65826082 1815.02178276
0.00600000 1679627.38860933 1763.60882984
0.00700000 1678507.68849716 3424.15582684
0.00800000 1677216.40351885 3396.36336052
0.00900000 1675754.95654664 3016.35905073
0.01000000 1674122.64826184 3038.53273780
0.01100000 1672321.09106896 3311.19590448
0.01200000 1670350.19292340 3908.61962281
0.01300000 1668211.26875741 4203.89258268
0.01400000 1665904.50744860 4123.11383872
0.01500000 1663431.49410386 4391.45933998
0.01600000 1660791.79703782 4235.01927177
0.01700000 1657987.60495877 6267.19342788
0.01800000 1655019.47670624 7075.20858129
0.01900000 1651888.43131939 9415.76448338
0.02000000 1648595.07497035 6750.99713739
0.02100000 1645142.24995804 5428.96967100
0.02200000 1641528.52604492 6229.60103937
0.02300000 1637757.04676244 6485.51820039
0.02400000 1633828.31579784 7352.22775633
0.02500000 1629744.89287824 6356.00537251
0.02600000 1625506.90453393 9216.62457026
0.02700000 1621116.57397247 10893.90387605
0.02800000 1616574.11705518 8438.51727802
0.02900000 1611882.85123441 7253.47316359
0.03000000 1607043.64080725 10461.85458254
0.03100000 1602057.80840291 12303.80453467
0.03200000 1596926.80200387 8695.26683740
0.03300000 1591654.75046543 12987.90336255
0.03400000 1586239.90157587 9993.31184102
0.03500000 1580686.46023689 9389.27800739
0.03600000 1574995.10222531 9615.34554345
0.03700000 1569168.67247043 8944.26184673
0.03800000 1563208.84931306 10059.24941087
0.03900000 1557118.19730466 10276.98057814
0.04000000 1550896.61345455 12399.41899915
0.04100000 1544548.16467299 11676.78466634
0.04200000 1538074.58081679 10912.63965716
0.04300000 1531477.40537541 13140.07674806
0.04400000 1524759.81094671 10292.12920188
0.04500000 1517923.63422233 11521.04091907
0.04600000 1510969.74615562 15978.50580839
0.04700000 1503902.13557946 11910.90546774
0.04800000 1496722.60982733 11000.91169408
0.04900000 1489433.44438003 12287.82648810
0.05000000 1482036.66788374 13605.09724471
0.05100000 1474535.79666459 16101.93164967
0.05200000 1466930.49075613 16326.93712297
0.05300000 1459225.87821234 16547.62223034
0.05400000 1451423.22734704 17961.36327603
0.05500000 1443525.66851859 14550.73941745
0.05600000 1435534.53883853 14728.58505578
0.05700000 1427454.33517008 17386.39461394
0.05800000 1419284.60151091 15072.80317183
0.05900000 1411029.17465886 13969.18948157
0.06000000 1402691.79914214 14118.09361795
0.06100000 1394274.05834556 15560.09921828
0.06200000 1385778.25188258 15714.72611091
0.06300000 1377208.34588324 14543.32081250
0.06400000 1368562.94325526 20015.23398116
0.06500000 1359849.00922049 18847.50814944
0.06600000 1351067.36531948 14936.05042244
0.06700000 1342219.74483644 15059.70624184
0.06800000 1333310.00508104 15179.73511840
0.06900000 1324341.52145192 15296.14528892
0.07000000 1315313.91675803 15408.90325640
0.07100000 1306231.83947447 19750.22633791
0.07200000 1297097.16140379 21304.82187412
0.07300000 1287913.32446152 15725.42242850
0.07400000 1278683.11124493 18700.74137835
0.07500000 1269407.05307472 20259.73751670
0.07600000 1260088.43079317 18920.22867535
0.07700000 1250731.20746161 20486.97813882
0.07800000 1241336.24543587 14709.83519825
0.07900000 1231905.88082088 14782.87126322
0.08000000 1222445.09944345 23764.33384799
0.08100000 1212954.60575085 19395.14505594
0.08200000 1203435.84824985 16481.05471516
0.08300000 1193892.19907498 21060.25938008
0.08400000 1184326.72747594 21140.23307774
0.08500000 1174741.18642565 18184.99441957
0.08600000 1165138.54363917 21287.08219175
0.08700000 1155520.10455007 18303.43931556
0.08800000 1145888.49019288 19886.89568126
0.08900000 1136246.83900598 24542.93287530
0.09000000 1126597.05204491 18453.66057937
0.09100000 1116941.04877782 15413.78719729
0.09200000 1107280.82289036 16991.22502561
0.09300000 1097620.38474965 18571.73778269
0.09400000 1087958.85813989 17053.75590283
0.09500000 1078300.16217514 17080.27537167
0.09600000 1068646.00576690 17103.68012631
0.09700000 1059001.20329551 15567.31842031
0.09800000 1049364.71959181 17141.37350048
0.09900000 1039740.17647449 15596.10338048
0.10000000 1030127.07551064 21848.99629908
0.10100000 1020529.68186553 17175.51535359
0.10200000 1010949.83891158 18743.01089502
0.10300000 1001388.18330875 20308.15331281
0.10400000 991848.26027980 21870.25516806
0.10500000 982332.67705805 20304.81739012
0.10600001 972838.27437617 21859.67705381
0.10700001 963372.92745753 17167.30637515
0.10800001 953933.98518293 17156.50353093
0.10900001 944525.96416035 17143.14705636
0.11000001 935149.42781389 24912.38192958
0.11100001 925805.57689956 32662.42229055
0.11200001 916496.82958155 20195.00859055
0.11300001 907223.67036374 26372.99333914
0.11400001 897988.73573600 20137.39834704
0.11500001 888794.00606514 18558.01972050
0.11600001 879639.34185551 23156.50676482
0.11700001 870527.31545491 23112.50131381
0.11800001 861457.88494858 26140.94074996
0.11900001 852433.01947130 16878.17458052
0.12000001 843454.17694022 19901.30224235
0.12100001 834524.26138739 18326.15364338
0.12200001 825641.95096288 18279.71365550
0.12300001 816810.17062587 18231.20386732
0.12400001 808028.72396511 24240.86286112
0.12500001 799298.40843718 22660.11094695
0.12600001 790622.73902945 25604.31861003
0.12700001 782000.92049620 19518.74389543
0.12800001 773433.52836377 19455.72132292
0.12900001 764922.46171093 16407.58757702
0.13000001 756468.65491302 17837.53172362
0.13100001 748071.70371537 22217.73064764
0.13200001 739733.40987132 14757.68222261
0.13300001 731455.71751784 17642.71273826
0.13400001 723236.97564373 20503.76922616
0.13500001 715079.85884918 16046.39278913
0.13600001 706983.54772645 17434.21510897
0.13700001 698950.09415849 18808.74792070
0.13800001 690978.06935766 17288.27211057
0.13900001 683070.92425340 15778.93909436
0.14000001 675227.25857762 17137.26863090
0.14100001 667447.69015783 15638.30011795
0.14200001 659732.69126729 16981.52027416
0.14300001 652084.18133538 16902.02277744
0.14400001 644498.86415812 21026.77643499
0.14500001 636981.31407337 20924.83715438
0.14600001 629529.32434220 20821.68338487
0.14700001 622145.74563888 16573.96344572
0.14800001 614826.40374677 28856.87862128
0.14900001 607575.31121388 15037.48966202
0.15000001 600390.86769695 17678.50993346
0.15100001 593274.38143778 18937.31914905
0.15200001 586225.62450772 13453.87871730
0.15300001 579245.59184292 20070.86070448
0.15400001 572330.74719047 14637.35955015
0.15500001 565485.48692541 14555.59712038
0.15600001 558705.75573793 18420.52963603
0.15700001 551997.09001182 15698.79798087
0.15800001 545352.39020843 13006.65512037
0.15900001 538777.85213400 18102.93668617
0.16000001 532268.54552261 15425.14317735
0.16100001 525829.72048127 19166.49421628
0.16200001 519456.95043260 16510.93994892
0.16300001 513150.93505451 16410.56767775
0.16400001 506912.25896431 20073.72640266
0.16500001 500739.68426403 21196.31183560
0.16600001 494634.71481352 16107.78024840
0.16700001 488594.36936102 19700.12590277
0.16800001 482619.85441981 15904.73805337
0.16900001 476712.84348805 19449.88493270
0.17000001 470869.76895754 18116.71521611
0.17100001 465091.60266400 13199.30030689
0.17200001 459378.72273992 16689.22978525
0.17300001 453730.00806190 13026.58914663
0.17400001 448145.46691883 12940.20096840
0.17500001 442624.00200617 14022.32904580
0.17600001 437164.31120356 17410.06951594
0.17700001 431769.34055819 13833.89032487
0.17800001 426434.76567535 13739.72879902
0.17900001 421162.79518681 17057.09401073
0.18000001 415951.93934882 12422.40525543
0.18100001 410803.52988634 11214.93689565
0.18200001 405712.61935320 12250.49312006
0.18300001 400682.69406577 14376.49574222
0.18400001 395711.59629398 17569.59570545
0.18500001 390800.94981483 17445.35522389
0.18600001 385946.56603083 11908.38185747
0.18700001 381149.76765889 12898.10874695
0.18800001 376409.91996992 12805.46608239
0.18900001 371728.87253247 12713.12804127
0.19000001 367099.37601437 12620.87714369
0.19100001 362529.93649031 12529.03519710
0.19200001 358012.10111138 12437.34098029
0.19300001 353550.62132834 16461.31770689
0.19400001 349141.22885937 15318.57214007
0.19500001 344785.43727680 11150.36156844
0.19600001 340481.96402677 11067.36676369
0.19700001 336229.97614021 9986.03076328
0.19800001 332029.78239300 10902.19842010
0.19900001 327880.47507886 10820.05618896
0.20000001 323779.92680621 11714.35830548
0.20100001 319730.03741292 13562.94882807
0.20200001 315727.76481997 10575.30198247
0.20300001 311774.88756054 10494.34321130
0.20400001 307869.25688336 11360.37611595
0.20500001 304010.20494257 13151.48208745
0.20600001 300197.71850213 12117.48148011
0.20700001 296431.44828460 12023.26011075
0.20800001 292708.99069020 13764.64093786
0.20900001 289033.99746759 9104.57135061
0.21000001 285400.36811726 10839.50649350
0.21100001 281811.05605280 11650.06960796
0.21200001 278264.42854889 10668.65869492
0.21300001 274758.91071544 12347.66603129
0.21400001 271296.10046550 10499.15958438
0.21500001 267875.56543467 8679.16873041
0.21600001 264494.15270708 12052.99910871
0.21700001 261153.05155680 9393.67570863
0.21800001 257851.31275142 11858.58243412
0.21900001 254587.73212572 8401.39555738
0.22000001 251362.09828316 9165.91934728
0.22100001 248175.86890840 9917.10819050
0.22200001 245026.51462176 10654.97849214
0.22300001 241912.85481835 8941.09953687
0.22400001 238834.72931673 9672.80699472
0.22500001 235794.56932415 11190.81078931
0.22600001 232787.28555067 7926.40744783
0.22700001 229816.91844416 11789.60847371
0.22800001 226879.18497132 10910.62052123
0.22900001 223974.37396821 7727.11626733
0.23000001 221104.12648405 8427.38417949
0.23100001 218266.98250195 8355.26048532
0.23200001 215460.25033700 7530.33610541
0.23300001 212685.99500147 8958.33453314
0.23400001 209943.68076342 9620.66962600
0.23500001 207230.38117114 12471.12492872
0.23600001 204549.26501652 10180.41740138
0.23700001 201897.50880968 8649.28968650
0.23800001 199275.40924139 7858.42613513
0.23900001 196682.08376015 7788.61088530
0.24000001 194117.51573777 7719.08337843
0.24100001 191582.35970445 7649.88398485
0.24200001 189074.71905682 9648.48336986
0.24300001 186594.38731033 6829.35489861
0.24400001 184141.15468329 8120.62530567
0.24500001 181714.98215324 9387.39642210
0.24600001 179315.14200515 6643.62632557
0.24700001 176941.85613962 8556.90856770
0.24800001 174594.61652866 10433.77477734
0.24900001 172271.81021582 8398.25114532
0.25000001 169975.14899123 8319.43406095
0.25100001 167701.86893469 8240.87022932
0.25200001 165455.27196976 8162.73622881
0.25300001 163232.37891704 6841.06932407
0.25400001 161032.94715344 6159.51052003
0.25500001 158856.83549259 7320.12332583
0.25600001 156704.87993912 7853.26542971
0.25700001 154575.53636651 11365.93972679
0.25800001 152469.39516419 5923.43628239
0.25900001 150385.94235063 8211.07284085
0.26000001 148324.78919091 8710.37365737
0.26100001 146284.87622601 6898.79508924
0.26200001 144268.12397874 6829.65331231
0.26300001 142271.80079685 6197.35993595
0.26400001 140297.60161898 6692.19591389
0.26500001 138344.87067030 8279.94090141
0.26600001 136412.13726874 7102.29826297
0.26700001 134501.17683627 5406.94756468
0.26800001 132611.12015570 6956.11663694
0.26900001 130740.17099748 5824.47489356
0.27000001 128890.43414725 5763.33603563
0.27100001 127060.21253546 6220.86830013
0.27200001 125251.20150324 5129.03694428
0.27300001 123460.89990367 9133.63780711
0.27400001 121688.33747594 7529.46623765
0.27500001 119937.90597685 5958.51545092
0.27600001 118204.06339380 6384.79278638
0.27700001 116491.37372261 7772.30482261
0.27800001 114796.29803136 5765.07035998
0.27900001 113120.95660766 6651.51256333
0.28000001 111462.99828228 5167.98215995
0.28100001 109824.19290901 7897.45808587
0.28200001 108204.14380606 5971.24595855
0.28300001 106601.85161536 4541.23909375
0.28400001 105017.34394291 4938.44083266
0.28500001 103451.18661903 5325.66733922
0.28600001 101902.73297796 4825.60414858
0.28700001 100371.77608778 5203.27311867
0.28800001 98857.69516189  4285.48128811
0.28900001 97363.05560844  5082.35174333
0.29000001 95884.00600102  7533.60670810
0.29100001 94423.29066972  4549.31435981
0.29200001 92979.33025878  4903.73010997
0.29300001 91552.55119720  5248.70800859
0.29400001 90141.95900322  5983.17281206
0.29500001 88749.40065152  4334.52093300
0.29600001 87372.72758011  5060.19175734
0.29700001 86012.81796693  4229.25045964
0.29800001 84669.29302416  4936.64336347
0.29900001 83343.06719274  4500.52584146
0.30000001 82032.11153986  4444.50001363
0.30100001 80738.59284647  4388.95011491
0.30200001 79459.64907946  3972.58534379
0.30300001 78198.14535908  4635.58627634
0.30400001 76952.35692114  3872.62754539
0.30500001 75722.30376612  3475.65390741
0.30600001 74507.22553570  4460.37526786
0.30700001 73309.16544839  4064.26032487
0.30800001 72126.07684510  3677.34820205
0.30900001 70958.63624621  3299.57674166
0.31000001 69807.09317720  4559.10147125
0.31100001 68669.94117446  3213.75339912
0.31200001 67548.68289753  3488.55189341
0.31300001 66442.26909702  3755.31722716
0.31400001 65351.96742978  3396.66866798
0.31500001 64275.49813260  4569.98813360
0.31600002 63214.49394567  3005.84932944
0.31700002 62168.18474715  3261.96480813
0.31800002 61136.87567361  4680.63942319
0.31900002 60120.41704595  3751.51420130
0.32000002 59118.41353926  2846.55174670
0.32100002 58130.18837931  3088.45705483
0.32200002 57157.94787443  3046.23297621
0.32300002 56197.96222285  2731.22109336
0.32400002 55253.20155172  3232.31244383
0.32500002 54322.42924255  2922.00360732
0.32600002 53405.96540572  3667.38781807
0.32700002 52502.82995976  2583.13935634
0.32800002 51614.44199778  4075.47653313
0.32900002 50738.95918739  2762.73645858
0.33000002 49878.03929946  2724.08924534
0.33100002 49028.54158043  2685.78363496
0.33200002 48195.14490900  2648.08236242
0.33300002 47373.90227721  2610.77587813
0.33400002 46566.30531099  2573.95264796
0.33500002 45770.93232575  2306.85509846
0.33600002 44989.53945799  2956.48772549
0.33700002 44220.25753203  2690.36059566
0.33800002 43464.93979697  2431.21152268
0.33900002 42721.04715947  2832.40556081
0.34000002 41990.61634859  3006.94817913
0.34100002 41272.25524888  2752.44683290
0.34200002 40567.15664415  2504.61636983
0.34300002 39873.09092229  2674.68706574
0.34400002 39192.82644328  2433.87463740
0.34500002 38523.37318615  2199.29947936
0.34600002 37866.95675912  2562.26775046
0.34700002 37220.95686732  2331.52084859
0.34800002 36588.22572155  1915.39370724
0.34900002 35966.33595662  2077.05599987
0.35000002 35356.33176103  2419.96424200
0.35100002 34758.03200260  2752.83626499
0.35200002 34170.05843695  1990.23514792
0.35300002 33593.63477843  2854.11534596
0.35400002 33028.48000079  2110.51997201
0.35500002 32474.65209752  1907.56115456
0.35600002 31930.60711269  1709.88409187
0.35700002 31397.83397624  2023.27651726
0.35800002 30875.93259397  1828.93595383
0.35900002 30364.63061770  1639.69013102
0.36000002 29863.95827063  2749.12680882
0.36100002 29372.53192577  1913.91427094
0.36200002 28892.60819226  2517.12414494
0.36300002 28421.62697821  2017.36717847
0.36400002 27960.60955478  1837.01213476
0.36500002 27509.22095789  1661.28193234
0.36600002 27067.91955549  1788.10685053
0.36700002 26635.67104552  1617.31802249
0.36800002 26214.19707230  1886.24263969
0.36900002 25801.15332590  1718.35689290
0.37000002 25396.69948937  1837.32431159
0.37100002 25001.42368572  1813.60336007
0.37200002 24615.83814382  1514.98183033
0.37300002 24238.44700149  1495.75463532
0.37400002 23869.97224411  1342.68600234
0.37500002 23510.35824477  1856.37797495
0.37600002 23159.39456705  1702.56297225
0.37700002 22816.13348956  1423.04231316
0.37800002 22481.21119128  1405.86260845
0.37900002 22155.00982957  2146.82055419
0.38000002 21836.57483701  1247.96031105
0.38100002 21525.06354167  1233.38619937
0.38200002 21222.22545972  1219.21691042
0.38300002 20926.52039251  1205.36763171
0.38400002 20639.12513827  1311.10048652
0.38500002 20358.00022091  1414.47392236
0.38600002 20085.48180048  1399.15472851
0.38700002 19818.92982652  2191.57736404
0.38800002 19560.04832534  1483.72753601
0.38900002 19307.29606678  1468.31993544
0.39000002 19062.75085771  1341.63646893
0.39100002 18823.73898030  1106.83590448
0.39200002 18591.85054580  1424.78653408
0.39300002 18366.03270098  1302.51910086
0.39400002 18148.02031680  1290.32430566
0.39500002 17935.01130137  1171.87369395
0.39600002 17728.33190763  1266.86665814
0.39700002 17527.60402932  1151.03781114
0.39800002 17333.11703128  1141.12581382
0.39900002 17144.00241066  1440.09627073
0.40000002 16960.74724164  1224.22679390
0.40100002 16783.43681216  1518.06193158
0.40200002 16611.58663764  1506.25568973
0.40300002 16444.68413589  1195.85748702
0.40400002 16283.45696785  1285.98607497
0.40500002 16127.55070179  1669.68540327
0.40600002 15976.63635119  975.37369545
0.40700002 15830.88252703  1453.27508484
0.40800002 15689.76865134  1058.82408760
0.40900002 15553.54122153  1339.15996263
0.41000002 15422.51862825  1045.87815033
0.41100002 15295.50870897  1039.78873130
0.41200002 15172.93200214  1033.95950028
0.41300002 15055.58131508  1308.93230155
0.41400002 14941.91670027  1302.18810213
0.41500002 14832.76498561  1018.12103685
0.41600002 14727.12797259  1289.65465767
0.41700002 14626.11044236  1100.46860183
0.41800002 14529.78985201  1278.47626966
0.41900002 14435.61677219  1000.38828972
0.42000002 14346.47099906  1087.17562382
0.42100002 14261.14775811  993.00376545
0.42200002 14179.44478639  1079.62297719
0.42300002 14100.70881696  986.48563558
0.42400002 14025.52671245  1072.95284434
0.42500002 13954.06947693  980.83159001
0.42600002 13885.05381263  1334.00660826
0.42700002 13820.51165860  1064.73226863
0.42800002 13758.45909122  973.89257292
0.42900002 13700.22311332  1148.76376249
0.43000002 13644.50730554  1058.54092692
0.43100002 13590.91755249  1056.82979896
0.43200002 13541.24169085  1055.40442740
0.43300002 13494.03291019  1054.15390090
0.43400002 13449.55053075  877.58321372
0.43500002 13407.53297248  964.53796775
0.43600002 13368.62616642  1139.20753276
0.43700002 13331.42715677  963.46228628
0.43800002 13296.63098453  875.58319182
0.43900002 13265.02598233  1488.33598575
0.44000002 13235.21040840  963.06013101
0.44100002 13207.95352712  1401.09977655
0.44200002 13182.54816555  963.57840382
0.44300002 13159.49948195  964.06497774
0.44400002 13138.80393837  1052.41824534
0.44500002 13118.80551833  965.41294385
0.44600002 13101.24019665  1141.96965586
0.44700002 13086.60130549  967.36161435
0.44800002 13072.29510196  880.41911684
0.44900002 13061.30407932  1057.96568056
0.45000002 13051.37845629  971.21837385
0.45100002 13042.86002826  884.30595183
0.45200002 13036.21365926  885.81076013
0.45300002 13030.67211240  1153.60545678
0.45400002 13027.10927224  978.01027496
0.45500002 13024.91967493  1158.17591238
0.45600002 13024.02419823  1249.91566154
0.45700002 13024.57173819  984.26693290
0.45800002 13025.96845004  896.83797029
0.45900002 13028.70375399  988.87866179
0.46000002 13033.36196053  1081.50842674
0.46100002 13038.07520661  1355.30798196
0.46200002 13044.92620254  1087.16420125
0.46300002 13052.69544235  999.31441043
0.46400002 13060.81280951  1457.58677862
0.46500002 13070.54743997  1004.99444029
0.46600002 13080.81983005  1007.94261978
0.46700002 13091.71699311  1286.65400707
0.46800002 13104.52511944  921.90338585
0.46900002 13117.11812049  1294.65961985
0.47000002 13130.92594506  1113.23995439
0.47100002 13145.32598448  930.68912381
0.47200002 13160.79248783  1120.50992552
0.47300002 13177.02064169  1124.26345444
0.47400002 13193.08771675  1410.01131656
0.47500002 13210.20542487  1037.52958325
0.47600002 13228.42314316  1230.44183698
0.47700002 13246.26904640  1044.73328921
