# SAXS profile: number of points = 501, q_min = 0, q_max = 0.5, delta_q = 0.001
#    q    intensity    error
0.00000000 1664650.74656091 249.69761198
0.00100000 1664564.78768222 749.05417225
0.00200000 1664306.87951589 898.72574340
0.00300000 1663877.23518319 1297.82428968
0.00400000 1663275.73488705 1496.94821828
0.00500000 1662503.02240449 1645.87805733
0.00600000 1661558.95202511 1919.10066772
0.00700000 1660444.22974316 2191.78647435
0.00800000 1659158.68156654 2463.85074615
0.00900000 1657703.70854360 2486.55566911
0.01000000 1656078.67158271 3552.28890393
0.01100000 1654285.13629133 3275.48471247
0.01200000 1652322.99242165 4188.63896943
0.01300000 1650193.62169527 4505.02878592
0.01400000 1647897.15025963 4449.32250294
0.01500000 1645435.18789173 4343.94908947
0.01600000 1642807.27985696 4608.07462600
0.01700000 1640015.65716468 5756.45521488
0.01800000 1637060.85207830 5132.18600220
0.01900000 1633943.85437676 5392.01496274
0.02000000 1630665.30466138 8218.55350727
0.02100000 1627228.01222501 5906.83795218
0.02200000 1623630.54928037 6161.67821446
0.02300000 1619876.14971740 6997.86528531
0.02400000 1615965.23398858 6665.85689415
0.02500000 1611900.24596584 9429.61686956
0.02600000 1607681.53555099 7162.22156847
0.02700000 1603311.15755415 8080.68860418
0.02800000 1598789.42572398 9041.15461709
0.02900000 1594119.62009780 8608.24634377
0.03000000 1589302.54452244 7390.25717172
0.03100000 1584339.61137525 9125.79658143
0.03200000 1579232.22967274 9380.63987631
0.03300000 1573984.43663444 11238.24939566
0.03400000 1568594.59144355 9882.14638206
0.03500000 1563066.93268974 10128.67419155
0.03600000 1557401.94551512 9507.93931677
0.03700000 1551602.69524643 9728.54934912
0.03800000 1545670.76747117 9946.39184899
0.03900000 1539608.56906941 13856.47776332
0.04000000 1533416.24013074 12259.66340795
0.04100000 1527097.78255149 12506.93141900
0.04200000 1520654.77185451 13731.51322689
0.04300000 1514088.88939872 17987.37684099
0.04400000 1507403.18847812 13227.46359320
0.04500000 1500599.73323921 11389.55250450
0.04600000 1493679.13129317 10530.43836514
0.04700000 1486645.59073190 10703.84875108
0.04800000 1479500.60899647 13049.19597850
0.04900000 1472246.68023622 15458.59086204
0.05000000 1464885.89371993 15688.92865231
0.05100000 1457421.69808070 12504.67875205
0.05200000 1449853.54583378 14984.23709448
0.05300000 1442186.91598462 12849.88602046
0.05400000 1434422.67582729 17750.98144116
0.05500000 1426564.21564332 13181.45396745
0.05600000 1418612.80873977 14554.96809687
0.05700000 1410572.93420377 23316.77169078
0.05800000 1402444.24091439 14893.95853395
0.05900000 1394230.45344136 17567.30453386
0.06000000 1385935.29550287 17753.83196483
0.06100000 1377560.33179902 14092.44285286
0.06200000 1369107.94493175 19407.10602656
0.06300000 1360581.94666247 16980.06348826
0.06400000 1351981.04652536 15818.17898411
0.06500000 1343312.38532910 13298.79323685
0.06600000 1334576.44458030 18777.49145382
0.06700000 1325775.08295466 17579.77842269
0.06800000 1316912.07220860 13630.04058537
0.06900000 1307990.97143254 15107.29642735
0.07000000 1299011.38757541 17984.81350318
0.07100000 1289977.97141481 15324.93901819
0.07200000 1280892.27274363 15428.34814797
0.07300000 1271757.87186546 22586.42086263
0.07400000 1262577.68346901 15624.39956515
0.07500000 1253352.28814930 17145.86010555
0.07600000 1244084.72785968 17243.01513650
0.07700000 1234779.17144363 18780.99207827
0.07800000 1225436.48108955 18877.84987648
0.07900000 1216058.58392911 16051.97406076
0.08000000 1206651.03245182 23457.29717127
0.08100000 1197214.02445496 17670.87983004
0.08200000 1187749.36336336 14787.48026778
0.08300000 1178260.20456193 19299.90305651
0.08400000 1168749.86579643 17881.87378604
0.08500000 1159219.82491506 25421.69195381
0.08600000 1149673.10893339 19504.20520881
0.08700000 1140111.02749092 18059.35952348
0.08800000 1130536.18944172 18111.19060543
0.08900000 1120951.80858107 18159.42015196
0.09000000 1111359.67668146 18204.07235919
0.09100000 1101761.70890674 19765.60598640
0.09200000 1092159.97022627 22853.44845079
0.09300000 1082558.39698805 19843.29634927
0.09400000 1072956.21663259 22934.44020838
0.09500000 1063357.23571866 18374.81389688
0.09600000 1053763.17915760 19931.93147072
0.09700000 1044178.88313639 15349.43030372
0.09800000 1034603.28469369 15363.85950007
0.09900000 1025039.70846692 21525.83489000
0.10000000 1015488.40359399 16923.11504174
0.10100000 1005953.00128727 18469.29797228
0.10200000 996435.12113904 18473.90801486
0.10300000 986936.35508100 24633.93258162
0.10400000 977459.32163517 18473.98204801
0.10500000 968006.95348549 15391.31128457
0.10600001 958576.11216675 15385.14732420
0.10700001 949174.67570904 23064.94570511
0.10800001 939799.85215727 19975.44679768
0.10900001 930456.42163798 19958.29118348
0.11000001 921144.64181712 15337.05900816
0.11100001 911865.77119555 21447.08394811
0.11200001 902622.45554326 29068.95754925
0.11300001 893414.96545780 16805.13629146
0.11400001 884246.00220792 18303.89310753
0.11500001 875117.20932815 25885.96827084
0.11600001 866029.09468545 19758.45472570
0.11700001 856983.70492873 18202.33474992
0.11800001 847981.20455180 21191.05129981
0.11900001 839023.40094722 19633.14850692
0.12000001 830111.84861901 18079.83691457
0.12100001 821249.39210389 19537.52395853
0.12200001 812434.93143295 22484.13778666
0.12300001 803671.00084763 20927.59384806
0.12400001 794957.70041121 17886.54910202
0.12500001 786295.86146135 17833.19097825
0.12600001 777688.75863384 14814.97155011
0.12700001 769135.58313111 20674.36544887
0.12800001 760637.07776469 20605.65940777
0.12900001 752195.13819409 22001.70882916
0.13000001 743810.38152446 19000.63709164
0.13100001 735482.86463714 20387.58596876
0.13200001 727214.06679223 17409.50557970
0.13300001 719005.95616912 18787.62652040
0.13400001 710856.90959552 15834.33840776
0.13500001 702769.67239638 14336.50199283
0.13600001 694743.40766054 15704.67547065
0.13700001 686780.12723707 18481.25409540
0.13800001 678878.46298797 15570.07828285
0.13900001 671041.49359499 19728.62084206
0.14000001 663268.01443654 16833.74300029
0.14100001 655558.91732539 13963.40559759
0.14200001 647914.52476107 18067.09737510
0.14300001 640336.62046806 20746.90748175
0.14400001 632821.95252013 16516.65373986
0.14500001 625375.05675389 17804.42870566
0.14600001 617993.93588041 19077.47370060
0.14700001 610681.34284347 16268.55174084
0.14800001 603432.76129392 16184.06742145
0.14900001 596252.51130019 13415.68213722
0.15000001 589139.07203634 13344.00061123
0.15100001 582093.65401126 14598.90953145
0.15200001 575115.80042460 14518.79906682
0.15300001 568206.64068378 15750.68882301
0.15400001 561362.89487912 23493.03825935
0.15500001 554588.72307079 14275.11440553
0.15600001 547879.79606546 16773.34074816
0.15700001 541242.10178985 15392.92610140
0.15800001 534668.31427985 26778.86378463
0.15900001 528164.82053392 15211.14754935
0.16000001 521726.37306110 12599.69250416
0.16100001 515358.46985098 16280.17483109
0.16200001 509056.44300988 14935.71674297
0.16300001 502821.13466221 18554.10074493
0.16400001 496653.15246243 13521.38271413
0.16500001 490551.28180897 15879.14574183
0.16600001 484516.86077928 16992.00710977
0.16700001 478547.01170630 19295.01642301
0.16800001 472642.88999589 15575.94717525
0.16900001 466806.25614110 11903.56009366
0.17000001 461033.34912795 13008.05655988
0.17100001 455325.41770902 15271.61523111
0.17200001 449682.58654615 14003.11640631
0.17300001 444103.85351145 11591.11112403
0.17400001 438589.15194334 11512.96578222
0.17500001 433137.43384156 12578.31167280
0.17600001 427747.56570266 13628.03808693
0.17700001 422422.08640787 12406.53726377
0.17800001 417156.74062265 14560.85671917
0.17900001 411954.11792138 16684.14256387
0.18000001 406812.41768773 12149.45342812
0.18100001 401733.00127679 19741.16061524
0.18200001 396710.89048894 14156.62879583
0.18300001 391749.63722570 10812.29049819
0.18400001 386847.16432655 15029.01304407
0.18500001 382004.74472850 11723.72616957
0.18600001 377218.64435799 15871.47521119
0.18700001 372489.87777630 10504.21504956
0.18800001 367817.95986277 13555.93155121
0.18900001 363204.49722407 13456.72725795
0.19000001 358642.75034810 11302.62681126
0.19100001 354140.51044747 11219.17190108
0.19200001 349689.78201054 12148.22360107
0.19300001 345295.39493525 12057.71576090
0.19400001 340952.53499504 10970.14833185
0.19500001 336663.53058198 12867.28074689
0.19600001 332426.37775118 15717.11988281
0.19700001 328240.61208401 9748.74663960
0.19800001 324106.23486519 12576.94303831
0.19900001 320022.67780931 9600.68078801
0.20000001 315987.66221476 12385.13700584
0.20100001 312003.04184993 18907.38522971
0.20200001 308065.72737005 12194.78239431
0.20300001 304177.82222147 13961.76269986
0.20400001 300336.72690615 11082.42574666
0.20500001 296542.08006506 11912.09591926
0.20600001 292793.68016471 16364.23955791
0.20700001 289091.25056825 11725.54167730
0.20800001 285432.57176544 11632.80501219
0.20900001 281820.83067425 11540.56356165
0.21000001 278250.45597410 10567.95281747
0.21100001 274724.02727936 12230.71427266
0.21200001 271239.99995017 11265.95393052
0.21300001 267796.93360158 9455.91017250
0.21400001 264396.29750287 12790.17149638
0.21500001 261037.54700091 10149.14030722
0.21600001 257717.73959355 9227.58410241
0.21700001 254437.94662707 9152.13337288
0.21800001 251197.23132253 9902.19532692
0.21900001 247994.36273746 10638.95866446
0.22000001 244829.30656482 8927.70108601
0.22100001 241703.27617474 8853.59142491
0.22200001 238613.97906190 8779.80177473
0.22300001 235559.77939722 11872.21344300
0.22400001 232541.18308862 10987.57142050
0.22500001 229560.06103849 9338.50372464
0.22600001 226611.55289912 13117.41035986
0.22700001 223699.60889883 9945.68508196
0.22800001 220820.16411381 8343.69029561
0.22900001 217973.24618492 9024.09281881
0.23000001 215160.41016675 12674.02456025
0.23100001 212380.59820586 11825.35226736
0.23200001 209630.85272357 8791.91837903
0.23300001 206913.30928472 7262.65749938
0.23400001 204227.50025679 8638.82366944
0.23500001 201570.38644027 7849.15121922
0.23600001 198944.86920870 10608.73565232
0.23700001 196348.67451413 7710.61281287
0.23800001 193781.69483367 7641.78149721
0.23900001 191243.30756353 9638.66315711
0.24000001 188733.22133540 8187.24752879
0.24100001 186252.22643925 7437.05175350
0.24200001 183798.44849255 8039.34451734
0.24300001 181371.88138121 10621.13787609
0.24400001 178971.88541739 9208.10394030
0.24500001 176598.61061052 6516.48903979
0.24600001 174251.53684639 6456.01974556
0.24700001 171930.56152509 8954.14406781
0.24800001 169635.15111084 6969.46051309
0.24900001 167363.96332417 6903.76381372
0.25000001 165118.69908018 6838.39124592
0.25100001 162896.46895973 6773.23549978
0.25200001 160700.54719378 7318.30326543
0.25300001 158528.04357036 9663.86999325
0.25400001 156378.70739872 7177.78300919
0.25500001 154252.36846671 5923.29122936
0.25600001 152149.76606112 7038.44851099
0.25700001 150069.39427971 6388.45441675
0.25800001 148012.01921187 6325.29394029
0.25900001 145976.88368952 6262.40860658
0.26000001 143963.77738781 7890.65501198
0.26100001 141971.67604441 7253.33327231
0.26200001 140002.35941079 5523.09334009
0.26300001 138053.23145955 7653.67151427
0.26400001 136125.65213666 5952.09442132
0.26500001 134219.39890661 7497.49597770
0.26600001 132332.71912348 5829.91821685
0.26700001 130467.55342052 6293.75507483
0.26800001 128622.91726727 6227.92194879
0.26900001 126797.13001348 7189.39761198
0.27000001 124992.12343168 6605.20907532
0.27100001 123206.25248082 7540.22300865
0.27200001 121441.36078819 6464.93114750
0.27300001 119694.85915332 5903.35073281
0.27400001 117965.69955315 5839.30240422
0.27500001 116258.40980850 4813.09839385
0.27600001 114567.40131673 5236.30332499
0.27700001 112897.13699041 7532.49733649
0.27800001 111244.13215062 6052.23729609
0.27900001 109610.66675821 5064.01304390
0.28000001 107994.20670886 5007.15163104
0.28100001 106396.52274997 4500.57312533
0.28200001 104817.25275721 4449.49259014
0.28300001 103255.48892359 6158.15765087
0.28400001 101711.10211619 4782.96480340
0.28500001 100184.81163157 5587.30720915
0.28600001 98675.88470971  7221.59496429
0.28700001 97184.14202955  5038.02616127
0.28800001 95708.93223671  4563.88064973
0.28900001 94252.75746684  4509.99465826
0.29000001 92812.01064808  4456.36890221
0.29100001 91389.11192505  5603.98060851
0.29200001 89982.80581458  5536.64230385
0.29300001 88593.15873197  6641.82942453
0.29400001 87219.50985682  5403.24889140
0.29500001 85863.60273578  4193.57855613
0.29600001 84523.22928724  3765.51004300
0.29700001 83199.26230266  4834.70936127
0.29800001 81891.53463497  4040.11905247
0.29900001 80600.52862251  3989.72635568
0.30000001 79324.72063112  3581.51130604
0.30100001 78065.82365991  4243.65837505
0.30200001 76821.29435478  4189.83359246
0.30300001 75593.88988269  4136.49785021
0.30400001 74381.96749272  4423.86772606
0.30500001 73185.51704422  3695.13693050
0.30600001 72003.53349140  4310.49173653
0.30700001 70838.32826439  4909.09638113
0.30800001 69687.81264165  3553.03329575
0.30900001 68552.57169944  4144.00315543
0.31000001 67432.97176414  4404.04759442
0.31100001 66327.37834296  4656.18218012
0.31200001 65237.61655666  3062.90624235
0.31300001 64162.13308433  4230.85125590
0.31400001 63102.57970115  3577.91643846
0.31500001 62056.62280531  4706.37449639
0.31600002 61025.82087843  3191.95571218
0.31700002 60009.37383179  3148.69199404
0.31800002 59007.64633891  3952.92241541
0.31900002 58020.32197893  3063.47314554
0.32000002 57047.39241724  3570.88169744
0.32100002 56087.85737074  2979.94800321
0.32200002 55143.97398668  2938.89823278
0.32300002 54212.16944260  3425.12502757
0.32400002 53295.30059531  3117.77523246
0.32500002 52392.01297600  2818.16651142
0.32600002 51502.85462239  3536.70119439
0.32700002 50626.68736733  3487.16639099
0.32800002 49765.03270636  2947.08537642
0.32900002 48916.00683185  2663.47669812
0.33000002 48081.29871521  4297.02586966
0.33100002 47257.57208150  2824.11264132
0.33200002 46449.93284009  2784.20910628
0.33300002 45653.93106286  2744.71446548
0.33400002 44871.45403310  2480.26973913
0.33500002 44100.90238879  2222.68558565
0.33600002 43344.06054241  2410.14660060
0.33700002 42599.05562663  2159.77222255
0.33800002 41867.66335184  3406.35325162
0.33900002 41147.52146707  2518.22843304
0.34000002 40440.55495228  2689.09482890
0.34100002 39745.43731609  2038.94103088
0.34200002 39063.24861816  2411.76508390
0.34300002 38391.99822261  3169.64352337
0.34400002 37734.06068038  2148.01150596
0.34500002 37086.86870003  2309.77029203
0.34600002 36452.48266666  2656.29253772
0.34700002 35828.10240939  2244.27244122
0.34800002 35216.90912269  2581.04739184
0.34900002 34616.22475180  2544.29263976
0.35000002 34027.09496394  2328.98462511
0.35100002 33449.62594147  2825.82453337
0.35200002 32882.03018114  2089.32429667
0.35300002 32325.88611150  2231.45602397
0.35400002 31780.82003313  2200.02737099
0.35500002 31246.68271212  2002.28752303
0.35600002 30722.16075007  1974.20614331
0.35700002 30208.64900380  2108.86588684
0.35800002 29705.90230873  2079.56178962
0.35900002 29213.39753486  1735.27589576
0.36000002 28731.30182511  1711.38007427
0.36100002 28258.30641756  1841.31133338
0.36200002 27796.53356652  1664.87345683
0.36300002 27343.45456663  1791.54322807
0.36400002 26900.17292699  2061.89835252
0.36500002 26466.24961997  1888.89632485
0.36600002 26042.29262355  1576.99110452
0.36700002 25627.04768088  2121.91964849
0.36800002 25222.46294160  1535.66972894
0.36900002 24825.92056969  1653.40638826
0.37000002 24438.00098776  1631.96978327
0.37100002 24058.91265223  2013.73108438
0.37200002 23689.43096472  1855.59321537
0.37300002 23327.81821155  1570.42879639
0.37400002 22974.89898735  1809.27338096
0.37500002 22630.74266853  1659.28613106
0.37600002 22294.92301578  1512.93354752
0.37700002 21966.63139918  1619.16047714
0.37800002 21646.52923038  1476.72629405
0.37900002 21334.85079572  1216.08655297
0.38000002 21030.87847088  1442.29771386
0.38100002 20733.55370503  1425.63922029
0.38200002 20444.80730793  1292.00965903
0.38300002 20162.91186987  1277.52215660
0.38400002 19889.14432665  1263.45795321
0.38500002 19621.46465753  1476.90771474
0.38600002 19362.16216205  1236.37092343
0.38700002 19108.84324585  1223.34820256
0.38800002 18862.80411174  1430.83807368
0.38900002 18622.81843648  1307.32191618
0.39000002 18390.75579825  1294.34145440
0.39100002 18164.13740285  1068.05132989
0.39200002 17944.47221492  1057.82668719
0.39300002 17730.70522559  1047.88472848
0.39400002 17524.58307437  1453.66423489
0.39500002 17323.26168577  1646.40286862
0.39600002 17128.10546447  1121.97660161
0.39700002 16938.71118025  1112.36521591
0.39800002 16755.36270621  1203.37020657
0.39900002 16577.39691034  1094.10824792
0.40000002 16405.02137012  1184.11449860
0.40100002 16238.37035397  1370.84329023
0.40200002 16077.08049200  1069.04551797
0.40300002 15920.58835025  1061.26646971
0.40400002 15769.67183469  1053.80837028
0.40500002 15623.76128466  951.48710732
0.40600002 15482.89611317  1039.75393774
0.40700002 15346.79423480  1127.06862201
0.40800002 15215.46141986  1306.85604327
0.40900002 15088.68692971  1206.34057719
0.41000002 14966.93104858  922.71134286
0.41100002 14849.20610580  1009.44907890
0.41200002 14735.70840232  1186.74033241
0.41300002 14627.18212687  1271.68727437
0.41400002 14522.35175075  994.41808325
0.41500002 14421.81782041  1169.89791703
0.41600002 14324.74832833  1254.41827055
0.41700002 14232.06460804  1160.05564117
0.41800002 14144.06404706  1244.53625447
0.41900002 14057.95305702  974.21619301
0.42000002 13976.75277291  1588.73756298
0.42100002 13899.29629134  1231.75569571
0.42200002 13825.39466096  964.94346609
0.42300002 13754.30004946  962.25087706
0.42400002 13686.53407750  872.51658879
0.42500002 13622.49305673  1044.57281709
0.42600002 13560.72860231  1215.99059139
0.42700002 13503.33029112  866.91384577
0.42800002 13448.14031285  1211.54301820
0.42900002 13396.83667256  950.50560696
0.43000002 13347.92593109  949.23779757
0.43100002 13300.92482594  948.08996652
0.43200002 13257.81554967  1033.31419291
0.43300002 13217.06123214  1032.51687238
0.43400002 13178.88580427  945.91457343
0.43500002 13143.06633223  1117.42355252
0.43600002 13110.21892319  1031.24986937
0.43700002 13079.04514476  1117.08129875
0.43800002 13050.21828491  1289.03537218
0.43900002 13024.34816092  945.56772129
0.44000002 13000.22122532  1031.95760977
0.44100002 12978.54450167  1118.62080361
0.44200002 12958.67651918  947.21450506
0.44300002 12941.01472950  1034.24594619
0.44400002 12925.64327180  862.78672928
0.44500002 12910.90786727  1209.23568815
0.44600002 12898.43642817  1124.29226454
0.44700002 12888.79714706  952.73993026
0.44800002 12879.41287666  954.17134819
0.44900002 12873.24724134  1303.41634496
0.45000002 12868.09753166  1131.68489106
0.45100002 12864.23773057  1133.85396731
0.45200002 12862.09982974  1048.77566982
0.45300002 12861.09300773  1313.76071300
0.45400002 12861.95347794  1053.39403977
0.45500002 12864.06532357  1055.88253180
0.45600002 12867.41007996  970.26710306
0.45700002 12872.10051824  972.74468227
0.45800002 12877.54085498  975.28060287
0.45900002 12884.36507035  977.92335519
0.46000002 12892.97583814  980.70425361
0.46100002 12901.54163018  1341.11531602
0.46200002 12912.18866615  986.42669990
0.46300002 12923.67182480  1169.33388213
0.46400002 12935.41283397  1172.91861431
0.46500002 12948.66211203  1267.15613434
0.46600002 12962.47180074  998.82331195
0.46700002 12976.88559209  1275.36837644
0.46800002 12993.05220875  1188.27964607
0.46900002 13008.89176169  1008.83960393
0.47000002 13025.89285122  920.27937356
0.47100002 13043.53078697  1108.17842818
0.47200002 13062.07583637  1760.83321658
0.47300002 13081.29333576  1302.11200036
0.47400002 13100.38752791  1866.80531121
0.47500002 13120.37760449  1311.51300751
0.47600002 13141.46312786  1128.32607764
0.47700002 13162.08414340  1415.58221672
