# SAXS profile: number of points = 501, q_min = 0, q_max = 0.5, delta_q = 0.001
#    q    intensity    error
0.00000000 1646666.22097351 271.69992646
0.00100000 1646580.57231555 642.16643845
0.00200000 1646323.58369347 1555.77583585
0.00300000 1645895.48730959 1382.55225859
0.00400000 1645296.13031574 2467.94428925
0.00500000 1644526.18763474 2220.11044118
0.00600000 1643585.48746418 2243.49428173
0.00700000 1642474.78591004 2759.35775501
0.00800000 1641193.83306226 3766.54000590
0.00900000 1639744.07519797 3197.50108332
0.01000000 1638124.92150476 3513.77810835
0.01100000 1636337.81082938 3534.48982528
0.01200000 1634382.72603469 3824.45574660
0.01300000 1632261.03266726 6512.72180758
0.01400000 1629972.88782854 3667.43916020
0.01500000 1627519.72653087 4687.25702113
0.01600000 1624901.37891232 7458.29766262
0.01700000 1622119.91665350 5255.66876572
0.01800000 1619175.79590095 6921.97683895
0.01900000 1616070.15750590 5817.85282954
0.02000000 1612803.50572903 7112.46378200
0.02100000 1609378.82952598 5310.95037823
0.02200000 1605794.44146736 7755.98750466
0.02300000 1602053.87498723 6344.13363372
0.02400000 1598157.33600218 8989.63542492
0.02500000 1594107.20068602 6838.72020327
0.02600000 1589904.12596537 9658.66800701
0.02700000 1585549.85000754 8657.10257755
0.02800000 1581044.85010946 10316.31812007
0.02900000 1576392.51276814 7803.14329648
0.03000000 1571593.33428750 7307.90934035
0.03100000 1566649.03355785 10527.88198993
0.03200000 1561560.82102641 9275.67170412
0.03300000 1556332.63586462 7937.29680882
0.03400000 1550963.05754958 8142.55642784
0.03500000 1545456.32836025 10849.10392608
0.03600000 1539812.85366186 9400.55790604
0.03700000 1534035.73352394 10492.80490257
0.03800000 1528126.47327663 8939.54028239
0.03900000 1522087.40268721 9132.52483905
0.04000000 1515918.90919151 13052.06241296
0.04100000 1509624.99592413 13314.89308142
0.04200000 1503206.85580615 9695.68466976
0.04300000 1496666.53978732 9877.99962111
0.04400000 1490006.95891479 13074.81167170
0.04500000 1483230.16913144 11257.71750680
0.04600000 1476336.79105459 14571.44480509
0.04700000 1469331.19445643 20100.45167499
0.04800000 1462214.47884173 11822.00461149
0.04900000 1454989.53168251 16368.63299335
0.05000000 1447658.19429277 14396.96141265
0.05100000 1440224.16563014 15727.24862132
0.05200000 1432686.66516435 12528.84547072
0.05300000 1425051.10424037 13851.49737894
0.05400000 1417318.47044707 12862.16571912
0.05500000 1409492.36927909 11839.73645426
0.05600000 1401573.59442944 14380.14574988
0.05700000 1393567.13336764 18186.05193935
0.05800000 1385472.22379377 17166.00165433
0.05900000 1377292.89980248 14874.76401260
0.06000000 1369032.82907974 15031.98116557
0.06100000 1360693.24019421 17716.22681523
0.06200000 1352276.88771395 17890.62406073
0.06300000 1343787.26806276 15480.43005188
0.06400000 1335223.28242513 15622.11313497
0.06500000 1326592.29899531 19699.89656160
0.06600000 1317894.33890880 15893.80647089
0.06700000 1309131.64543764 17359.08643089
0.06800000 1300307.60712540 17495.63967283
0.06900000 1291426.12353470 17627.96741157
0.07000000 1282486.71642814 16390.18100348
0.07100000 1273494.04151715 15129.10992184
0.07200000 1264449.22187164 16614.86355375
0.07300000 1255356.31833866 19508.23810105
0.07400000 1246218.16266932 19627.93698189
0.07500000 1237035.16015767 16922.64178416
0.07600000 1227810.70883579 15599.33578706
0.07700000 1218548.60336259 15682.72126062
0.07800000 1209249.83551034 20061.45571192
0.07900000 1199916.47504458 20158.59772626
0.08000000 1190553.65631570 18804.79588366
0.08100000 1181161.98108743 15981.12235392
0.08200000 1171743.15219909 29176.40585887
0.08300000 1162300.10244881 17573.97837381
0.08400000 1152836.34981668 17638.39698012
0.08500000 1143353.63910980 22123.89395538
0.08600000 1133854.10527419 14796.79676856
0.08700000 1124340.27083026 26714.32608937
0.08800000 1114813.69565511 22324.14530392
0.08900000 1105278.19117049 20889.75879431
0.09000000 1095735.26726488 20939.50194108
0.09100000 1086187.05749967 20985.13493680
0.09200000 1076635.21134713 15019.06190399
0.09300000 1067084.32728927 15045.88972182
0.09400000 1057532.87406174 19590.79741271
0.09500000 1047985.19175226 18109.18496466
0.09600000 1038442.86688681 15109.34442346
0.09700000 1028910.61798350 16637.48547497
0.09800000 1019387.26440694 19679.27206465
0.09900000 1009876.57558791 19692.59414996
0.10000000 1000378.66670202 18186.88501592
0.10100000 990896.65851400 19708.93546479
0.10200000 981432.47189311 21228.38536555
0.10300000 971988.08045281 22744.52215251
0.10400000 962565.43784389 22740.60953890
0.10500000 953168.16036998 16670.91190923
0.10600001 943792.70805609 15147.87367706
0.10700001 934446.85272359 24220.86356237
0.10800001 925127.91062930 18151.01046076
0.10900001 915840.93654377 16622.51378062
0.11000001 906585.66838204 18113.58250687
0.11100001 897363.58105192 18090.85064560
0.11200001 888177.74554399 18065.53619484
0.11300001 879027.54924472 18037.64615973
0.11400001 869916.43456993 19507.87696375
0.11500001 860845.55176346 16476.58463660
0.11600001 851815.90462491 14949.36983016
0.11700001 842829.17164922 19393.50015298
0.11800001 833885.87699629 17861.83632652
0.11900001 824987.09429345 19304.69891575
0.12000001 816135.03372881 16294.13671593
0.12100001 807332.13932532 17729.01461476
0.12200001 798577.62068807 20627.26091415
0.12300001 789874.04251344 20568.32103611
0.12400001 781221.10351499 20507.05493351
0.12500001 772620.04519000 14602.51954217
0.12600001 764073.96046523 20377.85348588
0.12700001 755581.72323024 20310.03767757
0.12800001 747144.68758984 17348.70046347
0.12900001 738764.40820996 14405.90663907
0.13000001 730441.35160706 20094.44252986
0.13100001 722175.88321639 18588.80811022
0.13200001 713969.21934501 15668.05525712
0.13300001 705823.33409391 22699.27949457
0.13400001 697736.75692091 16955.00399253
0.13500001 689712.34205154 25326.23839422
0.13600001 681748.96016013 16811.93015024
0.13700001 673848.61216344 22317.86708721
0.13800001 666010.22461260 13886.31383799
0.13900001 658236.70308813 15205.26855839
0.14000001 650526.43334263 17886.22512828
0.14100001 642881.14514237 17801.37974856
0.14200001 635300.39584765 14989.91354703
0.14300001 627786.48696140 14916.20763376
0.14400001 620335.48391733 16190.75689396
0.14500001 612952.76234134 17450.76596705
0.14600001 605635.99613761 14689.70177929
0.14700001 598387.58188739 13284.20494460
0.14800001 591203.24878443 15856.07188047
0.14900001 584087.60937756 15770.36619725
0.15000001 577038.84400810 14376.92347681
0.15100001 570057.86991149 18196.24806616
0.15200001 563144.89632030 12924.17598040
0.15300001 556300.46812519 14135.59556211
0.15400001 549521.58411033 17886.92840689
0.15500001 542812.26101189 21593.07276209
0.15600001 536168.17432821 16414.78943175
0.15700001 529595.49203220 16316.83787962
0.15800001 523086.88173424 16218.30953365
0.15900001 516648.39599064 13639.51829795
0.16000001 510274.90673987 14787.76749534
0.16100001 503971.98113652 13471.17169168
0.16200001 497734.87597014 15820.50377953
0.16300001 491564.78577133 13301.74373092
0.16400001 485461.72108457 12015.17816407
0.16500001 479425.17454073 15518.99363256
0.16600001 473455.74760848 13046.07374130
0.16700001 467550.80484204 14138.73700598
0.16800001 461711.51596743 17556.58122362
0.16900001 455939.85000292 17439.70008608
0.17000001 450231.85400325 16167.82664070
0.17100001 444588.91432807 12617.43398444
0.17200001 439010.98359451 15949.26978716
0.17300001 433497.02226815 12445.70009706
0.17400001 428046.81261597 14607.09817036
0.17500001 422659.91953465 12274.04464296
0.17600001 417334.54842455 14404.30261918
0.17700001 412073.47937963 11002.36241908
0.17800001 406872.81712873 15294.34991825
0.17900001 401734.30551206 15185.55746562
0.18000001 396657.24037479 11846.16904335
0.18100001 391641.68365546 14968.54585637
0.18200001 386683.71997740 14860.25606070
0.18300001 381786.40378449 13698.49681489
0.18400001 376947.67840236 13598.38814076
0.18500001 372168.88807141 14536.91745482
0.18600001 367446.41610163 10306.87245858
0.18700001 362781.09961083 11253.47024160
0.18800001 358172.64044907 11169.61432013
0.18900001 353622.18753025 10078.23282078
0.19000001 349123.64745081 14003.35016089
0.19100001 344684.23448970 13897.66899129
0.19200001 340296.15882165 10836.73168973
0.19300001 335964.57574685 11731.88353944
0.19400001 331684.07757086 13582.46361835
0.19500001 327457.36186171 9627.24689367
0.19600001 323282.33213436 15284.78938562
0.19700001 319158.46642121 9479.00690066
0.19800001 315085.87015882 14107.97050309
0.19900001 311063.92676607 11198.30189281
0.20000001 307090.24677262 10184.64851555
0.20100001 303166.91904813 11023.14969757
0.20200001 299290.62800368 10024.74005879
0.20300001 295463.67108465 10849.42651502
0.20400001 291683.09548470 12556.95785413
0.20500001 287948.83689082 10677.14337659
0.20600001 284260.65945705 12356.81145068
0.20700001 280618.22772833 12257.40476657
0.20800001 277019.37068793 8684.55768159
0.20900001 273466.84930475 9475.62677633
0.21000001 269956.03384316 11961.75242505
0.21100001 266488.83360259 9321.77984009
0.21200001 263063.54727181 9245.36880594
0.21300001 259679.38833259 9169.27963551
0.21400001 256337.28506539 9920.25340103
0.21500001 253036.56900115 10657.90079021
0.21600001 249774.83642362 8130.17130997
0.21700001 246552.65740364 8868.49950611
0.21800001 243369.56320937 8794.15958236
0.21900001 240223.90349195 10305.60594707
0.22000001 237115.79572691 8646.42790001
0.22100001 234046.43453365 10911.24529388
0.22200001 231013.69260899 8500.14922147
0.22300001 228015.66950460 9959.72491491
0.22400001 225053.01865017 9874.20166019
0.22500001 222127.74714336 7530.13098424
0.22600001 219234.79438227 7464.94510172
0.22700001 216377.82204547 7400.12186390
0.22800001 213553.45055412 11003.34206015
0.22900001 210761.19451830 9452.64002117
0.23000001 208002.58986517 7207.29007967
0.23100001 205276.90940183 8572.36414203
0.23200001 202581.22625689 7080.21419253
0.23300001 199917.27010455 9823.93511756
0.23400001 197284.67369638 10431.42761505
0.23500001 194680.68877374 11715.88440452
0.23600001 192108.01658137 8195.32837498
0.23700001 189564.23377299 7444.18781236
0.23800001 187049.55827514 6705.72698134
0.23900001 184563.02341290 8637.54990428
0.24000001 182104.74474150 9216.32156730
0.24100001 179675.06400508 8478.86667146
0.24200001 177272.28959956 8400.04784001
0.24300001 174896.73481301 7041.34287665
0.24400001 172547.31399161 8243.44831589
0.24500001 170224.21703486 8165.65607743
0.24600001 167927.22186610 8710.38541024
0.24700001 165656.14613153 8011.13160589
0.24800001 163410.03023713 6713.70140990
0.24900001 161187.80782273 8462.36031103
0.25000001 158991.45853470 6584.63156672
0.25100001 156818.07371266 7706.04050680
0.25200001 154670.21020007 8217.62865670
0.25300001 152545.79592820 6393.19460982
0.25400001 150444.20620403 6905.38939147
0.25500001 148365.43585278 6266.95630692
0.25600001 146310.09134837 7896.35600367
0.25700001 144276.36791256 6700.19484287
0.25800001 142265.79693589 6632.43176696
0.25900001 140277.15556960 6564.97119128
0.26000001 138310.11607141 5414.84130040
0.26100001 136363.92607490 10718.20509663
0.26200001 134440.05708919 7955.49075468
0.26300001 132536.37308716 5248.44062259
0.26400001 130653.66983832 6232.18034618
0.26500001 128792.06080747 5652.68381632
0.26600001 126949.86834283 7626.51370158
0.26700001 125129.01405667 6539.24258404
0.26800001 123328.41037259 5473.93175342
0.26900001 121546.10116095 5414.87906296
0.27000001 119784.64185861 5356.17051417
0.27100001 118041.75332642 4816.10376363
0.27200001 116319.80747760 6192.28524411
0.27300001 114615.87903770 5181.78413652
0.27400001 112929.15496220 5124.16064891
0.27500001 111263.94345900 5527.59297264
0.27600001 109614.96630278 6376.30289160
0.27700001 107986.01357880 6304.22377109
0.27800001 106374.39882743 5787.29944210
0.27900001 104782.28300167 5281.02731322
0.28000001 103206.47492006 5655.19906090
0.28100001 101649.47161426 4299.77285279
0.28200001 100110.61834836 5099.63514003
0.28300001 98589.01692059  4619.88155156
0.28400001 97084.42933069  4980.43146039
0.28500001 95597.83528682  6151.72099188
0.28600001 94128.25132761  4457.44355260
0.28700001 92675.79291665  4003.59444350
0.28800001 91239.57484457  3955.23575673
0.28900001 89822.08347727  4297.98689783
0.29000001 88419.87577715  5017.38608847
0.29100001 87035.11954502  4574.56609982
0.29200001 85666.92829125  3765.06167662
0.29300001 84315.15762271  5205.61807804
0.29400001 82979.12959577  5874.92265348
0.29500001 81660.48216951  3988.29813795
0.29600001 80357.40734558  3937.91493338
0.29700001 79070.39264955  4241.33606250
0.29800001 77799.43168909  3838.23514408
0.29900001 76544.85475636  4477.87421523
0.30000001 75305.48633570  4080.05144282
0.30100001 74082.95428256  4027.14958545
0.30200001 72874.14233522  3643.34291853
0.30300001 71682.47926445  3268.72120920
0.30400001 70506.28144384  4193.36128739
0.30500001 69345.17475255  3501.23803901
0.30600001 68198.32378674  3140.53295906
0.30700001 67068.11219303  3408.40162301
0.30800001 65952.40675347  3668.27303730
0.30900001 64851.87681646  4221.85738063
0.31000001 63766.60649979  2974.71233405
0.31100001 62695.29619191  3227.55400077
0.31200001 61639.69423188  3183.38215932
0.31300001 60597.96430100  3710.41352982
0.31400001 59572.04926159  2814.77946088
0.31500001 58559.86242427  4163.60641550
0.31600002 57562.48374921  2737.09623187
0.31700002 56579.34281483  2968.71825806
0.31800002 55610.52002170  4257.54161445
0.31900002 54656.06273625  3410.53847623
0.32000002 53715.87337535  3362.34525314
0.32100002 52789.12614658  3059.65789633
0.32200002 51877.49216876  3267.50399897
0.32300002 50978.22654110  2973.05031265
0.32400002 50093.29622030  2686.25313701
0.32500002 49221.91996141  2647.64720010
0.32600002 48364.64828490  2846.74333285
0.32700002 47520.20721568  2571.79373629
0.32800002 46690.08155715  2304.15563395
0.32900002 45872.51366106  3178.96534725
0.33000002 45069.12133039  2237.68198002
0.33100002 44276.29441718  2425.45552303
0.33200002 43499.89515360  3041.94781214
0.33300002 42734.77102647  2355.11334280
0.33400002 41982.98229574  2953.50294437
0.33500002 41243.02304853  2286.51330609
0.33600002 40516.67444784  2662.55338743
0.33700002 39801.99514268  3026.94187395
0.33800002 39100.52799945  2385.91433152
0.33900002 38410.73835611  2154.84252383
0.34000002 37733.62446411  2509.09747757
0.34100002 37068.46199796  2091.77340961
0.34200002 36415.86731664  2997.75433948
0.34300002 35774.25877056  2030.54702398
0.34400002 35145.61364966  2000.66415176
0.34500002 34527.89679477  1791.99792852
0.34600002 33922.93227840  2471.96419220
0.34700002 33327.57357494  1739.69942301
0.34800002 32745.39200960  1885.64348818
0.34900002 32173.69652266  2364.76680642
0.35000002 31613.19789977  1997.32193790
0.35100002 31064.63809381  1640.21296904
0.35200002 30525.41081463  1939.58469503
0.35300002 29997.73474942  2070.74372783
0.35400002 29481.15863688  2197.82048048
0.35500002 28975.06495736  2320.90281301
0.35600002 28478.65832041  1982.54189288
0.35700002 27993.23511880  1803.88415650
0.35800002 27518.54810657  1481.87388573
0.35900002 27053.75039467  1460.90259051
0.36000002 26599.21824336  2160.52160415
0.36100002 26153.96068847  1704.19215918
0.36200002 25719.63565008  2240.69476397
0.36300002 25293.97739353  2071.57684665
0.36400002 24877.91443579  2179.30540780
0.36500002 24471.28448498  1746.51565642
0.36600002 24074.27762074  1457.81795038
0.36700002 23685.90706749  1438.20834526
0.36800002 23308.22965526  1548.13268704
0.36900002 22938.46218837  1655.01012529
0.37000002 22577.20657639  1507.70592659
0.37100002 22224.57467325  1860.19698827
0.37200002 21881.57719988  1469.12916279
0.37300002 21546.39349495  1571.37855202
0.37400002 21219.61560626  1551.68446471
0.37500002 20901.60738436  1532.50592602
0.37600002 20591.85166348  1164.46926673
0.37700002 20289.51704779  1380.49880533
0.37800002 19995.02919841  1705.07619567
0.37900002 19708.97354576  1235.75269986
0.38000002 19430.59630405  1221.50449452
0.38100002 19158.84108274  1317.36197526
0.38200002 18895.53591847  1194.10344894
0.38300002 18638.89203417  1288.32027843
0.38400002 18390.17629199  1380.64255053
0.38500002 18147.48886421  1471.03551702
0.38600002 17912.85049973  1351.79332700
0.38700002 17684.61645808  1646.79156259
0.38800002 17463.13912269  1630.35874573
0.38900002 17247.80628161  1513.49507291
0.39000002 17040.09261682  999.40147932
0.39100002 16837.80489345  1188.07556957
0.39200002 16642.37084689  1177.28136948
0.39300002 16452.80698713  972.36093901
0.39400002 16270.58954840  1060.43572406
0.39500002 16093.01924872  1051.51792753
0.39600002 15921.51641955  1232.56425202
0.39700002 15755.72613339  1034.67858420
0.39800002 15595.82839374  1026.75141095
0.39900002 15441.26652965  1297.06644994
0.40000002 15291.98217527  1103.77532571
0.40100002 15148.36184337  913.44626243
0.40200002 15010.05318206  998.09353363
0.40300002 14876.32248545  901.50518533
0.40400002 14748.06233287  895.94482917
0.40500002 14624.74102018  1068.77612439
0.40600002 14506.23658363  974.16636393
0.40700002 14392.26107198  1056.96770321
0.40800002 14283.18465999  963.90076245
0.40900002 14178.26570516  959.15972040
0.41000002 14078.18745607  867.92029779
0.41100002 13982.33432231  1036.92996247
0.41200002 13890.23918209  1032.60042972
0.41300002 13803.08891960  1028.60623503
0.41400002 13719.43705298  939.43849672
0.41500002 13639.96065072  1191.58701891
0.41600002 13563.81728466  933.25849249
0.41700002 13491.80786643  845.93639331
0.41800002 13424.52212127  1096.85063189
0.41900002 13358.80159971  1009.92544879
0.42000002 13297.74240497  1007.70296720
0.42100002 13240.51599753  1005.74964283
0.42200002 13186.54642516  1087.69233342
0.42300002 13135.29679959  1420.18835727
0.42400002 13087.09179784  1168.02299831
0.42500002 13042.54476391  916.76051490
0.42600002 12999.96514538  1082.44214912
0.42700002 12961.78459050  832.14661014
0.42800002 12925.24215008  914.91330895
0.42900002 12892.85819204  1081.06621063
0.43000002 12862.50408118  831.56092825
0.43100002 12833.82490838  914.79508282
0.43200002 12808.85544637  998.32224080
0.43300002 12786.19440207  1248.57194253
0.43400002 12765.84637435  832.97151540
0.43500002 12747.72021433  917.07103568
0.43600002 12732.24188233  1335.35759190
0.43700002 12718.39876398  1002.71860607
0.43800002 12706.71137728  1087.75807900
0.43900002 12697.68809579  1005.65694484
0.44000002 12690.28788830  1007.35510031
0.44100002 12685.12078581  1429.74003152
0.44200002 12681.55041791  1011.22687825
0.44300002 12680.07223367  928.94213586
0.44400002 12680.55586029  931.06985817
0.44500002 12681.59210980  1272.59782853
0.44600002 12684.69783600  1020.61083625
0.44700002 12690.35979592  1279.18832805
0.44800002 12696.01328233  1026.09184211
0.44900002 12704.79816235  1114.84609158
0.45000002 12714.34653961  1032.15070100
0.45100002 12724.95008290  949.02682216
0.45200002 12737.10945352  952.03529122
0.45300002 12750.25578777  868.29246030
0.45400002 12764.97429850  1132.57239831
0.45500002 12780.80111929  961.62752179
0.45600002 12797.51660538  877.26980488
0.45700002 12815.40823965  1232.58602291
0.45800002 12833.90109101  1060.33695839
0.45900002 12853.63115314  886.90059160
0.46000002 12874.87103083  979.32711137
0.46100002 12895.92195549  1161.79366403
0.46200002 12918.63543358  1076.63912806
0.46300002 12942.15884158  900.77429807
0.46400002 12965.63117645  1175.65866264
0.46500002 12990.38996759  1089.63396212
0.46600002 13015.52747964  1002.91151748
0.46700002 13041.09670899  1098.58203883
0.46800002 13068.14324350  1195.14709698
0.46900002 13094.66608733  1015.49140320
0.47000002 13122.06721654  1019.78150207
0.47100002 13150.09400223  1210.33470933
0.47200002 13178.52910222  1028.51835253
0.47300002 13207.50004064  1314.67461636
0.47400002 13236.13725703  1225.99727154
0.47500002 13265.52451521  1420.73774292
0.47600002 13295.71893024  1331.83222837
0.47700002 13325.25783262  1050.96313507
0.47800002 13355.27337942  1151.49172535
