# SAXS profile: number of points = 501, q_min = 0, q_max = 0.5, delta_q = 0.001
#    q    intensity    error
0.00000000 1646666.22097350 246.99993315
0.00100000 1646580.55362268 543.37159560
0.00200000 1646323.51402953 1037.18384668
0.00300000 1645895.32542104 1086.29095347
0.00400000 1645295.84493908 1233.97193059
0.00500000 1644525.74456067 1776.08787443
0.00600000 1643584.84801553 2070.91699281
0.00700000 1642473.91637047 2365.16253787
0.00800000 1641192.71043512 3101.85435368
0.00900000 1639742.66609930 3197.49833558
0.01000000 1638123.16454043 3243.48400584
0.01100000 1636335.66137226 3829.02561432
0.01200000 1634380.21282072 3824.44986568
0.01300000 1632258.07587100 4456.06474366
0.01400000 1629969.46644892 4034.17460830
0.01500000 1627515.78045816 3906.03804703
0.01600000 1624896.91777367 4972.18479066
0.01700000 1622114.85498468 4817.68133542
0.01800000 1619170.11281494 5076.09853209
0.01900000 1616063.83943302 5817.83008447
0.02000000 1612796.52303562 8636.52577153
0.02100000 1609371.13777207 5310.92499544
0.02200000 1605786.02017713 7201.95062770
0.02300000 1602044.62766969 9227.77747541
0.02400000 1598147.29923095 8390.27370354
0.02500000 1594096.35479665 7460.37128117
0.02600000 1589892.35723520 7082.97077545
0.02700000 1585537.23132221 7991.10801187
0.02800000 1581031.25544579 6877.48627659
0.02900000 1576377.91002235 8512.44110496
0.03000000 1571577.79363261 9500.18819919
0.03100000 1566632.44295849 9023.80328665
0.03200000 1561543.13734772 11594.45832883
0.03300000 1556313.85561741 10318.36133842
0.03400000 1550943.13101847 11399.43253896
0.03500000 1545435.27596577 11683.49122582
0.03600000 1539790.66624041 10255.00631108
0.03700000 1534012.36474964 12241.41923684
0.03800000 1528101.74415359 9833.33517871
0.03900000 1522061.46671167 10045.60614551
0.04000000 1515891.62439658 13984.10088307
0.04100000 1509596.39415561 12363.59504139
0.04200000 1503176.86048021 15512.78591984
0.04300000 1496635.16934319 13828.90960664
0.04400000 1489974.27830652 11063.05953022
0.04500000 1483195.94436216 11257.45774079
0.04600000 1476301.08636156 10407.92314268
0.04700000 1469293.97125613 15868.37562757
0.04800000 1462175.79268369 15045.78960677
0.04900000 1454949.28728222 15276.96822757
0.05000000 1447616.38445002 17718.82537077
0.05100000 1440180.60737487 19096.79574340
0.05200000 1432641.63397325 15945.30212919
0.05300000 1425004.32002925 11542.53553033
0.05400000 1417270.04480488 12861.72625640
0.05500000 1409442.26810925 14207.17872530
0.05600000 1401521.73946883 13181.31257480
0.05700000 1393513.53801262 13335.92518128
0.05800000 1385416.83566431 15939.22143856
0.05900000 1377235.71667949 17353.17084066
0.06000000 1368973.86656791 15031.33375716
0.06100000 1360632.39608746 18980.82281242
0.06200000 1352214.21668265 14056.26743946
0.06300000 1343722.74470358 12899.73895229
0.06400000 1335156.92574508 16923.11482526
0.06500000 1326523.96365145 14445.84663991
0.06600000 1317824.08667848 13244.13269079
0.06700000 1309059.42013027 13352.40671021
0.06800000 1300233.54784273 17494.64320513
0.06900000 1291349.96740020 16271.01035103
0.07000000 1282408.60124240 15023.41746708
0.07100000 1273413.77828266 16503.44333953
0.07200000 1264366.86357455 15229.29958520
0.07300000 1255272.00287437 16720.22386172
0.07400000 1246131.74256462 19626.57586518
0.07500000 1236946.65614825 14101.19254105
0.07600000 1227720.16498301 17016.20228439
0.07700000 1218455.99556541 17107.12297987
0.07800000 1209155.00801511 14328.48751693
0.07900000 1199819.47802250 20156.96817621
0.08000000 1190454.54848317 15910.42578685
0.08100000 1181060.74955203 24695.98143182
0.08200000 1171639.61870748 20421.67951236
0.08300000 1162194.57547226 17572.38280585
0.08400000 1152728.49242418 14697.28896828
0.08500000 1143243.48746744 17697.41001680
0.08600000 1133741.72917535 19233.92933852
0.08700000 1124225.70458431 17807.73599683
0.08800000 1114696.95247401 14881.20501441
0.08900000 1105159.23399996 19395.54546770
0.09000000 1095613.98870353 17946.15797799
0.09100000 1086063.57341118 17985.21362066
0.09200000 1076509.36530578 16519.03698679
0.09300000 1066956.24867983 16548.49219467
0.09400000 1057402.53925011 19588.38296021
0.09500000 1047852.53396138 25651.43123706
0.09600000 1038307.80172132 15107.37922521
0.09700000 1028773.47754171 18147.56499700
0.09800000 1019247.63080640 24217.32484660
0.09900000 1009734.79714731 16660.62493635
0.10000000 1000234.44399935 19699.61830098
0.10100000 990750.10406453 18190.17276614
0.10200000 981283.75301575 18193.00163664
0.10300000 971836.94114663 22740.98549258
0.10400000 962411.97772661 16673.78829853
0.10500000 953012.51550631 24244.63953518
0.10600001 943634.74390299 18174.40602274
0.10700001 934286.40162151 18162.52850221
0.10800001 924965.31674318 18147.82036857
0.10900001 915676.03251775 16619.52077241
0.11000001 906418.42267001 15091.86744782
0.11100001 897194.13229617 15072.86213211
0.11200001 888005.88082284 15051.70038854
0.11300001 878853.46221399 16531.23440255
0.11400001 869740.00326148 16503.31733894
0.11500001 860666.80722410 16473.16346596
0.11600001 851634.91071153 20924.67074156
0.11700001 842645.83122594 19389.28148965
0.11800001 833700.20494098 23810.47897455
0.11900001 824799.24662052 22269.58070769
0.12000001 815944.89200846 17771.28058506
0.12100001 807139.72473895 19201.85495610
0.12200001 798382.95222852 20622.23262760
0.12300001 789677.14558666 19094.39427991
0.12400001 781022.13913839 24895.08185803
0.12500001 772418.71675233 17518.45732142
0.12600001 763870.47862246 18917.25329453
0.12700001 755375.96594527 17403.86307556
0.12800001 746936.67326559 17343.87037063
0.12900001 738554.23819189 20162.53165294
0.13000001 730229.00986725 21523.50108034
0.13100001 721961.48101334 15724.32179768
0.13200001 713752.61296821 17087.23835996
0.13300001 705604.54963266 19855.71296272
0.13400001 697516.00335020 19774.57962726
0.13500001 689489.41288808 18285.26009191
0.13600001 681523.96690704 16806.38181636
0.13700001 673621.41023891 16732.75661934
0.13800001 665780.89971657 19434.14537916
0.13900001 658005.44651927 17963.54953710
0.14000001 650293.21584756 15129.07238019
0.14100001 642645.94765903 16426.03119686
0.14200001 635063.16347640 14984.31604897
0.14300001 627547.11522246 17621.52382661
0.14400001 620094.27966549 16184.46146269
0.14500001 612709.62841577 14760.17564480
0.14600001 605390.83363739 20023.30276714
0.14700001 598140.43843875 17262.33386772
0.14800001 590954.35345867 17170.17954981
0.14900001 583836.93112019 21018.13051198
0.15000001 576786.17815388 16983.46981707
0.15100001 569803.36773165 16888.97261647
0.15200001 562888.47083868 12918.29101532
0.15300001 556042.23958230 15413.49160857
0.15400001 549261.51474394 17878.46314862
0.15500001 542550.50966933 16504.38728303
0.15600001 535904.79770600 13882.61443976
0.15700001 529330.33394360 15054.15540786
0.15800001 522820.04667056 17456.96218228
0.15900001 516379.91664793 17350.36601832
0.16000001 510004.65148449 13548.27420620
0.16100001 503699.94760403 20807.84581774
0.16200001 497461.30483707 20676.98011163
0.16300001 491289.69341094 15711.44513698
0.16400001 485185.14942003 19213.33282409
0.16500001 479146.90281756 13123.83428777
0.16600001 473175.93013613 15408.97489239
0.16700001 467269.69096042 11775.19676817
0.16800001 461428.77349025 15206.38594836
0.16900001 455655.58418334 11619.21794531
0.17000001 449946.38308836 18465.80043390
0.17100001 444301.88458780 11462.98916366
0.17200001 438722.64273347 17077.27967484
0.17300001 433207.26632432 14698.72324052
0.17400001 427755.72027238 16842.88228115
0.17500001 422367.52995103 11150.50331732
0.17600001 417040.83416017 16608.65200484
0.17700001 411778.41531872 23088.41683740
0.17800001 406576.75160637 14191.56218512
0.17900001 401437.00845073 15174.31963618
0.18000001 396358.70867298 11837.25339365
0.18100001 391341.91737819 11751.99833399
0.18200001 386382.89409533 13788.07422711
0.18300001 381484.35417274 10528.96867255
0.18400001 376644.70170765 13587.45825598
0.18500001 371864.87177889 12450.03649532
0.18600001 367141.35218623 10298.31541535
0.18700001 362474.94855329 12266.15283856
0.18800001 357865.49567775 12174.58473816
0.18900001 353314.19928581 12083.34618648
0.19000001 348814.65399169 15989.66449447
0.19100001 344374.39667622 17852.36956722
0.19200001 339985.55080547 13779.61502525
0.19300001 335653.03364817 10744.25411477
0.19400001 331371.83618137 14538.93999948
0.19500001 327144.21102093 10579.84428437
0.19600001 322968.51130239 13361.20794398
0.19700001 318843.88148378 12310.56284586
0.19800001 314770.55816923 10335.49176593
0.19900001 310747.99813856 12119.17250016
0.20000001 306773.56423374 9249.22339878
0.20100001 302849.72127954 11011.61638616
0.20200001 298972.80590902 10014.09460722
0.20300001 295145.34178529 9934.59267405
0.20400001 291364.31461191 11647.28902713
0.20500001 287629.43688527 10665.30002382
0.20600001 283940.68629172 10579.63047131
0.20700001 280297.83560814 11368.88074966
0.20800001 276698.53801541 9541.94953451
0.20900001 273145.73653930 11185.31844003
0.21000001 269634.52695237 11947.50645405
0.21100001 266166.93183612 11003.34148227
0.21200001 262741.34275347 10073.50355739
0.21300001 259356.88699813 9990.42775947
0.21400001 256014.52619082 8256.46885999
0.21500001 252713.66571608 10644.30010320
0.21600001 249451.55495059 10555.54304679
0.21700001 246229.21722270 11272.37409741
0.21800001 243045.97867013 8782.46685449
0.21900001 239900.23880589 8708.37908040
0.22000001 236792.09860610 9419.59012793
0.22100001 233722.67860618 10117.85523527
0.22200001 230689.77442139 8488.23065120
0.22300001 227691.86461598 10710.62581799
0.22400001 224729.15179314 9101.53107800
0.22500001 221803.85523083 11278.72657183
0.22600001 218910.96229638 7453.91861867
0.22700001 216054.06289879 9605.76409073
0.22800001 213229.84225160 10254.22359880
0.22900001 210437.75104448 7986.11302981
0.23000001 207679.27115033 9354.91321138
0.23100001 204953.84791919 7845.63366939
0.23200001 202258.41089610 7068.93179513
0.23300001 199594.60357245 8406.92510007
0.23400001 196962.26971299 9025.79643648
0.23500001 194358.66092251 10320.44538310
0.23600001 191786.28794392 8181.60343065
0.23700001 189242.73063087 8107.15896368
0.23800001 186728.44755321 8702.47970983
0.23900001 184242.32296564 7295.99633454
0.24000001 181784.46329414 9857.26298838
0.24100001 179355.26231227 9114.83486185
0.24200001 176953.05583317 6449.93919021
0.24300001 174577.80411841 10862.23148606
0.24400001 172228.95026320 8228.23848805
0.24500001 169906.41819529 7523.45655358
0.24600001 167609.84177009 6209.94493134
0.24700001 165339.31688701 7380.74745499
0.24800001 163093.84319330 11573.95512974
0.24900001 160872.34180633 7239.25572376
0.25000001 158676.65254024 7169.01150092
0.25100001 156503.94114450 6507.43418065
0.25200001 154356.71975467 8200.97290855
0.25300001 152233.06277973 6380.08796294
0.25400001 150132.12535872 5742.55406666
0.25500001 148054.07514049 7959.38745613
0.25600001 145999.56470344 6191.11183417
0.25700001 143966.69339070 6128.66242761
0.25800001 141956.93106377 7169.53514260
0.25900001 139969.07848279 5458.79431911
0.26000001 138003.04193105 5943.10128196
0.26100001 136057.54180160 6951.18013955
0.26200001 134134.63241204 8466.57839846
0.26300001 132231.89216261 6807.29813064
0.26400001 130350.03834570 5699.55569636
0.26500001 128489.46654195 7177.42194066
0.26600001 126648.24256405 5579.48859018
0.26700001 124828.33411671 5519.90919584
0.26800001 123028.79032171 6453.47550171
0.26900001 121247.47446839 5892.62753801
0.27000001 119487.09841571 5828.58093654
0.27100001 117745.28996799 4804.00805803
0.27200001 116024.37150623 5226.31806183
0.27300001 114321.56534630 8457.50980456
0.27400001 112635.95746917 6040.10350513
0.27500001 110971.96469424 7350.78328922
0.27600001 109324.18516317 6359.38815191
0.27700001 107696.34559270 5389.12538851
0.27800001 106085.84167554 6215.56975794
0.27900001 104494.96556550 6583.18314219
0.28000001 102920.38658487 5205.71339984
0.28100001 101364.67183094 6860.36131421
0.28200001 99827.13185389  5085.19433732
0.28300001 98306.72840623  5444.22687681
0.28400001 96803.38821544  4552.17954629
0.28500001 95318.17519385  4498.06490030
0.28600001 93849.85067614  4444.25988912
0.28700001 92398.72354924  3991.62504626
0.28800001 90963.77910915  3943.28001103
0.28900001 89547.71406659  5063.92347016
0.29000001 88146.87736215  5001.89479268
0.29100001 86763.44120100  5320.33446628
0.29200001 85396.70150773  4879.14077160
0.29300001 84046.32422931  5930.30891834
0.29400001 82711.73414849  4757.99273212
0.29500001 81394.56209391  3613.91872804
0.29600001 80092.94701688  5709.02553361
0.29700001 78807.36352138  4579.49611101
0.29800001 77537.85181216  4520.84466392
0.29900001 76284.75250134  4119.37683008
0.30000001 75046.79976002  3727.19948653
0.30100001 73825.81885225  4347.60267803
0.30200001 72618.46714720  4290.66233452
0.30300001 71428.45969068  4234.27929092
0.30400001 70253.78757731  3535.52202721
0.30500001 69094.12264832  3488.56241767
0.30600001 67948.87290257  3129.04574530
0.30700001 66820.23365280  3395.80443500
0.30800001 65706.01265103  4568.21074584
0.30900001 64607.11317875  4205.92326706
0.31000001 63523.51611657  3556.04660057
0.31100001 62453.89291959  3799.69502513
0.31200001 61399.83106075  3459.26664574
0.31300001 60359.72001753  4264.41442114
0.31400001 59335.30648189  3083.95270041
0.31500001 58324.81411062  3041.05595171
0.31600002 57329.09013578  3271.19803803
0.31700002 56347.64967536  3225.33962013
0.31800002 55380.47801877  3974.93399800
0.31900002 54427.70723155  2873.78307790
0.32000002 53489.14259231  3348.15303910
0.32100002 52564.06201085  2792.72874687
0.32200002 51654.13062239  3003.17129659
0.32300002 50756.59491975  3206.80181887
0.32400002 49873.31571185  2917.58910730
0.32500002 49003.68267305  3115.16425503
0.32600002 48148.08687944  2361.66377327
0.32700002 47305.30272080  3723.87360652
0.32800002 46476.95957183  3669.82090157
0.32900002 45661.10722052  3164.31488022
0.33000002 44859.42922753  2672.72491994
0.33100002 44068.35582209  2852.98549102
0.33200002 43293.75786803  4541.29894662
0.33300002 42530.36864285  2343.84872690
0.33400002 41780.23681438  2309.40269928
0.33500002 41042.14018392  2068.52396323
0.33600002 40317.50247813  2445.65981614
0.33700002 39604.57746369  2208.74738975
0.33800002 38904.94948009  2176.14845223
0.33900002 38216.94698542  2923.59658284
0.34000002 37541.60403138  2112.27845086
0.34100002 36878.20699643  2081.03731936
0.34200002 36227.37064666  2236.67796965
0.34300002 35587.57288160  2387.21450195
0.34400002 34960.73984102  1990.14020970
0.34500002 34344.84771277  1782.49768071
0.34600002 33741.64524120  1931.87798978
0.34700002 33148.15917435  2076.40078902
0.34800002 32567.65812077  1875.40868171
0.34900002 31997.78208182  1847.87200274
0.35000002 31439.13136821  2813.95958639
0.35100002 30892.35656432  2609.78640616
0.35200002 30354.96034870  1768.02474925
0.35300002 29829.12358211  1583.92653723
0.35400002 29314.28397796  2497.57711322
0.35500002 28810.02419653  1846.14643795
0.35600002 28315.43628377  1819.55002178
0.35700002 27831.87697644  1494.57186442
0.35800002 27358.94228238  1473.27911169
0.35900002 26896.00938406  1597.62303309
0.36000002 26443.30645832  2434.23869132
0.36100002 25999.90719914  1694.15403334
0.36200002 25567.29717159  1809.78121601
0.36300002 25143.52782930  1921.97135831
0.36400002 24729.27271770  1760.10606905
0.36500002 24324.50993755  1602.49879059
0.36600002 23929.30393383  1975.96236593
0.36700002 23542.81440600  2209.25780851
0.36800002 23166.93548511  1410.51893383
0.36900002 22799.03028555  1518.41548894
0.37000002 22439.58808443  1373.63944966
0.37100002 22088.75330337  1972.08398834
0.37200002 21747.51816238  1825.16054824
0.37300002 21414.19980189  1321.47033237
0.37400002 21089.25681040  1423.52490214
0.37500002 20773.03724545  1171.59935614
0.37600002 20465.17782967  1273.03644720
0.37700002 20164.64966816  1257.66925938
0.37800002 19871.95451990  1129.72066797
0.37900002 19587.75294665  1563.10275919
0.38000002 19311.19918667  1213.99859438
0.38100002 19041.26313080  1309.27731490
0.38200002 18779.76254450  1186.78715022
0.38300002 18524.93301139  1707.25790721
0.38400002 18278.01428996  1266.66645030
0.38500002 18037.22550735  1462.09756889
0.38600002 17804.34034398  1446.95880830
0.38700002 17577.91171586  1534.55176549
0.38800002 17358.24884049  1519.28080174
0.38900002 17144.69754842  1002.96485410
0.39000002 16938.81312101  1092.80758027
0.39100002 16738.42058510  984.21917703
0.39200002 16544.75811792  1267.90759844
0.39300002 16357.05532481  1160.04241859
0.39400002 16176.58385059  1629.38648555
0.39500002 16000.79761497  1045.49216570
0.39600002 15831.10115207  1319.83896558
0.39700002 15667.08344595  1122.38991124
0.39800002 15509.06686069  1299.50477383
0.39900002 15356.25935158  1013.51316522
0.40000002 15208.75870303  1646.65238279
0.40100002 15066.96990915  1181.09982714
0.40200002 14930.42744563  902.54438185
0.40300002 14798.45320809  896.78630690
0.40400002 14671.93462544  1158.71609194
0.40500002 14550.49653281  1417.80044933
0.40600002 14433.72887640  881.17918966
0.40700002 14321.58799629  1051.77747228
0.40800002 14214.19811824  1220.85753422
0.40900002 14111.10053761  954.61599660
0.41000002 14012.84747036  950.28129623
0.41100002 13918.71269228  1290.26472771
0.41200002 13828.40358461  1199.33749972
0.41300002 13743.03632041  1194.81963431
0.41400002 13661.12165174  1190.56680836
0.41500002 13583.39989274  1101.88545151
0.41600002 13509.01911364  1098.48594128
0.41700002 13438.76022711  926.87133678
0.41800002 13373.22536169  924.55797919
0.41900002 13309.24206518  922.33051882
0.42000002 13249.86746947  1171.42083848
0.42100002 13194.49888438  835.21181896
0.42200002 13142.19009889  833.87200129
0.42300002 13092.65150144  999.23120994
0.42400002 13046.19197369  914.86425551
0.42500002 13003.40965893  997.10149990
0.42600002 12962.52218247  913.27454364
0.42700002 12926.11637962  912.84238199
0.42800002 12891.37364458  1078.42791334
0.42900002 12860.65783561  1078.36621062
0.43000002 12832.04175294  829.59153864
0.43100002 12805.06748479  1078.69893604
0.43200002 12781.79192486  1328.28387978
0.43300002 12760.87930569  1329.17325147
0.43400002 12742.16078075  1080.85383945
0.43500002 12725.80609057  832.26775776
0.43600002 12712.02498621  999.92793280
0.43700002 12699.90466554  834.38377607
0.43800002 12689.87052151  835.62801344
0.43900002 12682.55316211  1004.45825804
0.44000002 12676.83229388  1174.00149437
0.44100002 12673.34847611  1092.31595692
0.44200002 12671.44489005  926.21930813
0.44300002 12671.67506757  1350.29375919
0.44400002 12673.75406106  930.57043603
0.44500002 12676.45191762  932.86014083
0.44600002 12681.29810319  850.28107811
0.44700002 12688.54381395  852.67018471
0.44800002 12695.90122662  855.06898814
0.44900002 12706.42890349  943.45239080
0.45000002 12717.52386098  1290.51079495
0.45100002 12729.76211695  1122.00128616
0.45200002 12743.62264498  1212.30087967
0.45300002 12758.38451621  868.84602673
0.45400002 12774.76610560  959.06561083
0.45500002 12792.22891261  874.98849909
0.45600002 12810.61173839  1053.80097154
0.45700002 12830.12190095  1145.85824128
0.45800002 12850.27326591  973.21549192
0.45900002 12871.54131965  1154.57731109
0.46000002 12894.41913097  1069.97895020
0.46100002 12917.15039958  1342.73784767
0.46200002 12941.41456842  1168.41566969
0.46300002 12966.58001379  992.72141291
0.46400002 12991.64499675  1449.86765035
0.46500002 13018.00772312  1273.94229616
0.46600002 13044.70958777  1005.16014493
0.46700002 13071.84944791  1192.93703716
0.46800002 13100.50116911  1198.10639121
0.46900002 13128.62957421  925.56842885
0.47000002 13157.57533781  1022.54101584
0.47100002 13187.16236465  1120.38136760
0.47200002 13217.14773146  1125.30801119
0.47300002 13247.70588513  1036.10312638
0.47400002 13277.90096196  1040.65553722
0.47500002 13308.86645382  1140.30373181
0.47600002 13340.53938904  1049.96720238
0.47700002 13371.65717748  1342.24701110
0.47800002 13403.20887809  1155.62472424
