# SAXS profile: number of points = 501, q_min = 0, q_max = 0.5, delta_q = 0.001
#    q    intensity    error
0.00000000 1664650.74656090 349.57665678
0.00100000 1664564.56806876 499.36938228
0.00200000 1664305.99128313 1048.51280771
0.00300000 1663875.24431362 1297.82273680
0.00400000 1663272.18161338 1372.19960197
0.00500000 1662497.48448816 1945.12213384
0.00600000 1661550.95713254 1744.62857602
0.00700000 1660433.37814918 3387.28423220
0.00800000 1659144.50075253 2239.84517058
0.00900000 1657685.74118245 4227.09882071
0.01000000 1656056.52886259 3005.74272967
0.01100000 1654258.37366965 3573.19824270
0.01200000 1652291.15734894 4188.55826752
0.01300000 1650156.28482111 4158.39402115
0.01400000 1647853.92613312 4819.97294761
0.01500000 1645385.50490605 5923.38808142
0.01600000 1642750.83967408 5864.62075981
0.01700000 1639952.05958873 6641.80613928
0.01800000 1636989.61948057 6065.04681309
0.01900000 1633864.57028393 6862.23150483
0.02000000 1630577.52774990 7190.84722266
0.02100000 1627131.38437204 5906.48719306
0.02200000 1623524.60182290 7841.62418307
0.02300000 1619760.55550293 7580.47974480
0.02400000 1615839.56751047 6665.33851990
0.02500000 1611763.99008876 8171.64380295
0.02600000 1607534.47577766 8463.66940208
0.02700000 1603152.72581178 8753.21428384
0.02800000 1598619.32786817 9735.59215319
0.02900000 1593937.56747666 13628.16682765
0.03000000 1589107.96258657 8867.22283882
0.03100000 1584132.32974216 8364.21908590
0.03200000 1579011.77839366 7816.10866304
0.03300000 1573750.29687741 8828.73957249
0.03400000 1568346.58774188 12350.72994833
0.03500000 1562804.61414832 9283.05983671
0.03600000 1557125.02088438 12963.06639793
0.03700000 1551310.85178544 11495.21394336
0.03800000 1545363.63892671 10848.45324733
0.03900000 1539285.71359439 10159.28618020
0.04000000 1533077.46374987 11314.11220676
0.04100000 1526742.76855728 10580.32787668
0.04200000 1520283.14467499 9805.82673807
0.04300000 1513700.41405417 14985.63479474
0.04400000 1506997.35487875 11189.45587963
0.04500000 1500176.37497725 14491.70445564
0.04600000 1493238.03631124 11580.06150991
0.04700000 1486186.39756318 17120.86809618
0.04800000 1479022.87667540 11957.90051430
0.04900000 1471750.32778905 14349.56636388
0.05000000 1464370.46111180 14563.16491391
0.05100000 1456887.26688978 13636.46545333
0.05200000 1449299.62608681 13826.31907719
0.05300000 1441613.31058636 18683.30937618
0.05400000 1433828.95039429 13011.99833163
0.05500000 1425950.47472611 13175.78300111
0.05600000 1417978.37054744 12123.71563392
0.05700000 1409917.95825461 15946.17285220
0.05800000 1401768.33947511 14886.78046033
0.05900000 1393533.49662715 13795.98226096
0.06000000 1385217.09897806 17744.63186692
0.06100000 1376820.70318464 14084.87645178
0.06200000 1368346.61834865 14223.96376261
0.06300000 1359798.63426539 18275.69449901
0.06400000 1351175.72286939 21078.34226253
0.06500000 1342484.87531828 21264.96141977
0.06600000 1333726.64657157 14744.34876772
0.06700000 1324902.80302977 14865.41014568
0.06800000 1316017.03067338 14982.85459555
0.06900000 1307073.24232557 17841.55059307
0.07000000 1298070.85039996 19354.23728579
0.07100000 1289014.44174443 19489.89927204
0.07200000 1279905.60589282 21022.45056162
0.07300000 1270747.78863182 16926.36133767
0.07400000 1261544.26664479 14192.37366487
0.07500000 1252295.31887871 18559.01749569
0.07600000 1243004.35492811 15792.37106972
0.07700000 1233675.10315944 20207.59913726
0.07800000 1224308.85764961 15958.86670787
0.07900000 1214907.23238144 18952.55371410
0.08000000 1205475.72273343 19040.48993378
0.08100000 1196014.97516430 23537.57581557
0.08200000 1186526.39530700 14772.25431476
0.08300000 1177013.23452191 14830.36745099
0.08400000 1167478.96695074 14885.35752732
0.08500000 1157925.09112352 19418.40468974
0.08600000 1148354.14446257 16484.62451774
0.08700000 1138768.39320764 16534.91784582
0.08800000 1129169.31047111 19596.73430356
0.08900000 1119560.98113487 18136.88874627
0.09000000 1109944.89383217 21211.04791753
0.09100000 1100323.13616542 19739.79799021
0.09200000 1090697.30893462 18258.27380946
0.09300000 1081072.13750271 15243.11785510
0.09400000 1071445.92343555 19848.53666447
0.09500000 1061823.25777146 16819.28119365
0.09600000 1052205.66778442 22964.38977890
0.09700000 1042597.68001443 15326.18661674
0.09800000 1032998.33242854 19942.03374516
0.09900000 1023411.40765329 16886.28902031
0.10000000 1013836.87870732 21503.48120863
0.10100000 1004277.97606163 15365.45375641
0.10200000 994736.83983473 16905.55338817
0.10300000 985215.16450276 16906.29301815
0.10400000 975714.79990092 19977.76146783
0.10500000 966239.74411413 19972.17645052
0.10600001 956786.34049131 16892.06363621
0.10700001 947362.34989415 15347.27079049
0.10800001 937964.84392663 19936.44369590
0.10900001 928599.26792222 19918.45523441
0.11000001 919265.31752904 21428.07556021
0.11100001 909964.21632699 21402.35937549
0.11200001 900699.32665034 18320.22516653
0.11300001 891469.86835621 16768.54901326
0.11400001 882279.54111755 21307.05192122
0.11500001 873129.13480220 21269.42672532
0.11600001 864020.07501738 16679.90833369
0.11700001 854953.72483545 21185.75429916
0.11800001 845930.53507309 18119.83291468
0.11900001 836952.14824780 21091.19512927
0.12000001 828020.20549859 19537.13766903
0.12100001 819137.35435761 19487.27857818
0.12200001 810302.95257605 16445.09919728
0.12300001 801519.36532454 19380.73916666
0.12400001 792786.32556270 16351.21873516
0.12500001 784105.39062026 16301.55183913
0.12600001 775479.32444779 17727.45819226
0.12700001 766907.04883160 22086.92404723
0.12800001 758390.07527927 14674.84864827
0.12900001 749929.87534649 19010.72323605
0.13000001 741526.90058484 16028.10471162
0.13100001 733181.56542156 15968.69524761
0.13200001 724895.09362043 14461.65779945
0.13300001 716669.50562772 20167.08083910
0.13400001 708503.22227842 15781.91002030
0.13500001 700399.45934157 15716.96460865
0.13600001 692356.38014853 14227.92428291
0.13700001 684376.93244185 14166.60316955
0.13800001 676459.16278041 15514.59162997
0.13900001 668606.53369285 19657.03301756
0.14000001 660817.44074489 15373.91848397
0.14100001 653093.22176270 19475.24079147
0.14200001 645433.71452292 20766.83074425
0.14300001 637841.44333195 16532.85099098
0.14400001 630311.87168213 13709.28385575
0.14500001 622851.17734609 17732.57385553
0.14600001 615456.29471613 21713.29910190
0.14700001 608130.15797579 14850.53915837
0.14800001 600868.23607878 14772.34628094
0.14900001 593675.13643332 13357.69119998
0.15000001 586549.19296297 14613.87383220
0.15100001 579491.19121761 15854.87973983
0.15200001 572501.61008396 15766.69508570
0.15300001 565580.73064312 15677.89859325
0.15400001 558725.60219243 15588.44503680
0.15500001 551940.11178787 12915.39922535
0.15600001 545220.26581723 16691.91922577
0.15700001 538572.24052328 14040.57897311
0.15800001 531988.36369666 12687.92307302
0.15900001 525474.77110036 13872.53461184
0.16000001 519026.68229020 20055.19195035
0.16100001 512649.41416241 13703.11948741
0.16200001 506338.30003536 13617.96922230
0.16300001 500094.24840603 12302.31909155
0.16400001 493917.79516269 17114.25241034
0.16500001 487807.92221841 18219.62675503
0.16600001 481765.79036168 13275.05698017
0.16700001 475788.21617514 14387.83633645
0.16800001 469876.72156621 13102.51299953
0.16900001 464033.16571079 11832.84628435
0.17000001 458253.68375026 12929.62829755
0.17100001 452539.44687223 15178.17376483
0.17200001 446890.53739243 12756.49099227
0.17300001 441306.21404384 17277.13909572
0.17400001 435785.89336531 12583.31826518
0.17500001 430329.12179331 19313.17189820
0.17600001 424934.32597298 12410.20757616
0.17700001 419604.28258426 16805.15231122
0.17800001 414334.73572490 14462.35463357
0.17900001 409127.94007520 14360.39137493
0.18000001 403982.84485547 13161.76170709
0.18100001 398899.79907948 14156.95453806
0.18200001 393874.56053475 10811.85719741
0.18300001 388910.57508277 13954.11209315
0.18400001 384005.34942655 12787.37873999
0.18500001 379160.49204478 11636.43605058
0.18600001 374372.47355020 12601.37805503
0.18700001 369641.96500911 12508.68468688
0.18800001 364968.71338148 18624.35432379
0.18900001 360353.71690652 12324.09770049
0.19000001 355791.12377655 17328.80750230
0.19100001 351288.23765838 12140.52206711
0.19200001 346836.93468940 14057.30162719
0.19300001 342442.60107970 11958.09619475
0.19400001 338099.64327704 12856.23954312
0.19500001 333810.97364500 12758.25601560
0.19600001 329574.33890712 15582.27547989
0.19700001 325389.44935691 12563.28723338
0.19800001 321256.22374610 13425.29822481
0.19900001 317173.98124575 10466.74187577
0.20000001 313140.35831877 11329.41869941
0.20100001 309157.64317356 10304.22473398
0.20200001 305222.34877397 13941.03143915
0.20300001 301336.74063999 11065.08563929
0.20400001 297497.92779322 10062.86788323
0.20500001 293706.00145007 11798.17063591
0.20600001 289960.64767910 10803.93424320
0.20700001 286261.30102984 12503.89422003
0.20800001 282606.03276207 14175.51927342
0.20900001 278997.36111845 10546.10074881
0.21000001 275430.98481918 9589.13018978
0.21100001 271908.62588805 11240.70312560
0.21200001 268428.61266222 12006.81241200
0.21300001 264990.18180796 10207.42228580
0.21400001 261594.13814725 10123.69362491
0.21500001 258240.04038709 8366.97770411
0.21600001 254925.28782753 12446.72776664
0.21700001 251650.44818057 9051.86704902
0.21800001 248415.31315231 11424.62079204
0.21900001 245217.81854617 8901.40723410
0.22000001 242058.31040236 8826.65670617
0.22100001 238938.12659580 11139.29598860
0.22200001 235854.93209465 11834.02177741
0.22300001 232806.84260038 9386.77233750
0.22400001 229794.35325048 10082.22772562
0.22500001 226820.01853057 7689.19899179
0.22600001 223878.36167366 7623.05857547
0.22700001 220973.04146284 9068.73405049
0.22800001 218100.56603690 7491.75479765
0.22900001 215260.76678971 7426.49680545
0.23000001 212455.08782291 10306.19679769
0.23100001 209682.60234975 9486.04137892
0.23200001 206940.50561697 9402.34231738
0.23300001 204230.79102214 8602.20132469
0.23400001 201552.75816814 8525.68207374
0.23500001 198903.52905350 8449.42231382
0.23600001 196286.19080127 6977.97441302
0.23700001 193698.08001086 6915.02178345
0.23800001 191139.47079273 8908.05545763
0.23900001 188609.37206700 6789.93771557
0.24000001 186107.95896267 8073.36364167
0.24100001 183635.67883638 7332.57300278
0.24200001 181190.43824336 8585.70932228
0.24300001 178773.00199416 11777.56592849
0.24400001 176382.08058825 7778.45012189
0.24500001 174017.67937593 6421.25267273
0.24600001 171680.04814953 7632.89530180
0.24700001 169368.52600593 10710.86609130
0.24800001 167082.31181998 8112.68203420
0.24900001 164820.39136340 8034.99445908
0.25000001 162584.80004127 6121.31801114
0.25100001 160372.38324688 7274.49164823
0.25200001 158186.00096090 7203.79082457
0.25300001 156023.29622851 9511.18058807
0.25400001 153883.92004355 6474.66624216
0.25500001 151767.63342809 6410.66513930
0.25600001 149675.17932321 6346.97627949
0.25700001 147604.60708674 7425.98813388
0.25800001 145557.74341055 8482.37789859
0.25900001 143532.99237952 6157.56566442
0.26000001 141530.04954102 6094.99187187
0.26100001 139548.61559752 7129.53910822
0.26200001 137589.54925453 7056.28036740
0.26300001 135651.16088886 6983.32209299
0.26400001 133734.08853235 8505.48843312
0.26500001 131838.44453110 5786.38960428
0.26600001 129962.48725440 5725.49764692
0.26700001 128108.19605479 6694.93464263
0.26800001 126274.46014669 6114.20964963
0.26900001 124459.49616087 5544.67081635
0.27000001 122665.45949916 6482.25651399
0.27100001 120890.48051440 6412.03138992
0.27200001 119136.68357316 5854.37690783
0.27300001 117401.16821375 7237.78236290
0.27400001 115683.16069671 5249.12366503
0.27500001 113987.00913270 5190.96864157
0.27600001 112307.45362325 5133.01241078
0.27700001 110648.09202195 7843.84361466
0.27800001 109006.48026323 4561.92141492
0.27900001 107384.58664159 7216.24456384
0.28000001 105779.27052918 7579.61398850
0.28100001 104193.02867968 5288.83838610
0.28200001 102625.33374934 5663.37931100
0.28300001 101075.04648011 6458.69577577
0.28400001 99542.22616460  5106.51644394
0.28500001 98027.46141986  5466.99178215
0.28600001 96530.02210237  5817.86470748
0.28700001 95050.07472965  5748.62879175
0.28800001 93586.64821852  4056.98139230
0.28900001 92142.06787978  5210.63418524
0.29000001 90713.00881587  4751.54762669
0.29100001 89301.82364277  4693.70407284
0.29200001 87907.32216415  4249.87969120
0.29300001 86529.53096390  6868.71449305
0.29400001 85167.77554200  4522.40909535
0.29500001 83823.63663264  4466.12357120
0.29600001 82495.25781541  5145.22947351
0.29700001 81183.18900916  4717.55533664
0.29800001 79887.34872762  5016.12686406
0.29900001 78608.27117653  5306.05855560
0.30000001 77344.58912423  4539.74087356
0.30100001 76097.87215398  4136.68052612
0.30200001 74865.27936269  5444.20337299
0.30300001 73649.95478301  3694.28190681
0.30400001 72450.22562244  3977.51757497
0.30500001 71265.83632834  3271.10204233
0.30600001 70096.12792501  3550.71952814
0.30700001 68943.04003177  4459.23604037
0.30800001 67804.76507578  3771.30121206
0.30900001 66681.89806139  3720.85008799
0.31000001 65574.46525102  3670.85873855
0.31100001 64481.16036302  3319.49029265
0.31200001 63403.68213529  4167.52422407
0.31300001 62340.46106281  3817.10661160
0.31400001 61293.29990327  3475.33026906
0.31500001 60259.82517085  3998.84218767
0.31600002 59241.46270403  2816.93168495
0.31700002 58237.54852341  2777.93119610
0.31800002 57248.17474460  3835.05540772
0.31900002 56273.18579424  3241.33565522
0.32000002 55312.84482473  3195.97632530
0.32100002 54366.03543488  2625.87963584
0.32200002 53434.51217165  2847.79246103
0.32300002 52515.49046881  4083.60473222
0.32400002 51611.02115140  3019.24488032
0.32500002 50720.23021295  2976.26324983
0.32600002 49843.84707162  2933.80897756
0.32700002 48980.43749626  3855.74022229
0.32800002 48131.37611088  2850.34022826
0.32900002 47295.06817132  2809.32718241
0.33000002 46473.25750179  2999.61654750
0.33100002 45662.14479205  2501.37241016
0.33200002 44867.44279173  2465.24176093
0.33300002 44084.26199078  2429.48379336
0.33400002 43314.66497249  2176.56201794
0.33500002 42556.89721383  2788.32803749
0.33600002 41813.03684442  2113.64911258
0.33700002 41080.88869213  3124.20173299
0.33800002 40362.22932078  2257.66140397
0.33900002 39655.25665827  2022.41818535
0.34000002 38961.16133592  2391.43619605
0.34100002 38279.15827281  2552.83718611
0.34200002 37609.88561049  2322.03444756
0.34300002 36951.60094224  3050.72431827
0.34400002 36306.63621389  2254.64221566
0.34500002 35672.65525566  2406.83416409
0.34600002 35051.52278392  2736.64777096
0.34700002 34440.17336392  1977.55484822
0.34800002 33842.11293938  2303.12510517
0.34900002 33254.67321106  2269.63155415
0.35000002 32678.53575781  2408.73498479
0.35100002 32114.47806751  1695.64452227
0.35200002 31559.92270436  1838.20778498
0.35300002 31016.97856819  2305.80229597
0.35400002 30485.30222734  2597.34787279
0.35500002 29964.36851647  1920.11682548
0.35600002 29453.04684086  1577.21073303
0.35700002 28952.80586554  2954.05492238
0.35800002 28463.61557220  2758.97838809
0.35900002 27984.30211314  2266.72857853
0.36000002 27515.36169344  2085.93966878
0.36100002 27055.81804197  1469.13098927
0.36200002 26607.44070198  1738.53025782
0.36300002 26167.65149358  1428.75383923
0.36400002 25737.75066632  2959.19802303
0.36500002 25317.23312858  2362.85747981
0.36600002 24906.59341692  1645.32963906
0.36700002 24504.61102269  1893.71642954
0.36800002 24113.53759013  1468.15280572
0.36900002 23730.33331697  1712.14362992
0.37000002 23355.84390825  1949.62916259
0.37100002 22990.01560212  1795.98010391
0.37200002 22633.99843509  1519.64672692
0.37300002 22285.88166945  1250.23802088
0.37400002 21946.29702192  2098.61475213
0.37500002 21615.54072146  1828.67483166
0.37600002 21293.12690191  1565.36429835
0.37700002 20978.26295711  1427.36107922
0.37800002 20671.39117147  1410.20237252
0.37900002 20373.02827845  1625.76773364
0.38000002 20082.43139020  1262.48210915
0.38100002 19798.53409425  1134.45605734
0.38200002 19523.26435413  1233.77274931
0.38300002 19254.53982905  1441.78001070
0.38400002 18994.14630817  1206.60320139
0.38500002 18739.57218634  1302.02553719
0.38600002 18493.44161691  1502.96207141
0.38700002 18253.58527332  1381.06632721
0.38800002 18020.58987192  1366.95190949
0.38900002 17793.92794436  1145.03931747
0.39000002 17574.99553488  1443.08295174
0.39100002 17361.47133208  1531.28184404
0.39200002 17154.93895790  1112.41206943
0.39300002 16954.36759811  1002.00317252
0.39400002 16761.23263435  1588.96492902
0.39500002 16572.85636554  1082.87048623
0.39600002 16390.58630028  1073.66540647
0.39700002 16214.18263378  1258.38277383
0.39800002 16043.69186230  1248.27950449
0.39900002 15878.63228456  1047.98978043
0.40000002 15718.94418011  1229.14289840
0.40100002 15564.96083343  1220.13733754
0.40200002 15416.53396435  1211.50837899
0.40300002 15272.64003735  1018.07423313
0.40400002 15134.31045552  919.40940373
0.40500002 15001.04256186  1187.63259589
0.40600002 14872.60354126  1452.75598274
0.40700002 14748.81476080  902.62750613
0.40800002 14630.06079947  1166.82055435
0.40900002 14515.50630210  1160.51478384
0.41000002 14405.86200574  976.93357821
0.41100002 14300.48016426  1325.65457404
0.41200002 14199.01887173  879.62926078
0.41300002 14102.43523099  1226.06577708
0.41400002 14009.61530886  1220.93803202
0.41500002 13921.02350201  1216.14067076
0.41600002 13835.75089779  1038.51151160
0.41700002 13754.76392290  1034.90848660
0.41800002 13678.50209656  1203.57145651
0.41900002 13603.91431558  1199.86529949
0.42000002 13534.13721685  1025.61696689
0.42100002 13468.15089355  937.78739115
0.42200002 13405.60113231  1445.99523466
0.42300002 13345.77163047  933.67022751
0.42400002 13289.09272898  1016.61564194
0.42500002 13236.09719448  1268.67997621
0.42600002 13185.23187884  1182.31979860
0.42700002 13138.74928246  1096.56006708
0.42800002 13094.07265983  1432.42614650
0.42900002 13053.55402787  1094.54055710
0.43000002 13015.14094774  1093.85757279
0.43100002 12978.50520809  1009.20861280
0.43200002 12945.68981384  1177.15163056
0.43300002 12915.20067451  924.85756413
0.43400002 12887.11675048  840.88440782
0.43500002 12861.34772573  925.24539923
0.43600002 12838.23714359  1262.31972696
0.43700002 12816.88139410  842.06914750
0.43800002 12797.68073796  1011.27277984
0.43900002 12781.34303510  1434.06675650
0.44000002 12766.57131431  928.95960571
0.44100002 12754.17068598  1606.64295745
0.44200002 12743.50212182  1185.52805858
0.44300002 12734.84559573  1102.58298393
0.44400002 12728.31805138  849.61527019
0.44500002 12722.41372720  1106.46837429
0.44600002 12718.54830735  938.05657486
0.44700002 12717.43661956  1196.45649387
0.44800002 12716.27613728  1199.01773381
0.44900002 12718.37330048  1030.18828616
0.45000002 12721.32153577  946.65718695
0.45100002 12725.31811367  862.77660900
0.45200002 12730.99547652  1211.09965708
0.45300002 12737.72220219  1040.92670770
0.45400002 12746.05999648  1130.89422678
0.45500002 12755.59426278  1308.72403339
0.45600002 12766.08724948  875.11532243
0.45700002 12777.84537490  1053.40562263
0.45800002 12790.24694473  1144.79110704
0.45900002 12803.92379329  1060.16494033
0.46000002 12819.28161541  1152.38937543
0.46100002 12834.35770303  1156.24734027
0.46200002 12851.35217887  1249.53703157
0.46300002 12869.03449673  1164.39029645
0.46400002 12886.85467944  1168.51560344
0.46500002 12905.95433734  1353.18937641
0.46600002 12925.59187509  995.98152914
0.46700002 12945.61285242  999.66027184
0.46800002 12967.21469405  1368.36539545
0.46900002 12988.40107109  1007.25055080
0.47000002 13010.48104671  1011.10958247
0.47100002 13033.27241859  1107.30687717
0.47200002 13056.55843248  1018.99915116
0.47300002 13080.40623960  1395.02539157
0.47400002 13104.00273801  1120.39228720
0.47500002 13128.40302000  1031.10482206
0.47600002 13153.71362084  1505.83720669
0.47700002 13178.38566937  1228.35738646
