# SAXS profile: number of points = 501, q_min = 0, q_max = 0.5, delta_q = 0.001
#    q    intensity    error
0.00000000 1664650.74656090 399.51617917
0.00100000 1664564.66591528 599.24329396
0.00200000 1664306.38938408 973.61926862
0.00300000 1663876.13547507 1197.99086022
0.00400000 1663273.77592793 1496.94645522
0.00500000 1662499.96574111 1645.87503123
0.00600000 1661554.54338347 2093.55880990
0.00700000 1660438.24571841 2191.77857544
0.00800000 1659150.86601606 3135.79526916
0.00900000 1657693.82823039 3481.15718810
0.01000000 1656066.48574452 3552.26276531
0.01100000 1654270.37293518 3870.99284121
0.01200000 1652305.47807332 4188.59457056
0.01300000 1650173.06220354 4158.43630016
0.01400000 1647873.35277424 4820.02977054
0.01500000 1645407.79438842 6318.36621180
0.01600000 1642776.21207755 4189.07952806
0.01700000 1639980.59750054 5313.53737426
0.01800000 1637021.55714862 5598.61397737
0.01900000 1633900.16305476 5391.87078138
0.02000000 1630616.91161092 7191.02090549
0.02100000 1627174.77678317 8591.48321094
0.02200000 1623572.16011422 7281.72146894
0.02300000 1619812.39778304 6414.45738720
0.02400000 1615895.92846597 8483.45401127
0.02500000 1611825.13697993 8171.95381771
0.02600000 1607600.41299377 7812.93836450
0.02700000 1603223.82424051 6733.54037021
0.02800000 1598695.56610775 7649.75863464
0.02900000 1594019.19436379 7890.39537438
0.03000000 1589195.23053428 10345.66142632
0.03100000 1584225.26686567 8364.70979394
0.03200000 1579110.57246547 10161.57700184
0.03300000 1573855.24295842 13645.32558551
0.03400000 1568457.66451263 9881.28374236
0.03500000 1562922.13483168 10127.73590139
0.03600000 1557249.15513187 12099.82649455
0.03700000 1551441.65775999 9727.53964403
0.03800000 1545501.14755420 12657.65498426
0.03900000 1539430.34831866 11083.89902119
0.04000000 1533229.12066914 10372.29548197
0.04100000 1526901.77717138 9619.48164220
0.04200000 1520449.45999397 10787.58941912
0.04300000 1513874.24102937 10990.72750004
0.04400000 1507179.06296391 15260.18872122
0.04500000 1500365.82310598 15528.78699069
0.04600000 1493435.33814844 12634.46354807
0.04700000 1486391.77473762 13912.62765859
0.04800000 1479236.51711396 11959.62779733
0.04900000 1471972.28496491 15455.70971156
0.05000000 1464600.93945171 13445.03725025
0.05100000 1457126.02467224 17048.37528285
0.05200000 1449547.19626367 19590.63127045
0.05300000 1441869.52650431 14014.97245097
0.05400000 1434094.11166731 11831.27697299
0.05500000 1426224.49917474 19168.45816310
0.05600000 1418261.65708133 18189.20660085
0.05700000 1410210.35253474 17176.36289564
0.05800000 1402069.92098537 14889.98325611
0.05900000 1393844.40687254 13799.06027253
0.06000000 1385537.49118274 17748.73609125
0.06100000 1377150.49195916 16649.75022585
0.06200000 1368686.04645560 19401.12561539
0.06300000 1360147.86221786 14363.16209657
0.06400000 1351534.67708941 17130.70283326
0.06500000 1342853.61899542 18611.95202990
0.06600000 1334105.18853712 18770.86088098
0.06700000 1325291.20424432 16221.56509910
0.06800000 1316415.68446559 16349.88356639
0.06900000 1307481.79265167 17847.12730528
0.07000000 1298489.42647284 13828.91303952
0.07100000 1289443.08861552 20888.97901396
0.07200000 1280344.29419415 14019.77067821
0.07300000 1271196.90069642 16932.34351065
0.07400000 1262003.64180035 14197.54163561
0.07500000 1252764.98276322 15709.67362020
0.07600000 1243484.39228160 15798.46994458
0.07700000 1234165.56273639 20215.63286550
0.07800000 1224809.45605872 21770.98910242
0.07900000 1215418.32395598 18960.52674303
0.08000000 1205997.33850813 16118.15518528
0.08100000 1196546.97603385 16189.28134531
0.08200000 1187068.76266070 17734.80814636
0.08300000 1177566.23144719 17804.80225510
0.08400000 1168042.24819289 26806.57085429
0.08500000 1158498.68985064 26900.34084117
0.08600000 1148938.30206862 16493.01010057
0.08700000 1139362.86636870 21055.42675921
0.08800000 1129774.38673538 21115.48427975
0.08900000 1120176.48589888 16634.62159692
0.09000000 1110570.71042668 21223.00727322
0.09100000 1100959.42140430 18231.88887501
0.09200000 1091343.93888697 27403.64759306
0.09300000 1081729.03369032 16777.61810095
0.09400000 1072113.20308140 18333.13663430
0.09500000 1062500.75057748 21420.01613844
0.09600000 1052893.25521380 22979.39637525
0.09700000 1043295.65186454 19937.38084444
0.09800000 1033706.29742672 19955.70101009
0.09900000 1024129.61919280 18434.33401230
0.10000000 1014564.97558655 16907.72611327
0.10100000 1005016.11345785 24602.79561456
0.10200000 995484.99787396 19994.31712276
0.10300000 985973.01808694 21533.65172798
0.10400000 976482.72243515 19993.48468245
0.10500000 967017.52362608 16913.13728397
0.10600001 957573.69638353 16905.96440514
0.10700001 948159.20805619 16896.19788266
0.10800001 938771.58289356 24558.26576425
0.10900001 929415.42707862 16868.89079542
0.11000001 920090.86617488 15319.51364289
0.11100001 910799.31977781 19891.85808032
0.11200001 901543.46411542 21393.62741061
0.11300001 892323.40206134 18310.47707237
0.11400001 883141.94381076 15234.19924803
0.11500001 874000.74119025 22811.42041921
0.11600001 864900.47090850 22768.50596887
0.11700001 855842.99074211 25752.31680423
0.11800001 846828.51770171 25697.01257994
0.11900001 837858.75332864 21114.04157839
0.12000001 828935.33821474 24072.28335568
0.12100001 820061.02400093 19509.25268003
0.12200001 811234.88185132 17960.74113034
0.12300001 802459.63812088 17910.89996672
0.12400001 793734.95272925 26788.55591682
0.12500001 785061.85089158 16321.43664911
0.12600001 776443.65942847 19228.62813187
0.12700001 767879.29085146 19166.26800289
0.12800001 759369.90438945 19101.95084518
0.12900001 750917.20200147 17571.46335501
0.13000001 742521.83231354 20426.77656976
0.13100001 734183.81908342 17444.20836370
0.13200001 725904.54826599 20274.51498882
0.13300001 717686.15317205 20195.68930235
0.13400001 709527.11718113 15804.71728033
0.13500001 701430.04401939 21463.76035897
0.13600001 693393.84397579 21373.86624835
0.13700001 685420.74451080 15607.03108843
0.13800001 677509.45641323 14126.07283234
0.13900001 669663.33992472 15469.22388176
0.14000001 661880.54263250 20998.16120530
0.14100001 654162.50433141 15327.02819935
0.14200001 646509.07789170 15254.38241233
0.14300001 638922.27280655 13800.72174357
0.14400001 631398.84725164 21972.68092081
0.14500001 623943.66390207 15030.80357244
0.14600001 616554.21249834 17673.52733500
0.14700001 609233.29466477 20287.46966943
0.14800001 601976.79405228 14799.60018000
0.14900001 594788.80226097 20074.12302342
0.15000001 587667.60827623 14641.73915104
0.15100001 580614.57629282 15885.61555693
0.15200001 573629.38419715 14481.27448739
0.15300001 566713.08007983 17018.39459788
0.15400001 559862.20379478 19525.19527876
0.15500001 553081.18746744 12942.10039751
0.15600001 546365.60134634 16726.98367465
0.15700001 539721.37607031 15349.67665990
0.15800001 533141.31661498 15258.50520170
0.15900001 526631.61042213 16430.90702072
0.16000001 520186.99356016 13818.76813621
0.16100001 513813.01740944 14982.78829491
0.16200001 507505.29742287 17371.90715084
0.16300001 501264.51679894 14797.32923445
0.16400001 495091.14695439 13478.85711216
0.16500001 488984.11079493 13393.27542699
0.16600001 482944.62668638 14517.31616360
0.16700001 476969.97263413 20433.39459240
0.16800001 471060.94712911 16717.95380297
0.16900001 465219.68965168 20167.27449866
0.17000001 459442.60766396 15320.11447597
0.17100001 453730.39774394 11706.24481458
0.17200001 448083.47297334 17441.65000913
0.17300001 442500.98212449 13859.13141463
0.17400001 436982.33293293 11470.78678121
0.17500001 431527.21887552 13670.78293961
0.17600001 426133.77395527 13576.62267943
0.17700001 420805.03905798 12359.04458086
0.17800001 415536.89700665 13388.59945393
0.17900001 410331.25594195 15510.52220722
0.18000001 405186.97518913 13200.99227521
0.18100001 400104.69673410 13107.43048416
0.18200001 395080.27016644 14098.44010687
0.18300001 390116.69299321 15074.10972935
0.18400001 385212.14841786 12827.56514830
0.18500001 380367.70291361 11673.48535390
0.18600001 375579.87390417 11588.51755679
0.18700001 370849.37253189 11503.74807943
0.18800001 366176.05999058 12457.31014944
0.18900001 361561.13025783 13395.84050897
0.19000001 356998.15428952 11250.79736402
0.19100001 352494.87876703 14212.59418343
0.19200001 348043.30592065 12091.02501900
0.19300001 343648.20591027 13000.21224388
0.19400001 339304.72189432 12902.06265970
0.19500001 335015.17230226 10834.39118424
0.19600001 330777.82343616 10751.93365889
0.19700001 326591.82012028 11639.73301915
0.19800001 322457.37185785 12512.95890629
0.19900001 318374.00392874 12416.58674003
0.20000001 314339.00794494 9477.32153745
0.20100001 310354.93256037 12224.88137133
0.20200001 306418.07287154 11196.51691191
0.20300001 302530.94979177 11108.93700141
0.20400001 298690.47815192 16532.51874713
0.20500001 294896.72803559 10023.54025971
0.20600001 291149.27390818 11752.24099681
0.20700001 287448.05683175 12555.73171591
0.20800001 283790.61199852 8896.83610671
0.20900001 280180.07324416 10590.80726927
0.21000001 276611.28595109 11381.17189847
0.21100001 273086.48999299 10420.98095077
0.21200001 269604.13711302 12059.39362317
0.21300001 266163.05678615 10252.60143210
0.21400001 262764.44926527 15253.47700098
0.21500001 259407.68930927 15969.13810886
0.21600001 256090.01449842 9169.30340263
0.21700001 252812.44898957 14053.84470379
0.21800001 249574.30498276 9838.21956758
0.21900001 246373.87042296 12195.50716256
0.22000001 243211.46529427 12093.69068358
0.22100001 240088.11443867 11992.40188325
0.22200001 237001.50379898 11891.55101540
0.22300001 233950.25749194 11791.09353514
0.22400001 230934.45530940 13249.86499991
0.22500001 227956.60666779 10046.04813090
0.22600001 225011.35509131 9960.12810411
0.22700001 222102.56288745 9874.68041294
0.22800001 219226.45688062 8283.47206496
0.22900001 216382.97196563 8211.73417444
0.23000001 213573.60518302 8880.39092348
0.23100001 210797.43632741 10270.05158357
0.23200001 208051.49973182 7998.54028547
0.23300001 205337.72681552 10811.03182814
0.23400001 202655.67305762 9286.69665708
0.23500001 200002.49247589 8496.10628221
0.23600001 197381.03279743 8420.27525739
0.23700001 194788.76604178 7649.35520426
0.23800001 192225.95837483 8958.69121379
0.23900001 189691.64893151 7511.78965299
0.24000001 187185.92231997 8120.12569433
0.24100001 184709.23205245 8716.42907285
0.24200001 182259.81028552 8636.38151890
0.24300001 179837.71070226 7898.47262766
0.24400001 177442.28493576 7825.20513583
0.24500001 175073.52844093 8398.27755659
0.24600001 172731.07243647 8959.56115111
0.24700001 170414.81264147 7607.31759619
0.24800001 168124.10595560 9419.15348175
0.24900001 165857.64612910 7463.59442889
0.25000001 163617.26327962 6776.20927930
0.25100001 161400.09570236 6711.01629680
0.25200001 159208.85793759 6646.17408903
0.25300001 157041.40999551 5983.27800390
0.25400001 154897.06650306 8294.73830367
0.25500001 152775.76433034 7039.90755341
0.25600001 150678.41724563 7551.24923753
0.25700001 148603.05176737 7476.21988814
0.25800001 146550.97283183 9109.60890224
0.25900001 144521.10296059 5636.32328214
0.26000001 142513.31502442 6695.27585664
0.26100001 140526.51633109 7179.50005906
0.26200001 138562.47464840 6012.91887188
0.26300001 136618.83893064 5951.11690541
0.26400001 134696.54904540 8566.70092465
0.26500001 132795.74070324 5828.40533526
0.26600001 130914.54949955 6291.75354667
0.26700001 129054.88482833 7263.20926184
0.26800001 127215.91630164 6159.79495881
0.26900001 125395.53833760 6094.22345160
0.27000001 123596.20053652 5526.60436852
0.27100001 121815.90986238 5964.10722910
0.27200001 120056.66026053 5899.58456439
0.27300001 118315.79789409 5835.33542829
0.27400001 116592.38063099 5771.32311436
0.27500001 114890.87117950 4756.48229193
0.27600001 113205.66597350 6585.17390133
0.27700001 111541.01222334 5116.38647283
0.27800001 109893.78998778 6438.67746011
0.27900001 108266.28105612 4547.18401957
0.28000001 106655.52579193 4945.08368739
0.28100001 105063.79609648 4888.61866374
0.28200001 103490.41178841 4393.16818835
0.28300001 101934.52729011 5210.89328170
0.28400001 100395.98947833 4721.12162867
0.28500001 98875.70957659  4665.94495576
0.28600001 97372.61520242  4191.89128287
0.28700001 95886.96704305  4970.78060679
0.28800001 94417.69785200  4911.60887474
0.28900001 92967.57526006  4448.49868676
0.29000001 91532.77593797  4794.48703057
0.29100001 90115.82929939  5131.19556319
0.29200001 88715.62601563  6238.48311672
0.29300001 87332.10789449  4236.48075450
0.29400001 85964.55286221  4945.11113748
0.29500001 84614.67776811  4508.27024489
0.29600001 83280.43205499  4452.17210841
0.29700001 81962.54961527  6961.07966835
0.29800001 80660.96536764  4341.17336159
0.29900001 79376.05469838  3929.11489357
0.30000001 78106.37788525  3879.15344131
0.30100001 76853.81818361  3829.62594138
0.30200001 75615.37439222  3780.39082171
0.30300001 74394.21346577  5767.03970089
0.30400001 73188.59311346  4352.89178150
0.30500001 71998.21849676  3965.66206255
0.30600001 70822.58677135  4565.93238531
0.30700001 69663.59542836  4505.84156563
0.30800001 68519.34471374  3175.87177784
0.30900001 67390.49717240  3760.38992025
0.31000001 66277.22177321  3401.01579631
0.31100001 65177.98868502  3355.36301637
0.31200001 64094.49678659  4212.93147325
0.31300001 63025.36184506  3562.19362014
0.31400001 61972.07416004  3806.63483551
0.31500001 60932.57778420  3465.84518846
0.31600002 59908.18061203  3133.49753528
0.31700002 58898.22646225  3652.27919585
0.31800002 57902.89167536  3047.71884764
0.31900002 56921.98302438  2732.25531454
0.32000002 55955.46168632  3233.10672932
0.32100002 55002.53713802  3187.94720347
0.32200002 54065.07596307  2881.39835989
0.32300002 53139.89270670  3099.11868940
0.32400002 52229.38905992  2800.80112096
0.32500002 51332.65549618  2761.18366989
0.32600002 50450.10923937  3216.95136798
0.32700002 49580.52771171  2927.23449471
0.32800002 48725.45370703  3606.90188146
0.32900002 47883.05080579  3555.31669069
0.33000002 47055.01001606  3971.67830848
0.33100002 46237.84554775  3453.96722598
0.33200002 45437.03379509  2496.53794009
0.33300002 44647.75718648  2907.90856326
0.33400002 43871.92745999  2204.56445926
0.33500002 43108.15242132  2389.91608342
0.33600002 42358.10186960  2355.32236600
0.33700002 41619.81625475  2321.13726245
0.33800002 40895.13984736  2287.46975569
0.33900002 40181.96761519  2664.06457905
0.34000002 39481.80730160  2221.44399303
0.34100002 38793.57927062  2189.12178191
0.34200002 38118.16801872  3137.88773991
0.34300002 37453.80230763  1932.61629060
0.34400002 36802.78316151  2856.81617821
0.34500002 36162.62163561  2627.57621249
0.34600002 35535.24150085  2219.53128926
0.34700002 34917.86886444  2187.25540926
0.34800002 34313.59781699  1975.94862387
0.34900002 33719.98779826  2124.35933190
0.35000002 33137.88720266  1919.18082824
0.35100002 32567.58701112  2751.30988101
0.35200002 32006.98948063  2542.15525990
0.35300002 31458.01677968  1837.46284713
0.35400002 30920.08071437  1975.79325123
0.35500002 30393.05060264  1622.98897905
0.35600002 29875.71205961  1919.81334788
0.35700002 29369.42181860  1892.56563163
0.35800002 28873.96271084  1710.34926219
0.35900002 28388.69795952  1839.58771491
0.36000002 27913.80304323  1964.99225830
0.36100002 27448.17741551  1639.47971468
0.36200002 26993.71066263  2204.71142280
0.36300002 26548.00688447  2029.32974237
0.36400002 26112.05516322  1572.59859669
0.36500002 25685.54319965  1974.19094384
0.36600002 25268.91399183  1669.26453737
0.36700002 24861.07714557  2058.49728516
0.36800002 24463.94139065  1895.71090816
0.36900002 24074.91787115  1469.77380566
0.37000002 23694.45111954  1582.31552072
0.37100002 23322.78981515  1431.55290667
0.37200002 22960.79182868  1541.58763640
0.37300002 22606.83513257  1521.89221322
0.37400002 22261.41859442  1252.20485525
0.37500002 21924.82656968  1607.52836024
0.37600002 21596.65329815  1343.41988205
0.37700002 21275.99546843  1447.61880025
0.37800002 20963.39408009  1430.12281189
0.37900002 20659.33913774  1295.34062530
0.38000002 20363.01590158  1396.49569669
0.38100002 20073.44363014  1380.25004940
0.38200002 19792.43469196  1137.07542692
0.38300002 19518.18148729  1461.52149901
0.38400002 19252.09811079  1778.89394971
0.38500002 18992.12381283  1539.50162920
0.38600002 18740.42292037  1414.24608269
0.38700002 18494.97246323  1614.61117253
0.38800002 18256.65549337  1491.38625791
0.38900002 18024.43593790  1159.87250755
0.39000002 17800.13904619  1043.97820452
0.39100002 17581.34223064  1343.91786378
0.39200002 17369.42741479  1331.10613300
0.39300002 17163.54852453  1420.11207220
0.39400002 16965.15647470  1105.70412562
0.39500002 16771.62677393  1295.10508084
0.39600002 16584.19669898  987.58896021
0.39700002 16402.61363250  1175.08329631
0.39800002 16227.12219374  1165.43197117
0.39900002 16056.97296916  1252.44395093
0.40000002 15892.30895227  1051.51467165
0.40100002 15733.44931859  948.72703886
0.40200002 15580.01576844  1224.35559717
0.40300002 15431.26287025  1028.64803167
0.40400002 15288.10628495  928.75250082
0.40500002 15150.10664784  1199.43400014
0.40600002 15016.91878500  1191.81781584
0.40700002 14888.60694538  1457.89246117
0.40800002 14765.06338444  1358.75502233
0.40900002 14645.99528741  1080.87450342
0.41000002 14531.94166675  985.48367082
0.41100002 14422.02835137  1069.53767321
0.41200002 14316.19556657  975.57719311
0.41300002 14215.42910418  1059.33382704
0.41400002 14118.21840029  966.74505077
0.41500002 14025.35376388  1225.25496287
0.41600002 13935.93339875  958.86194294
0.41700002 13850.83577789  1042.13693331
0.41800002 13770.53868281  952.02623695
0.41900002 13691.97850038  1035.11362368
0.42000002 13618.21855567  945.98959680
0.42100002 13548.45961492  943.37928769
0.42200002 13482.04339712  1283.15354112
0.42300002 13418.44565710  1365.46109477
0.42400002 13358.15663398  851.58252577
0.42500002 13301.53247918  1274.95194854
0.42600002 13247.14883404  1018.17590763
0.42700002 13197.19633364  1440.34207611
0.42800002 13149.25718571  846.15474000
0.42900002 13105.33905316  1014.35329078
0.43000002 13063.70234442  1097.93891556
0.43100002 13023.90203899  1265.92333818
0.43200002 12987.93094126  843.56615461
0.43300002 12954.41463763  1011.99891945
0.43400002 12923.31145911  1349.19378027
0.43500002 12894.63938867  1011.97134718
0.43600002 12868.79561309  1012.25951090
0.43700002 12844.67315161  1097.06358587
0.43800002 12822.76422754  1013.25487728
0.43900002 12803.77917309  1098.56430511
0.44000002 12786.53399795  930.41219045
0.44100002 12771.66772216  931.43777112
0.44200002 12758.55287615  1102.14764244
0.44300002 12747.65162245  1103.69172978
0.44400002 12738.85455972  1020.38229859
0.44500002 12730.75001425  1277.53082447
0.44600002 12724.92521707  938.52690386
0.44700002 12721.72482721  1025.87993868
0.44800002 12718.75337814  1027.92969674
0.44900002 12719.06551932  858.53696324
0.45000002 12720.18247560  1032.62446231
0.45100002 12722.54184471  1121.36489134
0.45200002 12726.65725829  1124.20932219
0.45300002 12731.84905920  1473.96623544
0.45400002 12738.80598199  1391.07767916
0.45500002 12746.97270865  1046.27156951
0.45600002 12756.25111263  874.44105521
0.45700002 12766.84190338  1052.49849640
0.45800002 12778.17153852  1143.71029776
0.45900002 12790.74627073  970.81768796
0.46000002 12805.11521279  974.02113482
0.46100002 12819.42952907  1154.90246101
0.46200002 12835.52754713  1069.71291648
0.46300002 12852.57368495  1073.44700504
0.46400002 12869.75334328  1166.96493971
0.46500002 12888.34579897  1531.52220388
0.46600002 12907.45144073  904.16701628
0.46700002 12927.08255500  1088.97748605
0.46800002 12948.40935099  1002.01270512
0.46900002 12969.38336728  1005.77572780
0.47000002 12991.34099717  1101.40594194
0.47100002 13014.01489569  921.39229829
0.47200002 13037.34805341  1387.49983235
0.47300002 13061.32864256  1021.52656155
0.47400002 13085.08031974  1118.77442037
0.47500002 13109.76987306  1123.24513596
0.47600002 13135.33878706  939.83353476
0.47700002 13160.49677410  1037.96842977
