# SAXS profile: number of points = 501, q_min = 0, q_max = 0.5, delta_q = 0.001
#    q    intensity    error
0.00000000 1646666.22097350 345.79990640
0.00100000 1646580.59942107 691.56386818
0.00200000 1646323.68974100 889.01482061
0.00300000 1645895.72905437 1185.04496713
0.00400000 1645296.55593903 1604.16420300
0.00500000 1644526.85612391 1480.07422909
0.00600000 1643586.44520943 2416.07217282
0.00700000 1642476.08357775 2365.16565865
0.00800000 1641195.53522155 3544.98250575
0.00900000 1639746.20538615 2705.58135454
0.01000000 1638127.53928162 2702.91055653
0.01100000 1636341.02567736 3239.95537191
0.01200000 1634386.53554311 3505.75927245
0.01300000 1632265.49209453 5484.41229533
0.01400000 1629978.05211816 4034.19585783
0.01500000 1627525.67393543 5077.88032879
0.01600000 1624908.11589677 4143.51588077
0.01700000 1622127.50904829 6131.64225926
0.01800000 1619184.33782994 6460.54579865
0.01900000 1616079.61310981 5817.88686971
0.02000000 1612814.02451564 6604.47372915
0.02100000 1609390.34472874 5842.08721624
0.02200000 1605807.12735930 8310.05226163
0.02300000 1602067.66917617 6344.18825871
0.02400000 1598172.35251082 8390.40523326
0.02500000 1594123.45696925 6838.78994273
0.02600000 1589921.73275752 8370.93830584
0.02700000 1585568.77381734 7325.32807054
0.02800000 1581065.16944289 7565.39718273
0.02900000 1576414.26025486 9222.02384591
0.03000000 1571616.49967768 10962.02558912
0.03100000 1566673.76633912 9776.04475178
0.03200000 1561587.08006085 10048.81332302
0.03300000 1556360.49852381 9524.92669007
0.03400000 1550992.61818389 9771.25394541
0.03500000 1545487.58841990 10014.76003542
0.03600000 1539845.81285805 10255.37358757
0.03700000 1534070.44896212 9618.62215983
0.03800000 1528163.05019824 10727.70510887
0.03900000 1522125.84545740 12785.85769396
0.04000000 1515959.24573716 9323.14979331
0.04100000 1509667.26285344 9510.90419696
0.04200000 1503251.12718431 9695.97022016
0.04300000 1496712.86704980 11853.96645727
0.04400000 1490055.13219755 12069.44713133
0.04500000 1483280.52077681 14328.49049648
0.04600000 1476389.29768451 11449.39953579
0.04700000 1469385.83937473 16927.32565685
0.04800000 1462271.26991440 11822.46376733
0.04900000 1455048.52653888 14186.72379411
0.05000000 1447719.38657594 15505.07535224
0.05100000 1440287.71325967 12357.66915544
0.05200000 1432752.41158802 13668.45864352
0.05300000 1425119.33316925 12697.81385048
0.05400000 1417388.93778114 11693.45928201
0.05500000 1409565.26059464 17760.52311201
0.05600000 1401648.82454062 13182.50780996
0.05700000 1393644.84165070 14549.65282599
0.05800000 1385552.41932150 18393.20922532
0.05900000 1377375.56160397 16115.29482344
0.06000000 1369117.92362793 15032.91550375
0.06100000 1360780.87579076 17717.36783075
0.06200000 1352366.97765024 17891.81595064
0.06300000 1343879.97173126 16771.62283137
0.06400000 1335318.58974966 14321.29254482
0.06500000 1326690.19004562 17074.50354459
0.06600000 1317994.96074026 14570.43497271
0.06700000 1309234.76032627 13354.19518029
0.06800000 1300413.32411678 13459.27853463
0.06900000 1291534.52413897 17629.44707989
0.07000000 1282597.82605256 17757.56773326
0.07100000 1273607.81692480 17881.45458715
0.07200000 1264565.78574233 22155.19360411
0.07300000 1255475.57769905 18116.51343506
0.07400000 1246340.14523781 14021.32729102
0.07500000 1237159.90111337 15513.98588714
0.07600000 1227938.13758623 15600.95476942
0.07700000 1218678.68100179 21387.81185442
0.07800000 1209382.74335317 17197.42341698
0.07900000 1200051.98981372 17280.74946385
0.08000000 1190692.03066448 17360.29062148
0.08100000 1181303.05754382 14530.02828951
0.08200000 1171887.01057742 21884.99094949
0.08300000 1162446.66892059 19040.87733055
0.08400000 1152985.78737790 14700.56947909
0.08500000 1143505.81610553 19176.59343634
0.08600000 1134009.05778640 19238.46456862
0.08700000 1124497.91452416 22265.05975309
0.08800000 1114974.07331948 19350.37595123
0.08900000 1105441.30363796 16415.80413007
0.09000000 1095901.12491405 17950.86126934
0.09100000 1086355.57395894 19489.21991245
0.09200000 1076806.50289035 16523.59656324
0.09300000 1067258.34046063 18058.01196918
0.09400000 1057709.55446046 19594.07041725
0.09500000 1048164.58313563 19621.64191857
0.09600000 1038625.03161921 19645.59339657
0.09700000 1029095.34995231 19666.01306214
0.09800000 1019574.73046457 21196.95964299
0.09900000 1010066.64084261 24241.60052012
0.10000000 1000571.41002678 21222.12060468
0.10100000 991091.97195092 15163.70788403
0.10200000 981630.35325527 15166.18967116
0.10300000 972188.62013653 19715.98614382
0.10400000 962768.66356012 21229.05003022
0.10500000 953373.93969962 15158.64635443
0.10600001 944000.93516629 21211.70201127
0.10700001 934657.70047604 19683.89209830
0.10800001 925341.14253289 16642.26123167
0.10900001 916056.58620481 18137.92126053
0.11000001 906803.93986960 21137.60083330
0.11100001 897584.08133940 15079.41327634
0.11200001 888400.74925011 25599.26879478
0.11300001 879253.00252802 15035.22705110
0.11400001 870144.27642081 16510.98842250
0.11500001 861075.70530596 19477.53337118
0.11600001 852048.52151541 22430.17838516
0.11700001 843064.05177942 26860.02195466
0.11800001 834122.97362026 16378.00535841
0.11900001 825226.52891239 20795.70950810
0.12000001 816376.62614452 19262.40740123
0.12100001 807575.90740502 22167.95970256
0.12200001 798823.64672163 17685.95637163
0.12300001 790122.09730059 16165.89887242
0.12400001 781471.22834854 19048.36208851
0.12500001 772872.32468577 17528.74514984
0.12600001 764328.26491680 14560.45413280
0.12700001 755838.03369983 17414.50911713
0.12800001 747403.06372468 20247.14995053
0.12900001 739024.67728572 17293.17826355
0.13000001 730703.51647206 22973.31964073
0.13100001 722439.92069661 14304.31110406
0.13200001 714235.10490009 18523.68831880
0.13300001 706091.08435678 15611.67461111
0.13400001 698006.29397086 14134.62811930
0.13500001 689983.68217357 15483.23455798
0.13600001 682021.95823232 15417.10709277
0.13700001 674123.41849839 20931.53313137
0.13800001 666286.66250343 15281.28532512
0.13900001 658514.59797369 17977.44937247
0.14000001 650806.07960916 13764.54923288
0.14100001 643162.32520532 19179.10144217
0.14200001 635582.98333126 13633.25563547
0.14300001 628070.53182398 17636.22136548
0.14400001 620620.91298315 18897.90769175
0.14500001 613239.76364021 16115.94174869
0.14600001 605924.28948289 20040.94682006
0.14700001 598677.38739788 14619.70248996
0.14800001 591494.24945232 17185.86622864
0.14900001 584379.77581535 14463.40013382
0.15000001 577332.28191738 14384.23448266
0.15100001 570352.50067960 14304.44139200
0.15200001 563440.70159395 14224.06118293
0.15300001 556597.43530233 18000.36190710
0.15400001 549819.68556884 14061.63912201
0.15500001 543111.32499350 16521.44728600
0.15600001 536468.26387510 16423.97667366
0.15700001 529896.56688584 15070.25907350
0.15800001 523388.83715692 16227.67166198
0.15900001 516951.18145045 12406.82894042
0.16000001 510578.68113294 12330.47573139
0.16100001 504276.70239832 20831.67155942
0.16200001 498040.36352423 14612.50495560
0.16300001 491870.99569060 14520.03247825
0.16400001 485768.57811258 15629.60473864
0.16500001 479732.68586054 11945.34444188
0.16600001 473763.94149317 15428.12348313
0.16700001 467859.60317326 12969.06881229
0.16800001 462020.90431884 12883.45352524
0.16900001 456249.77288971 13961.24370965
0.17000001 450542.20431473 20801.53455545
0.17100001 444899.77086436 14921.93901942
0.17200001 439322.17464547 15960.57535857
0.17300001 433808.77706696 14719.13250099
0.17400001 428358.90624342 12368.86400191
0.17500001 422972.31253571 14516.41045180
0.17600001 417647.32933730 12197.39082937
0.17700001 412386.61327676 12111.79540399
0.17800001 407185.95262646 17492.70935105
0.17900001 402047.76636710 15197.40628650
0.18000001 396970.68209260 12933.30543348
0.18100001 391955.40886906 11770.42148433
0.18200001 386997.50220284 15934.62290592
0.18300001 382100.27749803 11600.56497284
0.18400001 377261.61592421 10469.01033646
0.18500001 372482.78107353 11431.49709119
0.18600001 367760.26468681 13410.37868536
0.18700001 363094.95892596 10239.27832546
0.18800001 358486.49524467 11179.40188239
0.18900001 353935.78399918 13113.32141674
0.19000001 349437.13808870 13014.78682305
0.19100001 344997.60517798 10929.52464846
0.19200001 340609.25585092 11832.76610738
0.19300001 336277.58648514 10764.24605203
0.19400001 331996.67515754 13595.26449013
0.19500001 327769.78966561 13491.00518016
0.19600001 323594.37007773 12430.87831397
0.19700001 319470.23136840 10437.09295204
0.19800001 315397.29824418 10356.07077726
0.19900001 311374.85724507 12143.62000646
0.20000001 307400.76723819 12048.57364133
0.20100001 303476.98985154 10114.88854980
0.20200001 299600.21563823 11859.67509657
0.20300001 295772.75318721 9955.71134283
0.20400001 291991.60143414 12570.23903588
0.20500001 288256.90779688 10688.56664632
0.20600001 284568.16539314 14137.34712498
0.20700001 280925.13892091 12270.81064810
0.20800001 277325.81389569 13910.66348257
0.20900001 273772.53563746 8623.83528024
0.21000001 270261.07084082 11119.89228541
0.21100001 266793.21181941 9332.42699062
0.21200001 263367.26894072 10097.50156854
0.21300001 259982.32759706 10849.06304352
0.21400001 256639.48443437 9104.28614073
0.21500001 253338.03490006 8208.15271882
0.21600001 250075.58653040 8953.95679905
0.21700001 246852.64777160 8879.29016015
0.21800001 243668.78640730 11206.32801671
0.21900001 240522.17693107 8730.95543541
0.22000001 237413.32228336 8657.27720640
0.22100001 234343.11716728 8583.98878772
0.22200001 231309.52901718 10832.22575607
0.22300001 228310.53291711 9972.60454938
0.22400001 225347.03244381 14450.37913877
0.22500001 222420.83990922 9802.08687831
0.22600001 219526.98820509 8222.38373204
0.22700001 216669.11797559 8151.09260370
0.22800001 213843.72230071 8080.08542924
0.22900001 211050.45820705 9465.61349822
0.23000001 208290.98108994 10825.92425413
0.23100001 205564.23454349 8584.36284051
0.23200001 202867.40651051 7799.23781215
0.23300001 200202.55208168 8432.53189249
0.23400001 197569.03935152 7660.73986317
0.23500001 194963.90037503 7591.89463967
0.23600001 192390.17790694 8891.31249250
0.23700001 189845.41574463 8132.97799517
0.23800001 187329.61071393 9402.07360644
0.23900001 184842.00492532 9981.46873809
0.24000001 182382.64547055 7911.75953474
0.24100001 179951.91981128 8491.93149757
0.24200001 177547.94891503 6471.62304407
0.24300001 175171.43763540 7052.40241280
0.24400001 172820.86701904 7621.40059606
0.24500001 170496.54317553 8178.71956302
0.24600001 168198.65940235 11217.16912617
0.24700001 165926.40669930 9875.94019393
0.24800001 163679.08939248 7947.43856142
0.24900001 161455.69855666 9081.88347345
0.25000001 159258.20613828 8394.50044268
0.25100001 157083.57497850 6531.53535661
0.25200001 154934.72735702 6467.75049951
0.25300001 152809.03542549 7568.63188270
0.25400001 150706.35342125 6917.42194931
0.25500001 148626.46311738 7419.43338985
0.25600001 146569.90292457 6215.29702758
0.25700001 144534.92820131 6712.20238325
0.25800001 142523.30402610 7198.13981041
0.25900001 140533.41052561 6028.88359680
0.26000001 138565.12960998 7052.27260518
0.26100001 136617.83991299 5905.98949889
0.26200001 134692.74734289 6907.71787433
0.26300001 132787.88524764 5784.24055508
0.26400001 130904.09114007 5723.78165594
0.26500001 129041.27970427 7723.12095575
0.26600001 127197.84489013 7641.41089336
0.26700001 125375.81639144 5040.10805743
0.26800001 123574.01215347 6980.69627688
0.26900001 121790.64478650 6905.52988617
0.27000001 120027.87238778 6830.78654084
0.27100001 118283.90006973 6273.77835659
0.27200001 116560.74438483 5727.79525013
0.27300001 114855.50931461 6136.73015309
0.27400001 113167.58795288 5134.97954637
0.27500001 111501.22257288 6000.99608287
0.27600001 109850.99399658 4564.30901657
0.27700001 108220.90313609 5415.37424922
0.27800001 106608.21344514 7138.48631013
0.27900001 105014.79259088 6174.87009659
0.28000001 103437.82653431 7411.83781111
0.28100001 101879.57210000 5171.40732455
0.28200001 100339.60763070 5963.18316373
0.28300001 98816.76308856  6735.35089090
0.28400001 97311.10812518  4576.05507618
0.28500001 95823.23581209  5755.14381527
0.28600001 94352.51179997  4874.25099029
0.28700001 92898.90611641  4815.87952102
0.28800001 91461.57069835  4361.34520519
0.28900001 90042.83796600  4308.55000061
0.29000001 88639.44136212  4642.93415832
0.29100001 87253.53753570  4203.87563746
0.29200001 85884.19463190  4529.53263929
0.29300001 84531.26916648  4473.39497604
0.29400001 83194.10288112  4049.47314943
0.29500001 81874.28802618  4725.78412858
0.29600001 80569.98459854  4307.27158053
0.29700001 79281.91265523  4607.07216249
0.29800001 78009.74697484  4198.48478094
0.29900001 76754.05304582  3799.32580562
0.30000001 75513.58286461  3750.38227051
0.30100001 74289.80828809  3365.32847477
0.30200001 73079.95524168  4317.92935987
0.30300001 71887.10008114  4261.46749455
0.30400001 70709.77051177  4205.46380028
0.30500001 69547.53860815  3192.23217324
0.30600001 68399.58457703  3779.76122267
0.30700001 67268.18755374  3418.56945333
0.30800001 66151.38715383  4599.17540961
0.30900001 65049.76014015  3024.81398972
0.31000001 63963.24231289  4774.21663227
0.31100001 62890.84855847  4120.60859264
0.31200001 61834.07415145  4935.28686206
0.31300001 60791.26933954  3149.59581360
0.31400001 59764.37469861  3671.02688967
0.31500001 58750.94741244  3063.27454312
0.31600002 57752.45397167  2746.12931638
0.31700002 56768.17389607  3249.41042766
0.31800002 55798.29480108  3203.93823918
0.31900002 54842.59771146  2895.68929627
0.32000002 53901.39627522  2854.88758889
0.32100002 52973.50644005  3070.34457865
0.32200002 52060.77184406  3279.04786986
0.32300002 51160.32924327  2735.03133085
0.32400002 50274.33694154  3186.13625454
0.32500002 49401.81521154  3140.47354170
0.32600002 48543.43560077  2381.05562897
0.32700002 47697.97007956  3754.78438246
0.32800002 46866.67214341  3469.30556970
0.32900002 46047.90529783  2507.30856220
0.33000002 45243.52031734  2920.24315717
0.33100002 44449.55913353  2656.30577961
0.33200002 43671.97098445  2617.69806477
0.33300002 42905.77018261  3009.41086312
0.33400002 42152.90831146  2753.63886585
0.33500002 41411.72564445  2713.29639272
0.33600002 40684.32915841  3084.88940453
0.33700002 39968.55062501  3242.24898024
0.33800002 39265.97951067  2595.67769848
0.33900002 38575.01774109  2164.05859776
0.34000002 37896.76390390  2132.26152203
0.34100002 37230.45546182  2673.89143790
0.34200002 36576.80266240  2070.06424471
0.34300002 35933.98956010  2039.61334403
0.34400002 35304.29634438  2375.09664905
0.34500002 34685.42025260  1980.19073600
0.34600002 34079.29665580  3192.88945490
0.34700002 33482.79566484  2272.14262143
0.34800002 32899.47935160  2755.66052100
0.34900002 32326.69242138  2036.58171900
0.35000002 31764.97416086  1839.66856566
0.35100002 31215.21742256  2142.61262536
0.35200002 30674.84902220  2436.34999898
0.35300002 30146.03179167  1760.82980035
0.35400002 29628.31119082  1893.24917476
0.35500002 29121.11419534  2332.60135753
0.35600002 28623.50743600  1686.06778538
0.35700002 28136.86144816  1662.04448446
0.35800002 27661.10784660  2085.37101933
0.35900002 27195.04632563  1468.53257114
0.36000002 26739.29683774  1592.72629158
0.36100002 26292.81493432  2141.54987784
0.36200002 25857.38861478  1689.52185212
0.36300002 25430.43445802  1805.05232333
0.36400002 25013.20701564  1506.42046387
0.36500002 24605.29363276  1350.83068442
0.36600002 24207.13572387  1465.86317319
0.36700002 23817.55527526  1446.20202482
0.36800002 23438.67148497  1816.26273940
0.36900002 23067.58276075  1664.32617503
0.37000002 22705.12902914  1516.24858839
0.37100002 22351.27739000  1995.52213991
0.37200002 22007.01219932  1354.42162997
0.37300002 21670.56650086  1215.71883829
0.37400002 21342.51185828  1440.61961868
0.37500002 21023.27279345  1541.42643424
0.37600002 20712.18327135  1522.65622532
0.37700002 20408.54650313  1157.16464154
0.37800002 20112.88156292  1372.10084522
0.37900002 19825.50828851  1356.06483117
0.38000002 19545.80190353  1452.15542122
0.38100002 19272.71131133  1325.19169255
0.38200002 19008.11773671  1419.62134042
0.38300002 18750.07183440  1512.00586436
0.38400002 18500.17084456  1495.73888364
0.38500002 18256.02985168  1268.42901419
0.38600002 18020.19183570  1359.89384131
0.38700002 17790.55981673  1035.41063039
0.38800002 17567.67683420  1025.07399184
0.38900002 17351.01998602  1725.55901936
0.39000002 17141.95984876  1306.98879059
0.39100002 16938.24464309  1195.16259864
0.39200002 16741.40136044  1085.59622265
0.39300002 16550.47372328  1467.19956508
0.39400002 16366.85945228  1066.71011534
0.39500002 16187.89445725  1538.49756211
0.39600002 16014.97540059  1144.43019635
0.39700002 15847.81205825  1040.72586717
0.39800002 15686.39809966  1220.48026197
0.39900002 15530.41820276  1025.00764995
0.40000002 15379.70147448  1110.10690502
0.40100002 15234.62647037  1194.24242559
0.40200002 15094.87284519  1186.23063874
0.40300002 14959.64268671  906.55438977
0.40400002 14829.94350547  1171.19484384
0.40500002 14705.16376472  985.09896727
0.40600002 14585.19352394  1068.51132819
0.40700002 14469.64825045  1328.31377233
0.40800002 14359.13728992  880.93311448
0.40900002 14252.70455585  1051.84964606
0.41000002 14151.09466750  959.65653035
0.41100002 14053.67426112  1302.77566573
0.41200002 13960.09235098  1124.27609076
0.41300002 13871.31751905  1119.83151637
0.41400002 13786.18815061  1029.82830365
0.41500002 13705.16567619  1111.76309233
0.41600002 13627.48684784  1108.11914554
0.41700002 13553.89574844  934.81223406
0.41800002 13485.03823501  1017.04163188
0.41900002 13417.70869695  1352.50510074
0.42000002 13355.12011686  843.37587534
0.42100002 13296.21758133  841.65061278
0.42200002 13240.71234368  840.12323802
0.42300002 13187.84534915  1425.86990672
0.42400002 13137.98833787  1256.32019434
0.42500002 13091.80342001  920.22290600
0.42600002 13047.62104996  919.27018464
0.42700002 13007.77347302  1085.62882550
0.42800002 12969.58441647  918.05207642
0.42900002 12935.55589988  1168.08075311
0.43000002 12903.54527494  917.63566571
0.43100002 12873.22338347  1084.44038921
0.43200002 12846.63954103  917.82820550
0.43300002 12822.25652160  918.20183302
0.43400002 12800.23687854  1085.78014468
0.43500002 12780.40922623  835.83880300
0.43600002 12763.21744040  1171.28052001
0.43700002 12747.69114592  837.52334798
0.43800002 12734.28819478  922.40820910
0.43900002 12723.64520811  1175.66487294
0.44000002 12714.44209394  1009.27246125
0.44100002 12707.60308928  1179.51977464
0.44200002 12702.31925380  928.47606986
0.44300002 12699.09050035  930.33541414
0.44400002 12697.89910517  1356.13568870
0.44500002 12697.20995733  1019.33206368
0.44600002 12698.53943954  1021.72453173
0.44700002 12702.50977770  1109.69130677
0.44800002 12706.42018942  1026.93292838
0.44900002 12713.37560526  943.96818343
0.45000002 12721.21940551  1204.82674700
0.45100002 12730.04142793  1294.64527458
0.45200002 12740.38565773  1125.42202041
0.45300002 12751.81502985  1389.43783150
0.45400002 12764.73680428  1132.55132663
0.45500002 12778.79910117  1048.88387993
0.45600002 12793.72939056  1140.11324867
0.45700002 12809.83373329  968.03918110
0.45800002 12826.54450274  971.41839395
0.45900002 12844.52463785  1240.78113882
0.46000002 12863.99479692  1067.45433884
0.46100002 12883.18806846  1428.48796073
0.46200002 12904.21762075  985.81775186
0.46300002 12925.83674870  1259.49359249
0.46400002 12947.54429440  1174.01863454
0.46500002 12970.48462913  1269.29168597
0.46600002 12993.91376586  1183.29081317
0.46700002 13017.68726601  1279.37836514
0.46800002 13042.91116780  1101.08261297
0.46900002 13067.62643032  1105.52124840
0.47000002 13093.22105606  1110.04333375
0.47100002 13119.48754596  1021.74573851
0.47200002 13146.12168736  1119.26085351
0.47300002 13173.30450173  1217.60859281
0.47400002 13200.14641761  940.51047683
0.47500002 13227.74928952  1133.35361284
0.47600002 13256.16638338  1233.02237459
0.47700002 13283.88192765  1047.69981729
