# SAXS profile: number of points = 501, q_min = 0, q_max = 0.5, delta_q = 0.001
#    q    intensity    error
0.00000000 1646666.22097350 271.69992646
0.00100000 1646580.91582625 691.56400107
0.00200000 1646324.97445166 814.93088816
0.00300000 1645898.60524357 987.53919833
0.00400000 1645301.68465708 1604.16920350
0.00500000 1644534.85927339 1924.10586151
0.00600000 1643597.97918914 2416.08912777
0.00700000 1642491.77306085 2759.38629342
0.00800000 1641216.03027434 2880.33425474
0.00900000 1639772.16771297 3197.55586373
0.01000000 1638159.53784417 4054.44503123
0.01100000 1636379.65662225 2945.48351016
0.01200000 1634432.51627999 5099.42967437
0.01300000 1632319.38766114 6170.16755749
0.01400000 1630040.51059449 4034.35044257
0.01500000 1627597.28723992 4687.48039598
0.01600000 1624989.51768089 5801.21283746
0.01700000 1622219.25005775 5693.98982313
0.01800000 1619287.00699771 5999.45863089
0.01900000 1616193.88262501 5333.44005332
0.02000000 1612940.41116140 6604.99128249
0.02100000 1609529.52497849 7967.17150986
0.02200000 1605959.65579428 7756.78548990
0.02300000 1602234.02781616 7498.45559150
0.02400000 1598353.13242022 9590.11923181
0.02500000 1594319.37771969 6217.84585708
0.02600000 1590133.07510809 7728.04709849
0.02700000 1585796.31827431 7326.37932598
0.02800000 1581309.31266237 6878.69582554
0.02900000 1576675.51483695 9223.55218529
0.03000000 1571895.58298141 8771.17775621
0.03100000 1566970.95572506 9025.75312028
0.03200000 1561903.03984164 9277.70448397
0.03300000 1556695.75026605 13496.55277700
0.03400000 1551347.55756509 12216.86257952
0.03500000 1545862.65940458 10017.19049552
0.03600000 1540241.63793720 10258.00978272
0.03700000 1534487.39087423 8746.57853249
0.03800000 1528601.48045856 10730.78288944
0.03900000 1522586.36940930 10962.62236743
0.04000000 1516442.16886733 11191.34372484
0.04100000 1510172.95636309 10465.49907285
0.04200000 1503780.05630988 11639.25817582
0.04300000 1497265.38024299 10870.14716513
0.04400000 1490631.97067111 13080.29615011
0.04500000 1483881.65309678 13310.41904675
0.04600000 1477015.17916504 11454.25324690
0.04700000 1470036.71628635 12701.11781942
0.04800000 1462947.84465565 13978.46730608
0.04900000 1455750.92091507 16377.19862261
0.05000000 1448447.94688021 13296.75277154
0.05100000 1441042.50550020 13488.15847981
0.05200000 1433534.14119840 12536.25664899
0.05300000 1425927.82563084 12705.01751865
0.05400000 1418224.95883587 14040.42774723
0.05500000 1410428.81850101 14217.12315371
0.05600000 1402540.41302829 14390.06530917
0.05700000 1394564.26695575 14559.25162662
0.05800000 1386500.14770157 17178.73763214
0.05900000 1378351.74484354 22329.29930937
0.06000000 1370122.72106808 13790.28583182
0.06100000 1361814.50877928 12664.87552349
0.06200000 1353429.82809747 16626.88621538
0.06300000 1344971.92701920 14202.90421338
0.06400000 1336440.01173624 13030.29072381
0.06500000 1327840.91007240 14460.18818710
0.06600000 1319175.26586814 19886.56806343
0.06700000 1310444.73409705 14703.19060466
0.06800000 1301653.34257510 17513.74654415
0.06900000 1292804.32456144 17646.77985647
0.07000000 1283897.48352387 13673.50883984
0.07100000 1274937.27147246 22030.91708292
0.07200000 1265925.20719252 16634.25800177
0.07300000 1256865.18244177 20926.80626819
0.07400000 1247759.84055956 15441.02875056
0.07500000 1238609.54101051 16944.17931524
0.07600000 1229417.76860463 21299.66383962
0.07700000 1220188.49198061 17131.44723068
0.07800000 1210922.20576206 21524.14321682
0.07900000 1201621.58308846 17303.35160807
0.08000000 1192291.40273580 15934.97534509
0.08100000 1182932.29623980 20370.09509698
0.08200000 1173545.72253573 17532.77391741
0.08300000 1164135.17661359 19068.53508786
0.08400000 1154703.50090204 16194.71736031
0.08500000 1145252.65180760 22160.63985281
0.08600000 1135785.15194297 16304.19662165
0.08700000 1126303.00217186 14867.20032680
0.08800000 1116808.12477501 20873.14483233
0.08900000 1107303.93504299 17938.32459025
0.09000000 1097792.15720272 16483.35001471
0.09100000 1088274.93871150 19523.65331773
0.09200000 1078753.84643072 22572.92529719
0.09300000 1069233.33505833 16583.80980606
0.09400000 1059712.25212429 18121.08036297
0.09500000 1050194.54572489 24196.48347080
0.09600000 1040681.73148930 25741.26383843
0.09700000 1031178.95962372 18189.99770292
0.09800000 1021684.69317371 16689.22024768
0.09900000 1012202.92799140 22774.56695072
0.10000000 1002733.15700905 19748.83045602
0.10100000 993279.37144912 15197.17509792
0.10200000 983843.16144033 16720.41531515
0.10300000 974425.89738116 16721.14918564
0.10400000 965030.49026544 24318.76949877
0.10500000 955659.78621750 18233.98957893
0.10600001 946310.68715723 21263.60214095
0.10700001 936990.43353064 16697.17031125
0.10800001 927697.10775705 22751.77263848
0.10900001 918434.95520000 16669.59522145
0.11000001 909204.30776734 16652.07768056
0.11100001 900006.38488011 21168.15116884
0.11200001 890843.97061109 21139.72841780
0.11300001 881717.24329475 19600.57524125
0.11400001 872628.65446436 19568.69849774
0.11500001 863580.11069875 19534.18302383
0.11600001 854572.23453339 16497.51776456
0.11700001 845606.54779676 17960.68392106
0.11800001 836683.90531507 20908.73177859
0.11900001 827805.43103903 16390.54830659
0.12000001 818973.08450648 19323.67083917
0.12100001 810189.44188117 20757.05447882
0.12200001 801453.50121273 22180.22669100
0.12300001 792767.83581670 14745.48244092
0.12400001 784132.61743235 19113.23345048
0.12500001 775548.14227316 16123.64663761
0.12600001 767018.59385183 18995.21637186
0.12700001 758542.13869586 18933.21267410
0.12800001 750120.41154101 14514.83064739
0.12900001 741754.56144237 17357.05755583
0.13000001 733445.69204520 20177.09193921
0.13100001 725193.68313589 17230.60272352
0.13200001 716999.84463055 15734.56233215
0.13300001 708866.25902735 17097.85497378
0.13400001 700791.59971075 15610.13361951
0.13500001 692777.95273158 14132.67090205
0.13600001 684825.03775516 15480.47070837
0.13700001 676934.43227577 16815.05209061
0.13800001 669105.28072518 20926.26864147
0.13900001 661340.23549282 15276.96016032
0.14000001 653638.16332497 17971.78214818
0.14100001 646000.10175759 17887.74366131
0.14200001 638426.02437268 13694.23886869
0.14300001 630918.14101521 16353.39898647
0.14400001 623472.79599185 17628.69413821
0.14500001 616094.86351801 17540.22159177
0.14600001 608782.17993677 22820.20109146
0.14700001 601537.16001803 22702.01349008
0.14800001 594355.92414642 17269.01219080
0.14900001 587242.63472030 14534.25589507
0.15000001 580195.36498667 13141.42563700
0.15100001 573215.50028900 18297.03963257
0.15200001 566302.77265948 15595.97909497
0.15300001 559458.07773912 14215.83042618
0.15400001 552678.22356205 15419.72316505
0.15500001 545967.46205064 12775.63921491
0.15600001 539321.38837196 13971.12122514
0.15700001 532745.89685806 17676.50969203
0.15800001 526233.91940961 16315.88344138
0.15900001 519791.27276985 24949.98227061
0.16000001 513413.15381074 17358.49954970
0.16100001 507104.97418816 14787.18174534
0.16200001 500862.09150407 12246.07871536
0.16300001 494685.67372465 13386.19496292
0.16400001 488575.61809932 13301.47183071
0.16500001 482531.17880136 15619.53499522
0.16600001 476553.60824270 13131.43529510
0.16700001 470639.91556122 13046.13907533
0.16800001 464791.31244898 11782.46032691
0.16900001 459009.59025849 12875.21961469
0.17000001 453291.22866317 13952.30467708
0.17100001 447636.98350029 16168.64860754
0.17200001 442047.41170288 13765.35705047
0.17300001 436521.11238170 17089.80235680
0.17400001 431058.19328753 11315.27810817
0.17500001 425657.90498111 19103.52767777
0.17600001 420318.63928191 18971.08267998
0.17700001 415043.08581968 14406.14618921
0.17800001 409827.65000794 14305.03479918
0.17900001 404673.77518960 13111.43093544
0.18000001 399580.54014784 10848.61217745
0.18100001 394548.63229847 10771.17817054
0.18200001 389573.76948364 13901.94062072
0.18300001 384658.93095262 14863.22179414
0.18400001 379802.35329989 11593.46738216
0.18500001 375005.29421131 12555.17784333
0.18600001 370263.88236549 15578.85358653
0.18700001 365579.17146332 10309.33312233
0.18800001 360950.90938651 14326.14227041
0.18900001 356380.45071400 14219.58065533
0.19000001 351861.21314840 13105.07150291
0.19100001 347400.80925924 13006.68691323
0.19200001 342991.54153383 10922.56615625
0.19300001 338637.84057024 11825.23395149
0.19400001 334335.25704714 11735.16807689
0.19500001 330085.84148814 12615.88145784
0.19600001 325887.91053664 10592.98703258
0.19700001 321740.62801710 13377.97594516
0.19800001 317644.38936404 10429.85401767
0.19900001 313598.39639060 11289.54280361
0.20000001 309600.33124828 14001.67564244
0.20100001 305652.33255286 11113.51933687
0.20200001 301751.02454692 11944.81487124
0.20300001 297898.72194686 10938.84158691
0.20400001 294092.64212702 9043.34917285
0.20500001 290332.49163620 9868.40185716
0.20600001 286617.97271143 13349.23271003
0.20700001 282949.21065422 14124.82526353
0.20800001 279323.61016237 9632.47515178
0.20900001 275744.45429736 12160.33100935
0.21000001 272206.35305209 8615.33148137
0.21100001 268711.68665352 11963.04485535
0.21200001 265258.89372737 9322.52426077
0.21300001 261846.83559644 13448.45411202
0.21400001 258476.68927843 8335.87362332
0.21500001 255147.87443845 10746.82897943
0.21600001 251857.71945819 18035.53214310
0.21700001 248607.19897912 9755.34694917
0.21800001 245395.39911224 13704.10671136
0.21900001 242221.01802955 8792.62337020
0.22000001 239084.01896018 9510.76272393
0.22100001 235985.72018578 11001.65479526
0.22200001 232923.71170305 10128.68808234
0.22300001 229896.57675860 9269.43041322
0.22400001 226904.62820605 11487.04734611
0.22500001 223949.86390014 9110.28089426
0.22600001 221027.37402778 8278.58068569
0.22700001 218140.98077601 10444.59065347
0.22800001 215287.05453787 10353.15494233
0.22900001 212465.26550399 8063.05720719
0.23000001 209677.17461618 9444.90877725
0.23100001 206921.85501100 7920.96898443
0.23200001 204196.57356052 11418.67293353
0.23300001 201502.86682556 7780.02605609
0.23400001 198840.64976327 8410.95988279
0.23500001 196207.08157216 8334.87721939
0.23600001 193604.85830834 6882.65303839
0.23700001 191031.52076088 8183.79073647
0.23800001 188487.39495705 9460.18280035
0.23900001 185971.51396958 7364.47230153
0.24000001 183483.73537878 6632.93734768
0.24100001 181024.90941932 9199.68633185
0.24200001 178593.20165361 9113.61151148
0.24300001 176188.19525650 8383.03472685
0.24400001 173809.82847151 6387.51149848
0.24500001 171457.99035285 6326.80014331
0.24600001 169132.00822392 9399.51180169
0.24700001 166832.22818700 7447.39101857
0.24800001 164557.77060401 7375.47962738
0.24900001 162307.35053917 6695.17852647
0.25000001 160082.79072557 6027.11735595
0.25100001 157881.30636383 7161.49639547
0.25200001 155705.62601548 7681.73742289
0.25300001 153553.56122034 9360.62553485
0.25400001 151424.36380203 5791.98218945
0.25500001 149318.27187920 5733.82191144
0.25600001 147235.78634251 6243.53381525
0.25700001 145175.37868041 6180.11616283
0.25800001 143137.96292664 6117.00113509
0.25900001 141122.77373507 7705.30381051
0.26000001 139129.62605047 8715.08018816
0.26100001 137157.12162024 7007.35767514
0.26200001 135207.65798620 6400.73083193
0.26300001 133278.29441590 5277.82070860
0.26400001 131370.31259464 5744.16719000
0.26500001 129483.66748458 6716.31815023
0.26600001 127616.69820752 5622.15390557
0.26700001 125771.20298511 7584.00389888
0.26800001 123946.34703407 6501.60594133
0.26900001 122139.95757424 5441.33536742
0.27000001 120354.79361558 6849.39162879
0.27100001 118588.54803650 4838.41298886
0.27200001 116843.35578889 6698.62990438
0.27300001 115116.58087913 5204.42086784
0.27400001 113407.23090717 5145.85334594
0.27500001 111719.86964365 6012.76366878
0.27600001 110048.83089160 5487.03496793
0.27700001 108398.27748705 6328.29173919
0.27800001 106765.22119894 5808.56213423
0.27900001 105151.95366676 5299.65871563
0.28000001 103555.54969389 4364.86662618
0.28100001 101978.12235402 6039.14469163
0.28200001 100419.21035415 5541.63438568
0.28300001 98877.74576572  5897.06903658
0.28400001 97353.75383059  4578.06049057
0.28500001 95848.05497989  7812.57533119
0.28600001 94359.66057116  4468.40193785
0.28700001 92888.59574464  4815.34503132
0.28800001 91434.21321352  5549.14266259
0.28900001 89999.02858346  5480.94110017
0.29000001 88579.32402799  4253.13644452
0.29100001 87177.43926941  5727.55803111
0.29200001 85792.48373924  5655.86975823
0.29300001 84424.23295065  5956.97415898
0.29400001 83072.03809338  4778.71921753
0.29500001 81737.68076021  3992.06851730
0.29600001 80419.15389994  5015.74286617
0.29700001 79117.03081766  4597.49087845
0.29800001 77831.30470927  4188.88101775
0.29900001 76562.36787508  4823.42940447
0.30000001 75308.75646315  3400.19051528
0.30100001 74072.47514017  4026.57993924
0.30200001 72850.22756747  3642.14729966
0.30300001 71645.66454139  4573.85944085
0.30400001 70456.61745517  3545.72944129
0.30500001 69283.03658122  3498.10068259
0.30600001 68124.17122168  4391.96552659
0.30700001 66982.21702913  3094.57857325
0.30800001 65854.99488247  4883.80665170
0.30900001 64743.48548950  5419.02999203
0.31000001 63647.60280897  3859.90905510
0.31100001 62565.93000820  2928.08566301
0.31200001 61500.11571211  2887.43056939
0.31300001 60448.74301563  2847.13593084
0.31400001 59413.29408683  4210.91741778
0.31500001 58391.88157670  3044.55284956
0.31600002 57385.77076479  3820.17094069
0.31700002 56394.15442035  3766.00181050
0.31800002 55417.20616594  3182.05612871
0.31900002 54454.96782419  2875.22243726
0.32000002 53507.08247246  3091.63937165
0.32100002 52573.03613327  3554.98887166
0.32200002 51654.49453488  2502.66037872
0.32300002 50748.57482574  2713.01893865
0.32400002 49857.23747251  3645.81066281
0.32500002 48979.92732723  3353.16598360
0.32600002 48116.79309288  4012.21898204
0.32700002 47266.80410804  2558.07955946
0.32800002 46431.57762617  2978.81800366
0.32900002 45609.02324690  2709.17610915
0.33000002 44800.84219483  2891.67049640
0.33100002 44003.74349114  2410.52518259
0.33200002 43223.13057424  2590.79456931
0.33300002 42454.21934788  2765.04343707
0.33400002 41698.70979952  2514.43231998
0.33500002 40955.53221414  2476.99070561
0.33600002 40226.00677639  3050.13710826
0.33700002 39508.51592648  2804.31459327
0.33800002 38804.61619933  2170.53630990
0.33900002 38112.38379401  2138.10483210
0.34000002 37433.23174223  2872.06484144
0.34100002 36766.04049838  2451.92735696
0.34200002 36111.76804211  2043.74560913
0.34300002 35468.80500208  2196.22850974
0.34400002 34839.03285700  2704.38005360
0.34500002 34220.32670518  1953.63854412
0.34600002 33614.41235778  1924.59327069
0.34700002 33018.61463053  2413.00047148
0.34800002 32435.85001843  2037.62019466
0.34900002 31864.00373132  2174.71835766
0.35000002 31303.59869870  1648.13454955
0.35100002 30755.05115136  1786.25345547
0.35200002 30216.40476869  2399.93806242
0.35300002 29689.31188791  2049.45329669
0.35400002 29173.26993301  2019.51970676
0.35500002 28668.19231189  2449.41046714
0.35600002 28172.83832976  1659.52112042
0.35700002 27688.76245195  2379.01858255
0.35800002 27215.25842013  1758.65008241
0.35900002 26752.15148991  1589.07787377
0.36000002 26299.35253538  1851.34300942
0.36100002 25855.92054684  1965.56717307
0.36200002 25423.46916018  1661.16955361
0.36300002 25000.04724489  1774.50343750
0.36400002 24586.26483148  1480.70786961
0.36500002 24181.96275068  1593.10778148
0.36600002 23787.47238426  2619.00083356
0.36700002 23401.88893431  1420.96276340
0.36800002 23026.86813340  1401.99093271
0.36900002 22660.00551058  1509.15643849
0.37000002 22301.68548388  1365.19774156
0.37100002 21952.19231301  1347.42562800
0.37200002 21612.18520873  1692.88254759
0.37300002 21280.28786945  1313.20662663
0.37400002 20956.91818330  1296.70937402
0.37500002 20642.27679716  1513.49180646
0.37600002 20336.10025441  1610.00913341
0.37700002 20037.29744198  1817.78371005
0.37800002 19746.53915288  1683.88620603
0.37900002 19464.33126441  1442.30701502
0.38000002 19189.77002092  1316.03449038
0.38100002 18921.83074894  1301.06514393
0.38200002 18662.39208697  1179.36992381
0.38300002 18409.77523358  1590.60465553
0.38400002 18165.11194549  1258.84231746
0.38500002 17926.68652065  1349.34175833
0.38600002 17696.26194593  1540.90208194
0.38700002 17472.03989227  1321.93460088
0.38800002 17254.90024145  1107.50582447
0.38900002 17043.75886032  1096.76593462
0.39000002 16840.42413660  1086.46001465
0.39100002 16642.57962022  1370.01721924
0.39200002 16451.46213656  1357.73923445
0.39300002 16266.32470592  1153.60780280
0.39400002 16088.47731367  1143.89079120
0.39500002 15915.31708074  1039.90686732
0.39600002 15748.35817111  1594.28511499
0.39700002 15586.99672611  1023.59812350
0.39800002 15431.70785490  923.58775887
0.39900002 15281.59053468  1008.58502307
0.40000002 15136.81517477  1001.52742349
0.40100002 14997.81082269  1085.24164255
0.40200002 14863.93752766  1437.64010579
0.40300002 14734.69280996  1339.38363989
0.40400002 14610.88332505  976.37232446
0.40500002 14492.19629820  1059.08975565
0.40600002 14378.15113857  1141.12201918
0.40700002 14268.80155294  1047.90083570
0.40800002 14164.01255302  1042.75465356
0.40900002 14063.67457248  951.40762991
0.41000002 13968.20804925  1205.59609385
0.41100002 13876.65754633  1114.85072010
0.41200002 13789.07636138  1366.77331370
0.41300002 13706.37219613  1276.74863057
0.41400002 13627.05814927  1017.94129198
0.41500002 13551.96770374  1099.33567222
0.41600002 13480.16948513  1349.09542600
0.41700002 13412.50375684  1093.25323302
0.41800002 13349.50105853  922.91779941
0.41900002 13288.07265178  920.86347840
0.42000002 13231.20927698  1503.99162978
0.42100002 13178.25787738  1001.02051580
0.42200002 13128.38792901  1249.49438035
0.42300002 13081.25851399  998.36169710
0.42400002 13037.24219255  1080.46149791
0.42500002 12996.77341194  830.49386038
0.42600002 12958.21321514  912.97095533
0.42700002 12924.06707506  995.67017464
0.42800002 12891.70224492  912.53918665
0.42900002 12863.16247736  1410.44583248
0.43000002 12836.75349947  1078.86499899
0.43100002 12812.02514256  1826.48239088
0.43200002 12790.91150535  1163.07763830
0.43300002 12772.03499269  831.45951743
0.43400002 12755.41404846  998.74896732
0.43500002 12741.03195763  1083.24258837
0.43600002 12729.33108674  834.40769228
0.43700002 12719.15302963  1002.77807238
0.43800002 12711.00083908  1088.12527840
0.43900002 12705.61174944  838.57041520
0.44000002 12701.73309104  1008.26362055
0.44100002 12700.06317796  1263.02134290
0.44200002 12699.98544178  843.91407260
0.44300002 12701.95169730  1015.14002776
0.44400002 12705.74148229  848.10828414
0.44500002 12710.05066201  850.30242959
0.44600002 12716.58611750  1023.17656750
0.44700002 12725.42181463  1197.20774106
0.44800002 12734.44469389  857.66489078
0.44900002 12746.48391805  860.38770524
0.45000002 12759.11483378  949.46957535
0.45100002 12772.84328549  1212.39834212
0.45200002 12788.11376130  1129.63808264
0.45300002 12804.32679570  1482.35698339
0.45400002 12822.10546754  962.61961360
0.45500002 12840.89744767  966.14916975
0.45600002 12860.63449790  1057.91584394
0.45700002 12881.42039630  1238.93507243
0.45800002 12902.86339641  977.19840564
0.45900002 12925.35059512  1070.21908000
0.46000002 12949.43118948  1253.63449287
0.46100002 12973.28338358  988.95343920
0.46200002 12998.73826123  1263.86738104
0.46300002 13025.01710145  1359.81184984
0.46400002 13051.14508515  1001.34915412
0.46500002 13078.63737390  1005.61647534
0.46600002 13106.36364098  1377.15122485
0.46700002 13134.53553614  1198.65776984
0.46800002 13164.16703838  1018.70911455
0.46900002 13193.25327045  1395.18659948
0.47000002 13223.17763539  1401.32631633
0.47100002 13253.61487621  1032.19157548
0.47200002 13284.62945374  1131.05340530
0.47300002 13316.13907133  1041.45528613
0.47400002 13347.22095046  1616.68221425
0.47500002 13379.08731447  1241.84694339
0.47600002 13411.54198115  1343.43422393
0.47700002 13443.55386934  1253.07371555
