# SAXS profile: number of points = 501, q_min = 0, q_max = 0.5, delta_q = 0.001
#    q    intensity    error
0.00000000 1628779.37420969 366.47535920
0.00100000 1628694.45347547 635.19085194
0.00200000 1628439.66178199 952.63723231
0.00300000 1628015.21790494 1465.21374831
0.00400000 1627420.97317383 1586.73550914
0.00500000 1626657.60292038 1610.39109063
0.00600000 1625724.93015007 1877.71237077
0.00700000 1624623.71709718 2144.50339569
0.00800000 1623353.72121238 2410.68037778
0.00900000 1621916.35080343 2919.44955625
0.01000000 1620311.01212158 3475.56727107
0.01100000 1618539.15904639 3787.38179707
0.01200000 1616600.80437800 3782.84604810
0.01300000 1614497.24396869 3729.48879806
0.01400000 1612228.67727460 6166.77496395
0.01500000 1609796.52758419 5022.56538971
0.01600000 1607200.58176976 4918.03400007
0.01700000 1604442.90830750 5198.39525611
0.01800000 1601524.01922316 6390.08112424
0.01900000 1598444.98306191 7672.53626490
0.02000000 1595206.34976607 6029.88027488
0.02100000 1591811.03336766 9980.65563172
0.02200000 1588257.45924640 6027.43733168
0.02300000 1584548.94853948 9127.00235903
0.02400000 1580685.89417706 7705.84408548
0.02500000 1576670.62948449 6763.91730940
0.02600000 1572503.65297954 8916.09612020
0.02700000 1568186.89000196 10538.21638348
0.02800000 1563720.64449103 6802.18511548
0.02900000 1559108.37658823 9120.78442181
0.03000000 1554350.61366696 9396.04989151
0.03100000 1549448.95027020 9668.56189457
0.03200000 1544404.70653244 10702.72510922
0.03300000 1539221.72668233 11775.04675195
0.03400000 1533898.59626215 12079.45200291
0.03500000 1528439.54661049 13205.71829253
0.03600000 1522844.95849226 9296.96890124
0.03700000 1517117.94327166 15565.63081784
0.03800000 1511259.98007554 10609.04555111
0.03900000 1505273.39728743 11741.13304257
0.04000000 1499158.49665520 15673.70280883
0.04100000 1492919.34455035 9405.39230676
0.04200000 1486557.08480027 10547.12300597
0.04300000 1480073.75434912 9768.48723214
0.04400000 1473472.36164663 9945.93890302
0.04500000 1466754.80509002 15180.91293806
0.04600000 1459921.69889355 15438.67268349
0.04700000 1452977.36779393 13599.86879505
0.04800000 1445923.13207100 14878.54972128
0.04900000 1438761.52829977 10790.71196453
0.05000000 1431494.60975745 18616.58826680
0.05100000 1424125.91582541 15551.45572526
0.05200000 1416654.80770974 11262.40624613
0.05300000 1409086.53288466 14837.68188298
0.05400000 1401422.15031989 12717.90660724
0.05500000 1393665.21731729 17560.18255737
0.05600000 1385816.61296447 15403.35237188
0.05700000 1377880.90076417 17981.34659432
0.05800000 1369857.88267831 13335.56711054
0.05900000 1361751.19834669 24511.52271507
0.06000000 1353564.52579954 13623.62758865
0.06100000 1345299.16489499 16264.66766365
0.06200000 1336957.95458554 15161.10391368
0.06300000 1328544.09822444 15304.82872713
0.06400000 1320056.78250747 20592.88677018
0.06500000 1311503.02170930 16879.04467896
0.06600000 1302883.18363602 17022.16959065
0.06700000 1294199.01564101 17161.07975052
0.06800000 1285454.44566501 13304.45413540
0.06900000 1276652.89141492 14745.34158620
0.07000000 1267794.14970777 13502.00832667
0.07100000 1258882.71254839 16315.12071879
0.07200000 1249919.72753431 19161.27032075
0.07300000 1240909.28331401 13774.09369018
0.07400000 1231854.04334656 19401.70209195
0.07500000 1222754.51566944 20909.10319801
0.07600000 1213613.94254685 15418.96586291
0.07700000 1204436.40765269 14091.90663028
0.07800000 1195222.44932847 14163.38668875
0.07900000 1185974.46877193 15654.86372206
0.08000000 1176697.57290217 17156.25141773
0.08100000 1167392.12115094 22974.27802216
0.08200000 1158059.71220758 18743.19732161
0.08300000 1148703.74520829 21710.50180335
0.08400000 1139327.29513060 17431.70843372
0.08500000 1129932.05637689 18948.96147500
0.08600000 1120520.60432752 16085.07403034
0.08700000 1111094.93408582 17599.74458236
0.08800000 1101656.91643865 16177.83257767
0.08900000 1092210.12505665 14744.83738083
0.09000000 1082756.10244434 22169.43223897
0.09100000 1073296.98016176 17773.79882651
0.09200000 1063834.54033231 16324.54178844
0.09300000 1054373.04028243 16353.32662326
0.09400000 1044911.44625591 17867.98657073
0.09500000 1035453.55683389 22365.79787886
0.09600000 1026000.90131937 22392.47072392
0.09700000 1016558.73477937 19426.43833492
0.09800000 1007125.45252748 19442.55777519
0.09900000 997704.86295063 14965.57364798
0.10000000 988296.95311518 17967.23945258
0.10100000 978905.22796386 14977.25069225
0.10200000 969531.11053519 19473.03327104
0.10300000 960176.81024563 14978.75894444
0.10400000 950844.40949224 19468.54020025
0.10500000 941537.06221865 20958.61599108
0.10600001 932251.58183274 16458.90245171
0.10700001 922995.41635037 20933.53702791
0.10800001 913766.26119817 19422.10279580
0.10900001 904568.80193509 23880.61749504
0.11000001 895403.01694056 14908.46093379
0.11100001 886270.20833493 23822.94432147
0.11200001 877173.35984471 17841.70697918
0.11300001 868112.39644128 20782.61174927
0.11400001 859089.82919240 19265.09032673
0.11500001 850107.33001253 16271.05506261
0.11600001 841166.05604878 19191.20447250
0.11700001 832267.18896282 17677.35592608
0.11800001 823411.59070275 16167.68734492
0.11900001 814600.23755734 21994.20745001
0.12000001 805835.28685836 14625.91114543
0.12100001 797119.23187554 16046.01089355
0.12200001 788451.22325127 17456.31090517
0.12300001 779833.57116166 18856.37663910
0.12400001 771266.58692720 15907.37410489
0.12500001 762750.68960058 17299.18645529
0.12600001 754289.70328212 17243.06342958
0.12700001 745882.00227818 14320.93511863
0.12800001 737529.28744791 25688.14629247
0.12900001 729232.63701375 17064.04451039
0.13000001 720992.95480731 17001.01467570
0.13100001 712810.41209971 18347.74087232
0.13200001 704686.21213629 18276.03777329
0.13300001 696622.23588089 18202.73988170
0.13400001 688617.36430784 13944.50228466
0.13500001 680673.66747886 16662.89216551
0.13600001 672790.90764379 16591.02456478
0.13700001 664970.56747651 13764.89139582
0.13800001 657211.84262268 13702.86756485
0.13900001 649517.00335115 16367.82925633
0.14000001 641885.25554959 14933.46117463
0.14100001 634317.72342585 20266.45221928
0.14200001 626814.39460310 14789.68633822
0.14300001 619377.13465741 14716.40141360
0.14400001 612002.49153806 17304.37126448
0.14500001 604695.33451018 17215.67698560
0.14600001 597453.56127447 15808.62197708
0.14700001 590279.55593945 13104.20676007
0.14800001 583169.17721943 14337.21489835
0.14900001 576126.75314325 18147.99358025
0.15000001 569150.61513172 15469.51444918
0.15100001 562241.75513836 14101.02388423
0.15200001 555400.04352713 16570.36108054
0.15300001 548626.37095539 15207.92372053
0.15400001 541917.57865211 16379.45958772
0.15500001 535277.91236528 13778.05411451
0.15600001 528702.74266482 16186.23523059
0.15700001 522198.22243951 12376.09845593
0.15800001 515757.19929847 14760.97174062
0.15900001 509385.70226991 14670.30891782
0.16000001 503078.48897807 15794.14990699
0.16100001 496841.23926498 14487.89122086
0.16200001 490669.04770564 15595.91641755
0.16300001 484563.45659799 16688.36623306
0.16400001 478523.99255611 11843.46937489
0.16500001 472550.36229723 14119.80549206
0.16600001 466643.37374983 15196.24218362
0.16700001 460800.20190966 12773.38220003
0.16800001 455021.99434030 12688.28891127
0.16900001 449310.67046114 12603.16490153
0.17000001 443662.46535688 12517.93705114
0.17100001 438078.49247181 15823.39589528
0.17200001 432559.09513069 12347.39995359
0.17300001 427102.64970889 12262.11765221
0.17400001 421709.54955188 11069.87619852
0.17500001 416379.08816799 10992.40844678
0.17600001 411109.52071624 17463.93326483
0.17700001 405903.45737728 11921.38510622
0.17800001 400757.39467335 16140.50483282
0.17900001 395672.64789539 14956.42679689
0.18000001 390648.65333931 11666.72258306
0.18100001 385685.74781709 12635.06569532
0.18200001 380779.68099322 11497.64301071
0.18300001 375933.45883094 10375.76395388
0.18400001 371145.38163952 16478.85572327
0.18500001 366416.63691004 13289.93204857
0.18600001 361743.40720598 12176.28366180
0.18700001 357126.75215346 11078.07237518
0.18800001 352566.29901788 13993.35706915
0.18900001 348063.41340614 13887.73085106
0.19000001 343611.81193195 11813.37465239
0.19100001 339218.66479939 10746.44780861
0.19200001 334876.35923140 13572.53948097
0.19300001 330589.66010145 10582.17551988
0.19400001 326353.62062526 13364.18139611
0.19500001 322170.95639212 12313.37453518
0.19600001 318039.18522989 11277.67004119
0.19700001 313957.97667080 12121.91805211
0.19800001 309927.54245217 10176.47133734
0.19900001 305947.16120154 10096.25679680
0.20000001 302014.64593470 10926.89040633
0.20100001 298131.83919298 13550.09273173
0.20200001 294295.43476170 9857.42605324
0.20300001 290507.92459624 9778.49720409
0.20400001 286766.37193944 12345.29289550
0.20500001 283070.40166384 11370.93857231
0.20600001 279419.94105496 11278.78645381
0.20700001 275814.92635331 12047.59655259
0.20800001 272252.92207309 9388.64246149
0.20900001 268736.90564891 11004.77680653
0.21000001 265261.88417978 9235.09293428
0.21100001 261830.00852907 8326.19466483
0.21200001 258439.66999771 10734.29220081
0.21300001 255089.97526526 8188.38859313
0.21400001 251781.86767910 9743.95873984
0.21500001 248514.65512207 9662.25024795
0.21600001 245286.00189061 10379.27766072
0.21700001 242096.61643493 8708.21570489
0.21800001 238945.70420648 10989.11345603
0.21900001 235831.91969290 9338.94446140
0.22000001 232755.24081368 8487.42025758
0.22100001 229716.93353668 9944.44652301
0.22200001 226714.80092164 12133.77671907
0.22300001 223747.02504200 10525.06055566
0.22400001 220814.39831905 10433.48081394
0.22500001 217918.47355566 10342.41124402
0.22600001 215054.53278659 8054.86790642
0.22700001 212226.33385643 9435.58324946
0.22800001 209430.56978419 8632.72849475
0.22900001 206666.40562717 10694.98699698
0.23000001 203935.62137780 9186.28049940
0.23100001 201237.36514989 11204.89702146
0.23200001 198568.92321410 11103.97471128
0.23300001 195931.64300548 6877.20099475
0.23400001 193325.58746661 9540.61819270
0.23500001 190747.94922617 7427.72549417
0.23600001 188201.18952644 7359.60786452
0.23700001 185683.11639282 6628.88756876
0.23800001 183193.94054429 7224.25338706
0.23900001 180732.66224124 9759.56422265
0.24000001 178299.16631996 7734.61820081
0.24100001 175894.19284332 6384.95950223
0.24200001 173516.10318265 8222.06093823
0.24300001 171164.62435772 8770.47576696
0.24400001 168839.14155824 6204.83874578
0.24500001 166539.99258662 11676.11943258
0.24600001 164266.41343612 6694.67799628
0.24700001 162018.71937174 6629.80631032
0.24800001 159795.79324854 6565.21047619
0.24900001 157596.73532778 8273.82899612
0.25000001 155423.18681762 6436.85158657
0.25100001 153272.46580497 5793.69948152
0.25200001 151147.15203025 5736.03469092
0.25300001 149045.12229217 7382.20525639
0.25400001 146965.71073224 6745.72644176
0.25500001 144908.99503603 7790.30794171
0.25600001 142875.56280432 7160.20916871
0.25700001 140863.77398417 7086.85680445
0.25800001 138874.75480910 5395.28447961
0.25900001 136907.68510885 5873.33996907
0.26000001 134962.21133862 6868.90207108
0.26100001 133037.11714211 6274.03074128
0.26200001 131134.67979926 5173.26336286
0.26300001 129252.10099104 6653.89847386
0.26400001 127390.42960571 7595.65472465
0.26500001 125549.79264889 6512.26805285
0.26600001 123728.52945780 4955.32783927
0.26700001 121928.42329818 5881.82741823
0.26800001 120148.60632426 5332.79614405
0.26900001 118386.96630073 5274.13959828
0.27000001 116646.17686598 5690.00077679
0.27100001 114923.92520193 8908.90310325
0.27200001 113222.36660279 6027.39297134
0.27300001 111538.96101868 5501.10181778
0.27400001 109872.63252718 6798.36945935
0.27500001 108227.90796163 6272.88984232
0.27600001 106599.30207242 4429.20121073
0.27700001 104990.65595984 4815.92161680
0.27800001 103399.34668855 5192.71543646
0.27900001 101827.47787811 4276.75427329
0.28000001 100272.03430195 5917.05302420
0.28100001 98735.24863776  5429.45157956
0.28200001 97216.72102479  4539.53500311
0.28300001 95715.27664908  4485.21807606
0.28400001 94230.91473739  5639.72051397
0.28500001 92764.62020550  5571.44335325
0.28600001 91315.22010226  5110.45653491
0.28700001 89882.86399403  3882.93990833
0.28800001 88466.90206170  5369.05654026
0.28900001 87069.65596825  4166.28323529
0.29000001 85687.72955440  4862.35044372
0.29100001 84323.17491177  4432.02628315
0.29200001 82975.31800870  4376.11847892
0.29300001 81643.78013020  3960.53996159
0.29400001 80327.97037710  6042.67185766
0.29500001 79029.67835904  3859.80967377
0.29600001 77746.90455405  4849.07466658
0.29700001 76480.28005510  4102.40241636
0.29800001 75229.63791574  4386.26424632
0.29900001 73995.41617231  3662.77327392
0.30000001 72776.31929676  3614.43606898
0.30100001 71574.27441845  3566.54626311
0.30200001 70385.76424376  4158.74307722
0.30300001 69214.69324131  5049.90425795
0.30400001 68058.97546455  3113.69827491
0.30500001 66918.37369406  3378.70884777
0.30600001 65791.98812450  4241.60967520
0.30700001 64682.32095006  3287.15570631
0.30800001 63587.12100420  3241.98951789
0.30900001 62507.18990909  4069.21825574
0.31000001 61442.64637489  2866.29958909
0.31100001 60391.90882291  3391.60976007
0.31200001 59356.98056372  2786.81036941
0.31300001 58335.87905422  3022.38203690
0.31400001 57330.59190337  2708.87059569
0.31500001 56339.05366378  4539.80115917
0.31600002 55362.51168329  3948.73133277
0.31700002 54400.10511079  3373.35067764
0.31800002 53451.99877759  3324.98174139
0.31900002 52518.36151455  2772.96961927
0.32000002 51598.84076487  2484.48430047
0.32100002 50692.90021113  2938.16063536
0.32200002 49802.01727934  4584.52491773
0.32300002 48923.63612390  3566.53324231
0.32400002 48059.45682399  2811.47835733
0.32500002 47208.93000808  2539.36846538
0.32600002 46372.39996774  2729.47959135
0.32700002 45548.75963639  2465.09898825
0.32800002 44739.56038871  2428.68715071
0.32900002 43942.73936199  2610.19884170
0.33000002 43160.09581813  2785.76851650
0.33100002 42388.01903557  2322.01579273
0.33200002 41632.42659631  2079.53980696
0.33300002 40888.08895665  2048.49335373
0.33400002 40156.98051746  2219.67720322
0.33500002 39437.84274570  2385.20084221
0.33600002 38732.15966181  2153.70183999
0.33700002 38038.23076315  2121.39223012
0.33800002 37357.43813910  3799.25163867
0.33900002 36688.31202426  1871.10400185
0.34000002 36031.84069349  2580.24023426
0.34100002 35387.15352580  1996.89716803
0.34200002 34755.06137163  2503.40718916
0.34300002 34134.09409327  1761.31933863
0.34400002 33525.89551985  1734.96517532
0.34500002 32928.69112636  2392.59881055
0.34600002 32344.05618986  2020.20984530
0.34700002 31769.10765683  1990.01699787
0.34800002 31207.09875333  1797.06086682
0.34900002 30655.65519945  1931.30636904
0.35000002 30115.34238812  1902.68742220
0.35100002 29586.87366945  2030.84310486
0.35200002 29067.76496341  1693.05205048
0.35300002 28560.13388561  1819.85181739
0.35400002 28063.40411520  1942.68924189
0.35500002 27577.16495867  1472.62067854
0.35600002 27100.52311495  1741.47969785
0.35700002 26634.94571459  2145.44497893
0.35800002 26179.82292686  1973.69694394
0.35900002 25734.64703935  1528.63810654
0.36000002 25299.58613054  1780.96445002
0.36100002 24873.72408666  2025.96492282
0.36200002 24458.62558237  1331.77222604
0.36300002 24052.29088080  1444.58065873
0.36400002 23655.34545792  1295.13022517
0.36500002 23267.77474172  1405.14098321
0.36600002 22889.70910479  1512.09425509
0.36700002 22520.27425738  1491.74303747
0.36800002 22161.23309290  2085.26132665
0.36900002 21810.12332403  1331.50809200
0.37000002 21467.38748745  1433.59220432
0.37100002 21133.25105360  1533.00610405
0.37200002 20808.41612856  1397.07712505
0.37300002 20491.48677534  1954.27318634
0.37400002 20182.80954263  1589.39632677
0.37500002 19882.75083060  1794.21951995
0.37600002 19590.84633521  1440.22113656
0.37700002 19306.19669081  1313.59368507
0.37800002 19029.30317805  1189.99753061
0.37900002 18760.73828432  1283.23455944
0.38000002 18499.73909190  1903.06825054
0.38100002 18245.12901132  1359.07972444
0.38200002 17998.83728882  1137.43657635
0.38300002 17759.19251921  1125.22249132
0.38400002 17527.26168169  1113.41935108
0.38500002 17301.38380427  1202.10020367
0.38600002 17083.20029258  1090.84780636
0.38700002 16871.34808829  981.91250526
0.38800002 16666.12032980  1166.96180078
0.38900002 16466.85047923  1059.64187854
0.39000002 16275.09856921  1049.98803394
0.39100002 16088.71383531  1040.61806017
0.39200002 15908.91895336  1031.61389840
0.39300002 15734.88913801  1580.88438659
0.39400002 15568.01457663  922.40490737
0.39500002 15405.59242811  1006.60145694
0.39600002 15249.25207644  998.90230459
0.39700002 15098.32708225  901.37016952
0.39800002 14953.25582589  894.95240358
0.39900002 14813.32621664  1066.55953813
0.40000002 14678.46824194  971.20089724
0.40100002 14549.20577335  1228.24400958
0.40200002 14424.96335314  1046.38689121
0.40300002 14305.16117607  1213.64993168
0.40400002 14190.72784134  1034.50410865
0.40500002 14081.12040867  1286.31041028
0.40600002 13976.18260756  1194.54438407
0.40700002 13875.51906580  1019.01816847
0.40800002 13779.55223422  1098.98824051
0.40900002 13687.71838710  1346.87155311
0.41000002 13600.56966022  922.32267521
0.41100002 13517.36089703  1336.59670883
0.41200002 13437.85920939  998.97050096
0.41300002 13363.10740515  912.83391010
0.41400002 13291.60462569  1075.62315530
0.41500002 13224.23158617  907.71129909
0.41600002 13160.02277936  1317.05514217
0.41700002 13099.74848434  985.62512266
0.41800002 13044.09921168  1147.75034402
0.41900002 12989.79886311  982.02884058
0.42000002 12939.93727701  980.58849332
0.42100002 12893.88269427  1142.65593851
0.42200002 12850.80980491  815.38392076
0.42300002 12810.38895706  1059.16300916
0.42400002 12772.82564841  977.12120840
0.42500002 12738.81568910  1058.21346944
0.42600002 12706.50257405  1139.39213981
0.42700002 12678.56852266  976.75696527
0.42800002 12652.07808797  976.99351625
0.42900002 12629.54317625  896.06613082
0.43000002 12608.92419368  1059.71708407
0.43100002 12589.86926818  1223.73535086
0.43200002 12574.31479312  898.37196297
0.43300002 12560.90865941  1063.02975022
0.43400002 12549.64999559  982.63764122
0.43500002 12540.55294515  902.16742163
0.43600002 12533.92981911  903.75905244
0.43700002 12528.77406857  1152.39669344
0.43800002 12525.64165127  824.81354182
0.43900002 12525.04546633  991.98364794
0.44000002 12525.87725309  994.30418347
0.44100002 12528.85087038  830.66285207
0.44200002 12533.31119573  1082.69013895
0.44300002 12539.71954333  835.14536116
0.44400002 12547.88896447  837.57162807
0.44500002 12556.47584411  1176.03958329
0.44600002 12567.12535986  1263.93869297
0.44700002 12580.06856434  1014.45677711
0.44800002 12593.02075713  1187.39598346
0.44900002 12608.93605428  1361.76515840
0.45000002 12625.37414041  1195.74924151
0.45100002 12642.81461795  1028.61944607
0.45200002 12661.64136396  1032.43028575
0.45300002 12681.44169401  1122.68808638
0.45400002 12702.65888517  866.95651000
0.45500002 12724.82065545  957.41555149
0.45600002 12747.82506423  1136.02248444
0.45700002 12771.82058485  965.16652734
0.45800002 12796.35526283  881.02910160
0.45900002 12821.99515473  1061.66124913
0.46000002 12849.04640316  1155.06508116
0.46100002 12875.81377895  1159.98211832
0.46200002 12904.10023572  1165.04674500
0.46300002 12933.16718755  1620.26726205
0.46400002 12961.96746920  1175.32645598
0.46500002 12992.06940968  908.14569478
0.46600002 13022.38823169  1094.66200664
0.46700002 13053.14548731  1007.96394230
0.46800002 13085.17218234  1104.65028799
0.46900002 13116.58154120  1387.07856372
0.47000002 13148.81750073  928.96400046
0.47100002 13181.57871530  1306.55814419
0.47200002 13214.69725384  1031.34109606
0.47300002 13248.29657823  1224.54011077
0.47400002 13281.46409662  1135.56523408
0.47500002 13315.28987604  950.71174221
0.47600002 13349.69619376  1050.68788873
0.47700002 13383.56705011  1151.52216357
0.47800002 13417.76717622  1060.47327904
