# SAXS profile: number of points = 501, q_min = 0, q_max = 0.5, delta_q = 0.001
#    q    intensity    error
0.00000000 1628779.37420969 268.74859674
0.00100000 1628694.43464250 586.33001040
0.00200000 1628439.59237584 1392.31589557
0.00300000 1628015.05616961 976.80906850
0.00400000 1627420.68688159 1830.84834231
0.00500000 1626657.15655335 1610.39064873
0.00600000 1625724.28958473 1877.71163092
0.00700000 1624622.84107197 1949.54749031
0.00800000 1623352.59394826 2848.98392266
0.00900000 1621914.93437076 3406.02150778
0.01000000 1620309.24729861 3208.21244818
0.01100000 1618537.00158299 2913.36672970
0.01200000 1616598.27617952 3152.36677676
0.01300000 1614494.27491122 4746.61337759
0.01400000 1612225.24263657 3627.50695674
0.01500000 1609792.56036772 4636.20278030
0.01600000 1607196.08926331 5737.69029516
0.01700000 1604437.83224949 6064.77527796
0.01800000 1601518.30992772 5477.19286641
0.01900000 1598438.63217057 5274.84772418
0.02000000 1595199.33481240 5527.36594516
0.02100000 1591803.30019837 5252.95112882
0.02200000 1588248.99502121 6027.40520994
0.02300000 1584539.64908148 6274.77729598
0.02400000 1580675.81426660 5927.53457378
0.02500000 1576659.71959102 6148.97318723
0.02600000 1572491.83536623 7005.45144697
0.02700000 1568174.20866013 7244.96517584
0.02800000 1563706.98662794 8842.76341491
0.02900000 1559093.70314847 7717.51418493
0.03000000 1554334.99793797 7950.42387990
0.03100000 1549432.28069743 7437.27528956
0.03200000 1544386.93811999 9173.65883495
0.03300000 1539202.84712805 9419.92185869
0.03400000 1533878.58640414 8858.14924520
0.03500000 1528418.39056971 8253.45969021
0.03600000 1522822.66736662 10141.99943336
0.03700000 1517094.48652824 9512.18287045
0.03800000 1511235.13939325 12377.01636443
0.03900000 1505247.34782018 12644.07830724
0.04000000 1499131.09191036 9219.65664248
0.04100000 1492890.62685629 10345.73252381
0.04200000 1486526.95593794 10546.90924168
0.04300000 1480042.25172464 14652.41897221
0.04400000 1473439.51441948 9945.71718423
0.04500000 1466720.41663007 11132.40847949
0.04600000 1459885.82080822 12350.63461818
0.04700000 1452939.96833790 10461.16825856
0.04800000 1445884.25450127 14878.14967107
0.04900000 1438721.09298627 12948.49043960
0.05000000 1431452.59357288 13140.73542091
0.05100000 1424082.17162418 13329.40974734
0.05200000 1416609.56289725 15766.86516980
0.05300000 1409039.51289320 14837.18676244
0.05400000 1401373.50144364 12717.46511867
0.05500000 1393614.88170227 15218.27521811
0.05600000 1385764.57200901 16587.60270099
0.05700000 1377827.07887615 11987.09614576
0.05800000 1369802.25632083 12122.75053448
0.05900000 1361693.74188160 14706.29309919
0.06000000 1353505.29549048 16099.94624203
0.06100000 1345238.06890428 15012.85755054
0.06200000 1336894.99964183 12633.65833716
0.06300000 1328479.28680635 14028.74192459
0.06400000 1319990.15328526 12869.90459641
0.06500000 1311434.38739471 15579.84125104
0.06600000 1302812.60209710 14402.59399006
0.06700000 1294126.46100144 15840.10862396
0.06800000 1285380.04385675 18625.15770731
0.06900000 1276576.39407799 14744.45804192
0.07000000 1267715.72650640 16201.40774344
0.07100000 1258802.12688293 21752.10177136
0.07200000 1249837.04520382 20528.57442917
0.07300000 1240824.62406925 13773.15397252
0.07400000 1231767.25364322 20786.07337935
0.07500000 1222665.60203392 16726.06621982
0.07600000 1213523.02091273 14016.19154863
0.07700000 1204343.40417177 16908.98218741
0.07800000 1195127.23003902 16994.71000814
0.07900000 1185877.07276867 18499.68320290
0.08000000 1176598.04176980 15725.23356594
0.08100000 1167290.43505414 14357.67302480
0.08200000 1157955.78521322 24508.13534409
0.08300000 1148597.74488010 18814.03194412
0.08400000 1139219.00052349 18882.55582000
0.08500000 1129821.51851874 17489.63792772
0.08600000 1120407.78816278 17545.58678642
0.08700000 1110979.90494531 16131.42897730
0.08800000 1101539.70545806 17646.66691019
0.08900000 1092090.69759860 17691.87013208
0.09000000 1082634.33224432 14777.95932934
0.09100000 1073173.02428083 22214.68264629
0.09200000 1063708.23620572 14838.73059229
0.09300000 1054244.46267770 22297.27143343
0.09400000 1044780.62010147 16376.93698977
0.09500000 1035320.37092993 19381.19825478
0.09600000 1025865.32951051 23882.14599365
0.09700000 1016421.05456771 19423.80726596
0.09800000 1006985.33233205 20935.22604351
0.09900000 997562.55726753 19452.47078142
0.10000000 988152.19276194 23952.81027898
0.10100000 978758.10785756 16472.49972997
0.10200000 969381.85444625 17972.34042679
0.10300000 960025.11177676 20966.94942751
0.10400000 950690.40413159 19465.38694035
0.10500000 941380.81936758 16464.75130540
0.10600001 932093.07208157 19448.12286409
0.10700001 922834.41216203 17939.90181664
0.10800001 913603.10485222 16431.15261405
0.10900001 904403.31131899 19399.45194084
0.11000001 895235.20656178 20867.93364720
0.11100001 886100.24203084 19352.43019694
0.11200001 877000.89639207 16351.68248302
0.11300001 867937.69213130 17810.08228105
0.11400001 858912.82966878 19261.12111222
0.11500001 849928.01599772 17746.49780968
0.11600001 840984.48161261 17711.13401681
0.11700001 832083.25797397 19146.23666767
0.11800001 823225.37879184 14694.57370352
0.11900001 814411.83487174 17591.29646181
0.12000001 805644.58731283 16084.69494337
0.12100001 796926.27268812 16042.12662493
0.12200001 788255.98205782 15997.65590953
0.12300001 779636.13141473 15951.35600028
0.12400001 771067.00644127 17349.00846237
0.12500001 762548.74419901 17294.60633336
0.12600001 754085.69816809 15801.86654975
0.12700001 745675.71342355 21475.46155866
0.12800001 737320.75942353 17120.58884069
0.12900001 729021.93198966 19902.29968135
0.13000001 720780.07251658 18412.32782030
0.13100001 712595.45485500 15520.32973833
0.13200001 704469.01484406 15459.57325952
0.13300001 696402.89155048 18197.00841408
0.13400001 688396.06258579 19516.02929440
0.13500001 680450.20398748 15269.30329740
0.13600001 672565.31871439 13821.21795126
0.13700001 664742.78494696 20640.26444586
0.13800001 656981.94858768 19177.30398359
0.13900001 649285.24162089 17725.48793215
0.14000001 641651.49499210 14928.02273501
0.14100001 634081.99742013 17557.73133664
0.14200001 626576.58643468 17472.08893681
0.14300001 619137.27336519 13373.36573548
0.14400001 611760.72783103 15966.95574955
0.14500001 604451.73912906 18532.49119591
0.14600001 597207.94328976 19752.65365613
0.14700001 590031.91425899 15718.45093740
0.14800001 582919.79386571 20845.21281209
0.14900001 575875.65520129 18140.08399470
0.15000001 568897.46406279 12885.52816900
0.15100001 561986.77524937 14094.62898831
0.15200001 555143.22394440 15288.64510885
0.15300001 548367.71380884 15200.75374409
0.15400001 541657.12642957 12593.52878379
0.15500001 535015.75363532 13771.30614848
0.15600001 528438.97837198 17422.63393918
0.15700001 521932.73189999 13606.78696283
0.15800001 515490.03707913 14753.32555754
0.15900001 509116.85939264 17106.32728302
0.16000001 502807.85495244 13357.09129730
0.16100001 496568.91123942 14479.95013526
0.16200001 490395.17065606 16786.22748397
0.16300001 484288.06436511 14296.18433495
0.16400001 478247.12626323 14203.94032058
0.16500001 472271.83662801 17639.35393083
0.16600001 466363.36569823 12850.64314853
0.16700001 460518.83466200 15086.59773584
0.16800001 454739.02719732 13833.16186049
0.16900001 449026.21878202 16030.23676743
0.17000001 443376.83796965 12509.87807403
0.17100001 437791.32020115 16942.52489183
0.17200001 432270.62555215 14582.65024164
0.17300001 426812.79513548 13367.77737493
0.17400001 421418.35278027 13274.67873949
0.17500001 416086.60905995 14280.09309735
0.17600001 410815.76597058 15270.02274232
0.17700001 405608.36523484 12995.69263592
0.17800001 400461.25675858 12902.86230219
0.17900001 395375.34194598 11742.64821044
0.18000001 390350.18172450 19076.41428195
0.18100001 385385.99731806 13677.34969089
0.18200001 380478.90574877 10444.14645616
0.18300001 375631.58465224 12440.91867138
0.18400001 370842.50923615 10290.88011745
0.18500001 366112.73528633 13278.90953616
0.18600001 361438.49042040 11152.18514879
0.18700001 356820.81164397 14087.28630926
0.18800001 352259.39313592 9986.55426723
0.18900001 347755.64022917 13875.45070072
0.19000001 343303.10180908 12786.32463102
0.19100001 338909.07403559 12688.75633144
0.19200001 334566.11125254 12591.39619195
0.19300001 330278.47420906 10572.21445900
0.19400001 326041.75456125 11444.06612588
0.19500001 321858.21878398 9462.63207941
0.19600001 317725.80417501 11266.55754846
0.19700001 313643.86469587 11178.26786602
0.19800001 309612.78794765 10166.13637270
0.19900001 305631.74894712 10085.84819191
0.20000001 301698.60163079 11825.07724979
0.20100001 297815.16497436 10828.55991025
0.20200001 293978.28900925 8951.63932342
0.20300001 290190.20990765 12431.74918003
0.20400001 286448.31898488 9689.11484763
0.20500001 282751.73355090 14852.94926548
0.20600001 279100.72006306 9532.68554434
0.20700001 275495.38757137 8595.45649853
0.20800001 271932.97077219 14492.66836237
0.20900001 268416.68946647 8455.12611788
0.21000001 264941.33587879 10901.01178005
0.21100001 261509.07126060 10810.78551698
0.21200001 258118.52668744 9896.26478104
0.21300001 254768.46866822 12267.10234631
0.21400001 251460.16994680 10542.46812343
0.21500001 248192.84694805 10453.88320769
0.21600001 244963.87247563 10365.64675388
0.21700001 241774.40456477 9487.22808367
0.21800001 238623.32238229 10190.40946414
0.21900001 235509.51156835 7771.81424922
0.22000001 232432.81564531 8475.66302326
0.22100001 229394.48607318 9166.60409691
0.22200001 226392.27186551 9844.66840757
0.22300001 223424.63118281 11260.60194408
0.22400001 220492.00781563 11906.56898506
0.22500001 217596.04790288 10327.10892181
0.22600001 214732.31360802 8042.79918652
0.22700001 211904.16520063 7971.83507183
0.22800001 209108.55194842 7901.16700902
0.22900001 206344.65770503 9966.44743848
0.23000001 203614.00037076 7055.22544650
0.23100001 200916.06585888 6991.87942255
0.23200001 198247.93383152 8314.51873812
0.23300001 195610.85549467 13045.28856991
0.23400001 193005.05166623 8164.11407161
0.23500001 190427.87393028 8763.49117275
0.23600001 187881.43420560 6679.18530191
0.23700001 185363.67341556 7279.23179932
0.23800001 182874.96278668 7211.67449860
0.23900001 180414.13511144 9092.87283971
0.24000001 177981.10891982 12868.03478357
0.24100001 175576.67640185 8285.46375132
0.24200001 173199.14988576 8207.04210555
0.24300001 170848.00562814 7503.64476213
0.24400001 168523.19083397 8051.19582294
0.24500001 166224.66878798 7973.79773896
0.24600001 163951.57447669 7289.28734605
0.24700001 161704.49749201 7218.48910952
0.24800001 159482.26090406 8934.99408984
0.24900001 157283.94192446 7077.77772143
0.25000001 155111.06620304 5839.93191882
0.25100001 152961.10498293 8672.89506284
0.25200001 150836.41870565 6869.09083283
0.25300001 148735.22439907 9633.58094010
0.25400001 146656.49957507 6731.53364897
0.25500001 144600.62759479 5552.66436235
0.25600001 142568.02710254 7694.39678677
0.25700001 140557.16929078 6527.47525070
0.25800001 138568.98185143 5921.74571960
0.25900001 136602.78820704 6925.76168979
0.26000001 134658.31899619 6853.43546958
0.26100001 132733.99538226 7303.02477148
0.26200001 130832.57521915 8258.15253858
0.26300001 128951.01064789 6127.75231594
0.26400001 127090.27476449 6062.20639312
0.26500001 125250.68690195 6496.75343702
0.26600001 123430.49235611 5932.06974334
0.26700001 121631.38314305 6356.45638384
0.26800001 119852.67865294 5803.26697499
0.26900001 118092.04477922 5261.00084387
0.27000001 116352.40184648 4729.72535888
0.27100001 114631.25325102 5612.34642476
0.27200001 112930.85116480 5549.42228886
0.27300001 111248.60307413 5029.54958300
0.27400001 109583.44526240 5424.38079720
0.27500001 107939.98846264 6703.07360076
0.27600001 106312.67333787 5742.47932211
0.27700001 104705.16994991 5676.06753161
0.27800001 103114.99327308 6041.50774180
0.27900001 101544.45023868 7250.27409018
0.28000001 99990.26476002  5057.50783093
0.28100001 98454.84560795  4997.56819959
0.28200001 96937.66951371  5761.00597187
0.28300001 95437.52697561  6911.58603070
0.28400001 93954.48385024  5221.52068712
0.28500001 92489.58000763  4761.36380415
0.28600001 91041.51516274  5095.13863725
0.28700001 89610.53964178  4258.29304533
0.28800001 88195.92361007  5352.61085725
0.28900001 86800.14055127  4153.38692197
0.29000001 85419.68587041  4474.28335768
0.29100001 84056.46798505  4786.17551362
0.29200001 82710.13201637  3998.62152161
0.29300001 81380.04970032  3947.74639783
0.29400001 80065.76548940  4605.78337780
0.29500001 78768.93229159  5945.47929081
0.29600001 77487.71118667  3797.28546646
0.29700001 76222.53162586  4429.29152245
0.29800001 74973.43170170  4035.07028520
0.29900001 73740.75135025  3982.00076142
0.30000001 72523.15732572  3601.86277909
0.30100001 71322.69414732  3554.01001761
0.30200001 70135.73643857  4143.97018365
0.30300001 68966.33733757  3459.35164462
0.30400001 67812.18568911  3412.64840637
0.30500001 66673.09654267  3060.29527619
0.30600001 65548.39618817  3622.20454484
0.30700001 64440.34514481  4168.00172129
0.30800001 63346.65827044  3229.72952483
0.30900001 62268.44350942  3474.57931233
0.31000001 61205.56130600  3426.28748413
0.31100001 60156.58863854  3096.86132973
0.31200001 59123.28780267  3331.00619251
0.31300001 58103.88862669  3010.36261228
0.31400001 57100.11743029  2967.77874395
0.31500001 56110.33867000  5053.29733988
0.31600002 55135.50626285  4719.04820447
0.31700002 54174.82943696  2584.13948650
0.31800002 53228.44776127  3565.77388436
0.31900002 52296.50985089  3012.27911004
0.32000002 51378.70920903  2473.88496555
0.32100002 50474.48140764  2437.91756742
0.32200002 49585.37112754  2642.65247937
0.32300002 48708.80576272  2367.24807216
0.32400002 47846.29439922  2332.50696241
0.32500002 46997.56168841  2987.63513800
0.32600002 46162.73278420  2943.56679537
0.32700002 45340.82222374  2453.84541494
0.32800002 44533.44094300  2197.72541461
0.32900002 43738.40619801  3031.07169305
0.33000002 42957.51670973  2559.40896676
0.33100002 42187.25528355  2731.20303639
0.33200002 41433.46944882  3311.36303516
0.33300002 40690.97111021  2038.61774916
0.33400002 39961.55617632  2409.68195154
0.33500002 39244.32043586  2373.49661236
0.33600002 38540.39027449  2532.68186683
0.33700002 37848.26864372  2878.36096667
0.33800002 37169.32818911  2079.06647072
0.33900002 36502.01288937  2233.92329462
0.34000002 35847.38017836  2383.67165785
0.34100002 35204.51175083  1986.59069218
0.34200002 34574.24631291  2312.49857416
0.34300002 33955.12745890  2102.50159183
0.34400002 33348.78615423  1725.79976521
0.34500002 32753.39811157  1869.89158675
0.34600002 32170.59259285  1674.47942376
0.34700002 31597.53378646  1814.33047595
0.34800002 31037.26794254  2112.24136987
0.34900002 30487.71705686  1920.72626555
0.35000002 29949.28315684  1734.51281618
0.35100002 29422.60759719  1708.86513018
0.35200002 28905.36877990  1836.64721926
0.35300002 28399.60847158  1960.42506565
0.35400002 27904.67844906  2080.29387691
0.35500002 27420.29456769  1903.51693905
0.35600002 26945.53181837  1587.22662694
0.35700002 26481.86221117  1848.69888852
0.35800002 26028.51014346  1401.63533761
0.35900002 25585.21589496  1519.76189614
0.36000002 25152.01792075  1770.57638540
0.36100002 24728.04125841  1477.00597432
0.36200002 24314.69948002  1721.11608422
0.36300002 23910.28174960  1436.05158990
0.36400002 23515.18218605  2059.93005707
0.36500002 23129.52022404  1523.77286454
0.36600002 22753.26570984  1878.85100499
0.36700002 22385.71218226  1482.82964519
0.36800002 22028.52691526  1341.20692477
0.36900002 21679.29992098  1443.84144313
0.37000002 21338.40083257  1187.48206258
0.37100002 21006.09266880  1406.56803173
0.37200002 20683.07333184  1504.38341005
0.37300002 20367.99324662  1371.17337032
0.37400002 20061.19797299  1354.13092732
0.37500002 19762.92407752  1337.55476493
0.37600002 19472.94535415  1211.31462314
0.37700002 19190.10252733  1740.92618375
0.37800002 18915.04177051  1075.32017559
0.37900002 18648.36093131  1062.95662344
0.38000002 18389.16605585  1050.94088988
0.38100002 18136.40240167  1454.90226959
0.38200002 17891.93696138  1336.25937526
0.38300002 17654.14757232  1220.25473801
0.38400002 17424.02513093  1006.23749898
0.38500002 17200.05562476  1095.47159464
0.38600002 16983.63884825  1676.03047914
0.38700002 16773.58044431  1073.84467092
0.38800002 16570.18352517  1160.24430540
0.38900002 16372.70393836  957.80322577
0.39000002 16182.80543887  1044.03374235
0.39100002 15998.31480081  1222.91124131
0.39200002 15820.30042583  932.60675429
0.39300002 15648.14894833  1017.28621133
0.39400002 15483.00871360  1192.57880267
0.39500002 15322.38230010  1456.23928279
0.39600002 15167.84006068  1083.89390209
0.39700002 15018.68900277  1524.24681911
0.39800002 14875.51163107  979.32935463
0.39900002 14737.34123274  1061.08861903
0.40000002 14604.24975363  1141.97936359
0.40100002 14476.80682958  960.24664250
0.40200002 14354.34030635  1475.12385147
0.40300002 14236.30304290  948.99200580
0.40400002 14123.58176976  1029.60915980
0.40500002 14015.88755288  1194.99462938
0.40600002 13912.64835233  849.36722215
0.40700002 13813.84468158  929.94806803
0.40800002 13719.54594039  1178.37185665
0.40900002 13629.51703425  922.03687105
0.41000002 13544.19159255  834.99945124
0.41100002 13462.69001592  915.19371065
0.41200002 13384.96510247  995.03835287
0.41300002 13311.98072801  1074.67625509
0.41400002 13242.22216719  1154.05971655
0.41500002 13176.54913919  1068.88171682
0.41600002 13114.09251945  820.28652596
0.41700002 13055.56374098  900.44227388
0.41800002 13001.67315015  898.87071583
0.41900002 12949.07443455  1060.52924644
0.42000002 12900.86972832  896.15895814
0.42100002 12856.65298091  895.20878948
0.42200002 12815.21266518  975.75033856
0.42300002 12776.48035039  1056.35944543
0.42400002 12740.67082872  812.21780382
0.42500002 12708.38325741  1055.68544722
0.42600002 12677.71877959  812.00792631
0.42700002 12651.52861070  893.45099283
0.42800002 12626.78780250  1137.54736703
0.42900002 12605.90303533  975.69694117
0.43000002 12587.00636991  1383.37500064
0.43100002 12569.64212553  895.96413317
0.43200002 12555.73787148  815.49521340
0.43300002 12544.05378912  898.27973441
0.43400002 12534.38191611  981.44215054
0.43500002 12526.99410233  1146.97163436
0.43600002 12522.04682362  1067.06627064
0.43700002 12518.58502489  822.47107511
0.43800002 12517.05104415  824.24785032
0.43900002 12518.12876709  991.43584534
0.44000002 12520.61350803  828.23862281
0.44100002 12525.22909443  1079.54954681
0.44200002 12531.31089132  1165.78790747
0.44300002 12539.39649214  835.12384595
0.44400002 12549.10481706  1256.47917935
0.44500002 12559.30625641  1008.26115405
0.44600002 12571.65718419  1264.39448122
0.44700002 12586.13833162  1014.94624316
0.44800002 12600.73714045  1357.85549861
0.44900002 12618.32760266  851.73715355
0.45000002 12636.26994769  1367.74992396
0.45100002 12655.29454051  943.83191156
0.45200002 12675.79363980  1033.58426237
0.45300002 12697.15999900  951.14430060
0.45400002 12719.98079118  1215.39422220
0.45500002 12743.73591531  958.83873571
0.45600002 12768.31418052  962.79477641
0.45700002 12793.87307808  966.83303433
0.45800002 12820.01471181  970.92386021
0.45900002 12847.13605462  1152.38815872
0.46000002 12875.79100231  1068.43318801
0.46100002 12904.16104466  1609.66512500
0.46200002 12933.92735105  898.26129710
0.46300002 12964.57806184  1082.80161104
0.46400002 12994.90095980  997.03382340
0.46500002 13026.55689339  1183.72328101
0.46600002 13058.35546462  1097.68541238
0.46700002 13090.61881477  1470.33837496
0.46800002 13124.19172364  1107.94431782
0.46900002 13157.12500350  1113.09282805
0.47000002 13190.82685984  1118.31835418
0.47100002 13225.08337271  1404.50392075
0.47200002 13259.69794158  1128.93073625
0.47300002 13294.80902179  1417.89144938
0.47400002 13329.45168561  1139.66817314
0.47500002 13364.78872075  1049.67055588
0.47600002 13400.60408367  1246.45724792
0.47700002 13435.96653322  963.35884609
0.47800002 13471.63238289  1451.90524888
