# SAXS profile: number of points = 501, q_min = 0, q_max = 0.5, delta_q = 0.001
#    q    intensity    error
0.00000000 1646666.22097351 271.69992646
0.00100000 1646580.77320417 740.96136554
0.00200000 1646324.40293678 814.93060526
0.00300000 1645897.32363911 1481.30764404
0.00400000 1645299.39557955 1480.76951229
0.00500000 1644531.29699434 1480.07822588
0.00600000 1643592.83435534 2416.08156487
0.00700000 1642484.77858718 2759.37454271
0.00800000 1641206.90327961 3101.88117816
0.00900000 1639760.58565039 2705.60508198
0.01000000 1638145.24609821 2702.93977277
0.01100000 1636362.41228205 3239.99771739
0.01200000 1634411.99639207 4461.94494578
0.01300000 1632295.33490915 5827.29460264
0.01400000 1630012.63559751 5868.04574829
0.01500000 1627565.31190318 4687.38830701
0.01600000 1624953.14936265 7044.17221739
0.01700000 1622178.26144847 5255.85780286
0.01800000 1619241.15835066 4614.83750896
0.01900000 1616142.82429669 7272.64303750
0.02000000 1612883.92677042 5588.64305907
0.02100000 1609467.25729319 6904.61484683
0.02200000 1605891.41640867 6094.35820215
0.02300000 1602159.55807979 5767.77467163
0.02400000 1598272.20333257 7192.22524294
0.02500000 1594231.64641736 7461.00444598
0.02600000 1590038.38345611 8371.55247180
0.02700000 1585694.31233840 7325.90805854
0.02800000 1581199.82646324 8941.68542871
0.02900000 1576558.30757496 7803.96398081
0.03000000 1571770.31693025 9501.35200258
0.03100000 1566837.49533672 9024.98438841
0.03200000 1561761.09003004 9276.86130205
0.03300000 1556545.01035192 11113.73188626
0.03400000 1551187.94368379 9772.48449611
0.03500000 1545693.86154275 10850.77140910
0.03600000 1540063.36323104 9402.08726703
0.03700000 1534299.52647550 10494.60924644
0.03800000 1528403.84377895 11623.51176987
0.03900000 1522378.61632635 11874.55375726
0.04000000 1516224.19162228 9324.77921058
0.04100000 1509944.51622024 12366.44616123
0.04200000 1503541.00713038 11637.40793508
0.04300000 1497015.51956630 11856.36346531
0.04400000 1490370.87063579 14084.00538160
0.04500000 1483609.42708841 13307.97717934
0.04600000 1476731.61496989 10410.95836951
0.04700000 1469741.51413526 15873.20909089
0.04800000 1462640.77306150 16125.61527330
0.04900000 1455431.82498186 14190.46095410
0.05000000 1448116.66930145 13293.71164322
0.05100000 1440699.09634833 19103.67090750
0.05200000 1433178.13695687 13672.52006373
0.05300000 1425559.42624915 12701.73508001
0.05400000 1417843.61673120 12866.93142187
0.05500000 1410034.60617316 14213.14949326
0.05600000 1402133.00177108 13187.06149702
0.05700000 1394143.66810894 18193.57571807
0.05800000 1386066.27524695 15946.69324131
0.05900000 1377904.38294704 17361.59603602
0.06000000 1369661.77362074 15038.88697695
0.06100000 1361339.95475330 16458.60082210
0.06200000 1352941.29710654 17899.41419740
0.06300000 1344469.46330193 15488.28894140
0.06400000 1335923.57552615 19537.88320579
0.06500000 1327310.33626013 15768.44753238
0.06600000 1318630.58094089 13252.23795851
0.06700000 1309885.62527715 20041.25100465
0.06800000 1301079.67622407 13466.17527926
0.06900000 1292216.18652006 20352.40589057
0.07000000 1283294.90773897 19133.92797040
0.07100000 1274320.06897721 16515.18886748
0.07200000 1265293.49368167 18011.45372634
0.07300000 1256218.53946065 16732.83172964
0.07400000 1247098.31702879 14029.85672407
0.07500000 1237933.26458349 19757.41582883
0.07600000 1228726.56907860 17030.15104581
0.07700000 1219482.28465676 17121.53207938
0.07800000 1210201.28040194 15774.97442983
0.07900000 1200885.50097382 15851.68935636
0.08000000 1191540.31158423 21715.82319733
0.08100000 1182166.23620149 17448.77446500
0.08200000 1172764.49866278 17521.10243220
0.08300000 1163338.83672759 20521.29804298
0.08400000 1153892.32393114 17654.55338483
0.08500000 1144426.38504326 22144.65159017
0.08600000 1134943.92058612 22216.52828857
0.08700000 1125446.77964353 20798.25746445
0.08800000 1115936.74063999 17877.30742464
0.08900000 1106417.56641141 16430.30163294
0.09000000 1096890.86258125 17967.07317309
0.09100000 1087358.63359048 15005.54984853
0.09200000 1077822.71706681 19546.31589242
0.09300000 1068287.41540789 16569.13859160
0.09400000 1058751.52986873 18104.65201163
0.09500000 1049219.07424167 15108.75537923
0.09600000 1039691.66279222 19665.76872616
0.09700000 1030174.27194326 16657.91876046
0.09800000 1020665.47011076 25766.70100444
0.09900000 1011169.12073325 18201.04502906
0.10000000 1001685.09404362 22763.29483263
0.10100000 992216.97991266 21253.28870931
0.10200000 982766.40487885 18220.49000348
0.10300000 973335.32241759 18220.83809278
0.10400000 963925.71832801 27327.29540021
0.10500000 954541.06286579 16694.92397501
0.10600001 945178.15048494 16687.12103200
0.10700001 935844.36009129 15160.67934691
0.10800001 926537.18098563 18178.66034646
0.10900001 917261.63007889 21188.74465208
0.11000001 908017.68128341 24189.59216798
0.11100001 898806.37702100 21139.92698266
0.11200001 889631.04812307 15079.24697557
0.11300001 880491.27116756 18067.68173500
0.11400001 871390.06430797 16534.62724877
0.11500001 862328.56183468 21006.32475544
0.11600001 853308.31470975 16473.11779122
0.11700001 844330.40544170 23911.43820822
0.11800001 835395.49195894 19385.35330392
0.11900001 826505.02929532 16364.80035086
0.12000001 817660.69654644 16324.59657552
0.12100001 808865.29095849 19242.90617840
0.12200001 800117.92686547 14762.17644613
0.12300001 791420.85593346 20608.60005947
0.12400001 782774.26835747 17612.42186790
0.12500001 774179.02275361 21947.97632926
0.12600001 765638.59960236 18961.04081266
0.12700001 757151.43425490 17444.76986734
0.12800001 748719.28115048 17385.26252767
0.12900001 740343.33006349 15880.36517834
0.13000001 732024.27709864 20137.98881219
0.13100001 723762.38071027 18629.64455764
0.13200001 715558.90574509 17130.48101107
0.13300001 707415.87636312 19906.68369932
0.13400001 699331.79623647 19826.05735802
0.13500001 691309.30602219 22564.33681243
0.13600001 683347.43154958 16851.34845657
0.13700001 675448.51628648 13981.78494642
0.13800001 667610.99131726 16703.62779043
0.13900001 659837.58907314 18013.56703118
0.14000001 652127.61981528 15171.74979051
0.14100001 644481.69156940 13727.46067786
0.14200001 636900.20813485 16393.81213061
0.14300001 629385.05367753 14954.18958073
0.14400001 621932.47714738 17585.14162083
0.14500001 614547.87276595 16150.31885813
0.14600001 607228.52174521 17406.20639695
0.14700001 599977.41869420 13319.49932338
0.14800001 592789.94512726 25172.82620745
0.14900001 585670.65531887 13177.59036640
0.15000001 578617.92374902 15726.83590954
0.15100001 571632.51949113 15639.86647124
0.15200001 564714.80916194 18144.28767455
0.15300001 557865.24869277 18041.36299408
0.15400001 551080.75827046 14093.89105787
0.15500001 544365.51411214 21654.86117334
0.15600001 537715.14357668 13929.51145176
0.15700001 531135.77873102 12587.91855004
0.15800001 524620.07159812 15014.62715781
0.15900001 518174.08055323 17410.64992838
0.16000001 511792.81335905 16067.73613384
0.16100001 505481.75498240 14739.84867107
0.16200001 499236.13004528 13426.95635140
0.16300001 493057.11373502 18193.80835571
0.16400001 486944.79461009 18077.82635335
0.16500001 480898.45221951 13171.80922815
0.16600001 474919.28250509 13086.40144728
0.16700001 469004.04330825 13000.79269433
0.16800001 463154.13241514 15263.24515442
0.16900001 457371.53246608 13995.56955431
0.17000001 451652.32068874 15060.34734451
0.17100001 445997.64614880 13808.08777680
0.17200001 440407.79748688 13714.29946137
0.17300001 434881.52590590 12485.44919838
0.17400001 429418.91119511 14653.92103658
0.17500001 424019.12032607 12313.51583581
0.17600001 418680.68719329 12227.57004698
0.17700001 413406.13446611 16556.91646736
0.17800001 408191.75354089 15343.92874033
0.17900001 403039.21224207 11970.26516899
0.18000001 397947.78596057 11884.71118909
0.18100001 392917.93044867 15017.32401111
0.18200001 387945.14722550 12778.91375326
0.18300001 383032.77337077 11628.87554888
0.18400001 378178.69004781 13642.79688797
0.18500001 373384.41712810 11459.16830302
0.18600001 368646.16398615 13442.68300483
0.18700001 363964.89646138 18474.85901722
0.18800001 359340.15502301 11206.02326383
0.18900001 354773.21345897 11122.14076743
0.19000001 350258.11590933 14048.85369291
0.19100001 345801.94024310 10955.00598453
0.19200001 341396.94654206 9883.44206940
0.19300001 337048.01046188 12750.52683827
0.19400001 332750.09220363 11679.52878825
0.19500001 328505.93231565 10623.88235312
0.19600001 324313.10269155 11500.14316490
0.19700001 320171.36302611 10459.99892438
0.19800001 316080.83128707 10378.51458579
0.19900001 312040.56661564 14041.82616132
0.20000001 308048.66867526 11145.20135941
0.20100001 304106.97632242 11978.77436348
0.20200001 300212.03115709 12798.03949311
0.20300001 296366.41596952 10882.57530876
0.20400001 292567.09405877 10795.72628104
0.20500001 288813.93527299 9816.78612394
0.20600001 285106.80128357 10623.07991796
0.20700001 281445.34812985 11415.42385974
0.20800001 277827.36485711 11322.85478998
0.20900001 274255.74618577 12094.67897852
0.21000001 270725.62951231 9425.31323703
0.21100001 267239.08409704 10197.84393123
0.21200001 263794.47978882 12642.35104154
0.21300001 260390.98812154 9194.40622524
0.21400001 257029.36837422 10775.95677854
0.21500001 253709.26441917 11508.25277814
0.21600001 250428.04810380 12227.15002675
0.21700001 247186.47166069 8891.29780601
0.21800001 243983.96743827 10419.33582208
0.21900001 240818.79208880 10331.12666908
0.22000001 237691.13810270 13395.08472113
0.22100001 234602.46549719 13280.84619976
0.22200001 231550.35266687 7745.35966294
0.22300001 228532.93843358 10750.18993224
0.22400001 225550.89251408 11418.51447347
0.22500001 222606.39488713 8300.99285787
0.22600001 219694.11334051 8228.64340429
0.22700001 216818.07229838 11122.76763489
0.22800001 213974.61763029 9555.03700214
0.22900001 211163.34406340 8013.64928618
0.23000001 208385.86256578 10108.79867113
0.23100001 205641.23692122 9303.20999829
0.23200001 202926.78676548 8510.74983945
0.23300001 200244.13872732 9839.99744244
0.23400001 197593.06938014 11144.24964011
0.23500001 194970.60180517 9662.74348248
0.23600001 192379.59617152 7523.00446410
0.23700001 189817.59569425 7454.13733548
0.23800001 187284.85704704 8056.99493125
0.23900001 184780.39006050 10643.35097091
0.24000001 182304.19007516 9226.41549612
0.24100001 179857.00332268 7834.57143532
0.24200001 177436.77578535 7761.08493997
0.24300001 175043.84960633 8969.24727810
0.24400001 172677.22699503 6980.47723148
0.24500001 170337.12987433 6913.98442866
0.24600001 168023.30364078 6225.26369438
0.24700001 165735.54044579 9248.04359436
0.24800001 163472.90462425 8547.99858718
0.24900001 161234.48871104 6650.92297397
0.25000001 159022.04477065 6585.89829574
0.25100001 156832.67363623 6521.10287830
0.25200001 154669.17520333 11152.42140565
0.25300001 152529.21637451 6392.49976069
0.25400001 150412.33287724 5753.27200475
0.25500001 148318.46977887 6264.97245987
0.25600001 146248.27042210 5637.87109151
0.25700001 144199.94872378 6696.64593557
0.25800001 142174.95832360 6628.19687065
0.25900001 140172.08990119 6013.38294128
0.26000001 138191.04181557 6492.21545168
0.26100001 136231.05655303 8566.20924137
0.26200001 134293.75487723 5297.88888059
0.26300001 132376.77055160 5242.12036189
0.26400001 130481.02378323 5705.28303489
0.26500001 128606.66108010 6157.68722389
0.26600001 126751.91681637 7614.62176306
0.26700001 124918.72945067 7030.42642617
0.26800001 123106.08505432 5464.06384370
0.26900001 121312.05474673 4913.13844974
0.27000001 119538.98645298 5345.18603219
0.27100001 117784.91793722 5766.74985511
0.27200001 116051.79334657 6178.01751117
0.27300001 114337.13144677 5169.18195734
0.27400001 112639.83053113 6040.31119809
0.27500001 110964.37360252 6431.49539838
0.27600001 109305.46483565 6358.29919040
0.27700001 107666.71777394 7183.52374985
0.27800001 106045.67060759 4438.01152497
0.27900001 104444.32317729 7018.65884969
0.28000001 102859.60538966 4769.08582960
0.28100001 101293.83794604 4713.20250270
0.28200001 99746.71821810  6351.37258315
0.28300001 98216.84314604  4184.03771605
0.28400001 96704.46337456  6201.17400740
0.28500001 95210.22180776  5309.87432154
0.28600001 93733.28519127  4842.26174217
0.28700001 92273.65618234  4783.46656291
0.28800001 90830.66182812  4331.26031429
0.28900001 89406.62013547  5444.86342398
0.29000001 87998.07846236  5377.56282938
0.29100001 86607.30030790  4552.07991966
0.29200001 85233.35499301  5244.40858097
0.29300001 83876.02030426  4068.82593756
0.29400001 82534.67550057  4017.37552016
0.29500001 81211.08284020  3605.77224879
0.29600001 79903.22610504  3559.68889149
0.29700001 78611.75546802  5973.70758080
0.29800001 77336.48432458  4855.95808061
0.29900001 76077.94733696  3765.85857145
0.30000001 74834.75017854  5068.18369577
0.30100001 73608.74066140  4001.37133178
0.30200001 72396.60151925  3290.42569482
0.30300001 71202.06194775  4870.22126779
0.30400001 70022.99315872  4484.97292414
0.30500001 68859.34451552  3792.77287547
0.30600001 67710.18947464  4053.47068480
0.30700001 66577.86792390  3383.48740808
0.30800001 65460.30746861  3034.08539481
0.30900001 64358.22895336  3591.18934562
0.31000001 63271.61829089  3837.10747292
0.31100001 62199.08667249  3493.10087291
0.31200001 61142.45165496  3444.76588934
0.31300001 60099.98825342  4246.06437114
0.31400001 59073.61943630  3907.72011073
0.31500001 58060.97349108  3302.50832854
0.31600002 57063.56872040  4070.05923169
0.31700002 56080.54973700  3210.05081894
0.31800002 55112.01901878  3691.95432888
0.31900002 54158.00068347  3639.41781825
0.32000002 53218.47130376  3074.96341753
0.32100002 52292.62966150  3788.60119837
0.32200002 51381.98205382  3485.24000774
0.32300002 50483.94570087  2944.22385269
0.32400002 49600.36701315  3143.42340830
0.32500002 48730.61076649  3097.80507311
0.32600002 47875.06856601  2583.09944679
0.32700002 47032.60712131  3008.20569393
0.32800002 46204.54674671  3192.27228589
0.32900002 45389.14665177  2696.11543879
0.33000002 44588.17502644  2877.94389336
0.33100002 43797.93898465  2181.13746472
0.33200002 43024.17047975  2793.77464240
0.33300002 42261.85269679  2752.51459649
0.33400002 41513.06466634  2711.84107775
0.33500002 40776.18543282  2671.65579608
0.33600002 40053.10049867  2834.55805653
0.33700002 39341.81894773  2393.55637813
0.33800002 38643.87542824  2554.55350616
0.33900002 37957.70756453  2903.76476620
0.34000002 37284.29959711  2479.21961912
0.34100002 36622.90579161  2066.63067169
0.34200002 35974.23068635  2406.13653341
0.34300002 35336.64179658  2005.70788336
0.34400002 34712.20225630  2335.26351739
0.34500002 34098.77063392  2123.67153566
0.34600002 33498.04221623  2092.28781592
0.34700002 32907.16780129  2233.08051276
0.34800002 32329.38613467  2200.17647760
0.34900002 31762.26167469  3001.53387042
0.35000002 31206.40310574  1807.31892147
0.35100002 30662.54295619  1942.77881372
0.35200002 30128.12940654  2073.86988592
0.35300002 29605.32146972  1729.24690895
0.35400002 29093.56428182  1704.15560852
0.35500002 28592.47884508  1526.83844264
0.35600002 28101.02605609  1504.81001658
0.35700002 27620.64323727  1928.19719572
0.35800002 27151.07091565  1900.71080948
0.35900002 26691.41631452  1441.33654925
0.36000002 26242.03231678  1705.20734071
0.36100002 25801.93798945  1681.25435903
0.36200002 25372.77270207  1657.85704688
0.36300002 24952.39775352  1771.12127644
0.36400002 24541.59976406  1746.74844595
0.36500002 24140.21851985  1590.35767142
0.36600002 23748.54028609  1568.82864561
0.36700002 23365.49613927  1418.75299278
0.36800002 22993.11165585  1399.93566948
0.36900002 22628.57772656  1381.47473565
0.37000002 22272.64431500  1487.36725781
0.37100002 21925.34886013  1345.77797678
0.37200002 21587.56959380  1207.82457599
0.37300002 21257.73561994  1311.81492725
0.37400002 20936.18981644  1413.19287955
0.37500002 20623.45357103  1163.16283651
0.37600002 20318.88402068  1608.64612412
0.37700002 20021.78732840  1135.23539530
0.37800002 19732.51467182  1682.69026835
0.37900002 19451.64971848  1219.61849513
0.38000002 19178.41642273  1534.46517067
0.38100002 18911.67395506  1192.00286586
0.38200002 18653.44693119  1178.80463466
0.38300002 18401.76786915  1059.94187948
0.38400002 18158.10655156  1363.21991394
0.38500002 17920.36469624  1037.58916507
0.38600002 17690.62921379  1129.63518196
0.38700002 17467.21712243  1423.22891856
0.38800002 17250.46091236  1107.22088611
0.38900002 17039.91322770  1096.51846815
0.39000002 16836.87195539  1086.23084566
0.39100002 16639.22293029  1076.22499012
0.39200002 16448.33794968  1163.55548169
0.39300002 16263.29209974  1057.27666949
0.39400002 16085.53214524  1143.68138971
0.39500002 15912.31283782  1323.26799829
0.39600002 15745.18043025  1031.38809295
0.39700002 15583.60172908  1209.44338749
0.39800002 15427.91127453  1108.03264023
0.39900002 15277.45482135  916.64733271
0.40000002 15132.20885255  1092.24288673
0.40100002 14992.57383736  1175.26791879
0.40200002 14858.17697914  987.99452504
0.40300002 14728.24645949  981.78495551
0.40400002 14603.75121279  1242.04909950
0.40500002 14484.11065869  970.29061900
0.40600002 14369.20605425  877.24007118
0.40700002 14258.70341554  1134.42249749
0.40800002 14153.07910006  1041.94973272
0.40900002 14051.56180677  1037.00531047
0.41000002 13954.77216208  1204.43644238
0.41100002 13862.05850227  942.34278163
0.41200002 13773.13388019  1023.89482117
0.41300002 13688.92036304  935.09019431
0.41400002 13608.24865816  931.82487102
0.41500002 13531.71873365  928.81721789
0.41600002 13458.34622228  841.81959609
0.41700002 13389.03116307  1007.39075244
0.41800002 13324.36557112  1004.92369899
0.41900002 13261.16113792  1420.27042517
0.42000002 13202.59485908  833.74390486
0.42100002 13147.72432254  998.70118686
0.42200002 13096.02642306  997.13149910
0.42300002 13047.01292120  912.76906722
0.42400002 13000.90312905  994.56913650
0.42500002 12958.42039153  910.84741248
0.42600002 12917.81188752  910.12447966
0.42700002 12881.53857522  1075.09326043
0.42800002 12846.81608438  992.03118505
0.42900002 12816.15848909  826.64226172
0.43000002 12787.43148553  992.04898166
0.43100002 12760.33113108  1074.93034542
0.43200002 12736.87623806  1075.43819612
0.43300002 12715.61149082  910.56498201
0.43400002 12696.60168844  1159.83461920
0.43500002 12679.77115062  1326.81131608
0.43600002 12665.46377921  913.24330908
0.43700002 12652.75703919  914.41479456
0.43800002 12642.08144750  998.97732332
0.43900002 12634.10387967  1000.62107469
0.44000002 12627.53356818  1002.37366214
0.44100002 12623.19751764  1004.30164210
0.44200002 12620.49729995  1341.81133652
0.44300002 12619.65496282  924.51596639
0.44400002 12620.78628226  842.43752426
0.44500002 12622.41121339  1013.32722023
0.44600002 12626.03059874  1015.89047012
0.44700002 12632.14001284  1188.43178873
0.44800002 12638.16555933  851.18049076
0.44900002 12647.34586735  1024.43506381
0.45000002 12657.12576303  1284.38189767
0.45100002 12667.94284102  1030.66387839
0.45200002 12680.25411380  861.62330787
0.45300002 12693.52466238  1210.20069867
0.45400002 12708.31276938  954.07662638
0.45500002 12724.10940280  957.36203684
0.45600002 12740.85501558  1135.40134852
0.45700002 12758.65152002  1051.82328116
0.45800002 12777.02276077  1055.63767053
0.45900002 12796.55362985  882.96224231
0.46000002 12817.64620662  1240.87638807
0.46100002 12838.38410262  1334.55009072
0.46200002 12860.88298473  1161.14487531
0.46300002 12884.05363078  986.40319272
0.46400002 12907.16289152  990.30211979
0.46500002 12931.53657682  994.30589452
0.46600002 12956.25862457  1089.10315160
0.46700002 12981.40113599  1002.42384323
0.46800002 13007.96539749  1098.13249090
0.46900002 13033.97056425  1010.78446516
0.47000002 13060.82654708  1476.39590286
0.47100002 13088.26505728  1389.97381496
0.47200002 13116.16853182  1023.65142158
0.47300002 13144.56091361  1121.49399030
0.47400002 13172.61399236  938.54879144
0.47500002 13201.38290486  1225.35241931
0.47600002 13230.88230471  1041.33664115
0.47700002 13259.79736388  950.72751605
0.47800002 13289.18914712  1623.20808531
