# SAXS profile: number of points = 501, q_min = 0, q_max = 0.5, delta_q = 0.001
#    q    intensity    error
0.00000000 1664650.74656090 324.60689558
0.00100000 1664564.91546899 499.36948650
0.00200000 1664307.39788283 1273.19519970
0.00300000 1663878.39772228 1297.82519646
0.00400000 1663277.79821819 1496.95007528
0.00500000 1662506.25386519 1945.13239401
0.00600000 1661563.59128602 2093.57021025
0.00700000 1660450.55531713 2789.55704887
0.00800000 1659166.94545504 2687.85056512
0.00900000 1657714.15161169 2486.57133371
0.01000000 1656091.53397510 4098.82672357
0.01100000 1654300.68570090 3573.28963669
0.01200000 1652341.50820340 3866.47929872
0.01300000 1650215.30198229 4158.54274441
0.01400000 1647922.31045802 4449.39043548
0.01500000 1645463.93629737 4738.93634756
0.01600000 1642839.97869143 4189.24213294
0.01700000 1640052.52145811 6199.39880921
0.01800000 1637102.09404691 6532.03764917
0.01900000 1633989.70661749 5882.36320925
0.02000000 1630715.99963349 5650.43119433
0.02100000 1627283.79251276 5370.03675876
0.02200000 1623691.68906738 7842.43121450
0.02300000 1619942.75377244 6998.15301484
0.02400000 1616037.60447154 7272.16955172
0.02500000 1611978.59733890 6915.38849841
0.02600000 1607766.04080744 7162.59803940
0.02700000 1603402.02148525 8754.57543828
0.02800000 1598886.81390254 6955.15795944
0.02900000 1594223.83056315 7891.40832362
0.03000000 1589413.68777225 8868.92878543
0.03100000 1584457.97441227 8365.93848984
0.03200000 1579357.94254034 9381.38661078
0.03300000 1574117.60236946 11239.20019905
0.03400000 1568735.52448768 9883.03426028
0.03500000 1563215.67056579 11817.91101521
0.03600000 1557558.78044576 12102.23228335
0.03700000 1551767.77821675 12383.10744286
0.03800000 1545844.19308807 13564.78342212
0.03900000 1539790.51064812 9238.74349174
0.04000000 1533606.83962948 12261.18725101
0.04100000 1527297.17144653 9621.97262625
0.04200000 1520863.09461043 10790.52415686
0.04300000 1514306.32550364 16990.51776082
0.04400000 1507629.71537648 13229.45136683
0.04500000 1500835.59237139 13462.49588910
0.04600000 1493924.47773128 10532.16805761
0.04700000 1486900.32017575 17129.09248506
0.04800000 1479765.02262133 14139.15544902
0.04900000 1472520.84531127 15461.46959546
0.05000000 1465169.68185035 15691.96802333
0.05100000 1457715.44265805 12507.19908064
0.05200000 1450157.29361288 17293.12653222
0.05300000 1442500.67299550 15189.53279475
0.05400000 1434746.42060208 14203.99022635
0.05500000 1426898.30291073 20376.10871610
0.05600000 1418956.94515973 14558.49893670
0.05700000 1410927.28829436 13502.57477926
0.05800000 1402808.88226681 13656.34510652
0.05900000 1394605.33535077 13806.59346482
0.06000000 1386320.49106324 13953.31639443
0.06100000 1377955.90608759 17940.98673567
0.06200000 1369513.83725052 18118.66891375
0.06300000 1360998.09590575 16985.25703105
0.06400000 1352407.68292971 15823.17063028
0.06500000 1343749.17845663 13303.11748901
0.06600000 1335023.72572689 17442.08579271
0.06700000 1326232.51966819 14880.32956706
0.06800000 1317379.83400711 16361.85830425
0.06900000 1308468.97982985 16486.70991775
0.07000000 1299499.68864353 16607.60679857
0.07100000 1290476.19975676 23693.14413727
0.07200000 1281400.61713086 16837.60489789
0.07300000 1272276.22526825 22595.62681950
0.07400000 1263105.97353305 15630.93715500
0.07500000 1253890.25902518 14294.34962290
0.07600000 1244632.47346447 15813.05631669
0.07700000 1235336.53537139 20234.81339816
0.07800000 1226003.31451596 14528.13995833
0.07900000 1216635.04069572 17519.54540775
0.08000000 1207236.61755631 17601.51070968
0.08100000 1197809.04925968 17679.66239657
0.08200000 1188353.23031982 20712.99777644
0.08300000 1178873.07609490 17824.56174710
0.08400000 1169371.47493970 20873.28180744
0.08500000 1159850.03484228 20946.89261261
0.08600000 1150311.59225969 19515.03707895
0.08700000 1140758.09375669 19575.40980808
0.08800000 1131191.36991779 16611.54604738
0.08900000 1121614.86992084 21198.52203719
0.09000000 1112030.53630569 18215.06104035
0.09100000 1102440.33456708 24341.88373085
0.09200000 1092845.85167453 19818.76045134
0.09300000 1083251.65668441 21383.38870780
0.09400000 1073656.38883672 16829.56468596
0.09500000 1064064.29361338 18387.03185788
0.09600000 1054476.80827134 16876.90210973
0.09700000 1044898.90568481 18432.01756282
0.09800000 1035329.21019950 16912.10344378
0.09900000 1025771.87975316 18463.89470377
0.10000000 1016226.06697053 23093.73845794
0.10100000 1006696.01834195 18482.93976604
0.10200000 997183.47038932 18487.78241061
0.10300000 987689.53911584 26193.52780951
0.10400000 978217.05288097 23110.37896154
0.10500000 968769.16550246 23105.14568432
0.10600001 959342.70256531 16937.19621075
0.10700001 949945.00771017 15389.10984908
0.10800001 940573.76646856 24605.41088879
0.10900001 931233.62998069 15365.35561786
0.11000001 921924.91532642 19955.06573152
0.11100001 912648.66497050 16865.74812258
0.11200001 903407.88219717 27562.97578342
0.11300001 894202.47309437 18349.03561178
0.11400001 885035.29868521 16793.54558327
0.11500001 875907.93758408 24385.27813059
0.11600001 866821.15653068 21297.79681890
0.11700001 857776.60420752 21255.70525330
0.11800001 848774.76967854 15150.63035233
0.11900001 839817.28594359 19651.72541671
0.12000001 830905.70559156 21113.31497362
0.12100001 822042.80859176 15043.38410589
0.12200001 813227.59326228 19505.26474331
0.12300001 804462.63335026 20948.20795940
0.12400001 795747.92707912 16412.30176931
0.12500001 787084.29378149 19338.66200946
0.12600001 778475.35286469 16312.95178800
0.12700001 769919.57906460 17738.94793762
0.12800001 761418.49012954 19153.48302190
0.12900001 752973.56848881 16151.28380533
0.13000001 744585.40136671 19020.43497444
0.13100001 736254.12664186 16035.61563414
0.13200001 727981.11644368 23237.15833229
0.13300001 719768.60567181 18807.55455285
0.13400001 711614.83309618 21615.30157436
0.13500001 703522.56033496 15787.04699825
0.13600001 695490.62264183 15721.56626610
0.13700001 687521.56367172 18501.20615080
0.13800001 679613.69961173 15586.94093561
0.13900001 671770.16170082 15517.89146708
0.14000001 663990.00970213 19660.74511449
0.14100001 656273.68597214 22365.80827277
0.14200001 648621.63689327 15304.22824433
0.14300001 641035.88732306 15231.01340121
0.14400001 633512.75858283 17912.57409386
0.14500001 626057.43286088 21937.05348226
0.14600001 618667.28917304 15005.77580678
0.14700001 611345.30012918 14929.05293346
0.14800001 604087.05721160 13501.34636565
0.14900001 596897.00059548 14773.20146175
0.15000001 589773.20188700 17365.87274893
0.15100001 582716.87130142 18600.32340960
0.15200001 575728.25399794 19819.44607910
0.15300001 568807.80075616 14453.40689926
0.15400001 561952.33646891 15678.47092737
0.15500001 555166.14863323 15589.06618932
0.15600001 548444.90660284 19373.81724009
0.15700001 541794.68771654 14124.58817541
0.15800001 535208.11524668 17870.59981156
0.15900001 528691.16431581 19032.88281373
0.16000001 522239.05847389 17656.90340045
0.16100001 515857.14810960 18802.99393618
0.16200001 509540.85101792 13704.10183504
0.16300001 503291.15083228 16095.25176344
0.16400001 497108.27860725 15994.45961928
0.16500001 490991.24047111 14670.81895791
0.16600001 484941.52031478 18221.67848613
0.16700001 478955.90101488 14483.62713053
0.16800001 473035.58090495 14389.74305056
0.16900001 467182.75151815 15487.10894410
0.17000001 461393.41383020 14201.68994829
0.17100001 455668.58671183 16458.75012923
0.17200001 450008.65728762 14013.27024968
0.17300001 444412.52183582 12759.08410445
0.17400001 438880.19820890 13824.72689647
0.17500001 433410.66646159 16018.85898895
0.17600001 428002.60045991 13636.16349468
0.17700001 422658.59534124 11284.98502861
0.17800001 417374.93542201 13447.82105447
0.17900001 412153.28694598 13353.76712780
0.18000001 406992.67651537 12154.83685827
0.18100001 401893.85495603 13166.04331028
0.18200001 396852.37600500 13072.31788311
0.18300001 391871.44089790 15141.91319159
0.18400001 386948.89115172 15032.96513141
0.18500001 382086.36820986 15990.31526500
0.18600001 377280.02970674 16932.32853318
0.18700001 372530.73565815 11555.90396607
0.18800001 367838.21499440 11471.03527656
0.18900001 363203.80076929 14491.83233540
0.19000001 358621.04314625 20548.98674319
0.19100001 354097.68016151 10198.01367051
0.19200001 349625.70317118 12145.99750208
0.19300001 345209.85057225 11050.16783897
0.19400001 340845.35542851 12960.64525261
0.19500001 336534.60312026 13851.76491900
0.19600001 332275.54639821 13746.24000409
0.19700001 328067.82638669 12666.69937539
0.19800001 323911.43260296 11602.50806416
0.19900001 319805.66615816 11513.00452580
0.20000001 315748.22362851 12375.75221001
0.20100001 311741.36649885 9445.76385134
0.20200001 307781.49882951 10309.14179054
0.20300001 303871.06236340 11158.14593737
0.20400001 300007.34333255 10147.74886786
0.20500001 296189.99407166 10067.49837435
0.20600001 292418.76428983 13619.40459056
0.20700001 288693.59969436 10808.68888347
0.20800001 285012.00317481 10722.15206627
0.20900001 281377.25289015 8863.38388502
0.21000001 277784.03007729 12308.61095458
0.21100001 274234.68836391 9592.72985245
0.21200001 270727.57333948 10379.69565253
0.21300001 267261.77696098 9437.01379063
0.21400001 263838.12626996 9359.65797192
0.21500001 260456.33329136 8438.78559761
0.21600001 257113.64175047 9205.95437812
0.21700001 253810.93509677 13279.38875211
0.21800001 250547.48575582 9876.58235546
0.21900001 247321.74387088 8161.61793363
0.22000001 244133.71503148 8902.33633955
0.22100001 240984.98070629 8827.28026066
0.22200001 237872.98609358 7956.85176107
0.22300001 234796.17892476 11833.72797737
0.22400001 231754.80484627 7821.72503342
0.22500001 228751.38592657 9305.60681953
0.22600001 225780.52545862 10762.95815757
0.22700001 222846.26161193 9145.61100904
0.22800001 219944.59480336 8310.60690765
0.22900001 217075.64636979 8238.02116932
0.23000001 214240.76966821 11877.50883211
0.23100001 211439.01294786 13244.54039742
0.23200001 208667.66570090 9480.81583950
0.23300001 205928.53337358 7228.09186326
0.23400001 203221.21383111 8596.25775162
0.23500001 200542.83744932 9938.90349406
0.23600001 197896.25200795 7035.21209163
0.23700001 195278.91086592 9062.89468194
0.23800001 192691.20385588 8289.57598197
0.23900001 190132.05079327 8898.18039800
0.24000001 187601.44301084 7459.97173419
0.24100001 185100.27684464 8062.96844074
0.24200001 182626.35578184 7988.07717975
0.24300001 180179.84689781 7913.49925008
0.24400001 177760.22153694 9799.03267575
0.24500001 175367.41843271 7765.26965553
0.24600001 173000.97546423 8332.59237741
0.24700001 170661.09345586 8888.03016764
0.24800001 168346.78887572 7545.30343435
0.24900001 166056.91489805 6849.84806359
0.25000001 163793.32920966 6783.50105013
0.25100001 161553.11631800 8549.39132001
0.25200001 159339.12792387 7860.99624803
0.25300001 157149.00438900 6586.11508553
0.25400001 154982.24984387 8299.29987179
0.25500001 152838.85055546 9977.32063631
0.25600001 150719.43556481 6391.25796751
0.25700001 148622.39092366 6902.02416105
0.25800001 146548.81588670 6832.10611989
0.25900001 144497.74230563 6762.49465987
0.26000001 142468.88774932 7250.95438508
0.26100001 140461.33901344 7728.18323819
0.26200001 138476.82360675 7648.07532968
0.26300001 136512.89994975 7568.27553133
0.26400001 134570.74437438 6419.02481039
0.26500001 132650.22141487 5292.74408490
0.26600001 130749.57253347 6283.82475331
0.26700001 128870.84108790 5698.66886257
0.26800001 127013.04169969 7687.46471265
0.26900001 125174.01148157 6083.45724588
0.27000001 123356.43369938 5014.43926717
0.27100001 121558.18046607 5951.48879726
0.27200001 119781.27197801 6376.55631551
0.27300001 118023.04619678 5335.82217107
0.27400001 116282.50781918 5276.31904200
0.27500001 114564.24272867 6640.14382280
0.27600001 112862.73120094 5627.33604400
0.27700001 111181.86858271 6027.16938111
0.27800001 109518.94214736 5500.04153494
0.27900001 107875.92812044 4983.86811504
0.28000001 106250.03601874 6269.81492221
0.28100001 104643.45136028 4426.41820204
0.28200001 103055.73552599 6999.54588821
0.28300001 101485.64066489 5620.27504603
0.28400001 99933.36924780  5553.79725881
0.28500001 98399.57044132  5487.74430326
0.28600001 96883.36829443  4587.91212274
0.28700001 95384.76974856  4532.68447299
0.28800001 93903.13048168  5291.91116878
0.28900001 92440.94954409  4021.18149551
0.29000001 90994.42815080  4766.28837215
0.29100001 89566.03373854  4707.59095613
0.29200001 88154.74454021  5036.72156772
0.29300001 86760.49359994  4208.75174376
0.29400001 85382.51206555  4155.99397152
0.29500001 84022.59600228  4849.78447083
0.29600001 82678.70415376  4420.00373329
0.29700001 81351.54878601  4363.69728345
0.29800001 80040.83872390  5743.73085873
0.29900001 78747.33910908  4252.35651319
0.30000001 77469.37069547  3847.51647773
0.30100001 76208.89319153  4487.94193251
0.30200001 74962.73886892  4088.46797146
0.30300001 73734.40395449  5379.66236720
0.30400001 72521.81189658  3981.44766161
0.30500001 71324.86287799  4910.71704163
0.30600001 70142.93531803  3553.09055675
0.30700001 68978.02637952  4142.82046049
0.30800001 67828.21963259  3772.60575457
0.30900001 66694.18403695  3721.53564546
0.31000001 65575.99715705  5200.50470076
0.31100001 64472.14515028  3922.48549665
0.31200001 63384.42185936  4761.43799551
0.31300001 62311.34032270  2934.86426815
0.31400001 61254.48359833  4051.98428188
0.31500001 60211.70012618  3424.84166533
0.31600002 59184.41138431  3939.90645240
0.31700002 58171.83850658  4162.19524222
0.31800002 57174.12359700  3282.93833238
0.31900002 56191.18506209  2697.17701069
0.32000002 55222.97254527  3190.78350475
0.32100002 54268.72713374  2883.29760914
0.32200002 53330.08009964  2583.84250317
0.32300002 52404.15017606  3056.21018298
0.32400002 51493.08660044  3012.34570876
0.32500002 50596.22557237  2968.98665717
0.32600002 49713.68738433  2926.14777800
0.32700002 48844.57503065  3845.04512849
0.32800002 47990.15077230  2605.14545804
0.32900002 47148.64129112  3267.40099620
0.33000002 46321.78646070  2989.83984869
0.33100002 45506.16561017  2492.82787017
0.33200002 44707.04684709  2233.11709576
0.33300002 43919.73617091  2420.41677500
0.33400002 43146.22958373  2818.52758103
0.33500002 42384.91475460  2563.43976575
0.33600002 41637.62865985  2315.26045127
0.33700002 40902.39894142  2695.87724190
0.33800002 40180.95848252  2451.84220272
0.33900002 39471.29452978  2415.64333962
0.34000002 38774.89380870  2975.00386836
0.34100002 38090.54939451  1954.04527648
0.34200002 37419.32683104  1925.22445663
0.34300002 36759.35730355  1896.78292669
0.34400002 36112.96496986  2242.61523084
0.34500002 35477.60022120  3498.44632350
0.34600002 34855.25598185  2358.48100771
0.34700002 34243.08329099  1966.23793569
0.34800002 33644.18115018  2641.90944994
0.34900002 33056.22540327  1735.45191587
0.35000002 32479.87138872  2565.09796441
0.35100002 31915.53092052  1853.65412366
0.35200002 31361.13445687  2490.85822221
0.35300002 30818.48043950  1963.75366661
0.35400002 30287.02926223  1774.06282306
0.35500002 29766.63927456  2225.35405757
0.35600002 29256.08774804  1566.66357311
0.35700002 28756.73023271  1853.08378397
0.35800002 28268.39299244  1674.47833822
0.35900002 27790.34902126  1500.67891823
0.36000002 27322.80383283  1627.48288739
0.36100002 26864.68917587  1604.62796048
0.36200002 26417.76189041  1438.44720307
0.36300002 25979.85734996  1702.20033420
0.36400002 25551.75033100  1958.54175564
0.36500002 25133.26637097  1517.79802804
0.36600002 24724.68978732  1633.31308472
0.36700002 24325.00189235  1477.01418487
0.36800002 23936.20118730  1324.86879847
0.36900002 23555.46676141  1568.79416062
0.37000002 23183.52076246  1419.17929070
0.37100002 22820.41876456  1400.71737012
0.37200002 22467.02690079  1508.43625757
0.37300002 22121.74642557  2233.85405987
0.37400002 21785.04829583  1347.94992716
0.37500002 21457.26755654  1936.30391603
0.37600002 21137.98397683  1553.95896567
0.37700002 20826.28601401  1180.85047293
0.37800002 20522.62149726  1283.38219613
0.37900002 20227.64142551  1729.46342381
0.38000002 19940.40404334  1595.43180309
0.38100002 19659.83942835  1802.41416418
0.38200002 19387.97348249  1113.83912934
0.38300002 19122.91641847  1431.92404925
0.38400002 18865.99555168  1416.36468314
0.38500002 18615.23464746  1185.60435086
0.38600002 18372.71724844  1173.18991548
0.38700002 18136.49437871  1372.20722970
0.38800002 17907.37320874  1149.38480386
0.38900002 17684.42007508  1034.53862340
0.39000002 17469.34999333  1024.57742565
0.39100002 17259.68954570  1116.35677270
0.39200002 17057.04412775  1005.51279897
0.39300002 16860.33592874  1096.09049066
0.39400002 16671.16821757  1185.32011643
0.39500002 16486.67576261  1468.96288004
0.39600002 16308.47214781  1068.28651866
0.39700002 16135.93740362  1252.31016123
0.39800002 15969.49746330  1242.50680900
0.39900002 15808.40753832  1043.35494696
0.40000002 15652.73870976  1318.11718920
0.40100002 15502.84926761  1121.78622615
0.40200002 15358.28368183  1021.24912181
0.40300002 15218.38956670  1106.68134172
0.40400002 15084.04044220  1191.26215037
0.40500002 14954.81723657  910.74841286
0.40600002 14830.30256916  1267.54602064
0.40700002 14710.57525899  1350.43087276
0.40800002 14595.62276304  984.98564883
0.40900002 14485.06404767  1068.99777737
0.41000002 14379.44398392  1063.79131633
0.41100002 14277.89561060  970.61138960
0.41200002 14180.35255357  1054.16745878
0.41300002 14087.70804331  1049.81605313
0.41400002 13998.64559281  1132.84044828
0.41500002 13913.85769548  1041.86971360
0.41600002 13832.38645232  951.73739495
0.41700002 13755.20629155  1293.67721302
0.41800002 13682.65311679  945.95026805
0.41900002 13611.80757874  1029.05270171
0.42000002 13545.67644267  940.95045868
0.42100002 13483.41258374  938.85006269
0.42200002 13424.39044197  936.95537530
0.42300002 13368.14672314  1105.27842344
0.42400002 13315.07581729  1188.37057301
0.42500002 13265.59050524  1101.97265549
0.42600002 13218.19236111  1269.93789127
0.42700002 13175.18285166  1268.77016874
0.42800002 13134.01070547  1014.20835474
0.42900002 13096.85477768  929.22189051
0.43000002 13061.78581963  1351.11118921
0.43100002 13028.49225778  1097.52023980
0.43200002 12998.91676463  1435.27546258
0.43300002 12971.64340337  928.89942813
0.43400002 12946.75543429  1267.16374818
0.43500002 12924.12296447  845.23768193
0.43600002 12904.18703943  1015.04340062
0.43700002 12885.87912031  1269.90344749
0.43800002 12869.68271364  1016.96237623
0.43900002 12856.36923393  1018.22449158
0.44000002 12844.56554705  934.63485632
0.44100002 12835.05732008  1276.44651097
0.44200002 12827.26860514  852.37203921
0.44300002 12821.45688962  1195.47269704
0.44400002 12817.67134283  941.13756295
0.44500002 12814.49670359  1200.20581814
0.44600002 12813.44631840  1374.62658618
0.44700002 12814.91223065  861.16214271
0.44800002 12816.45401167  1035.82586231
0.44900002 12821.24465754  1384.69448864
0.45000002 12826.66874886  1128.04143658
0.45100002 12833.27876730  957.10597582
0.45200002 12841.47512220  959.83610350
0.45300002 12850.59733565  1050.15086404
0.45400002 12861.40764580  877.79111343
0.45500002 12873.29962363  1144.69385678
0.45600002 12886.20965981  1236.68959966
0.45700002 12900.30254044  1152.12607449
0.45800002 12915.00707750  889.19827943
0.45900002 12930.85680405  892.22916177
0.46000002 12948.46416508  1164.00224129
0.46100002 12965.73715175  898.52562720
0.46200002 12984.83752583  1352.69551336
0.46300002 13004.73589573  905.12966124
0.46400002 13024.61146491  1181.00670055
0.46500002 13045.86554915  1003.09664962
0.46600002 13067.41229844  915.37227489
0.46700002 13089.48951412  1286.43509042
0.46800002 13113.12404997  1107.00998477
0.46900002 13136.26878764  1574.38188882
0.47000002 13160.29669715  1208.70750744
0.47100002 13184.90643339  1400.23712959
0.47200002 13210.11945915  1030.98382206
0.47300002 13235.90591640  941.07295526
0.47400002 13261.35797932  1228.33334105
0.47500002 13287.60747385  1517.97634976
0.47600002 13314.66230115  1524.26261248
0.47700002 13341.18272955  1147.87541646
