# SAXS profile: number of points = 501, q_min = 0, q_max = 0.5, delta_q = 0.001
#    q    intensity    error
0.00000000 1646666.22097350 271.69992646
0.00100000 1646580.75462279 592.76908574
0.00200000 1646324.33303039 963.09976532
0.00300000 1645897.16008089 1086.29216435
0.00400000 1645299.10558289 1850.96156411
0.00500000 1644530.84709935 1924.10116726
0.00600000 1643592.18655886 3624.12091891
0.00700000 1642483.89466553 2365.17690662
0.00800000 1641205.76293309 2658.75344820
0.00900000 1639759.15544301 3689.45825746
0.01000000 1638143.46083102 2973.23050979
0.01100000 1636360.22761222 4123.62795312
0.01200000 1634409.44158305 3824.51826099
0.01300000 1632292.33513814 4456.15827146
0.01400000 1630009.16162440 4034.27285386
0.01500000 1627561.29463574 4296.76200917
0.01600000 1624948.60534002 4143.61912885
0.01700000 1622173.12703541 5693.82793131
0.01800000 1619235.38777544 5076.30316910
0.01900000 1616136.39708848 7757.45505606
0.02000000 1612876.82632913 5588.61845604
0.02100000 1609459.43265666 5311.21636857
0.02200000 1605882.85544496 6094.32571329
0.02300000 1602150.14404091 6344.51485919
0.02400000 1598262.00478028 7791.52762858
0.02500000 1594220.61505600 8704.44495574
0.02600000 1590026.43087724 6439.60733959
0.02700000 1585681.48963096 9989.79384222
0.02800000 1581186.00470009 7565.97537946
0.02900000 1576543.47418248 7803.89055551
0.03000000 1571754.50803482 8770.39055797
0.03100000 1566820.63720313 9024.88728555
0.03200000 1561743.11091925 8503.69163062
0.03300000 1556525.91569570 13495.08031121
0.03400000 1551167.69178112 8957.99383336
0.03500000 1545672.46755129 9181.29488123
0.03600000 1540040.80565375 11111.39492629
0.03700000 1534275.79613215 9619.90968665
0.03800000 1528378.71765589 11623.32068570
0.03900000 1522352.26470853 10960.93681350
0.04000000 1516196.46684135 11189.53044380
0.04100000 1509915.45848732 17122.44209315
0.04200000 1503510.53669765 11637.17209392
0.04300000 1496983.63480299 10868.10169314
0.04400000 1490337.63261046 10059.77948732
0.04500000 1483574.63221228 13307.66506928
0.04600000 1476695.31860902 11451.77272817
0.04700000 1469703.68074944 10581.86699354
0.04800000 1462601.42255548 13975.15724276
0.04900000 1455390.92719587 14190.06220067
0.05000000 1448074.15262294 12185.54456176
0.05100000 1440654.83980730 13484.52992876
0.05200000 1433132.32480996 13672.08301582
0.05300000 1425511.86890557 17319.97001462
0.05400000 1417794.37886317 15205.84542241
0.05500000 1409983.66366443 11843.86332729
0.05600000 1402080.31352030 13186.56596400
0.05700000 1394089.19545629 16980.00719326
0.05800000 1386009.98187793 26985.61560719
0.05900000 1377846.22873338 13640.67830156
0.06000000 1369601.82615409 12531.85729478
0.06100000 1361278.10702565 18989.83048043
0.06200000 1352877.58453192 17898.57128000
0.06300000 1344403.87440014 14196.90557745
0.06400000 1335856.14346884 13024.59800794
0.06500000 1327240.85943902 14453.65363540
0.06600000 1318559.11375581 17226.97562724
0.06700000 1309812.18189825 14696.09336866
0.06800000 1301004.36560883 14811.93539579
0.06900000 1292138.75411559 13567.45755343
0.07000000 1283215.50975217 16399.49498260
0.07100000 1274238.48884493 13761.77632410
0.07200000 1265209.78264070 18010.26209961
0.07300000 1256132.81838017 20914.61240600
0.07400000 1247010.45266761 15431.75507496
0.07500000 1237843.24388918 19755.97909848
0.07600000 1228634.52528721 15609.80237557
0.07700000 1219388.10954289 15693.52570566
0.07800000 1210104.85712769 22943.58916711
0.07900000 1200786.89231459 14409.44338363
0.08000000 1191439.53111935 18818.78827684
0.08100000 1182063.28583911 18901.19282738
0.08200000 1172659.23465649 14599.60815656
0.08300000 1163231.47540650 19053.73246139
0.08400000 1153782.66900210 20595.02160839
0.08500000 1144314.45659029 19190.15433790
0.08600000 1134829.67717711 20733.33917549
0.08700000 1125330.29234093 17825.23266771
0.08800000 1115818.05539888 17875.40608699
0.08900000 1106296.57465475 23896.00713493
0.09000000 1096767.54584683 25450.49209693
0.09100000 1087233.10365427 16504.19928886
0.09200000 1077694.78618806 15033.84297371
0.09300000 1068157.17898310 19579.32201083
0.09400000 1058619.00783119 21119.45019879
0.09500000 1049084.20683399 15106.81328847
0.09600000 1039554.34418818 19663.17134464
0.09700000 1030034.78222491 25740.57041794
0.09800000 1020523.50108850 19701.20711482
0.09900000 1011024.96835139 18198.45028606
0.10000000 1001538.43778480 18207.96965520
0.10100000 992067.95380212 18214.36848846
0.10200000 982615.15231941 19735.82626264
0.10300000 973181.60574389 18217.96051651
0.10400000 963769.65336823 16697.31003013
0.10500000 954382.76242682 21244.56129116
0.10600001 945017.47597602 21234.54368434
0.10700001 935681.19712745 18189.64332812
0.10800001 926371.82887408 16660.79812639
0.10900001 917093.90819672 24211.28031591
0.11000001 907847.59207217 21161.92836728
0.11100001 898634.13624236 19626.17045940
0.11200001 889456.26616730 16583.91286341
0.11300001 880314.22873865 16558.71142217
0.11400001 871210.63568632 18034.06100783
0.11500001 862146.80742408 18001.62618668
0.11600001 853124.23935137 19464.03043739
0.11700001 844143.97516968 19423.75378341
0.11800001 835206.74542017 16399.28521870
0.11900001 826313.99505421 22310.47891732
0.12000001 817467.39689742 16320.73734784
0.12100001 808669.65359509 19238.25196531
0.12200001 799919.97355416 16234.37662810
0.12300001 791220.64774256 14716.70474138
0.12400001 782571.86842668 23477.15715898
0.12500001 773974.31608399 17553.73831593
0.12600001 765431.71576973 17497.76984705
0.12700001 756942.24883938 14533.29186262
0.12800001 748507.75231223 18828.71339680
0.12900001 740129.66843417 15875.78213617
0.13000001 731808.36524952 21570.05258243
0.13100001 723544.32935670 15758.79623622
0.13200001 715338.61081499 17125.20715020
0.13300001 707193.39276399 15636.04665114
0.13400001 699107.27870532 16988.30767346
0.13500001 691082.61602717 15507.89463482
0.13600001 683118.61398359 15441.89699720
0.13700001 675217.46219823 18170.10276453
0.13800001 667377.77961928 20872.24104184
0.13900001 659602.40869622 26318.13734809
0.14000001 651890.38316149 16544.97870491
0.14100001 644242.49552357 13722.36580184
0.14200001 636658.95401542 17753.23577006
0.14300001 629141.66073641 20384.19076933
0.14400001 621687.12487788 24339.05208704
0.14500001 614300.63467331 21525.09525434
0.14600001 606979.24482581 18737.45017170
0.14700001 599726.07989463 18639.48744247
0.14800001 592536.82691995 15891.83844775
0.14900001 585415.75862215 22392.15382378
0.15000001 578360.90465120 14409.86261928
0.15100001 571373.58393354 13027.31832838
0.15200001 564454.04668359 19431.33147399
0.15300001 557602.61222804 19320.93142544
0.15400001 550816.29875540 15367.77546050
0.15500001 544099.29829770 15278.30901723
0.15600001 537447.22577865 15188.25931731
0.15700001 530866.13199464 15097.83350650
0.15800001 524348.71062959 13756.28907265
0.15900001 517901.03984929 14915.55065168
0.16000001 511517.92738649 14823.79023538
0.16100001 505205.14058762 12276.48549578
0.16200001 498957.90370428 17079.32985005
0.16300001 492777.33544644 16971.25223395
0.16400001 486663.49311908 14453.90642800
0.16500001 480615.48891336 15557.52411062
0.16600001 474634.76074630 13078.56144984
0.16700001 468718.10995764 14174.03631434
0.16800001 462866.50239267 16427.13294555
0.16900001 457082.47432428 13986.72437475
0.17000001 451361.96534215 13892.92194925
0.17100001 445705.74463080 11499.20875448
0.17200001 440114.57857758 14847.26600945
0.17300001 434586.88107718 13611.26175812
0.17400001 429122.84047367 15770.26513217
0.17500001 423721.74688816 13423.50557538
0.17600001 418381.96725052 16662.06263269
0.17700001 413106.08545792 13235.91960321
0.17800001 407890.60541736 10951.86327274
0.17900001 402736.85116353 11961.28504453
0.18000001 397644.20858148 16194.06115941
0.18100001 392613.02840018 17149.33789059
0.18200001 387639.21359766 14896.97568226
0.18300001 382725.67263268 10563.22906366
0.18400001 377870.54626694 13631.68060055
0.18500001 373075.18515677 11449.67797337
0.18600001 368336.00128580 11365.00785660
0.18700001 363653.58147218 15382.54722302
0.18800001 359027.84016125 12214.12769936
0.18900001 354460.00931957 17173.58826294
0.19000001 349943.93076932 13033.66231733
0.19100001 345486.80672267 14925.03075563
0.19200001 341081.14384383 15798.87932936
0.19300001 336731.22360850 9798.87907003
0.19400001 332432.54861555 10696.01775713
0.19500001 328187.52094278 11578.45628600
0.19600001 323993.98922532 11488.82740085
0.19700001 319851.50823486 11399.50829220
0.19800001 315760.18216243 13195.61863618
0.19900001 311719.38883981 12157.05673929
0.20000001 307726.78162755 9277.96290456
0.20100001 303784.40011398 13807.00163773
0.20200001 299888.88057575 11871.10189866
0.20300001 296042.71384188 10870.68896607
0.20400001 292243.02658974 9885.12084163
0.20500001 288489.26504479 10697.18245348
0.20600001 284781.51927666 9726.71325066
0.20700001 281119.72387402 10525.12295936
0.20800001 277501.24587751 14789.42959814
0.20900001 273929.31901008 11217.40614372
0.21000001 270398.84445109 10269.74859773
0.21100001 266911.80203565 9336.57527658
0.21200001 263467.02368004 10101.32616543
0.21300001 260063.12382908 11687.23733740
0.21400001 256701.32788070 12417.92732331
0.21500001 253380.96717797 9030.49809716
0.21600001 250099.51203280 13025.18320248
0.21700001 246857.76235450 8072.24921064
0.21800001 243655.06682571 8004.06932366
0.21900001 240489.84468809 7936.16524994
0.22000001 237362.17221322 12589.69020946
0.22100001 234273.40585166 9361.56574048
0.22200001 231221.14837191 13921.82600176
0.22300001 228203.84403508 8434.41447436
0.22400001 225221.81324926 8361.36021226
0.22500001 222277.24445484 12809.83820367
0.22600001 219365.09155952 7469.38172082
0.22700001 216489.12043301 8884.71392272
0.22800001 213645.77733784 8806.47935832
0.22900001 210834.75270155 8728.55917463
0.23000001 208057.33430029 10092.86176422
0.23100001 205313.01254265 9288.36112670
0.23200001 202598.84999267 9205.07918476
0.23300001 199916.40717637 7017.06622376
0.23400001 197265.51776971 8344.33179631
0.23500001 194643.48774682 8268.45575055
0.23600001 192052.76570712 12289.45705885
0.23700001 189491.05664877 7441.31414656
0.23800001 186958.79312209 6702.47305045
0.23900001 184454.72230418 6640.37031704
0.24000001 181978.98644344 6578.54067110
0.24100001 179532.23558463 7820.42455198
0.24200001 177112.57411800 7746.90435837
0.24300001 174719.94402180 9592.12538053
0.24400001 172353.93929477 6967.40832557
0.24500001 170014.50233903 7528.24251969
0.24600001 167701.04521014 9319.98602844
0.24700001 165413.92977902 7384.07817465
0.24800001 163151.96827046 7921.84419413
0.24900001 160914.22701591 7241.14055828
0.25000001 158702.46357949 8365.20725102
0.25100001 156513.85528769 7691.09121269
0.25200001 154350.92635916 6443.37972570
0.25300001 152211.80632622 8698.90514309
0.25400001 150095.60740221 8037.62015666
0.25500001 148002.53372454 6251.62732030
0.25600001 145933.16202938 6188.29602864
0.25700001 143885.74431671 7238.89213907
0.25800001 141861.50082139 8818.11130828
0.25900001 139859.55076114 8727.23638042
0.26000001 137879.48405483 5397.98205615
0.26100001 135920.30098591 7478.33531409
0.26200001 133983.95533677 5285.66728814
0.26300001 132067.91611576 5229.88972565
0.26400001 130173.11481438 6209.25787046
0.26500001 128299.77982181 5631.07760284
0.26600001 126446.08648513 6583.41580437
0.26700001 124613.86224413 5510.42524919
0.26800001 122802.35942535 4955.07543729
0.26900001 121009.27768785 4900.87597827
0.27000001 119237.35038756 5331.69837489
0.27100001 117484.34501372 7190.04225509
0.27200001 115752.39926759 6162.07926662
0.27300001 114038.90406150 5155.69909661
0.27400001 112342.73067502 4634.13785965
0.27500001 110668.52721684 5498.01269233
0.27600001 109010.84877802 5888.22127541
0.27700001 107373.28641613 6268.45275764
0.27800001 105753.42199972 4868.35901216
0.27900001 104153.28475491 6124.21343343
0.28000001 102569.83909104 4755.65081453
0.28100001 101005.43643767 4272.53016353
0.28200001 99459.63568252  5066.47408146
0.28300001 97931.08335893  5006.23721825
0.28400001 96419.96737047  4946.34456022
0.28500001 94927.13414607  4886.84909714
0.28600001 93451.50638473  5230.01380237
0.28700001 91993.25773416  5563.75249111
0.28800001 90551.59458249  4710.49417314
0.28900001 89129.02461598  4652.53530518
0.29000001 87721.90606762  5360.68593354
0.29100001 86332.48598004  4159.49937141
0.29200001 84960.04648520  3733.99421977
0.29300001 83604.17815151  4424.33331721
0.29400001 82264.31668661  4732.25504141
0.29500001 80942.18648464  5031.36655005
0.29600001 79635.86416599  5676.44466646
0.29700001 78345.84275462  4202.47120429
0.29800001 77072.11783932  4148.02157847
0.29900001 75815.10678990  3752.84796376
0.30000001 74573.42935487  6733.98098953
0.30100001 73349.00646396  3987.25218014
0.30200001 72138.44110151  3606.56153361
0.30300001 70945.51580251  6146.71978012
0.30400001 69768.05957417  3191.88887663
0.30500001 68605.90262174  3778.81329530
0.30600001 67458.42305676  3106.46052883
0.30700001 66327.71518455  3370.77464526
0.30800001 65211.71520132  3929.33208549
0.30900001 64111.30267476  5067.99871638
0.31000001 63026.40115656  3528.21810379
0.31100001 61955.56329706  3769.37664946
0.31200001 60900.60762004  2859.28366314
0.31300001 59859.86308734  3947.15955886
0.31400001 58834.98910056  3335.94403995
0.31500001 57824.17172402  2740.86586949
0.31600002 56828.39983693  3242.62864823
0.31700002 55847.09140520  3995.85957924
0.31800002 54880.29382564  3413.82883906
0.31900002 53928.02570116  4400.52710558
0.32000002 52990.19446534  3316.92137961
0.32100002 52066.09433581  3772.18871324
0.32200002 51157.21246957  2726.42376766
0.32300002 50260.99459388  3419.75823410
0.32400002 49379.13052087  2888.67927225
0.32500002 48511.17585223  3321.07525610
0.32600002 47657.33215149  3038.86992854
0.32700002 46816.58502364  2994.38891990
0.32800002 45990.40522791  2723.55192657
0.32900002 45176.79557241  4025.25267611
0.33000002 44377.55378478  2644.01477970
0.33100002 43589.13321497  3907.33008642
0.33200002 42817.20212977  2566.46321719
0.33300002 42056.70446117  3160.56148993
0.33400002 41309.65011506  2490.97201990
0.33500002 40574.68931357  2862.95021354
0.33600002 39853.35946965  2417.50489991
0.33700002 39143.90049975  2976.89377398
0.33800002 38447.80114018  2150.57785862
0.33900002 37763.45692510  2503.71731270
0.34000002 37091.97283885  2466.43085072
0.34100002 36432.36417527  2242.77644484
0.34200002 35785.53595632  2761.74886822
0.34300002 35149.81363884  1995.10351663
0.34400002 34527.21280666  1965.46168210
0.34500002 33915.62613969  2288.28740402
0.34600002 33316.77300852  2427.79336411
0.34700002 32727.78907673  2391.74693900
0.34800002 32151.79201558  1851.46103090
0.34900002 31586.57326352  1989.95420985
0.35000002 31032.60108972  2124.02648218
0.35100002 30490.59605304  1931.88425742
0.35200002 29958.01700159  2062.16019797
0.35300002 29437.12791931  1875.73387986
0.35400002 28927.18643189  1848.44730055
0.35500002 28427.93899987  1973.46761884
0.35600002 27938.43530979  1795.32393804
0.35700002 27459.94100703  2654.27802346
0.35800002 26992.20385878  1598.88327131
0.35900002 26534.42938424  1719.43110554
0.36000002 26086.94108910  1695.12951226
0.36100002 25648.76137850  1810.54615147
0.36200002 25221.41092944  1373.30589016
0.36300002 24802.95404381  1895.93789691
0.36400002 24394.02331459  1869.80197563
0.36500002 23994.61872091  1317.30463018
0.36600002 23604.74915639  1559.32980313
0.36700002 23223.59051935  1410.13648313
0.36800002 22853.09690711  1391.41087110
0.36900002 22490.49272796  1747.51136774
0.37000002 22136.42978338  1231.89237580
0.37100002 21790.96487891  1337.52948763
0.37200002 21455.03426589  1560.53199125
0.37300002 21127.09261325  1540.79893727
0.37400002 20807.44169057  1287.46051559
0.37500002 20496.55155529  1271.60611873
0.37600002 20193.94939014  1484.55825974
0.37700002 19898.69416808  1241.08161406
0.37800002 19611.23907813  1783.83839105
0.37900002 19332.25313588  1432.52002523
0.38000002 19060.90556331  1089.33080455
0.38100002 18796.07293578  1077.01503024
0.38200002 18539.67819647  1278.12547541
0.38300002 18289.91871823  1474.89911531
0.38400002 18048.05888998  1354.95808536
0.38500002 17812.24304031  1753.25916552
0.38600002 17584.29432927  1326.99883442
0.38700002 17362.76449041  1313.66682358
0.38800002 17147.92133229  1100.63938286
0.38900002 16939.16041921  1585.50549035
0.39000002 16738.00870885  1276.18953447
0.39100002 16542.27137619  1459.02840450
0.39200002 16353.23036700  1156.82757097
0.39300002 16170.06602932  955.65094761
0.39400002 15994.08554919  947.64961369
0.39500002 15822.72284717  1221.83071615
0.39600002 15657.43878781  1025.64057639
0.39700002 15497.68488225  1295.29656383
0.39800002 15343.90011626  1101.99895856
0.39900002 15195.25511323  911.71534999
0.40000002 15051.82118617  1176.97721342
0.40100002 14914.04695317  1259.04390344
0.40200002 14781.45008701  1250.95418013
0.40300002 14653.32515677  887.99154657
0.40400002 14530.60669095  971.00783813
0.40500002 14412.90226718  1053.29494759
0.40600002 14299.74338675  872.99937512
0.40700002 14191.13678509  1215.89665736
0.40800002 14087.23038298  1123.52711243
0.40900002 13987.52688799  1118.30282768
0.41000002 13892.59993597  1199.07035729
0.41100002 13801.66104142  938.23696205
0.41200002 13714.54472207  934.57769437
0.41300002 13632.21653423  931.21675558
0.41400002 13553.27422644  928.06049663
0.41500002 13478.48145356  925.16301081
0.41600002 13406.92059180  1090.18379958
0.41700002 13339.40828906  920.01903329
0.41800002 13276.54556491  917.87402112
0.41900002 13215.09572812  915.80617735
0.42000002 13158.19081507  914.03376828
0.42100002 13105.25207341  829.56249556
0.42200002 13055.23715664  1242.53225526
0.42300002 13007.95418776  992.76711065
0.42400002 12963.67774093  991.72139417
0.42500002 12922.93772756  1156.08606389
0.42600002 12884.04103184  1072.78972735
0.42700002 12849.53967749  907.43453502
0.42800002 12816.58308828  907.22187689
0.42900002 12787.67933298  907.28589167
0.43000002 12760.69607216  1154.97065622
0.43100002 12735.32215650  1237.87337227
0.43200002 12713.57109155  908.32112968
0.43300002 12694.10946069  991.66387806
0.43400002 12676.74707385  827.15778577
0.43500002 12661.65990072  1407.72341447
0.43600002 12649.07627642  1326.63518274
0.43700002 12638.08191438  913.35422324
0.43800002 12629.09467677  1247.43888581
0.43900002 12622.83153878  999.72830525
0.44000002 12617.97537922  1585.89031069
0.44100002 12615.32970666  1170.95495886
0.44200002 12614.25723294  922.03917614
0.44300002 12615.18127241  1008.20533507
0.44400002 12617.90012944  1010.69384827
0.44500002 12621.20634028  928.79461860
0.44600002 12626.55667020  1015.93279783
0.44700002 12634.26941048  1103.72982801
0.44800002 12641.98342815  1106.86891151
0.44900002 12652.90728780  1622.73543656
0.45000002 12664.24940112  1028.08381511
0.45100002 12676.72179604  945.42995635
0.45200002 12690.74178264  862.33594500
0.45300002 12705.60797622  1038.30233302
0.45400002 12722.08022355  1215.59482297
0.45500002 12739.52083041  1045.65991932
0.45600002 12757.86843092  1136.91749910
0.45700002 12777.31541250  965.58177149
0.45800002 12797.33498588  1145.42552220
0.45900002 12818.42687687  1326.70724463
0.46000002 12841.13201026  887.96432059
0.46100002 12863.56122044  891.44483483
0.46200002 12887.55156455  984.54454844
0.46300002 12912.40074378  1078.44376123
0.46400002 12937.07617163  1082.83332689
0.46500002 12963.07191204  996.73064656
0.46600002 12989.32296031  1182.87275144
0.46700002 13016.02955004  913.72531772
0.46800002 13044.17844346  917.65799699
0.46900002 13071.76432499  1198.02725717
0.47000002 13100.18271570  925.52795273
0.47100002 13129.20149417  1580.23076674
0.47200002 13158.63074453  1120.32587469
0.47300002 13188.57036449  1406.56109604
0.47400002 13218.15109956  1130.15197258
0.47500002 13248.49290285  1040.53668191
0.47600002 13279.46483129  1235.18947983
0.47700002 13309.95741908  1336.05358905
0.47800002 13340.82671821  1054.39228965
