# SAXS profile: number of points = 501, q_min = 0, q_max = 0.5, delta_q = 0.001
#    q    intensity    error
0.00000000 1628779.37420969 415.33874042
0.00100000 1628694.48059500 488.60835578
0.00200000 1628439.76893548 879.35750307
0.00300000 1628015.46087592 1172.17117359
0.00400000 1627421.40243593 1830.84914731
0.00500000 1626658.27401425 1610.39175502
0.00600000 1625725.89607136 2048.41471245
0.00700000 1624625.02191317 1949.55010732
0.00800000 1623355.43355663 2629.83591339
0.00900000 1621918.49943538 2432.87785315
0.01000000 1620313.65039015 2940.86940244
0.01100000 1618542.39106992 3496.05171693
0.01200000 1616604.63762655 3782.85501790
0.01300000 1614501.72848099 3390.45377935
0.01400000 1612233.87471211 4715.78429259
0.01500000 1609802.51442435 4636.23144799
0.01600000 1607207.36781211 5327.89266247
0.01700000 1604450.55996631 4332.01670624
0.01800000 1601532.61872300 4564.36816875
0.01900000 1598454.50372824 5274.90010032
0.02000000 1595216.95010143 5527.42698214
0.02100000 1591822.63146752 6828.91939861
0.02200000 1588270.23509955 7123.39232805
0.02300000 1584562.84867047 6845.31181784
0.02400000 1580701.01440383 6520.39198173
0.02500000 1576687.01082301 8608.71147226
0.02600000 1572521.39173977 8279.32550619
0.02700000 1568205.95436955 8562.40490303
0.02800000 1563741.11385906 12244.09348303
0.02900000 1559130.28314522 10524.12989444
0.03000000 1554373.95650558 10118.97492197
0.03100000 1549473.87728937 8181.22244853
0.03200000 1544431.15786511 9938.41495861
0.03300000 1539249.79250351 8635.19173403
0.03400000 1533928.36847314 8858.43673666
0.03500000 1528471.01807798 14031.36459390
0.03600000 1522878.14634530 11832.76374394
0.03700000 1517152.90938087 13836.43517345
0.03800000 1511296.82773731 12377.52159199
0.03900000 1505312.11028200 11741.43500395
0.04000000 1499199.13560317 9220.07511121
0.04100000 1492961.90058159 12227.35853270
0.04200000 1486601.66982059 12465.15557974
0.04300000 1480120.43485550 11722.55438819
0.04400000 1473520.86067009 11935.51952574
0.04500000 1466805.52630145 13157.24618227
0.04600000 1459974.57793688 16468.51400470
0.04700000 1453032.39362320 11508.01709271
0.04800000 1445980.34690816 13816.34285756
0.04900000 1438820.95606444 16186.73650918
0.05000000 1431556.25615109 10951.40586952
0.05100000 1424189.92791584 12219.55015075
0.05200000 1416721.02236566 13515.51918321
0.05300000 1409155.24806382 13696.98964970
0.05400000 1401493.13735285 12718.55081459
0.05500000 1393738.65104716 12878.14573643
0.05600000 1385892.38372070 14219.25652050
0.05700000 1377959.18466705 11988.24546620
0.05800000 1369938.67022830 16973.54091666
0.05900000 1361834.45846630 17159.11497811
0.06000000 1353650.26730775 13624.49057697
0.06100000 1345387.50657358 15014.52527501
0.06200000 1337048.70782402 13898.62196750
0.06300000 1328637.51178140 16581.39692230
0.06400000 1320152.81127409 20594.38481901
0.06500000 1311601.63926788 14283.34251977
0.06600000 1302984.55986946 14404.49498332
0.06700000 1294302.95821904 17162.45802917
0.06800000 1285560.94335374 15966.66766384
0.06900000 1276762.12546099 17427.80382849
0.07000000 1267906.14385818 13503.20106442
0.07100000 1258997.32305958 19036.04041627
0.07200000 1250037.20007909 21900.65277136
0.07300000 1241029.48676338 20663.14192279
0.07400000 1231976.97431581 20789.61241587
0.07500000 1222880.22814463 18123.08583058
0.07600000 1213742.37175209 15420.59755604
0.07700000 1204567.46987935 14093.44005841
0.07800000 1195356.35493366 16997.96816430
0.07900000 1186111.07457279 15656.66691872
0.08000000 1176837.01537460 18588.14152983
0.08100000 1167534.36390776 14360.67334984
0.08200000 1158204.75452628 20187.50981870
0.08300000 1148851.46274192 17370.63493190
0.08400000 1139477.92829180 14528.34426766
0.08500000 1130085.46525142 16035.91350473
0.08600000 1120676.75528876 20474.76528045
0.08700000 1111253.85535627 26403.39284311
0.08800000 1101818.58535114 23534.84608839
0.08900000 1092374.53970043 14747.05697862
0.09000000 1082923.30873542 16260.09424449
0.09100000 1073466.86647565 14813.84345334
0.09200000 1064007.27401270 17811.48260388
0.09300000 1054548.49010874 20816.78817297
0.09400000 1045089.59132796 14892.52737633
0.09500000 1035634.39585965 16404.44960147
0.09600000 1026184.58421265 14930.98640217
0.09700000 1016745.03385251 17935.38324035
0.09800000 1007314.51073560 19446.20754407
0.09900000 997896.54055799 16465.29369345
0.10000000 988491.33327095 20965.90216464
0.10100000 979102.19667363 17976.31717639
0.10200000 969730.69580945 19477.04194146
0.10300000 960379.09574855 25469.25481734
0.10400000 951049.38937387 16476.93144606
0.10500000 941744.59921087 23957.98373113
0.10600001 932461.60746080 14966.00950395
0.10700001 923208.09159817 14955.97178768
0.10800001 913981.35221721 16437.95539322
0.10900001 904786.36985694 16421.87338581
0.11000001 895623.21411139 23859.40354698
0.11100001 886492.70301623 16382.38592291
0.11200001 877398.39754757 19333.47460013
0.11300001 868339.84257795 14848.61200717
0.11400001 859319.76104871 20752.57320645
0.11500001 850339.57949458 22193.86406987
0.11600001 841400.72205061 14766.58336737
0.11700001 832504.20091709 19155.92256525
0.11800001 823650.81366524 23523.46834619
0.11900001 814841.86255915 19067.30048199
0.12000001 806079.07196257 16093.36942981
0.12100001 797365.21933759 21887.67630190
0.12200001 788699.51513303 17461.80808769
0.12300001 780083.96956444 14509.56251751
0.12400001 771519.00708466 14465.98206444
0.12500001 763005.35248067 17304.96220968
0.12600001 754546.41954712 15811.52096670
0.12700001 746140.77957363 17191.08437153
0.12800001 737790.09851632 14276.23907912
0.12900001 729495.40419417 24182.77378882
0.13000001 721257.65871432 19841.79912647
0.13100001 713077.01101120 18354.60312862
0.13200001 704954.64235909 15470.23035584
0.13300001 696892.63073426 19610.55955336
0.13400001 688889.56788287 18135.01872950
0.13500001 680947.70134673 16669.60051491
0.13600001 673066.62900425 19364.12782949
0.13700001 665248.13339115 13770.63701053
0.13800001 657491.05980306 16450.42709200
0.13900001 649797.68988660 19104.05298358
0.14000001 642167.76454898 16298.21863289
0.14100001 634601.74325366 16220.42132257
0.14200001 627099.94641905 18831.81227917
0.14300001 619664.06061148 17400.16764269
0.14400001 612290.92455903 15980.79388480
0.14500001 604985.33854070 13249.17953903
0.14600001 597744.90357885 15816.33089482
0.14700001 590572.42903739 14421.77939746
0.14800001 583463.26236484 18256.56634072
0.14900001 576422.05874890 14266.44662714
0.15000001 569447.23558199 18057.17269229
0.15100001 562539.55976560 14108.49282463
0.15200001 555699.06836942 19129.94133130
0.15300001 548926.56397035 15216.24507130
0.15400001 542218.95155479 16388.56858414
0.15500001 535580.30034946 18798.86942944
0.15600001 529006.14722144 13703.90489053
0.15700001 522502.66076376 14859.97637347
0.15800001 516062.56569125 14769.71132720
0.15900001 509691.89855635 14679.12737129
0.16000001 503385.70807647 12156.76542388
0.16100001 497149.46756788 13288.80589538
0.16200001 490978.01039572 14405.29550503
0.16300001 484873.20189999 13120.66946281
0.16400001 478834.44000821 13036.26824466
0.16500001 472861.47071478 14129.10141201
0.16600001 466955.20752591 15206.39705102
0.16700001 461112.68076566 12782.04411432
0.16800001 455335.03841800 15005.56689957
0.16900001 449624.35467319 17198.13237831
0.17000001 443976.56854142 14804.39937707
0.17100001 438393.14189722 13572.65231406
0.17200001 432874.09329047 17972.93320215
0.17300001 427418.24070826 12271.17827023
0.17400001 422025.54272154 13293.80522354
0.17500001 416695.40790271 14300.98707462
0.17600001 411426.26113626 14200.37807379
0.17700001 406220.56896374 10846.08970360
0.17800001 401074.52669474 10768.85155039
0.17900001 395990.07566075 16037.59882177
0.18000001 390966.18584753 11676.20569186
0.18100001 386003.57082482 13699.26737568
0.18200001 381097.61441525 10461.13000986
0.18300001 376251.51368524 11422.99649510
0.18400001 371463.46570157 11338.92282620
0.18500001 366734.71725688 12278.27891381
0.18600001 362061.51556755 11171.40859061
0.18700001 357444.92877004 13103.93170780
0.18800001 352884.46759231 11004.70264180
0.18900001 348381.31857628 13900.41526795
0.19000001 343929.63923538 9853.58462966
0.19100001 339536.38699772 16623.70229288
0.19200001 335193.85369928 12615.02128005
0.19300001 330907.07287834 10592.33590335
0.19400001 326670.73093085 9555.11933124
0.19500001 322487.85688985 11377.37212871
0.19600001 318355.72708210 10348.15339782
0.19700001 314274.28789046 11200.73614974
0.19800001 310243.51770685 11112.92332944
0.19900001 306262.69887732 12863.03396075
0.20000001 302329.80698520 14584.39057824
0.20100001 298446.58864991 9947.22526983
0.20200001 294609.69591389 9867.95223103
0.20300001 290821.75903717 9789.06087187
0.20400001 287079.62850996 9710.46889332
0.20500001 283383.24062167 15761.77658839
0.20600001 279732.29835921 11291.39475699
0.20700001 276126.67166583 13784.24410113
0.20800001 272564.18201144 9399.37626097
0.20900001 269047.46393387 11864.99372036
0.21000001 265571.79061883 10086.41708451
0.21100001 262139.35203487 8336.03178878
0.21200001 258748.35598817 11573.81451050
0.21300001 255397.91567951 10657.75552516
0.21400001 252089.07504693 13007.79688739
0.21500001 248821.16819364 10480.34809980
0.21600001 245591.84285762 11991.02229444
0.21700001 242401.70956886 8719.18990543
0.21800001 239250.06955341 13360.92076592
0.21900001 236135.32348555 10130.20585650
0.22000001 233057.92843303 7725.87069285
0.22100001 230018.82323892 9957.51532884
0.22200001 227015.86517633 9871.78536397
0.22300001 224047.12383052 9033.58046000
0.22400001 221113.67899636 8208.84572091
0.22500001 218216.89023370 9616.81880735
0.22600001 215352.03273080 7332.73706124
0.22700001 212522.97152377 8721.94316379
0.22800001 209726.23184177 10806.14460667
0.22900001 206961.06803347 7854.17290330
0.23000001 204229.47329836 9907.17221823
0.23100001 201530.13461727 7013.24901636
0.23200001 198860.56773853 9035.23032251
0.23300001 196222.42328755 7576.14812144
0.23400001 193615.46973514 10919.91300952
0.23500001 191036.72674608 6762.70044666
0.23600001 188488.93043841 7370.85997341
0.23700001 185969.89749444 9294.77591640
0.23800001 183479.61442433 7893.29338588
0.23900001 181017.23593510 10426.59328303
0.24000001 178582.71318420 10329.22461915
0.24100001 176176.73846495 6395.21590878
0.24200001 173797.44764245 8235.39244609
0.24300001 171445.05257514 12549.77844214
0.24400001 169118.41940192 8079.63286912
0.24500001 166818.07979632 7386.70492280
0.24600001 164543.62549143 6705.97577413
0.24700001 162294.80883814 7244.84060926
0.24800001 160070.75759627 7772.23600277
0.24900001 157870.47300507 7104.17162131
0.25000001 155695.81503128 7034.33725590
0.25100001 153543.89856407 8705.93946045
0.25200001 151417.57695477 5746.29731729
0.25300001 149314.33494395 6826.65171661
0.25400001 147233.81544008 7884.37118984
0.25500001 145176.00272577 6132.23464526
0.25600001 143141.38960472 8828.96132854
0.25700001 141128.35582965 7100.16791772
0.25800001 139138.27895083 7027.17911090
0.25900001 137169.99629100 6419.55613016
0.26000001 135223.27091210 8470.38609071
0.26100001 133297.12073339 5762.43480196
0.26200001 131393.50083216 9848.60032088
0.26300001 129509.72907310 6667.16116816
0.26400001 127646.99934550 5581.36531048
0.26500001 125805.13774375 5521.58775685
0.26600001 123982.66602294 10427.56261929
0.26700001 122181.43738961 5894.03281858
0.26800001 120400.43711983 5829.78944121
0.26900001 118637.73048178 5765.79397426
0.27000001 116895.67072951 6177.35201203
0.27100001 115172.31371425 5638.83674630
0.27200001 113469.56807421 5111.23693578
0.27300001 111784.90446155 5513.23174895
0.27400001 110117.43246589 6813.51645628
0.27500001 108471.50306588 6287.00861523
0.27600001 106841.68189235 5771.05372054
0.27700001 105231.90520257 4388.17065462
0.27800001 103639.54795598 5204.77834468
0.27900001 102066.42259448 5144.14794222
0.28000001 100509.80415343 4660.13729013
0.28100001 98971.77301648  4186.50619674
0.28200001 97452.17127006  5377.89832607
0.28300001 95949.50015774  5722.42846025
0.28400001 94464.06253074  4038.33886433
0.28500001 92996.44403481  5984.32145689
0.28600001 91545.99824948  5517.47757565
0.28700001 90112.49855823  4671.43214637
0.28800001 88695.41989064  3844.94663425
0.28900001 87296.95055752  4936.64278770
0.29000001 85913.84091433  4875.18113345
0.29100001 84548.14909778  5554.81365866
0.29200001 83199.13459208  4753.58277993
0.29300001 81866.48457766  5054.43699708
0.29400001 80549.52815407  3920.74846849
0.29500001 79250.06670637  3870.57344116
0.29600001 77966.09170029  5210.08432450
0.29700001 76698.40303902  5142.62816721
0.29800001 75446.57607394  4737.29073594
0.29900001 74211.26436407  4341.35917081
0.30000001 72991.11626574  3295.54905541
0.30100001 71787.82705935  4552.78420763
0.30200001 70598.24316527  3529.55933414
0.30300001 69425.97114450  3482.40687747
0.30400001 68269.14664322  4372.63904951
0.30500001 67127.44124899  4005.49460896
0.30600001 65999.94017096  3343.22712764
0.30700001 64889.11356155  4496.81578271
0.30800001 63792.84062270  3548.15796342
0.30900001 62711.82877336  3207.71019362
0.31000001 61646.00154027  3738.52194041
0.31100001 60594.20512775  3402.97072109
0.31200001 59558.13325380  3355.50538639
0.31300001 58535.95336799  3584.15659442
0.31400001 57529.68680639  3261.93339636
0.31500001 56536.89787053  3483.80381173
0.31600002 55559.22762740  2906.02553864
0.31700002 54595.69446472  3125.05769913
0.31800002 53646.57541805  3850.48313295
0.31900002 52711.68285937  3289.20916617
0.32000002 51791.12433631  2493.74275487
0.32100002 50884.07039780  2703.47078824
0.32200002 49992.10009117  3148.75257334
0.32300002 49112.49511879  2625.55411337
0.32400002 48247.27274131  2587.26012326
0.32500002 47395.61598745  3012.93945099
0.32600002 46558.00362229  2740.40422297
0.32700002 45733.33613285  3150.11234200
0.32800002 44922.93196667  2882.03083679
0.32900002 44124.95937062  2839.44126996
0.33000002 43341.27410870  2367.08379754
0.33100002 42568.11114935  2543.87044275
0.33200002 41811.32625363  2088.47584527
0.33300002 41065.85962297  2880.35953036
0.33400002 40333.73420545  2229.44726378
0.33500002 39613.35861949  3793.37540104
0.33600002 38906.58921632  2753.41944923
0.33700002 38211.59911858  2712.25943388
0.33800002 37529.65969506  2099.22161446
0.33900002 36859.39298115  1879.82913106
0.34000002 36201.77117397  2777.58102486
0.34100002 35555.93961473  2371.22572520
0.34200002 34922.77387053  2156.13216088
0.34300002 34300.59204703  2300.88382348
0.34400002 33691.32418758  1743.52610928
0.34500002 33092.92395443  2232.77968495
0.34600002 32507.15779723  2199.59693652
0.34700002 31931.04064969  1833.48044094
0.34800002 31367.91581270  2134.74361174
0.34900002 30815.32059395  1779.58484858
0.35000002 30273.82210382  2231.48353296
0.35100002 29744.18818560  1884.59185270
0.35200002 29223.92231421  2475.85081572
0.35300002 28715.12233251  1829.72768169
0.35400002 28217.26118957  1803.08307541
0.35500002 27729.84381527  1776.92847585
0.35600002 27252.05878884  1751.21738072
0.35700002 26785.23005377  1726.04030642
0.35800002 26329.00177958  1843.16185688
0.35900002 25882.54621723  1537.42331812
0.36000002 25446.27808292  1377.91602346
0.36100002 25019.15913352  1766.10252689
0.36200002 24602.94091932  1473.59321616
0.36300002 24195.31530306  1585.27713375
0.36400002 23797.18648572  1693.76482835
0.36500002 23408.31885246  1670.65179564
0.36600002 23029.07404624  1521.30070356
0.36700002 22658.39680742  1500.89227562
0.36800002 22298.15075799  1974.72432467
0.36900002 21945.69905721  1705.18089752
0.37000002 21601.73830369  1442.56415225
0.37100002 21266.36630318  1779.99494389
0.37200002 20940.27617645  1640.25191060
0.37300002 20622.05550202  1272.58710531
0.37400002 20312.04919584  1828.08451422
0.37500002 20010.78653108  1692.91262072
0.37600002 19717.50750320  1338.03012255
0.37700002 19431.57325474  1322.12430688
0.37800002 19153.44992504  1088.87367982
0.37900002 18883.55945843  1291.63552814
0.38000002 18621.19268671  1170.62133371
0.38100002 18365.23656972  1052.32810530
0.38200002 18117.65548123  1249.03122805
0.38300002 17876.60129896  1132.66151196
0.38400002 17643.39281674  1222.68718012
0.38500002 17416.04573440  1210.06691495
0.38600002 17196.59699689  998.26250296
0.38700002 16983.39576128  1482.65052020
0.38800002 16776.72764240  1174.70652517
0.38900002 16576.11320364  1260.61346886
0.39000002 16382.93925603  1345.20320604
0.39100002 16195.10635286  1047.49952853
0.39200002 16013.90075649  1132.82339318
0.39300002 15838.45114284  1216.86825896
0.39400002 15670.20777348  1114.15182548
0.39500002 15506.33472817  1105.29159179
0.39600002 15348.54940263  1279.60862432
0.39700002 15196.18598906  907.21234653
0.39800002 15049.58550334  1170.93305556
0.39900002 14908.19801827  1073.39030817
0.40000002 14771.89325102  977.38236326
0.40100002 14641.14477316  971.14717882
0.40200002 14515.40374045  1140.69305699
0.40300002 14394.10689530  1046.73950302
0.40400002 14278.23787619  954.14329128
0.40500002 14167.07383305  862.77483731
0.40600002 14060.65552041  858.40306019
0.40700002 13958.38988320  939.67885146
0.40800002 13860.95511146  1020.44356366
0.40900002 13767.55825181  1100.71633439
0.41000002 13678.81053403  927.62858032
0.41100002 13594.02847359  924.12209942
0.41200002 13512.97232093  1088.26727743
0.41300002 13436.59337574  1168.17748344
0.41400002 13363.56489548  998.25834499
0.41500002 13294.61471437  995.50079698
0.41600002 13228.80479351  992.95413485
0.41700002 13166.91199728  990.67850562
0.41800002 13109.65397781  1153.51850817
0.41900002 13053.72297485  1315.81533821
0.42000002 13002.27872560  1067.42212256
0.42100002 12954.51142390  984.02473439
0.42200002 12909.84827231  901.04290286
0.42300002 12867.78249320  900.23010588
0.42400002 12828.50147018  1144.94381047
0.42500002 12792.83392396  817.46212648
0.42600002 12758.87373020  898.92649126
0.42700002 12729.24757930  1144.10482664
0.42800002 12701.03678197  1307.69880904
0.42900002 12676.84257085  981.18766148
0.43000002 12654.52034574  981.73773494
0.43100002 12633.74711079  1146.13359220
0.43200002 12616.52790145  1229.16528905
0.43300002 12601.36318805  1148.48829538
0.43400002 12588.39596916  1067.81073869
0.43500002 12577.53748978  1233.85648622
0.43600002 12569.15938627  906.29928050
0.43700002 12562.24299716  990.40728483
0.43800002 12557.38492034  992.28460343
0.43900002 12555.09379708  994.36347585
0.44000002 12554.10008615  1079.58988807
0.44100002 12555.34058484  832.41912022
0.44200002 12558.03870557  1001.37805384
0.44300002 12562.62093220  920.33765311
0.44400002 12569.07494323  922.88437144
0.44500002 12575.91519856  925.46164332
0.44600002 12584.71326634  1012.56607740
0.44700002 12595.91004771  1015.73423438
0.44800002 12607.02692689  1358.53328603
0.44900002 12621.07356336  1277.88375885
0.45000002 12635.75798930  1025.77088219
0.45100002 12651.38020739  1029.31634245
0.45200002 12668.37202811  1291.22388016
0.45300002 12686.38798283  1036.73167509
0.45400002 12705.72814118  1214.03238143
0.45500002 12726.06675722  957.50930819
0.45600002 12747.23412504  1135.96982289
0.45700002 12769.42713459  1315.88952858
0.45800002 12792.08975587  968.80896358
0.45900002 12815.93225853  1149.58917807
0.46000002 12841.14287874  887.96507215
0.46100002 12865.98732770  1069.93555688
0.46200002 12892.53458049  984.92522596
0.46300002 12919.64507635  1168.96954191
0.46400002 12946.65603714  1264.24102195
0.46500002 12974.88173306  1360.41641419
0.46600002 13003.37627567  910.88655128
0.46700002 13032.30832225  1097.84170510
0.46800002 13062.44463788  1010.83732621
0.46900002 13092.02462629  1292.18289186
0.47000002 13122.38474255  1205.22548380
0.47100002 13153.32376089  1303.75751297
0.47200002 13184.57110344  1122.53443695
0.47300002 13216.30719789  1315.55128083
0.47400002 13247.62744709  1038.28285038
0.47500002 13279.58685435  1137.79505561
0.47600002 13312.19877204  1047.73665401
0.47700002 13344.16935748  1530.84318125
0.47800002 13376.55356861  1057.21596141
