# SAXS profile: number of points = 501, q_min = 0, q_max = 0.5, delta_q = 0.001
#    q    intensity    error
0.00000000 1646666.22097351 321.09991309
0.00100000 1646580.94368583 691.56401277
0.00200000 1646325.08228193 814.93094153
0.00300000 1645898.85197047 1382.55508491
0.00400000 1645302.11861815 1357.37429944
0.00500000 1644535.53851703 1628.09024757
0.00600000 1643598.95548849 2070.93476823
0.00700000 1642493.09666482 2956.48769687
0.00800000 1641217.76769094 3323.46611989
0.00900000 1639774.34456591 4181.42475739
0.01000000 1638162.20774818 4324.74841520
0.01100000 1636382.92420109 3829.13620935
0.01200000 1634436.39554100 4780.72666656
0.01300000 1632323.92665660 4113.45647660
0.01400000 1630045.76871555 3667.60314220
0.01500000 1627603.34594570 4687.49784505
0.01600000 1624996.38364743 5386.86325260
0.01700000 1622226.98756678 7008.02090066
0.01800000 1619295.71135958 4614.99298504
0.01900000 1616203.52273404 5818.33294438
0.02000000 1612951.14214965 8637.35375693
0.02100000 1609541.27569948 5311.48645062
0.02200000 1605972.58161666 6648.72678996
0.02300000 1602248.09237451 7498.52141363
0.02400000 1598368.43958247 5993.88192174
0.02500000 1594335.96083921 9948.65685000
0.02600000 1590151.02661689 6440.11195236
0.02700000 1585815.61330894 7326.46846905
0.02800000 1581330.03201942 8254.54314569
0.02900000 1576697.69517716 9933.19593569
0.03000000 1571919.20816823 12426.02191174
0.03100000 1566996.18520413 10530.21484910
0.03200000 1561929.81589423 9277.86353373
0.03300000 1556724.16427194 12702.86976607
0.03400000 1551377.70011603 10588.15329183
0.03500000 1545894.52390775 9182.61389605
0.03600000 1540275.22688807 10258.23348515
0.03700000 1534522.78969566 13120.17045867
0.03800000 1528638.78379681 16096.56713832
0.03900000 1522625.56494692 10962.90457531
0.04000000 1516483.30030487 10259.01000195
0.04100000 1510216.03757319 11417.23377343
0.04200000 1503825.19854113 10669.64027864
0.04300000 1497312.64536267 10870.49030992
0.04400000 1490681.07431693 15093.14657841
0.04500000 1483933.00965050 12286.96589082
0.04600000 1477068.71277368 13537.33538188
0.04700000 1470092.43370304 14818.53242091
0.04800000 1463005.80003793 12903.71175672
0.04900000 1455811.10442053 15286.01730794
0.05000000 1448510.37198895 13297.32583406
0.05100000 1441107.33358815 12364.70149818
0.05200000 1433601.19634555 14816.26905469
0.05300000 1425997.43885153 13860.69575179
0.05400000 1418296.86106839 12871.04461442
0.05500000 1410503.18884926 17772.34100857
0.05600000 1402617.15280062 13191.61493767
0.05700000 1394643.56124646 14560.07945906
0.05800000 1386581.96240549 17179.75131637
0.05900000 1378436.06443698 13646.51767530
0.06000000 1370209.58784382 18806.12747176
0.06100000 1361903.99519559 18998.56162081
0.06200000 1353521.75710868 17907.09368359
0.06300000 1345066.59818590 12912.63994632
0.06400000 1336537.32582444 18243.73535070
0.06500000 1327940.82769345 14461.27629005
0.06600000 1319277.99807706 19888.11675155
0.06700000 1310550.05450439 14704.37229969
0.06800000 1301761.25167576 14820.55254407
0.06900000 1292915.00892521 16290.72987517
0.07000000 1284010.97020747 17777.13271500
0.07100000 1275053.43856682 22032.92445041
0.07200000 1266044.27407997 20794.77817593
0.07300000 1256987.02128901 16743.06790808
0.07400000 1247884.43740091 16846.44069441
0.07500000 1238736.95445841 24006.72330266
0.07600000 1229547.95293883 15621.40747443
0.07700000 1220321.33384160 18561.08835803
0.07800000 1211057.95616786 18656.34868968
0.07900000 1201760.10761595 17305.34636135
0.08000000 1192432.78099752 15936.86486565
0.08100000 1183076.53173403 21827.76303461
0.08200000 1173692.78659687 14612.47587882
0.08300000 1164284.94118770 17603.98913695
0.08400000 1154856.25130523 17669.30147434
0.08500000 1145408.20769551 17730.91988751
0.08600000 1135943.48718662 14824.06320380
0.08700000 1126464.16421519 16356.26043246
0.08800000 1116972.10805810 20876.20968003
0.08900000 1107470.69926114 16445.94065649
0.09000000 1097961.77617581 20982.05052836
0.09100000 1088447.29722465 19526.74542960
0.09200000 1078929.10162712 21071.48634486
0.09300000 1069411.32631866 16586.57045064
0.09400000 1059892.97633641 16613.82318488
0.09500000 1050378.10707502 19663.07908866
0.09600000 1040868.14197108 21202.48504863
0.09700000 1031368.04303007 18193.33313437
0.09800000 1021876.53739732 18209.84075260
0.09900000 1012397.50737999 22778.94498717
0.10000000 1002930.44634320 15194.39697665
0.10100000 993479.31788375 16720.25770637
0.10200000 984045.73463304 18244.20877824
0.10300000 974631.26057491 16724.67321821
0.10400000 965238.62186553 19763.26171246
0.10500000 955870.50940150 18238.01017747
0.10600001 946523.95329785 16710.88118178
0.10700001 937206.42282794 21255.84266999
0.10800001 927915.56014205 16688.56213455
0.10900001 918655.94791654 15157.82385404
0.11000001 909427.97774178 21198.76715898
0.11100001 900232.39974215 16636.29553036
0.11200001 891072.57759680 15103.68090130
0.11300001 881948.31386825 19605.71194034
0.11400001 872862.25653763 16562.56209764
0.11500001 863816.09854274 15030.40082240
0.11600001 854810.71572505 18002.31452093
0.11700001 845847.45429784 23954.40103385
0.11800001 836927.05527049 17926.97836822
0.11900001 828051.03262800 22357.37893403
0.12000001 819220.91603929 19329.51842446
0.12100001 810439.51754217 16314.14825665
0.12200001 801705.92955687 16270.62260689
0.12300001 793022.43878290 17700.26166757
0.12400001 784389.30149236 16178.03010555
0.12500001 775807.20547370 23460.41099899
0.12600001 767279.67021549 17540.01408767
0.12700001 758805.35781774 17482.87626803
0.12800001 750385.67945256 15971.95993989
0.12900001 742021.98972898 18810.25832620
0.13000001 733715.00673715 17301.00067434
0.13100001 725464.97097693 22982.73136390
0.13200001 717272.99540813 21464.39539943
0.13300001 709141.47137320 19955.24194519
0.13400001 701068.68604321 21294.96234253
0.13500001 693056.91365586 16966.03404621
0.13600001 685105.78613472 16894.70948268
0.13700001 677217.06961255 14018.39400199
0.13800001 669389.64510087 15352.45223434
0.13900001 661626.09511946 18062.39324855
0.14000001 653925.92371921 17979.69412059
0.14100001 646289.37036218 13765.96423796
0.14200001 638717.01625666 19180.67290285
0.14300001 631210.50234913 14997.56224321
0.14400001 623766.76995411 14923.62067510
0.14500001 616390.37076549 21598.31961046
0.14600001 609079.16664135 16116.23550960
0.14700001 601835.70601808 13360.75330392
0.14800001 594655.75826012 18606.77955380
0.14900001 587543.74543198 19829.60234391
0.15000001 580497.83456149 14463.10423051
0.15100001 573519.19019840 14383.86196888
0.15200001 566607.75807600 15604.37839374
0.15300001 559764.31161841 14223.61182942
0.15400001 552985.68972530 14142.60968213
0.15500001 546276.02175217 16617.71736594
0.15600001 539631.00906357 19062.46629482
0.15700001 533056.63679671 15160.13146601
0.15800001 526545.62270628 15069.73643313
0.15900001 520103.94287025 14978.99426168
0.16000001 513726.87993656 12406.50473609
0.16100001 507419.76921065 17262.42136341
0.16200001 501177.61930637 14704.55204459
0.16300001 495002.09393464 13394.75729421
0.16400001 488892.76974996 19360.15459608
0.16500001 482849.07694878 15629.82535874
0.16600001 476872.27827909 15529.34647535
0.16700001 470959.28951405 13054.99212172
0.16800001 465111.27615066 14148.68568855
0.16900001 459330.31802611 14055.50839527
0.17000001 453612.41688147 19779.77037211
0.17100001 447958.79764587 11557.33752502
0.17200001 442369.72655106 16071.29292453
0.17300001 436843.93224962 12541.78988717
0.17400001 431381.51747907 14720.89497918
0.17500001 425981.59291374 11245.91458404
0.17600001 420642.83986758 13401.68151113
0.17700001 415367.72196255 17744.50992032
0.17800001 410152.34219422 12113.84999887
0.17900001 404998.86485445 12028.46685432
0.18000001 399905.76957632 15200.41901959
0.18100001 394874.15599211 14014.08445814
0.18200001 389899.54458254 14983.84020611
0.18300001 384984.87513169 13813.25797225
0.18400001 380128.34965221 12658.27464140
0.18500001 375331.34077075 10471.74490221
0.18600001 370590.08528733 11434.55762175
0.18700001 365905.49423434 11350.38896740
0.18800001 361277.24216997 12290.65235931
0.18900001 356706.63146728 13215.98132028
0.19000001 352187.33697425 12108.20121727
0.19100001 347726.91225717 11015.98910081
0.19200001 343317.38102444 9939.03865029
0.19300001 338963.71853598 9863.84467549
0.19400001 334660.81669809 10767.71228608
0.19500001 330411.41521407 14571.14409950
0.19600001 326213.05114658 10603.55572860
0.19700001 322065.63690173 13391.48981522
0.19800001 317969.08652817 18033.61759469
0.19900001 313922.74679065 13184.75598832
0.20000001 309924.37227997 9344.22026586
0.20100001 305976.04732103 11125.28960640
0.20200001 302074.25301077 10117.97758281
0.20300001 298221.50731341 11863.25212164
0.20400001 294415.03303546 11769.24150187
0.20500001 290654.45598985 9879.34542606
0.20600001 286939.55278135 8909.47353499
0.20700001 283270.19702974 11489.43973462
0.20800001 279644.12342271 10520.21242045
0.20900001 276064.36567126 9565.63072269
0.21000001 272525.68194758 12938.15736208
0.21100001 269030.46882152 9410.68624425
0.21200001 265577.02304971 12727.77943136
0.21300001 262164.38467973 13464.76343370
0.21400001 258793.52173325 10849.91891161
0.21500001 255464.05340468 10760.14643812
0.21600001 252173.28624912 9849.88902658
0.21700001 248922.09986126 9767.70366037
0.21800001 245709.56116970 8878.71541266
0.21900001 242534.36273580 8003.63434871
0.22000001 239396.61666299 11110.39750466
0.22100001 236297.47860467 10229.31833247
0.22200001 233234.85157037 10142.21800011
0.22300001 230206.76917918 8508.44259119
0.22400001 227214.06316969 9969.01749297
0.22500001 224258.46413721 9883.07098187
0.22600001 221335.11999494 10551.04566910
0.22700001 218447.89277504 9712.19377206
0.22800001 215593.02256854 8146.18274299
0.22900001 212770.32053047 8808.69168653
0.23000001 209981.38669320 10186.19755021
0.23100001 207225.00395358 10096.00267009
0.23200001 204498.70919551 10720.84533660
0.23300001 201804.18783254 9916.65825909
0.23400001 199141.07687105 7721.69562087
0.23500001 196506.49790101 9043.22946111
0.23600001 193903.28341251 9650.56687188
0.23700001 191329.00263722 8879.57943238
0.23800001 188783.82993681 8798.27081035
0.23900001 186266.96481465 8046.73326060
0.24000001 183778.16483880 8636.65526512
0.24100001 181318.29601139 9214.59623916
0.24200001 178885.42145373 9128.52348858
0.24300001 176479.58855758 10334.64519479
0.24400001 174100.09253607 8957.45018470
0.24500001 171747.15655177 7604.96445186
0.24600001 169420.28008474 8787.83034371
0.24700001 167119.48915567 6216.84529068
0.24800001 164843.90327010 7388.30409408
0.24900001 162592.27000209 6706.93145487
0.25000001 160366.58024031 7849.14264119
0.25100001 158164.02443253 7174.32048767
0.25200001 155987.37531531 6511.69329060
0.25300001 153834.12520750 7619.40458201
0.25400001 151703.89033132 5802.67407970
0.25500001 149596.68862771 5744.51311509
0.25600001 147513.07769987 6255.29235582
0.25700001 145451.46259254 6191.86905552
0.25800001 143412.96984149 8914.55062713
0.25900001 141396.61075645 8823.14892867
0.26000001 139402.28423833 7094.87959201
0.26100001 137428.78252680 7561.33197240
0.26200001 135478.15576535 6413.53619740
0.26300001 133547.57754142 6346.18118505
0.26400001 131638.57810128 5755.89709984
0.26500001 129750.77628656 6212.46746257
0.26600001 127882.61308896 7170.37845520
0.26700001 126036.02915029 5573.31347276
0.26800001 124209.99250040 5513.06077801
0.26900001 122402.56617321 4957.30416460
0.27000001 120616.22010148 5883.65949498
0.27100001 118848.82344794 6303.74189399
0.27200001 117102.50474047 7672.55647369
0.27300001 115374.56766363 5690.27394646
0.27400001 113664.04569264 4688.64210671
0.27500001 111975.47305928 5099.36328445
0.27600001 110303.27142624 5499.72137359
0.27700001 108651.61801927 4983.84995441
0.27800001 107017.57838866 5822.29162779
0.27900001 105403.03489495 5312.31321013
0.28000001 103805.44729806 4812.93979176
0.28100001 102226.83616800 6486.29306185
0.28200001 100666.81822134 4700.63729932
0.28300001 99124.20597714  5489.49878683
0.28400001 97599.10334847  5424.07042532
0.28500001 96092.17427496  4534.58991866
0.28600001 94602.72837337  5294.44194401
0.28700001 93130.50517831  4827.88561696
0.28800001 91675.04067602  5166.34716184
0.28900001 90238.66114654  5888.07291852
0.29000001 88817.80868652  6203.03605228
0.29100001 87414.82540208  4594.52344061
0.29200001 86028.68019944  4537.15280849
0.29300001 84659.33984190  4853.52018288
0.29400001 83306.02553930  4054.92098507
0.29500001 81970.52450963  4003.44060656
0.29600001 80650.77922052  5030.18933810
0.29700001 79347.63614132  4256.20740410
0.29800001 78060.68708041  3851.12417942
0.29900001 76790.72858942  4492.25783514
0.30000001 75536.02701852  4092.54213760
0.30100001 74298.56859823  5385.16050693
0.30200001 73075.22858035  3653.39622583
0.30300001 71869.47730795  4915.87248059
0.30400001 70679.31910204  5497.08430340
0.30500001 69504.71313397  4147.34642905
0.30600001 68344.69207453  3776.72786284
0.30700001 67201.61160955  3725.65752402
0.30800001 66073.39935707  4287.50308727
0.30900001 64960.72584455  3020.67389478
0.31000001 63863.63953973  3277.16281814
0.31100001 62780.75879271  4407.20947591
0.31200001 61713.92498099  2897.46891504
0.31300001 60661.46646160  3428.58624674
0.31400001 59624.99447520  4225.92168351
0.31500001 58602.41099704  3055.52985406
0.31600002 57595.16962631  4107.97566810
0.31700002 56602.41201806  3509.91573543
0.31800002 55624.41518867  3193.95407136
0.31900002 54660.97190632  3410.84480845
0.32000002 53712.03831742  3103.48172093
0.32100002 52776.90050740  2549.12441521
0.32200002 51857.26473285  3266.22997386
0.32300002 50950.07237750  2476.17363480
0.32400002 50057.73530259  3416.44059617
0.32500002 49179.29380733  3366.81461347
0.32600002 48315.06750797  2843.82500818
0.32700002 47464.01482637  3269.32149605
0.32800002 46627.63278723  2531.18116571
0.32900002 45803.91686605  2494.02339146
0.33000002 44994.71410030  2904.18395913
0.33100002 44196.51850193  2421.08539818
0.33200002 43414.67809854  2819.13225583
0.33300002 42644.62922434  3204.74403797
0.33400002 41888.10896765  2946.82860542
0.33500002 41143.71086670  2903.10037623
0.33600002 40413.09496440  2655.74666135
0.33700002 39694.51345603  2415.01431303
0.33800002 38989.43711987  2180.87426858
0.33900002 38296.02505434  3320.26552945
0.34000002 37615.76855751  2501.26064869
0.34100002 36947.41342981  2464.02311833
0.34200002 36292.06957385  2800.84060201
0.34300002 35647.86569796  2023.37295284
0.34400002 35017.02864898  2355.77071393
0.34500002 34397.09242516  1963.73009955
0.34600002 33790.08354704  1934.65132511
0.34700002 33193.07322715  2599.01775678
0.34800002 32609.22861061  2048.51183834
0.34900002 32036.15471767  2186.46766304
0.35000002 31474.57389521  2154.27731229
0.35100002 30924.88694979  1796.11751911
0.35200002 30385.01789911  1769.77545136
0.35300002 29856.75129447  2536.62971012
0.35400002 29339.58532841  2343.49948910
0.35500002 28833.30191939  2155.57775359
0.35600002 28336.81772165  1972.66765913
0.35700002 27851.45706584  1944.31030986
0.35800002 27376.82452411  1621.66627750
0.35900002 26912.40568374  1598.59697333
0.36000002 26458.40701826  1575.99508869
0.36100002 26013.66688382  2542.57592166
0.36200002 25580.12307378  1671.40532081
0.36300002 25155.38585746  1510.83254616
0.36400002 24740.36986186  1354.53531410
0.36500002 24334.78833555  1736.77392578
0.36600002 23939.06947207  1449.63042055
0.36700002 23552.20757493  1430.09011169
0.36800002 23175.90658496  1539.34378829
0.36900002 22807.74594238  1645.57894769
0.37000002 22448.16852520  1748.93689264
0.37100002 22097.43301954  1726.25154926
0.37200002 21756.15337517  1582.43389070
0.37300002 21422.93700045  1802.74023398
0.37400002 21098.21635724  1542.80714421
0.37500002 20782.37620913  1640.97650321
0.37600002 20474.77114964  1389.41803603
0.37700002 20174.67444183  1258.29450454
0.37800002 19882.61682739  1808.52291229
0.37900002 19599.04815959  1340.57495762
0.38000002 19323.11449957  1546.04246435
0.38100002 19053.84626849  1419.32107578
0.38200002 18793.02558172  1295.59124498
0.38300002 18539.04268734  1174.63380032
0.38400002 18293.04818228  1162.06594083
0.38500002 18053.13202116  1045.27639354
0.38600002 17821.35886528  1137.98292425
0.38700002 17595.79209547  1024.07514847
0.38800002 17377.19099794  1419.54279987
0.38900002 17164.66459510  1305.37280430
0.39000002 16959.86269119  1492.04399094
0.39100002 16760.54263246  1182.62394417
0.39200002 16568.03334152  1074.35417293
0.39300002 16381.36898187  1258.58063850
0.39400002 16202.15129071  1055.97526040
0.39500002 16027.51362387  1332.84809611
0.39600002 15859.08738264  944.40869838
0.39700002 15696.24800467  937.06605027
0.39800002 15539.36092159  1116.03695426
0.39900002 15387.80790428  1384.90277700
0.40000002 15241.56143370  1191.81395277
0.40100002 15100.98187337  1092.70710013
0.40200002 14965.60719700  1176.07229730
0.40300002 14834.81940680  898.99009865
0.40400002 14709.55530483  982.96607982
0.40500002 14589.22448747  1243.87733874
0.40600002 14473.70740885  971.98186709
0.40700002 14362.66981460  966.89497773
0.40800002 14256.42165993  962.09466131
0.40900002 14154.44880818  1218.69810013
0.41000002 14057.34214708  953.29870287
0.41100002 13964.20266985  949.28654248
0.41200002 13874.98345781  859.55526594
0.41300002 13790.68285320  1113.32187949
0.41400002 13709.74739257  938.77499719
0.41500002 13633.04062716  1190.98248562
0.41600002 13559.60191622  1102.59908206
0.41700002 13490.32669089  930.42787596
0.41800002 13425.65489788  1096.94318541
0.41900002 13362.55886518  1010.20949808
0.42000002 13304.04356522  1092.19550824
0.42100002 13249.33922774  922.55153414
0.42200002 13197.83253139  1088.62326794
0.42300002 13149.02989748  1087.16184344
0.42400002 13103.28617627  835.33453332
0.42500002 13061.10569035  1001.52563179
0.42600002 13020.85868449  1167.58045357
0.42700002 12984.95410212  916.99750214
0.42800002 12950.78589474  916.72142300
0.42900002 12920.56674451  1166.72723232
0.43000002 12892.40103987  1166.89127341
0.43100002 12865.91420632  1167.19579211
0.43200002 12843.06298201  1334.65116834
0.43300002 12822.38566128  918.21108072
0.43400002 12804.03836683  835.46354303
0.43500002 12787.85240344  919.95814550
0.43600002 12774.35053802  1172.30220443
0.43700002 12762.32995513  1090.03065312
0.43800002 12752.44444003  923.72335679
0.43900002 12745.27591287  1093.54472515
0.44000002 12739.52682599  1095.53566132
0.44100002 12736.07431585  1097.72229730
0.44200002 12734.20153119  1015.42527822
0.44300002 12734.28197199  1272.15482929
0.44400002 12736.34104697  1275.22620776
0.44500002 12738.85623115  1022.67542670
0.44600002 12743.46005358  854.44903709
0.44700002 12750.50898513  1028.20109329
0.44800002 12757.62850102  1116.99421634
0.44900002 12767.75663238  948.00597488
0.45000002 12778.58266271  1210.25962134
0.45100002 12790.44947936  953.91176738
0.45200002 12803.84621660  957.02353082
0.45300002 12818.19852359  960.21129691
0.45400002 12834.04583333  875.92366964
0.45500002 12850.96426090  879.00599710
0.45600002 12868.79260582  1235.01808491
0.45700002 12887.75670525  1062.46671314
0.45800002 12907.23463549  977.52946145
0.45900002 12927.87921000  1159.63082010
0.46000002 12950.09454744  985.04898844
0.46100002 12971.95743525  1348.43503930
0.46200002 12995.59483880  1083.05292520
0.46300002 13019.88732597  1540.51314142
0.46400002 13044.16508909  1000.81361389
0.46500002 13069.73733303  1279.00455603
0.46600002 13095.56578463  1009.07886936
0.46700002 13121.88735569  1473.85045765
0.46800002 13149.57530205  1110.08719961
0.46900002 13176.77523314  1021.85896776
0.47000002 13204.76802155  1026.20859543
0.47100002 13233.31633687  1217.99449337
0.47200002 13262.41065615  1129.16169678
0.47300002 13291.97112105  1039.56511065
0.47400002 13321.17780648  1138.96075644
0.47500002 13351.07911547  1048.59380343
0.47600002 13381.75043314  1244.70357553
0.47700002 13411.78218744  1153.94979410
