# SAXS profile: number of points = 501, q_min = 0, q_max = 0.5, delta_q = 0.001
#    q    intensity    error
0.00000000 1646666.22097350 246.99993315
0.00100000 1646580.83658956 740.96139406
0.00200000 1646324.65389212 814.93072948
0.00300000 1645897.88797312 1481.30815194
0.00400000 1645300.40088169 1233.97534755
0.00500000 1644532.85634860 1628.08759223
0.00600000 1643595.09058596 1725.77491538
0.00700000 1642487.84731042 2168.08404856
0.00800000 1641210.91335154 3323.45223985
0.00900000 1639765.64838100 2705.61343549
0.01000000 1638151.49787924 4324.72014114
0.01100000 1636369.95880441 3829.10587032
0.01200000 1634420.97722785 3824.54525440
0.01300000 1632305.86422568 5141.76369909
0.01400000 1630024.82953970 4034.31163196
0.01500000 1627579.28932564 3906.19046832
0.01600000 1624969.04889663 4558.03838592
0.01700000 1622196.15713686 5693.90876697
0.01800000 1619261.17495317 6460.85237879
0.01900000 1616165.08007471 5818.19455080
0.02000000 1612908.58036414 8129.05961276
0.02100000 1609494.39141961 6373.59807899
0.02200000 1605921.15474916 9418.72800052
0.02300000 1602191.94767232 8651.83691125
0.02400000 1598307.43760639 7791.74911362
0.02500000 1594269.71014748 7461.18258425
0.02600000 1590079.52282707 9015.75130679
0.02700000 1585738.54205340 6660.10218166
0.02800000 1581247.28058020 7566.26858456
0.02900000 1576609.05232572 10642.11159182
0.03000000 1571824.47075680 7308.98412498
0.03100000 1566895.22009220 9777.42662327
0.03200000 1561822.32410600 9277.22503248
0.03300000 1556609.92751456 12701.93759408
0.03400000 1551256.59051121 10587.32671874
0.03500000 1545766.42503403 9181.85298870
0.03600000 1540139.91355606 11966.88768137
0.03700000 1534380.08410232 12244.35363741
0.03800000 1528488.54300156 8941.65839038
0.03900000 1522467.48400599 11875.24692519
0.04000000 1516317.32800860 11190.42239926
0.04100000 1510041.97876235 17123.87683314
0.04200000 1503642.85358871 13577.89559782
0.04300000 1497121.94344818 12845.30687104
0.04400000 1490481.71579006 13078.97766347
0.04500000 1483724.86396268 11261.47224074
0.04600000 1476851.65523977 13535.34604949
0.04700000 1469866.40307873 15874.55789154
0.04800000 1462770.37497014 16127.04413441
0.04900000 1455566.30957125 10916.74782993
0.05000000 1448256.05194223 12187.07524460
0.05100000 1440843.29482830 12362.43604552
0.05200000 1433327.36662107 13673.94371479
0.05300000 1425713.65672320 13857.93738938
0.05400000 1418002.80292426 11698.52366967
0.05500000 1410198.95077648 15399.37326085
0.05600000 1402302.38917198 13188.65458560
0.05700000 1394318.30330491 14556.68376599
0.05800000 1386246.04143214 17175.58925531
0.05900000 1378089.34488625 13643.08515159
0.06000000 1369851.93659022 15040.97496646
0.06100000 1361535.30668327 13928.50683827
0.06200000 1353141.89659147 19180.78728076
0.06300000 1344675.36309868 18072.43772503
0.06400000 1336134.70267772 14330.04535639
0.06500000 1327526.67793449 17085.26914423
0.06600000 1318852.25173477 15905.35890011
0.06700000 1310112.64996032 14699.46462047
0.06800000 1301311.91817581 17509.15267864
0.06900000 1292453.67287962 14927.84062066
0.07000000 1283537.66301093 16403.61210144
0.07100000 1274568.03912200 15141.86901398
0.07200000 1265546.68539670 13857.73685428
0.07300000 1256476.96991987 13946.89501960
0.07400000 1247362.07093069 16839.38874673
0.07500000 1238201.97217381 18350.15408773
0.07600000 1229000.51739295 14194.95664136
0.07700000 1219761.22804621 15698.32774103
0.07800000 1210485.19940130 18647.52537128
0.07900000 1201174.55504300 20179.73347123
0.08000000 1191834.37946198 20273.10374568
0.08100000 1182465.24936866 14544.32324963
0.08200000 1173068.41900474 16065.17275213
0.08300000 1163647.64814341 20526.74547661
0.08400000 1154205.89422696 14716.12584215
0.08500000 1144744.74378630 17720.64946571
0.08600000 1135266.78956563 16296.75552937
0.08700000 1125774.34919007 23776.35537138
0.08800000 1116268.93134451 14902.19093331
0.08900000 1106754.24732464 19423.53795287
0.09000000 1097232.07501987 19470.38408586
0.09100000 1087704.14444870 21014.44505803
0.09200000 1078172.60196576 18048.61020495
0.09300000 1068641.43490204 19588.19842225
0.09400000 1059109.65889051 16601.54468334
0.09500000 1049581.26075920 19648.16212493
0.09600000 1040057.89236905 16646.12734986
0.09700000 1030544.38884869 18178.80387393
0.09800000 1021039.31759795 16678.67803716
0.09900000 1011546.75060700 21242.48276162
0.10000000 1002066.42729395 19735.69921367
0.10100000 992601.67346219 16705.48695006
0.10200000 983154.58273619 16708.71291952
0.10300000 973726.83008391 18228.16711664
0.10400000 964320.52541190 16706.85388874
0.10500000 954939.03827791 16701.88456529
0.10600001 945579.08096458 15176.54496359
0.10700001 936248.19919646 19717.38800293
0.10800001 926944.00588849 22733.30281428
0.10900001 917671.04181726 16655.73019290
0.11000001 908429.72551161 21175.49789840
0.11100001 899220.87871344 16617.60262087
0.11200001 890047.94675741 19612.20743009
0.11300001 880910.40649310 19582.63925831
0.11400001 871811.37756850 18046.49636538
0.11500001 862751.80864273 18014.25861272
0.11600001 853733.53409252 19477.93149757
0.11700001 844757.41249187 19437.86897686
0.11800001 835824.11134458 17903.35330822
0.11900001 826935.22776838 19350.28524121
0.12000001 818092.27784255 17818.05065073
0.12100001 809297.90683907 20734.21334997
0.12200001 800551.79978935 19201.23582254
0.12300001 791855.78028773 16201.37002800
0.12400001 783210.03328222 19090.74546076
0.12500001 774615.57780296 16104.25862136
0.12600001 766075.79810481 16053.11910576
0.12700001 757589.14973985 16000.28359654
0.12800001 749157.23470750 20294.67044470
0.12900001 740781.61499881 18778.81482530
0.13000001 732462.63027097 15832.18049955
0.13100001 724200.75300654 15773.09314399
0.13200001 715996.93334138 14284.13949352
0.13300001 707853.65735784 14227.85918364
0.13400001 699769.16861973 15587.35896588
0.13500001 691746.03753582 18345.10578039
0.13600001 683783.54401854 14051.75249213
0.13700001 675883.69851924 18188.03118478
0.13800001 668045.07163425 18107.36252051
0.13900001 660270.59403499 15252.25144148
0.14000001 652559.29791018 19322.28172237
0.14100001 644912.05067286 15110.29005991
0.14200001 637329.09313306 15037.78066174
0.14300001 629812.06780357 17685.12369809
0.14400001 622357.76347631 18950.79479176
0.14500001 614971.18557938 14814.65655945
0.14600001 607649.90925432 21437.88980981
0.14700001 600396.57144457 22658.96767529
0.14800001 593206.68492219 14583.98703687
0.14900001 586085.00010031 14505.60443687
0.15000001 579029.67015641 17049.52944220
0.15100001 572041.47679996 14346.80091510
0.15200001 565120.87042543 16860.38196473
0.15300001 558268.30373306 19343.99763717
0.15400001 551480.78118424 14104.12164437
0.15500001 544762.35235576 16571.67154073
0.15600001 538108.64715992 17741.44293417
0.15700001 531525.80298965 15116.59455048
0.15800001 525006.49832154 20034.24892154
0.15900001 518556.73638694 14934.43471286
0.16000001 512171.67491053 13605.84118623
0.16100001 505856.71462412 14750.78249474
0.16200001 499606.83690843 17101.54283467
0.16300001 493423.79674489 14565.87116753
0.16400001 487307.18249184 13266.93866967
0.16500001 481256.41055413 13181.61370740
0.16600001 475272.62468766 11905.57981052
0.16700001 469352.93530182 11827.69452805
0.16800001 463498.18709200 17624.51939634
0.16900001 457710.76578445 15173.11260220
0.17000001 451986.60060852 15071.49390896
0.17100001 446326.88211534 13818.28092281
0.17200001 440731.99502152 13724.39497308
0.17300001 435200.53964534 13630.48154538
0.17400001 429732.47682304 16920.71707401
0.17500001 424327.31463399 14562.91412601
0.17600001 418983.36706859 12236.40981315
0.17700001 413703.29913552 11045.87860862
0.17800001 408483.27365684 13161.33169886
0.17900001 403324.96894820 11978.75214356
0.18000001 398227.63522079 12974.25696833
0.18100001 393191.82993486 12880.96495712
0.18200001 388213.21919474 10656.45337028
0.18300001 383294.70188103 10578.93427166
0.18400001 378434.47667628 11551.71294625
0.18500001 373633.99696453 11466.82790856
0.18600001 368889.59382358 13451.55967428
0.18700001 364201.92863425 10270.49487271
0.18800001 359570.89362249 16310.13650531
0.18900001 354997.46399714 10117.42820194
0.19000001 350475.84758326 12049.36020923
0.19100001 346013.09494197 13951.24864726
0.19200001 341601.47257095 14834.04464732
0.19300001 337246.05077466 10795.24659540
0.19400001 332941.42427748 12660.09825639
0.19500001 328690.50844231 9663.50140485
0.19600001 324490.85488253 12465.31677938
0.19700001 320342.41367006 13319.83818986
0.19800001 316244.92265224 12271.88480347
0.19900001 312197.92198456 12175.71953282
0.20000001 308199.05309110 15796.74321276
0.20100001 304250.44507855 10140.66781374
0.20200001 300348.44396253 10060.17160600
0.20300001 296495.96746449 9072.77703323
0.20400001 292689.71243002 11700.27180741
0.20500001 288929.49623687 8927.92185571
0.20600001 285215.36442547 10627.12498082
0.20700001 281546.89766613 11419.54270913
0.20800001 277921.92571514 12197.99389624
0.20900001 274343.15274728 9505.99069205
0.21000001 270806.07156897 13713.62011253
0.21100001 267312.55532884 8500.53966131
0.21200001 263860.90233998 8430.35622830
0.21300001 260450.32930556 8360.45596595
0.21400001 257081.76247480 9119.97595495
0.21500001 253754.63312706 9043.81555222
0.21600001 250466.50014407 9783.22195816
0.21700001 247217.89658162 11317.63584060
0.21800001 244008.48015585 10420.38263774
0.21900001 240836.34880874 11126.63984105
0.22000001 237701.91063030 8667.80058097
0.22100001 234606.28439709 10156.10653177
0.22200001 231547.36036810 7745.25957054
0.22300001 228523.21055394 11517.57035653
0.22400001 225534.38764990 10656.50032036
0.22500001 222583.13295747 8300.12542047
0.22600001 219664.25043533 9723.43850532
0.22700001 216781.47441800 8896.71213083
0.22800001 213931.41672591 10287.96231687
0.22900001 211113.55991922 8740.10179398
0.23000001 208329.70139015 7218.62449455
0.23100001 205578.64169499 8584.96448319
0.23200001 202857.76074748 7798.86698077
0.23300001 200168.82322088 7728.51863007
0.23400001 197511.44609917 8354.73456513
0.23500001 194882.83975979 7588.73813916
0.23600001 192285.63009620 10253.63170985
0.23700001 189717.57627521 8804.79313138
0.23800001 187178.88536434 10736.58137233
0.23900001 184668.47319246 7312.87188432
0.24000001 182186.44822951 9220.45658103
0.24100001 179733.45235514 7176.75709201
0.24200001 177307.48067537 6462.85797632
0.24300001 174908.88272744 8322.16503383
0.24400001 172536.69890189 6974.79638304
0.24500001 170191.17247283 7536.06547359
0.24600001 167871.96765865 6841.62236557
0.24700001 165578.92413857 7391.44352320
0.24800001 163311.07492694 8539.53651191
0.24900001 161067.44518930 9060.04422051
0.25000001 158849.90340313 6578.76906067
0.25100001 156655.70870913 7698.06189015
0.25200001 154487.28451037 7621.63054190
0.25300001 152342.62729627 6965.10524951
0.25400001 150221.04943838 7469.74203673
0.25500001 148122.61187056 6256.69942143
0.25600001 146047.96056395 7882.20880456
0.25700001 143995.27041330 6687.14067438
0.25800001 141965.96627514 5515.37805074
0.25900001 139958.87776261 8187.59473651
0.26000001 137973.81843913 6482.01029697
0.26100001 136009.84383551 6414.22453878
0.26200001 134068.66889795 5817.91016211
0.26300001 132147.87572524 5756.36173897
0.26400001 130248.60069965 7766.07318419
0.26500001 128370.65261144 6146.38713788
0.26600001 126512.49101808 6080.19060604
0.26700001 124675.99135293 5513.17259851
0.26800001 122860.11364132 5948.88698402
0.26900001 121062.97971396 5883.66109252
0.27000001 119286.91112059 6303.71711647
0.27100001 117529.93504624 6233.78804985
0.27200001 115794.03195347 5690.11899947
0.27300001 114076.73157099 5626.26466734
0.27400001 112376.82773831 5099.09879994
0.27500001 110698.99338270 5499.52625152
0.27600001 109037.75261051 5889.67448599
0.27700001 107396.80564563 4926.29170811
0.27800001 105773.68761041 4426.62903600
0.27900001 104170.22808049 6125.20970103
0.28000001 102583.65512819 4756.29139513
0.28100001 101016.08419294 5127.57667632
0.28200001 99467.37554279  4644.62932080
0.28300001 97936.02140969  5423.69712237
0.28400001 96422.20237143  4946.45921577
0.28500001 94926.59086631  4886.82112910
0.28600001 93448.50824686  4425.25431749
0.28700001 91987.80644020  4371.26076894
0.28800001 90543.82665639  4317.58257847
0.28900001 89118.87090242  5815.00660163
0.29000001 87709.59707499  5359.93373096
0.29100001 86318.17545633  5671.10439592
0.29200001 84943.69484819  5226.58579141
0.29300001 83585.93453594  4423.36786503
0.29400001 82244.34906082  3639.31261821
0.29500001 80920.54241444  4311.44670393
0.29600001 79612.53127744  4256.08612356
0.29700001 78321.11341081  3500.95393519
0.29800001 77045.88477331  3801.05890523
0.29900001 75787.63259070  4092.53235363
0.30000001 74544.74493709  4711.97355054
0.30100001 73319.16936111  4317.76608808
0.30200001 72107.61931780  3277.29145314
0.30300001 70913.55896005  3880.39013000
0.30400001 69735.35568631  4785.58901053
0.30500001 68572.50445993  3147.47810372
0.30600001 67424.30919321  3415.37854388
0.30700001 66292.99178136  3062.73636530
0.30800001 65176.52778294  4229.30508807
0.30900001 64075.66025385  3575.42201144
0.31000001 62990.27304683  3820.04528978
0.31100001 61919.18052927  4926.29023615
0.31200001 60864.10845320  3714.84103532
0.31300001 59823.26222626  3381.21094112
0.31400001 58798.51343083  3333.87586938
0.31500001 57787.66113253  3834.78937432
0.31600002 56792.03030677  4320.73787032
0.31700002 55810.92667077  3194.61759389
0.31800002 54844.46264862  3674.03072679
0.31900002 53892.50875767  3104.20865142
0.32000002 52955.17945078  2804.77121241
0.32100002 52031.57729039  3518.37542297
0.32200002 51123.28637200  3715.38501301
0.32300002 50227.69339807  3661.59902210
0.32400002 49346.52821422  3608.46504653
0.32500002 48479.30269910  2607.70181566
0.32600002 47626.42414187  3270.50670069
0.32700002 46786.59408891  4143.42096872
0.32800002 45961.32728478  2948.64909158
0.32900002 45148.78841592  3128.81118538
0.33000002 44350.67681039  2202.01120791
0.33100002 43563.40356930  2820.29488063
0.33200002 42792.60179711  2564.98867318
0.33300002 42033.42385889  2316.46209856
0.33400002 41287.75016005  3112.06431569
0.33500002 40554.07364379  2248.31794928
0.33600002 39834.24187476  2416.34522655
0.33700002 39126.20127141  2182.06834824
0.33800002 38431.61471255  2345.09724082
0.33900002 37748.75894822  2310.22415704
0.34000002 37078.82873434  2086.24039754
0.34100002 36420.88886774  2428.90919362
0.34200002 35775.82104650  2208.79929602
0.34300002 35141.74306886  1994.64543105
0.34400002 34520.94298183  1965.10477231
0.34500002 33911.12706254  1759.98757790
0.34600002 33314.11933711  2600.99999043
0.34700002 32726.94627931  2050.01601203
0.34800002 32152.90846296  2019.84580531
0.34900002 31589.56354389  2321.83303044
0.35000002 31037.49415209  2287.77380230
0.35100002 30497.46803353  1771.29302728
0.35200002 29966.92961195  1586.74899811
0.35300002 29447.98888632  1563.68828393
0.35400002 28940.13398115  1849.27464898
0.35500002 28442.96534849  2430.16707448
0.35600002 27955.53677568  1796.42287829
0.35700002 27479.15035968  1623.19348863
0.35800002 27013.54555843  2036.55129611
0.35900002 26557.85318597  2007.77379596
0.36000002 26112.48508882  1413.99113453
0.36100002 25676.35601679  2230.76191640
0.36200002 25251.28719484  1512.42591817
0.36300002 24834.93765983  1762.78395859
0.36400002 24428.17391924  1738.67536106
0.36500002 24030.82155126  1451.22138222
0.36600002 23643.22314404  2342.80709232
0.36700002 23264.22762551  1412.60396833
0.36800002 22895.89098348  1774.20267635
0.36900002 22535.46535839  1500.86206396
0.37000002 22183.56587538  1481.41859933
0.37100002 21840.28986789  1340.55705559
0.37200002 21506.55085350  1684.60820815
0.37300002 21180.69313466  1188.23694114
0.37400002 20863.19101145  1173.55454999
0.37500002 20554.47927253  1507.05449165
0.37600002 20253.93798529  1374.43229679
0.37700002 19960.77469641  1131.77597890
0.37800002 19675.46103548  1230.40501414
0.37900002 19398.60088879  1548.00842426
0.38000002 19129.23351289  1093.23574705
0.38100002 18866.47258565  1621.57339556
0.38200002 18612.06757006  1390.04233232
0.38300002 18364.32056472  1163.56340610
0.38400002 18124.48655582  1256.02697782
0.38500002 17890.53834175  1139.44844097
0.38600002 17664.65917598  1333.06356787
0.38700002 17445.03036472  1522.95122299
0.38800002 17232.02514086  1206.58645753
0.38900002 17025.17614906  1394.36199267
0.39000002 16825.81134145  1381.56743470
0.39100002 16631.88362191  1075.75028363
0.39200002 16444.63488852  969.41127261
0.39300002 16263.15262289  1249.49807521
0.39400002 16088.97785699  1143.92637983
0.39500002 15919.27124068  1040.16523215
0.39600002 15755.61480587  1125.89628737
0.39700002 15597.48215228  1117.40367433
0.39800002 15445.26680183  1201.71904045
0.39900002 15298.21177684  1376.83912515
0.40000002 15156.25758498  1185.14361801
0.40100002 15019.95084651  1267.98431054
0.40200002 14888.80786576  1260.03986938
0.40300002 14762.06677252  1162.95567544
0.40400002 14640.76678663  1245.19727420
0.40500002 14524.31259469  972.98374682
0.40600002 14412.51352342  967.87239152
0.40700002 14305.07184884  1050.56452636
0.40800002 14202.45114092  1045.58450254
0.40900002 14103.88564866  867.38900849
0.41000002 14010.05588304  863.71998611
0.41100002 13920.17282783  946.29339367
0.41200002 13834.07583651  1114.12735028
0.41300002 13752.72254079  1195.66175435
0.41400002 13674.72854693  1021.50227086
0.41500002 13600.87149484  1188.17219009
0.41600002 13530.14959657  930.94198710
0.41700002 13463.45487902  844.15866091
0.41800002 13401.35525376  926.50273937
0.41900002 13340.61389425  1344.73394426
0.42000002 13284.45498104  922.80470898
0.42100002 13231.99846379  921.34409669
0.42200002 13182.64142307  1003.72636551
0.42300002 13135.89976367  1086.07624392
0.42400002 13092.06740414  1335.39093850
0.42500002 13051.76886334  917.40887688
0.42600002 13013.24869036  1083.54820355
0.42700002 12979.06738898  916.58178244
0.42800002 12946.40897773  1083.03189435
0.42900002 12917.73354601  1166.47139448
0.43000002 12890.95192561  1333.44013037
0.43100002 12865.75469571  833.70094379
0.43200002 12844.13650967  917.64937642
0.43300002 12824.64420654  1001.86125289
0.43400002 12807.37072901  919.24907764
0.43500002 12792.16954516  920.26872069
0.43600002 12779.51918500  1005.23702673
0.43700002 12768.38725019  1006.65969851
0.43800002 12759.22555707  1092.25355557
0.43900002 12752.73190607  1178.35248396
0.44000002 12747.56233339  1011.90154598
0.44100002 12744.63509499  1098.46015089
0.44200002 12743.23013798  1016.14521936
0.44300002 12743.67005109  1188.21985187
0.44400002 12746.01146546  1191.11482790
0.44500002 12748.78383741  1023.47241497
0.44600002 12753.52670947  1111.66120831
0.44700002 12760.71300066  1114.77594057
0.44800002 12767.77406251  859.90962386
0.44900002 12777.91508601  1293.76396377
0.45000002 12788.59321259  951.66320902
0.45100002 12800.22567511  1041.42641028
0.45200002 12813.41784254  957.73896203
0.45300002 12827.47376667  1310.32650737
0.45400002 12842.93985433  1051.83682392
0.45500002 12859.45443807  879.58672525
0.45600002 12876.78791969  970.97423910
0.45700002 12895.19257921  974.48974940
0.45800002 12914.11002483  1066.96382082
0.45900002 12934.12559373  1160.19112074
0.46000002 12955.66632821  1254.23811668
0.46100002 12976.79013310  1259.00823838
0.46200002 12999.64774892  993.10813685
0.46300002 13023.06075700  997.04557881
0.46400002 13046.44800757  1273.98570832
0.46500002 13071.06089620  1187.76735993
0.46600002 13095.95405777  1192.58311279
0.46700002 13121.23482309  1197.44394671
0.46800002 13147.86615570  1017.44767068
0.46900002 13173.95367234  1021.64015571
0.47000002 13200.77569191  1025.89833152
0.47100002 13228.18606498  1873.11123558
0.47200002 13256.00936099  940.51390874
0.47300002 13284.27030733  944.51166362
0.47400002 13312.17849627  1138.19131538
0.47500002 13340.75610467  952.53003102
0.47600002 13370.03235357  1052.28844626
0.47700002 13398.66214663  960.68412145
0.47800002 13427.72754783  1350.69517806
