# SAXS profile: number of points = 501, q_min = 0, q_max = 0.5, delta_q = 0.001
#    q    intensity    error
0.00000000 1646666.22097350 419.89988635
0.00100000 1646580.41317584 691.56378996
0.00200000 1646322.95162694 814.92988686
0.00300000 1645894.05929769 987.53647076
0.00400000 1645293.59568461 1357.36726802
0.00500000 1644522.22755693 2368.11210141
0.00600000 1643579.79646587 2070.91062786
0.00700000 1642467.04481961 4139.01712496
0.00800000 1641183.74600370 3323.39722597
0.00900000 1639731.31302406 2951.51648961
0.01000000 1638109.13319894 2973.16820514
0.01100000 1636318.70519877 3239.91117736
0.01200000 1634360.09382381 3187.00232269
0.01300000 1632234.48918132 3427.69257846
0.01400000 1629942.15332599 3667.37000756
0.01500000 1627484.49443560 5077.75184875
0.01600000 1624861.29367162 6629.43437454
0.01700000 1622074.76037858 4817.56225443
0.01800000 1619125.26209711 4614.50720462
0.01900000 1616013.93133272 6302.45461658
0.02000000 1612741.38314143 8636.23049739
0.02100000 1609310.36945906 7435.01424399
0.02200000 1605719.59187245 6093.70612801
0.02300000 1601972.12923368 6343.80992053
0.02400000 1598068.48776020 9588.41136377
0.02500000 1594011.07763809 9324.96523006
0.02600000 1589800.45751900 10945.77665066
0.02700000 1585438.32033741 7990.60950048
0.02800000 1580925.12223479 7564.72705681
0.02900000 1576264.44192861 8511.82837723
0.03000000 1571456.66324603 9499.45596597
0.03100000 1566503.46080569 9023.06034942
0.03200000 1561406.14848435 7728.96079098
0.03300000 1556168.55348245 10317.39798523
0.03400000 1550789.58241335 8955.81025166
0.03500000 1545273.05211572 14185.60727349
0.03600000 1539619.55709429 8544.88893676
0.03700000 1533832.37468469 9617.12943404
0.03800000 1527912.56307245 10725.94668916
0.03900000 1521862.95829392 13696.76725894
0.04000000 1515683.67100775 14914.32801383
0.04100000 1509378.67134294 14263.62910555
0.04200000 1502949.52780987 10663.42739452
0.04300000 1496397.76933259 11851.47088324
0.04400000 1489726.68197498 10055.65557034
0.04500000 1482938.29855058 11255.50220898
0.04600000 1476033.22569770 10406.03472491
0.04700000 1469015.48218916 13749.98555277
0.04800000 1461886.63975659 11819.35403236
0.04900000 1454649.42740740 15273.81969874
0.05000000 1447305.72151045 13286.26714216
0.05100000 1439859.16458887 11230.90200697
0.05200000 1432308.90454810 13664.22758616
0.05300000 1424660.66609579 17309.62790000
0.05400000 1416915.16475809 15196.41585070
0.05500000 1409076.15190814 11836.24022818
0.05600000 1401144.31449608 16771.69822716
0.05700000 1393124.68115061 16968.25940847
0.05800000 1385016.64016061 18386.09675662
0.05900000 1376824.00678394 16108.84163175
0.06000000 1368550.55367868 12522.23815118
0.06100000 1360197.48168356 13914.82088788
0.06200000 1351767.71535167 12774.20550718
0.06300000 1343264.51263686 14184.87391666
0.06400000 1334687.18408859 16917.16084948
0.06500000 1326042.60947343 17066.16918224
0.06600000 1317331.19345083 14563.09702498
0.06700000 1308554.61568803 14681.98347512
0.06800000 1299717.07234451 16142.48679413
0.06900000 1290821.93244177 18975.08329529
0.07000000 1281868.85928970 13651.90399073
0.07100000 1272862.38936381 13746.91444900
0.07200000 1263804.17300108 16606.38761119
0.07300000 1254697.71244054 16712.57431279
0.07400000 1245545.95045819 15413.63185927
0.07500000 1236349.52287387 19732.13930996
0.07600000 1227111.63348308 21259.71004676
0.07700000 1217836.23864227 15673.55312624
0.07800000 1208524.10759871 17185.21361598
0.07900000 1199177.16668682 17268.15201023
0.08000000 1189801.16990515 23129.73582800
0.08100000 1180396.46680787 17422.65266752
0.08200000 1170964.43199292 20409.91100738
0.08300000 1161508.54435504 16098.50918030
0.08400000 1152031.95240476 22032.61212392
0.08500000 1142536.32867506 17686.46319818
0.08600000 1133024.21019471 14785.96663726
0.08700000 1123497.74575344 17796.20512840
0.08800000 1113958.78301414 20819.89063231
0.08900000 1104410.79896439 17891.45578358
0.09000000 1094855.86213676 14944.78322021
0.09100000 1085295.27880520 16474.78310627
0.09200000 1075731.57935376 19508.39310822
0.09300000 1066169.07876308 15032.98471699
0.09400000 1056605.99952235 24090.61792131
0.09500000 1047046.68661058 19600.71489464
0.09600000 1037492.99795888 19624.18097888
0.09700000 1027949.68109551 21155.20543151
0.09800000 1018415.24406797 16635.81379403
0.09900000 1008893.77094085 16646.74800330
0.10000000 999385.00453544 21196.95694303
0.10100000 989892.61668140 21203.50084655
0.10200000 980418.36414702 16662.21088241
0.10300000 970963.77472948 22720.55339746
0.10400000 961531.34247044 15144.11935637
0.10500000 952124.40057542 19680.41228584
0.10600001 942739.20605390 15130.96496913
0.10700001 933384.14819527 18144.98869478
0.10800001 924055.99734282 22662.47440137
0.10900001 914760.19832742 19621.60717763
0.11000001 905496.27783028 24122.42197683
0.11100001 896265.69630171 18068.71728800
0.11200001 887071.52061424 16539.44928048
0.11300001 877913.54007298 24019.71558726
0.11400001 868794.44401894 20981.38681095
0.11500001 859715.80220915 23934.48906053
0.11600001 850678.93062093 14929.41593545
0.11700001 841685.05390012 20856.95661790
0.11800001 832734.67036000 25269.33476222
0.11900001 823829.57323589 14828.93301671
0.12000001 814970.79615978 20708.40890589
0.12100001 806161.79920339 22129.14243060
0.12200001 797401.39962322 20596.87912261
0.12300001 788692.01524173 19070.57382704
0.12400001 780033.68782674 19013.32203664
0.12500001 771427.13044431 14579.97345241
0.12600001 762876.19968563 17439.35074662
0.12700001 754379.10849835 15932.48752233
0.12800001 745937.61622226 24537.61904207
0.12900001 737552.92558478 18696.96754480
0.13000001 729225.84178656 21493.93269977
0.13100001 720956.44960774 15702.43221263
0.13200001 712746.26785801 19907.00419970
0.13300001 704597.09748916 15578.64255991
0.13400001 696507.55542273 18335.56226094
0.13500001 688480.09231096 16853.99345441
0.13600001 680514.07101649 15383.02130065
0.13700001 672611.42841278 23669.19728193
0.13800001 664770.94960715 18018.61743878
0.13900001 656995.24046685 22075.04112070
0.14000001 649283.56925690 15105.58295115
0.14100001 641636.68013006 17766.92051074
0.14200001 634054.71313679 13600.47423825
0.14300001 626539.72237938 17593.23623424
0.14400001 619088.10424200 17504.71697314
0.14500001 611704.90755336 16075.60572882
0.14600001 604387.63982530 22655.47174761
0.14700001 597139.23246809 18559.08822066
0.14800001 589955.11262215 18459.69634485
0.14900001 582839.74539975 15736.67386826
0.15000001 575791.56693318 19562.51940957
0.15100001 568811.25624102 12968.89725423
0.15200001 561899.30971697 15474.70771981
0.15300001 555056.01737560 14103.97406707
0.15400001 548278.54778761 15296.97220515
0.15500001 541570.81708083 13940.03348953
0.15600001 534928.56377424 17636.59557999
0.15700001 528357.83406696 13774.28938423
0.15800001 521851.40534246 13690.77226535
0.15900001 515415.25267773 12369.96664814
0.16000001 509044.31341940 17210.78904910
0.16100001 502744.06079937 15881.68563034
0.16200001 496509.78535899 13353.63130760
0.16300001 490342.90826572 14474.92333533
0.16400001 484243.05797269 11985.01625063
0.16500001 478209.73023348 15479.64969847
0.16600001 472243.95833366 15378.62522921
0.16700001 466342.80085866 14102.20696380
0.16800001 460507.33695542 12841.24769732
0.16900001 454739.83676983 12755.45302368
0.17000001 449036.15387033 18428.44462502
0.17100001 443397.39862109 13727.58410954
0.17200001 437824.02845520 15906.14770491
0.17300001 432314.54832043 14668.43331722
0.17400001 426869.15677238 15687.44225224
0.17500001 421487.10169848 11127.26001035
0.17600001 416166.71663077 12154.14953323
0.17700001 410910.69068375 18651.23713104
0.17800001 405715.39849580 14161.49665337
0.17900001 400582.21488373 15142.00843782
0.18000001 395510.52107130 16107.16673145
0.18100001 390500.69536573 12792.80338447
0.18200001 385548.37753694 13758.29450232
0.18300001 380656.64430226 12607.34865485
0.18400001 375823.80317645 15643.66654624
0.18500001 371050.99500974 13458.02022479
0.18600001 366334.43806160 10275.68147309
0.18700001 361675.28439742 11219.16785206
0.18800001 357072.88285482 14172.22339009
0.18900001 352528.73303691 14065.89711275
0.19000001 348036.55553833 17948.24601714
0.19100001 343603.58911573 9895.78383411
0.19200001 339221.97749418 10802.52438374
0.19300001 334896.78440839 10720.04657546
0.19400001 330622.82726185 11604.86178527
0.19500001 326402.72542592 11515.48869719
0.19600001 322234.27847364 16187.43974408
0.19700001 318117.05934193 13227.30795253
0.19800001 314051.21471855 14061.64380356
0.19900001 310035.92551433 12091.40166650
0.20000001 306069.04404427 10150.78032547
0.20100001 302152.56972347 11901.79028391
0.20200001 298282.96834408 10899.26017843
0.20300001 294462.92478761 11713.73570170
0.20400001 290689.24845727 10726.43377507
0.20500001 286961.65879623 14187.38508148
0.20600001 283280.31016697 8795.85404645
0.20700001 279644.77349247 11342.39254900
0.20800001 276052.82709433 8654.25653850
0.20900001 272507.22875029 8583.97811141
0.21000001 269003.27303376 11919.53559159
0.21100001 265542.90328031 9288.69119585
0.21200001 262124.44017647 9212.36388551
0.21300001 258747.05234890 8305.78077306
0.21400001 255411.71487874 9060.73101368
0.21500001 252117.87372792 15520.37704046
0.21600001 248862.81864890 11340.67918200
0.21700001 245647.51339731 12049.01110181
0.21800001 242471.05945394 7965.17467966
0.21900001 239332.15341093 14216.33058478
0.22000001 236230.59079983 7831.04445529
0.22100001 233167.92934454 9317.39089717
0.22200001 230141.74489239 12317.18676905
0.22300001 227150.21420367 8395.47231395
0.22400001 224194.16767949 9836.51957207
0.22500001 221275.27929594 9001.47878741
0.22600001 218388.62582373 9666.97297922
0.22700001 215538.05471704 8845.68218389
0.22800001 212720.09602005 8768.32277260
0.22900001 209934.13396414 9415.54635356
0.23000001 207181.73809172 12204.04085944
0.23100001 204462.20231211 7115.28497696
0.23200001 201772.65964553 7051.95478812
0.23300001 199114.72437357 6988.92715605
0.23400001 196488.12933889 7618.82757545
0.23500001 193890.20128012 7550.08479494
0.23600001 191323.34662888 6801.54529435
0.23700001 188785.33402446 9435.49144082
0.23800001 186276.52463698 6678.01372410
0.23900001 183795.76804348 6616.64796253
0.24000001 181343.08850138 8522.21884723
0.24100001 178919.09046087 8443.19227822
0.24200001 176522.01226504 7077.65041655
0.24300001 174151.79217687 7648.74707422
0.24400001 171807.78285144 7576.72358215
0.24500001 169490.05691831 8755.85675459
0.24600001 167198.37634838 8672.58019145
0.24700001 164932.48568097 7976.13538485
0.24800001 162691.52544292 7899.48739158
0.24900001 160474.58348495 7823.13631498
0.25000001 158283.23150982 6555.30034310
0.25100001 156114.75688838 8261.59332538
0.25200001 153971.87114196 7596.20262216
0.25300001 151852.36862366 8099.80572559
0.25400001 149755.58235984 6300.96642590
0.25500001 147681.57073190 8506.45887661
0.25600001 145630.94474200 6736.88782250
0.25700001 143601.94436026 8336.09326452
0.25800001 141595.91718235 6051.10180709
0.25900001 139611.81477459 6533.83324060
0.26000001 137649.28629515 6466.76377612
0.26100001 135707.36713906 6399.95973710
0.26200001 133787.98411367 5805.72984532
0.26300001 131888.63090334 6267.34803708
0.26400001 130010.20765668 6201.48719867
0.26500001 128152.84659744 5624.62870331
0.26600001 126314.88416117 7082.47589006
0.26700001 124498.13539694 10510.13308755
0.26800001 122701.57173463 5446.10951916
0.26900001 120923.34389441 7346.09348921
0.27000001 119165.90143075 5328.50353463
0.27100001 117427.08462409 4791.02527939
0.27200001 115708.93586423 5212.10926266
0.27300001 114008.90773576 5622.91959563
0.27400001 112325.94260657 6023.47895734
0.27500001 110664.59741544 5955.96891477
0.27600001 109019.54610635 7247.61976815
0.27700001 107394.31139593 6717.51449573
0.27800001 105786.39744743 5755.30922551
0.27900001 104197.95845345 5251.57735460
0.28000001 102625.89127609 5190.81782642
0.28100001 101072.43711730 5130.43715089
0.28200001 99537.37709780  5070.43422934
0.28300001 98019.25869593  5010.74474170
0.28400001 96518.37274164  4126.16063000
0.28500001 95035.33616711  4484.71772599
0.28600001 93569.31892018  5639.42311824
0.28700001 92120.34642085  4377.55906912
0.28800001 90687.69144151  4324.44277108
0.28900001 89273.75520879  5436.77194956
0.29000001 87875.05288272  4602.89548787
0.29100001 86493.79410006  6440.32821354
0.29200001 85129.15262741  5237.99700911
0.29300001 83780.87938468  4064.21065133
0.29400001 82448.32552662  6567.00943905
0.29500001 81133.28108148  3602.31785054
0.29600001 79833.68685363  4979.22728477
0.29700001 78550.25577432  4564.55557912
0.29800001 77282.71101900  5545.80760525
0.29900001 76031.72016233  4105.71308313
0.30000001 74795.79950710  5065.54576142
0.30100001 73576.87255587  4999.54872685
0.30200001 72371.65564266  4933.93785701
0.30300001 71183.61344691  4219.76480490
0.30400001 70011.04419952  4804.50813565
0.30500001 68853.45292456  3476.41100274
0.30600001 67710.32596026  3741.67278971
0.30700001 66583.72854330  4306.63576607
0.30800001 65471.66369407  4248.45645825
0.30900001 64374.90751708  4190.80667777
0.31000001 63293.37496750  3543.16329843
0.31100001 62225.87578174  2912.17112446
0.31200001 61173.96790022  3733.75330757
0.31300001 60136.07269000  3682.13190514
0.31400001 59114.04793907  2793.13889737
0.31500001 58105.67704231  2754.20922221
0.31600002 57112.30034319  3801.96601386
0.31700002 56133.09848434  2677.54892448
0.31800002 55168.25448662  2903.78121239
0.31900002 54217.81554288  3122.94632314
0.32000002 53281.68548583  3335.16726090
0.32100002 52359.03994527  3034.73009892
0.32200002 51451.47711604  3240.67143960
0.32300002 50556.46567355  2457.04434808
0.32400002 49675.70981631  2421.69096822
0.32500002 48808.56704518  3341.43465814
0.32600002 47955.54940240  2822.66377148
0.32700002 47115.47864622  2549.88982508
0.32800002 46289.73400191  2512.83832928
0.32900002 45476.55021912  2476.19827669
0.33000002 44677.66410263  2883.71996606
0.33100002 43889.37542598  2622.82919966
0.33200002 43117.48329465  3230.57758883
0.33300002 42356.97245167  2758.70974642
0.33400002 41609.78470501  2299.98095849
0.33500002 40874.55420122  3090.11644395
0.33600002 40152.98362470  2232.70676018
0.33700002 39443.08485036  2399.71739594
0.33800002 38746.52122979  2561.33890719
0.33900002 38061.58455061  2523.48317521
0.34000002 37389.40968943  2103.71523580
0.34100002 36729.07771566  2449.46230886
0.34200002 36081.54936164  2042.03538283
0.34300002 35444.98884955  2377.64996463
0.34400002 34821.47840096  1802.01159259
0.34500002 34208.98913039  2308.08060594
0.34600002 33609.10549231  2099.22482847
0.34700002 33019.07086985  1895.95513914
0.34800002 32442.07065563  1868.17672718
0.34900002 31875.76664923  2342.86895968
0.35000002 31320.57785492  2308.63990303
0.35100002 30777.37891780  1950.05482059
0.35200002 30243.62066638  1761.53976914
0.35300002 29721.43979161  1893.85023322
0.35400002 29210.34349837  1555.45086496
0.35500002 28709.85287940  1533.10621637
0.35600002 28218.99997589  1964.46577637
0.35700002 27739.26864494  2234.39819518
0.35800002 27270.28150940  1615.35520172
0.35900002 26811.18299619  1592.58434541
0.36000002 26362.36378281  1570.27427310
0.36100002 25922.85647221  1548.37229043
0.36200002 25494.27796066  1665.79620085
0.36300002 25074.44436851  1505.97120011
0.36400002 24664.27446626  1350.36909099
0.36500002 24263.50666106  1465.27323667
0.36600002 23872.46287769  1708.43288677
0.36700002 23490.05872430  1685.64669390
0.36800002 23118.30597398  1791.43761478
0.36900002 22754.49218674  1515.44925142
0.37000002 22399.26283355  1246.51903573
0.37100002 22052.64925364  1476.64546397
0.37200002 21715.63902042  1457.98807290
0.37300002 21386.52005447  1199.78383189
0.37400002 21065.82226626  1303.44781447
0.37500002 20753.85371841  1170.51740517
0.37600002 20450.16912575  1387.74854261
0.37700002 20153.96428909  1371.27579519
0.37800002 19865.63935268  1129.36165070
0.37900002 19585.75786373  1339.66590134
0.38000002 19313.48309320  1545.27185549
0.38100002 19047.82168243  1200.58425752
0.38200002 18790.62783903  1403.37810664
0.38300002 18540.09590059  1174.70053191
0.38400002 18297.61412330  1796.36835166
0.38500002 18061.05504412  1359.45567757
0.38600002 17832.57201098  1345.73511056
0.38700002 17610.40451299  1332.40326858
0.38800002 17395.03373111  1015.00026630
0.38900002 17185.81321346  1005.37012062
0.39000002 16984.23740978  1494.18835691
0.39100002 16788.01620469  1184.56247952
0.39200002 16598.64514577  1174.18821324
0.39300002 16415.19745816  970.13821574
0.39400002 16238.94564348  1154.58908995
0.39500002 16067.39115395  1336.16431167
0.39600002 15901.94448481  1136.35300672
0.39700002 15742.10504521  1033.78408730
0.39800002 15588.24549552  1026.25219082
0.39900002 15439.59645985  1296.92616407
0.40000002 15296.15965947  1564.10888008
0.40100002 15158.45778173  1279.67706656
0.40200002 15026.02393002  1180.82014649
0.40300002 14898.04665059  1354.23250470
0.40400002 14775.55894055  1346.42287225
0.40500002 14658.09434618  1428.28478076
0.40600002 14545.28759364  1154.38680456
0.40700002 14436.95981150  1060.25037879
0.40800002 14333.52536661  1231.10655207
0.40900002 14234.26012121  1138.02915061
0.41000002 14139.77822829  1046.06084289
0.41100002 14049.39551026  955.07795204
0.41200002 13962.85377037  1297.49824809
0.41300002 13881.05490090  1034.41626023
0.41400002 13802.79747667  945.14660200
0.41500002 13728.70769234  942.33854065
0.41600002 13657.83759354  854.29778196
0.41700002 13591.08250735  1022.59309631
0.41800002 13528.98783890  935.32661856
0.41900002 13468.40284409  1442.46601295
0.42000002 13412.44978362  1185.79474156
0.42100002 13360.21688826  930.27194601
0.42200002 13311.22229150  929.05680386
0.42300002 13264.87510675  1012.37531612
0.42400002 13221.53791874  1180.02231516
0.42500002 13181.82412661  1263.47790241
0.42600002 13143.97818959  1178.62058011
0.42700002 13110.52680214  1262.54379087
0.42800002 13078.63758228  1094.09347879
0.42900002 13050.78221415  1178.48568978
0.43000002 13024.94618618  1768.33190276
0.43100002 13000.73391175  1010.93711688
0.43200002 12980.15893397  1011.67363525
0.43300002 12961.77692597  1181.33640501
0.43400002 12945.64393906  929.17363776
0.43500002 12931.75506550  1014.88418563
0.43600002 12920.37056263  1016.31639662
0.43700002 12910.64220701  1187.52092648
0.43800002 12902.87531511  1019.58525572
0.43900002 12897.83256513  1362.01118342
0.44000002 12894.20112883  1108.83687862
0.44100002 12892.83882030  940.27477972
0.44200002 12893.04801122  1028.09169714
0.44300002 12895.15272621  1202.34409717
0.44400002 12899.22986264  947.12599755
0.44500002 12903.75308906  949.58723483
0.44600002 12910.30351738  1038.76307024
0.44700002 12919.32106575  1215.44978347
0.44800002 12928.31058841  1219.01046315
0.44900002 12940.37537844  1397.56060710
0.45000002 12953.00087731  876.27055088
0.45100002 12966.67866029  1142.88311128
0.45200002 12981.81755478  882.11454465
0.45300002 12998.00714224  1062.19719400
0.45400002 13015.53090232  888.31002618
0.45500002 13034.18150333  1069.84566850
0.45600002 13053.69160468  1073.79672229
0.45700002 13074.21157989  1077.83805373
0.45800002 13095.30991093  1172.09576913
0.45900002 13117.56760974  1267.15709116
0.46000002 13141.32443593  1181.33941616
0.46100002 13164.68388958  1003.54390047
0.46200002 13189.79261475  1282.44359671
0.46300002 13215.54079816  1011.78185146
0.46400002 13241.15160705  1292.99851571
0.46500002 13268.03451105  1576.64061567
0.46600002 13295.33021814  1210.73930370
0.46700002 13322.87967121  1028.79281697
0.46800002 13351.83305116  1127.16179960
0.46900002 13380.19550437  1603.61650720
0.47000002 13409.36390794  947.37160500
0.47100002 13439.10171181  1046.63729092
0.47200002 13469.23056500  1051.20614927
0.47300002 13499.80876603  1151.80373851
0.47400002 13530.02672399  1156.81733973
0.47500002 13560.90863963  1065.07381504
0.47600002 13592.43695090  1361.55447391
0.47700002 13623.36890201  976.79559657
