# SAXS profile: number of points = 501, q_min = 0, q_max = 0.5, delta_q = 0.001
#    q    intensity    error
0.00000000 1664650.74656090 374.54641798
0.00100000 1664564.46398409 549.30628616
0.00200000 1664305.57480260 898.72503885
0.00300000 1663874.30462866 1197.98954201
0.00400000 1663270.51448885 1372.19822659
0.00500000 1662494.87345820 1945.11907894
0.00600000 1661547.21666525 2616.93697279
0.00700000 1660428.29749117 2191.76544378
0.00800000 1659137.87075163 3135.77070811
0.00900000 1657677.35604988 2983.81936844
0.01000000 1656046.16865321 4371.96207402
0.01100000 1654245.81079428 3573.17110689
0.01200000 1652276.27159549 3544.13275796
0.01300000 1650138.84253403 4504.87923880
0.01400000 1647833.73036245 6302.96429805
0.01500000 1645362.34031769 4343.75677186
0.01600000 1642724.49601566 5445.63194773
0.01700000 1639922.38772077 6641.68596821
0.01800000 1636956.38075744 5131.85848460
0.01900000 1633827.62172434 5881.77970361
0.02000000 1630536.68792657 7190.66711903
0.02100000 1627086.41154754 8054.07810232
0.02200000 1623475.41240375 6721.18851271
0.02300000 1619706.85036644 8163.32289743
0.02400000 1615781.19735256 9088.76964953
0.02500000 1611700.77715499 6914.19664977
0.02600000 1607466.37297092 7812.28692996
0.02700000 1603079.41512425 8079.52062228
0.02800000 1598540.62882695 7649.01725972
0.02900000 1593853.42374874 8606.80888342
0.03000000 1589018.18661476 9605.61537961
0.03100000 1584036.70746682 9884.38950940
0.03200000 1578910.16015488 9378.72678329
0.03300000 1573642.48513824 11235.80786186
0.03400000 1568232.56155644 12349.83199208
0.03500000 1562684.19177345 10126.19403030
0.03600000 1556998.04181677 12962.00929715
0.03700000 1551177.24838245 8841.71072469
0.03800000 1545223.11996684 12655.37793821
0.03900000 1539138.26565082 11081.79602588
0.04000000 1532922.92065827 10370.22403880
0.04100000 1526580.90876693 10579.20618828
0.04200000 1520114.08620893 10785.20994201
0.04300000 1513523.81075745 11987.10913762
0.04400000 1506813.22070726 11188.08868335
0.04500000 1499984.62718727 13454.86273105
0.04600000 1493038.57645532 12631.10694399
0.04700000 1485979.04504742 11768.95458413
0.04800000 1478807.48431137 18477.70037620
0.04900000 1471526.89804953 11036.45224909
0.05000000 1464138.97494212 12320.73004787
0.05100000 1456647.49680791 13634.22120526
0.05200000 1449051.48221586 12671.95580251
0.05300000 1441356.78423384 14009.98859587
0.05400000 1433563.94793021 17740.35468294
0.05500000 1425676.99192280 14370.82474897
0.05600000 1417696.30817518 14545.56480063
0.05700000 1409627.25284507 13490.13343943
0.05800000 1401469.01038527 12403.00132104
0.05900000 1393225.40838421 13792.93218721
0.06000000 1384900.26470768 13939.02181550
0.06100000 1376494.90787359 17921.96453803
0.06200000 1368012.06218006 14220.48605108
0.06300000 1359455.06193632 13050.76920478
0.06400000 1350823.32857239 21072.84491124
0.06500000 1342123.60592863 17273.13161630
0.06600000 1333356.45893386 14740.25634319
0.06700000 1324523.54742996 17563.18306086
0.06800000 1315628.82665228 16340.11079189
0.06900000 1306676.05076579 16464.11901048
0.07000000 1297664.57900036 17966.16693759
0.07100000 1288599.11204600 15308.55816813
0.07200000 1279481.37562131 15411.35389133
0.07300000 1270314.65007721 21150.73991482
0.07400000 1261102.22791016 19862.36102042
0.07500000 1251844.24768172 18552.33262024
0.07600000 1242544.47772108 20091.94514667
0.07700000 1233206.39323192 21642.77321602
0.07800000 1223831.23494764 14502.40081424
0.07900000 1214420.71116346 16030.35413924
0.08000000 1204980.39311385 20496.71744839
0.08100000 1195510.92834417 16175.26361941
0.08200000 1186013.65561474 19195.63191688
0.08300000 1176491.92692322 20753.31856492
0.08400000 1166949.05338224 20830.04158061
0.08500000 1157386.67739419 19409.37549108
0.08600000 1147807.26379676 14978.88549583
0.08700000 1138213.05440009 19531.73693067
0.08800000 1128605.75474531 18080.26504014
0.08900000 1118988.94505890 21148.89205497
0.09000000 1109364.92018295 19685.68143339
0.09100000 1099734.80875069 15176.34107376
0.09200000 1090101.00981720 18248.29176177
0.09300000 1080467.94103166 18281.51842134
0.09400000 1070833.88293371 19837.19861365
0.09500000 1061203.41175255 16809.46283225
0.09600000 1051578.06722313 19890.60007654
0.09700000 1041962.43892780 21443.58800126
0.09800000 1032355.61668942 22995.72244296
0.09900000 1022761.30676811 19943.84641979
0.10000000 1013179.47316663 16884.63671436
0.10100000 1003613.36559814 16890.81373742
0.10200000 994065.21853131 16894.13918358
0.10300000 984536.51357863 15358.77033431
0.10400000 975029.33542467 15356.71275540
0.10500000 965547.51607364 21493.08871904
0.10600001 956087.26926727 16879.72153316
0.10700001 946656.87578065 18403.01053118
0.10800001 937252.97433789 18388.90422192
0.10900001 927881.02103337 18372.04508115
0.11000001 918540.87397285 19881.81815297
0.11100001 909233.75578508 18330.15337949
0.11200001 899962.81957311 25932.42986682
0.11300001 890727.76479678 18277.73459416
0.11400001 881531.56521285 21288.98830227
0.11500001 872375.40643529 16697.26606541
0.11600001 863260.99041847 19695.30042388
0.11700001 854189.35948503 16631.06761241
0.11800001 845160.91201142 19611.95988692
0.11900001 836177.60315560 18061.43707888
0.12000001 827240.54545332 16515.85826795
0.12100001 818352.84019778 17971.02921732
0.12200001 809513.80960182 16429.08353986
0.12300001 800725.70290856 17872.19853096
0.12400001 791988.23755620 22274.67023079
0.12500001 783302.83099483 19245.75146441
0.12600001 774672.71356744 16233.26747777
0.12700001 766096.38341745 17650.86150576
0.12800001 757575.44905217 19056.81131904
0.12900001 749111.42458014 16068.44081458
0.13000001 740704.83863299 16010.33584170
0.13100001 732355.83015828 21750.96918099
0.13200001 724066.04669469 14445.11831251
0.13300001 715837.14903811 17265.99284877
0.13400001 707667.74197140 15763.29969558
0.13500001 699560.80806577 14271.04115740
0.13600001 691514.88314070 15631.69467044
0.13700001 683532.61137657 19808.77601174
0.13800001 675612.15046717 18312.46820195
0.13900001 667756.88145436 18229.76372339
0.14000001 659965.35685620 15354.09475137
0.14100001 652238.76772008 16671.22368919
0.14200001 644577.07773572 16591.41476346
0.14300001 636982.64284641 15134.70830790
0.14400001 629451.17464099 20535.84554134
0.14500001 621988.59172922 17708.01604186
0.14600001 614591.81235647 17617.27513228
0.14700001 607264.05159137 14829.38883946
0.14800001 600000.55710367 14751.01439233
0.14900001 592805.92904146 17339.57424256
0.15000001 585678.73458351 14592.18636065
0.15100001 578619.35832679 13192.52199234
0.15200001 571628.59473164 19678.31530220
0.15300001 564706.65954548 18262.61423150
0.15400001 557850.59224727 14267.02957000
0.15500001 551064.23825097 14184.39416198
0.15600001 544343.61798153 15383.15137016
0.15700001 537694.83971159 17840.71562366
0.15800001 531110.38369837 17733.77654870
0.15900001 524596.25819498 15108.37294914
0.16000001 518147.66097372 20021.22656508
0.16100001 511769.93501596 12436.01000792
0.16200001 505458.45179848 16065.99764883
0.16300001 499214.24125054 18421.00637176
0.16400001 493037.66067736 14643.21921342
0.16500001 486927.63383971 13336.94852052
0.16600001 480885.44149254 14455.41705375
0.16700001 474907.99146028 17951.52292477
0.16800001 468996.53833843 13077.96908906
0.16900001 463153.22032475 15353.52997873
0.17000001 457373.94871974 11731.64233863
0.17100001 451659.93721649 13983.39231654
0.17200001 446011.44770951 12731.39737608
0.17300001 440427.40909391 17242.73388031
0.17400001 434907.52884726 14841.22012280
0.17500001 429451.13828122 12471.26164467
0.17600001 424056.84490879 13510.45171688
0.17700001 418727.28701514 13416.02290961
0.17800001 413458.47111597 15541.90466333
0.17900001 408252.31074762 14329.65678408
0.18000001 403107.84411161 10944.37848459
0.18100001 398025.54469560 15212.53703685
0.18200001 393001.08391425 17260.60842087
0.18300001 388037.67572131 11780.82439142
0.18400001 383133.24787558 11695.14294389
0.18500001 378289.21967023 12665.12367289
0.18600001 373502.01143784 15715.09787368
0.18700001 368772.35198377 16639.00930761
0.18800001 364099.86781108 12386.67808816
0.18900001 359485.81850964 11269.88094275
0.19000001 354924.09224450 12202.29086791
0.19100001 350422.14677735 11101.37413445
0.19200001 345971.76578379 11017.47140198
0.19300001 341578.36401496 11927.91703503
0.19400001 337236.29211011 13809.82681448
0.19500001 332948.57598095 11746.42631569
0.19600001 328712.87825337 15541.54561826
0.19700001 324528.85416870 13493.91039402
0.19800001 320396.49493268 11476.60299086
0.19900001 316315.25952484 11387.34988106
0.20000001 312282.54447130 9415.31916079
0.20100001 308300.83444267 13078.12201516
0.20200001 304366.32947886 16682.31930720
0.20300001 300481.71644944 11953.16324532
0.20400001 296643.83345558 9121.79830991
0.20500001 292852.72616316 13573.72449925
0.20600001 289108.22455667 11669.85403584
0.20700001 285409.73627589 11576.21945055
0.20800001 281755.36412693 15016.15284096
0.20900001 278147.60760200 8761.65005364
0.21000001 274582.07684567 13904.83702878
0.21100001 271060.49599911 10343.66901631
0.21200001 267581.27629664 11968.91105457
0.21300001 264143.54408805 12718.51224911
0.21400001 260748.29745938 9250.04628968
0.21500001 257394.98114738 10841.47711849
0.21600001 254080.92936745 9097.36810611
0.21700001 250806.94133314 10661.80358016
0.21800001 247572.46658358 9759.30709415
0.21900001 244375.70997035 9677.27857238
0.22000001 241216.79650829 8795.97090057
0.22100001 238097.32491218 11100.09781226
0.22200001 235014.75956166 10219.61730277
0.22300001 231967.26089944 8573.51036825
0.22400001 228955.49630026 8499.97320208
0.22500001 225981.66022845 9192.93437280
0.22600001 223040.51562533 11391.79487426
0.22700001 220135.76203521 8281.50775939
0.22800001 217263.91197440 10448.22202095
0.22900001 214424.70162848 8877.18306723
0.23000001 211619.47853883 8799.13833377
0.23100001 208847.51194720 10901.84063922
0.23200001 206105.93086037 7923.74288667
0.23300001 203396.66154207 7139.22315777
0.23400001 200719.01872200 9905.48404241
0.23500001 198070.37504857 9115.19909085
0.23600001 195453.44116282 7643.20717817
0.23700001 192865.69963859 9639.42812386
0.23800001 190307.60408816 9551.53910096
0.23900001 187778.00285102 8112.01010686
0.24000001 185276.98924427 7367.53982579
0.24100001 182805.10683877 7299.40826134
0.24200001 180360.40302751 7231.55070145
0.24300001 177943.32030393 10420.36132991
0.24400001 175552.77932849 7096.72144005
0.24500001 173188.84827616 10225.07008591
0.24600001 170851.64294587 6963.05903765
0.24700001 168540.51384673 6896.67815286
0.24800001 166254.75609309 7451.53852060
0.24900001 163993.38277461 7379.70257397
0.25000001 161758.18691553 10353.33324333
0.25100001 159546.22026195 7237.01689346
0.25200001 157360.36753597 8360.55672272
0.25300001 155198.19257557 9460.88226701
0.25400001 153059.33066930 6439.97164259
0.25500001 150943.59136694 8114.72785581
0.25600001 148851.74271404 6885.88194374
0.25700001 146781.77751966 9088.72809404
0.25800001 144735.48695494 6185.27132767
0.25900001 142711.41841587 10574.91660497
0.26000001 140709.22071841 6059.64287695
0.26100001 138728.32864541 6542.42828848
0.26200001 136770.08988386 8632.92848195
0.26300001 134832.48510099 5339.36666264
0.26400001 132916.19600692 5811.76094540
0.26500001 131021.44116373 6796.08247475
0.26600001 129146.38913995 8275.70100769
0.26700001 127293.05832959 6652.33554309
0.26800001 125460.25071169 6581.01776250
0.26900001 123646.31950441 6509.97902997
0.27000001 121853.38008922 5448.67414853
0.27100001 120079.59328622 5389.17240172
0.27200001 118326.93615701 5330.03709143
0.27300001 116592.68585968 5750.35153873
0.27400001 114875.90637194 6160.22077073
0.27500001 113181.16086780 6559.98039435
0.27600001 111503.07639275 8339.31547808
0.27700001 109845.23915181 5954.71069624
0.27800001 108205.15997084 4981.22477501
0.27900001 106584.85303417 5371.87684716
0.28000001 104981.27205628 7079.93732256
0.28100001 103396.74848927 5685.78746853
0.28200001 101830.95690498 5187.26919025
0.28300001 100282.55039941 5126.44421905
0.28400001 98751.72743381  5488.12751189
0.28500001 97239.06167321  6257.33391484
0.28600001 95743.75554145  4533.94575827
0.28700001 94266.02629656  4479.52178164
0.28800001 92804.91067455  4827.71168180
0.28900001 91362.75429156  5961.41999970
0.29000001 89936.16220365  5495.99913241
0.29100001 88527.57204049  5040.76019059
0.29200001 87135.73498111  6127.38517391
0.29300001 85760.70991629  4916.66173224
0.29400001 84401.78940860  4108.25729393
0.29500001 83060.64562132  4425.47140819
0.29600001 81735.30964797  5461.96232578
0.29700001 80426.43777490  4314.07432647
0.29800001 79133.77136695  4258.97977658
0.29900001 77858.02651043  3853.97249471
0.30000001 76597.76601826  3804.22822939
0.30100001 75354.61982960  4096.27732786
0.30200001 74125.70920054  5053.52046398
0.30300001 72914.11049419  4654.83703431
0.30400001 71718.33753967  3609.22550755
0.30500001 70537.79640989  3561.45350934
0.30600001 69372.20205724  3833.50806717
0.30700001 68223.26775785  3782.29814356
0.30800001 67089.26541962  4664.38139913
0.30900001 65970.80463341  3374.40681676
0.31000001 64867.87844222  3631.30400712
0.31100001 63779.20799051  4775.78732044
0.31200001 62706.41903297  4121.69311818
0.31300001 61648.00941967  4065.06993360
0.31400001 60605.78244512  4009.07269856
0.31500001 59577.40521733  3106.36605511
0.31600002 58564.18349712  3620.14517428
0.31700002 57565.49107673  3295.04886525
0.31800002 56581.47925897  3248.90869288
0.31900002 55612.03648309  4271.00460413
0.32000002 54657.26715677  3684.44655349
0.32100002 53716.14363921  3113.38783275
0.32200002 52790.40892940  3069.23452048
0.32300002 51877.34315406  2521.23899667
0.32400002 50978.89527905  3230.78764129
0.32500002 50094.28351897  2694.57163808
0.32600002 49224.08663168  2655.88571997
0.32700002 48367.00365930  3331.51936981
0.32800002 47524.41378136  3752.52788987
0.32900002 46694.66127108  2542.52442661
0.33000002 45879.50628082  2505.70935418
0.33100002 45075.14935952  3591.58807104
0.33200002 44287.32297282  2875.79745342
0.33300002 43511.10530670  2833.87842282
0.33400002 42748.54802654  2148.11464006
0.33500002 41997.95567833  2540.03647971
0.33600002 41261.38821486  2502.91592764
0.33700002 40536.58082734  2055.20474527
0.33800002 39825.40257387  2430.14618014
0.33900002 39125.96994111  3392.22175454
0.34000002 38439.50548837  2556.03503850
0.34100002 37765.13713540  2518.55711484
0.34200002 37103.73089449  2863.48056739
0.34300002 36453.34985390  2069.09223570
0.34400002 35816.32983538  2224.19418811
0.34500002 35190.47802860  2374.30166504
0.34600002 34577.44212710  1979.73154275
0.34700002 33974.32371064  1950.80575986
0.34800002 33384.53072096  2097.21631922
0.34900002 32805.52349422  2927.89311053
0.35000002 32237.81480662  1867.05313295
0.35100002 31682.24468692  1672.82259870
0.35200002 31136.28515395  1978.39965238
0.35300002 30602.01444744  1949.96045295
0.35400002 30079.02263797  2082.22044074
0.35500002 29566.83703715  1736.75608982
0.35600002 29064.37860207  2023.31681222
0.35700002 28573.05153561  1534.37294014
0.35800002 28092.84827589  2723.03991236
0.35900002 27622.52568537  2237.42468649
0.36000002 27162.63975603  1912.11411619
0.36100002 26712.19829619  2175.70865428
0.36200002 26272.94317744  1859.73037090
0.36300002 25842.34937568  1552.09157702
0.36400002 25421.65404566  1670.20274991
0.36500002 25010.41674222  1922.30072186
0.36600002 24609.10019119  1490.20413267
0.36700002 24216.46470912  2138.79826442
0.36800002 23834.73888881  1451.17814599
0.36900002 23460.91434031  2213.53737286
0.37000002 23095.85456878  1285.28436764
0.37100002 22739.46523507  1649.52088629
0.37200002 22392.86936049  1378.16921008
0.37300002 22054.24724627  1484.69199495
0.37400002 21724.12116378  1466.37824802
0.37500002 21402.83920932  2052.10432060
0.37600002 21089.92787654  1311.89902571
0.37700002 20784.60123903  1532.03302990
0.37800002 20487.23920228  1747.04940574
0.37900002 20198.39468308  1496.70111692
0.38000002 19917.28400853  1479.75468551
0.38100002 19642.89894461  1125.53816285
0.38200002 19377.08719005  1224.53508299
0.38300002 19117.86614484  1101.18914211
0.38400002 18866.95827930  1416.43695992
0.38500002 18621.83339938  1401.66546637
0.38600002 18385.11188410  1173.98137498
0.38700002 18154.66511468  1479.24218362
0.38800002 17931.09782692  1987.93125476
0.38900002 17713.77158936  1243.50682449
0.39000002 17504.18616378  1231.94468057
0.39100002 17299.90284923  1017.23433573
0.39200002 17102.64382294  1209.84108135
0.39300002 16911.33210665  1199.35172982
0.39400002 16727.33415548  1486.64189350
0.39500002 16548.10834076  1179.54921841
0.39600002 16374.98367948  1462.69548647
0.39700002 16207.59070906  1064.35253229
0.39800002 16046.15936533  1056.39895187
0.39900002 15890.03993565  1239.42317370
0.40000002 15739.21070182  1136.05628228
0.40100002 15594.08675322  1034.35582335
0.40200002 15454.45898774  1214.48871709
0.40300002 15319.24534629  1206.85020556
0.40400002 15189.57042649  1107.31973656
0.40500002 15064.94782836  1284.43751270
0.40600002 14945.01223025  1003.63234388
0.40700002 14829.65272005  998.33226842
0.40800002 14719.32584302  903.03068326
0.40900002 14613.07567674  988.57461637
0.41000002 14511.68702285  984.11010208
0.41100002 14414.46176710  979.89515736
0.41200002 14321.11059845  975.91212797
0.41300002 14232.52969308  883.84013582
0.41400002 14147.60778106  968.75748871
0.41500002 14066.86309484  1228.88121819
0.41600002 13989.32992211  1400.05220494
0.41700002 13916.00202561  959.78670518
0.41800002 13847.32248336  957.33468525
0.41900002 13780.22936616  954.96994033
0.42000002 13717.86886296  952.91180572
0.42100002 13659.15275109  951.08685113
0.42200002 13603.81387583  949.47823445
0.42300002 13551.08489390  1551.32827216
0.42400002 13501.42685170  946.78760284
0.42500002 13455.36592517  945.77771570
0.42600002 13411.30790448  858.99431199
0.42700002 13371.59777779  1373.53058882
0.42800002 13333.52020577  1029.61447908
0.42900002 13299.52858909  1029.38356158
0.43000002 13267.53233291  857.74600597
0.43100002 13237.18799310  1029.32378712
0.43200002 13210.58499589  943.83028976
0.43300002 13186.19261439  944.26329786
0.43400002 13164.11068599  944.85408926
0.43500002 13144.23905900  1547.33989535
0.43600002 13126.87553838  1290.70009848
0.43700002 13111.23805253  947.54921896
0.43800002 13097.59937671  1121.22004778
0.43900002 13086.72131452  1209.21310677
0.44000002 13077.27778499  1124.58055641
0.44100002 13070.13753824  1126.51520781
0.44200002 13064.58613902  868.14179008
0.44300002 13060.93013439  956.84378699
0.44400002 13059.33453516  1046.05274584
0.44500002 13058.23348364  1310.39379218
0.44600002 13059.05151489  1313.41416835
0.44700002 13062.47520728  1141.13788819
0.44800002 13065.81731077  879.98283758
0.44900002 13072.30966380  1235.33332177
0.45000002 13079.47210339  1061.79159567
0.45100002 13087.61038965  1064.80803177
0.45200002 13097.31112573  889.96233317
0.45300002 13107.96458497  1160.44815970
0.45400002 13120.06364642  984.98882494
0.45500002 13133.33258874  898.31999164
0.45600002 13147.43733278  991.38255906
0.45700002 13162.64410495  1175.55580073
0.45800002 13178.43071312  1179.53549688
0.45900002 13195.37350431  1365.72122242
0.46000002 13213.88587965  1005.11427707
0.46100002 13231.99943103  1192.07088524
0.46200002 13251.93646194  1104.41643708
0.46300002 13272.47064026  1016.14040038
0.46400002 13292.98208206  1019.90409858
0.46500002 13314.71658651  1302.97822691
0.46600002 13336.95971838  1121.10488706
0.46700002 13359.35623390  937.82685207
0.46800002 13383.30146271  1318.12142354
0.46900002 13406.67385497  1134.20466189
0.47000002 13430.88829922  1138.67076398
0.47100002 13455.69313487  1524.26099056
0.47200002 13480.88544220  1339.05641444
0.47300002 13506.54471766  960.31537494
0.47400002 13531.86189262  1349.80328777
0.47500002 13557.92409885  1258.44657450
0.47600002 13584.73505825  1166.38540739
0.47700002 13610.86527095  1073.48899480
