# SAXS profile: number of points = 501, q_min = 0, q_max = 0.5, delta_q = 0.001
#    q    intensity    error
0.00000000 1646666.22097349 444.59987966
0.00100000 1646580.45854766 740.96122394
0.00200000 1646323.12836767 963.09906059
0.00300000 1645894.46855135 1185.04405957
0.00400000 1645294.31816117 1480.76494261
0.00500000 1644523.35681881 1776.08529566
0.00600000 1643581.40033174 1725.76054061
0.00700000 1642469.23859499 2956.44475234
0.00800000 1641186.61474975 2658.72242815
0.00900000 1639734.91378866 3689.40371374
0.01000000 1638113.57616512 3243.46502086
0.01100000 1636324.14901294 3828.99867540
0.01200000 1634366.51693870 4143.11930209
0.01300000 1632241.99777049 4113.25001580
0.01400000 1629950.85703843 5867.82334546
0.01500000 1627494.52856186 5858.98056372
0.01600000 1624872.65361601 5386.45308753
0.01700000 1622087.59479827 6569.45505363
0.01800000 1619139.67036029 5076.00309499
0.01900000 1616029.92085550 6787.32597385
0.02000000 1612759.11226729 5588.21057679
0.02100000 1609329.83708207 5841.86757347
0.02200000 1605740.98335505 6647.76797311
0.02300000 1601995.47053793 6920.62074774
0.02400000 1598093.90854851 8389.99340244
0.02500000 1594038.54714138 6216.75061777
0.02600000 1589830.24687762 7082.69407379
0.02700000 1585470.28578426 7990.77060634
0.02800000 1580959.53525968 8252.60915252
0.02900000 1576301.27710124 8512.02728717
0.03000000 1571495.88855013 10230.43870471
0.03100000 1566545.34707083 7519.41801193
0.03200000 1561450.67615693 11593.77180445
0.03300000 1556215.85264304 9524.04145724
0.03400000 1550839.78496232 8141.90924672
0.03500000 1545326.10466725 10013.71362066
0.03600000 1539675.48557481 9399.71927383
0.03700000 1533891.25196321 11366.13470270
0.03800000 1527974.73137509 10726.38311067
0.03900000 1521928.26168697 12784.19799021
0.04000000 1515752.26870013 10254.06457292
0.04100000 1509450.56180762 12362.40067441
0.04200000 1503024.80638645 11633.41254114
0.04300000 1496476.58384880 12839.76968542
0.04400000 1489808.70973984 12067.45110933
0.04500000 1483024.09882770 12279.44010886
0.04600000 1476122.67934753 18731.99767171
0.04700000 1469108.64067058 14808.61578668
0.04800000 1461983.47481843 10745.57903989
0.04900000 1454750.03953799 14183.81354572
0.05000000 1447410.23870404 15501.76437838
0.05100000 1439967.74471300 17970.79829117
0.05200000 1432421.30634929 15942.84988262
0.05300000 1424777.34985348 15002.90619336
0.05400000 1417035.79623859 14028.65503697
0.05500000 1409200.92194331 15388.47478548
0.05600000 1401273.16957811 15575.15200666
0.05700000 1393257.84455000 13333.47819473
0.05800000 1385154.16033468 13484.47638048
0.05900000 1376965.82365017 13631.96229083
0.06000000 1368696.69133737 17533.00543515
0.06100000 1360348.01026309 13916.36079532
0.06200000 1351922.66951753 15330.80378894
0.06300000 1343424.01110756 15476.24533156
0.06400000 1334851.16369721 14316.27940018
0.06500000 1326211.18623955 18381.28790112
0.06600000 1317504.47636981 14565.01266774
0.06700000 1308732.58752909 21358.51682803
0.06800000 1299899.39003231 14799.35524826
0.06900000 1291009.11745611 18977.83491513
0.07000000 1282060.85355471 17750.13334868
0.07100000 1273059.27206317 16498.84893871
0.07200000 1264005.94129290 17993.12541722
0.07300000 1254904.24335753 16715.32530473
0.07400000 1245757.42486971 19620.68036120
0.07500000 1236565.82525429 18325.90638925
0.07600000 1227332.73230330 17010.83246720
0.07700000 1218062.13180301 15676.46037135
0.07800000 1208755.18430204 18620.87448742
0.07900000 1199413.06030398 17271.54887848
0.08000000 1190042.07671304 17350.81429242
0.08100000 1180642.21476910 21782.84988450
0.08200000 1171215.44542077 21872.44946960
0.08300000 1161764.29650804 17565.87698760
0.08400000 1152293.00762270 20568.43115152
0.08500000 1142802.48789057 20639.01390021
0.08600000 1133295.41030250 14789.50579884
0.08700000 1123773.95656298 16317.19861551
0.08800000 1114240.01910711 22312.65743051
0.08900000 1104697.03669291 14913.41069583
0.09000000 1095147.11833754 17938.51064104
0.09100000 1085591.56626616 16479.28075014
0.09200000 1076033.09406337 19513.86107773
0.09300000 1066475.51902009 19548.49718226
0.09400000 1056917.52391720 22591.61313548
0.09500000 1047363.31570467 16590.23570055
0.09600000 1037814.88111580 18120.24867607
0.09700000 1028276.29435945 19650.36090903
0.09800000 1018747.23905378 18154.07665350
0.09900000 1009230.51532246 22707.68766253
0.10000000 999727.08413023 15145.86603684
0.10100000 990239.50148832 15150.66508533
0.10200000 980770.16218420 18183.47966218
0.10300000 971320.74013893 16667.86468485
0.10400000 961893.33031692 18179.78479826
0.10500000 952491.16295872 19687.99326466
0.10600001 943110.87642258 18164.31633459
0.10700001 933760.99980411 18152.31469040
0.10800001 924437.51272897 22671.83106665
0.10900001 915146.40883821 19629.89139347
0.11000001 905887.58726842 18099.63484556
0.11100001 896661.56559997 22595.87251678
0.11200001 887472.28030734 16546.92144531
0.11300001 878319.08834434 18023.10854137
0.11400001 869204.87037688 16493.16319197
0.11500001 860130.82640718 17959.53250106
0.11600001 851098.83936924 16430.46386776
0.11700001 842109.66314381 20867.47843546
0.11800001 833163.82496177 17846.36997122
0.11900001 824263.32729529 14836.74059015
0.12000001 815409.05051538 16279.64246039
0.12100001 806604.52130751 14760.86343528
0.12200001 797848.76380705 20608.43454003
0.12300001 789143.69039714 20549.30266611
0.12400001 780489.51834658 17561.01499023
0.12500001 771887.59326532 17506.41144017
0.12600001 763340.97979956 18904.14025556
0.12700001 754848.21648726 23188.93830330
0.12800001 746411.09192112 17331.66637124
0.12900001 738030.54113835 18709.07509965
0.13000001 729707.62982697 17206.50672235
0.13100001 721442.21705174 17141.46788516
0.13200001 713236.27139845 15651.97071368
0.13300001 705091.03747181 15589.56357344
0.13400001 697005.40229319 16937.23207424
0.13500001 688982.07591109 15460.75851239
0.13600001 681019.68037833 15394.45060081
0.13700001 673121.20623540 13933.60962609
0.13800001 665284.49392870 15258.30058777
0.13900001 657512.31202589 22092.41472591
0.14000001 649804.37771177 19240.70853145
0.14100001 642161.14637599 16413.63967549
0.14200001 634582.60091187 16334.15691788
0.14300001 627071.23786156 21671.58300269
0.14400001 619622.88909536 14824.47832088
0.14500001 612243.25155245 20112.19176223
0.14600001 604929.50481974 13338.69621052
0.14700001 597684.54756680 15922.31709834
0.14800001 590503.47501105 13197.75328915
0.14900001 583391.06114355 19689.44924256
0.15000001 576346.20524057 14359.66638110
0.15100001 569369.01520615 16876.09840701
0.15200001 562460.14775349 15490.15320007
0.15300001 555619.97922314 16685.26876343
0.15400001 548845.42445278 16588.85373693
0.15500001 542140.33642632 19029.12670661
0.15600001 535500.90365890 13872.15156398
0.15700001 528933.02506664 15042.85594287
0.15800001 522429.07336557 13705.92738665
0.15900001 515995.52681459 13622.28255088
0.16000001 509627.39172812 15999.75271853
0.16100001 503329.82219277 19569.46441062
0.16200001 497097.99494404 14584.85586015
0.16300001 490933.29476084 14492.35154549
0.16400001 484835.76060506 14399.62276977
0.16500001 478804.81444106 14306.68853094
0.16600001 472841.34492461 11844.67624958
0.16700001 466942.11916605 12943.63615441
0.16800001 461108.90693835 12858.02247709
0.16900001 455343.43914805 12772.38407119
0.17000001 449641.49900876 11533.30499417
0.17100001 444004.83510260 16037.45540122
0.17200001 438433.06543225 14790.54016081
0.17300001 432925.72192219 11299.36187578
0.17400001 427481.99538855 14587.82378156
0.17500001 422101.46229919 16715.21869647
0.17600001 416782.86630686 11065.58562306
0.17700001 411528.58788194 12086.59519695
0.17800001 406334.31394129 13092.09221356
0.17900001 401202.81794835 17331.96255402
0.18000001 396132.35787298 12905.99282912
0.18100001 391123.96468896 11745.45321442
0.18200001 386172.82951413 18020.75594054
0.18300001 381282.38988095 10523.39445783
0.18400001 376450.72310883 11491.15886575
0.18500001 371678.84296964 15554.76031312
0.18600001 366963.34845524 13381.31913360
0.18700001 362305.26118565 15325.51327220
0.18800001 357703.89755010 13183.17776706
0.18900001 353160.32531387 14091.09764579
0.19000001 348669.02596394 10988.30487244
0.19100001 344236.81747999 13879.62913661
0.19200001 339855.76060268 17709.88452182
0.19300001 335531.49883701 9763.96707753
0.19400001 331257.79127514 14533.93627898
0.19500001 327038.46087338 15383.88992645
0.19600001 322870.30321210 10494.89970186
0.19700001 318753.55796677 13253.77356660
0.19800001 314688.09507293 9393.44008185
0.19900001 310672.91240904 14912.30050039
0.20000001 306706.30816811 13870.79344245
0.20100001 302790.02699000 11009.44590169
0.20200001 298920.54731264 9102.13109587
0.20300001 295100.40220046 9933.08000755
0.20400001 291326.61746371 10749.95269252
0.20500001 287599.29078116 11552.86405675
0.20600001 283917.92179092 12341.91264363
0.20700001 280282.14640036 10493.76405726
0.20800001 276690.26865581 11276.51243211
0.20900001 273144.20529172 9464.44716075
0.21000001 269639.94111819 10240.92544778
0.21100001 266179.31978697 11003.85360018
0.21200001 262760.45819156 9234.71673971
0.21300001 259382.54706839 9158.79816997
0.21400001 256046.76787285 8257.50865429
0.21500001 252752.37025578 9827.01262014
0.21600001 249496.82057666 9745.34627247
0.21700001 246280.98076090 8858.72729681
0.21800001 243103.88742894 11180.34831147
0.21900001 239964.03353178 11086.33887335
0.22000001 236861.87698740 9422.36591207
0.22100001 233798.30433380 7785.48390244
0.22200001 230771.51937375 9263.16922567
0.22300001 227778.84957374 8418.70667833
0.22400001 224822.02061165 8346.51790988
0.22500001 221902.07965113 7522.48085589
0.22600001 219014.55987082 11931.91378600
0.22700001 216162.93794296 7392.77282725
0.22800001 213343.80191369 8794.03193075
0.22900001 210556.63676404 7990.62474308
0.23000001 207803.29641463 9360.49992967
0.23100001 205082.40034528 12132.67537821
0.23200001 202391.43547204 9195.65530557
0.23300001 199732.38486816 7010.60704044
0.23400001 197104.63881628 9727.11438563
0.23500001 194505.15712284 12393.86919805
0.23600001 191936.87239627 10235.03420462
0.23700001 189397.61586862 8113.79424758
0.23800001 186887.21016531 11389.84156225
0.23900001 184404.92444771 8630.15087236
0.24000001 181950.73826062 7893.02339909
0.24100001 179525.25077355 8471.79698473
0.24200001 177126.25158475 7747.50261079
0.24300001 174754.80857209 7035.62892592
0.24400001 172409.06831577 6969.63691635
0.24500001 170089.48742715 8159.19309785
0.24600001 167796.53309915 7460.23421450
0.24700001 165528.73727572 6773.43624975
0.24800001 163285.90796325 7318.47474113
0.24900001 161067.07495803 8456.02183533
0.25000001 158873.92838334 11365.04700456
0.25100001 156703.35654615 7700.40330498
0.25200001 154558.98955504 7625.16811044
0.25300001 152437.32964033 6969.43504088
0.25400001 150338.76174213 8050.64107218
0.25500001 148262.84407558 7401.28152642
0.25600001 146210.13912140 6763.68135576
0.25700001 144178.92204632 5579.72454719
0.25800001 142171.10173827 6075.68232025
0.25900001 140184.81555268 6560.64967828
0.26000001 138220.08031311 6493.57968036
0.26100001 136276.21495244 6962.35215135
0.26200001 134354.63218789 5830.31953967
0.26300001 132453.18135653 7867.71934486
0.26400001 130572.69316523 5709.29127880
0.26500001 128713.10948888 6162.78397394
0.26600001 126872.79086327 6605.63216887
0.26700001 125053.95197260 5529.88601790
0.26800001 123255.02471783 7460.01072406
0.26900001 121474.74299658 5903.67278900
0.27000001 119714.81654590 5839.68902746
0.27100001 117973.83586871 5775.99927747
0.27200001 116253.40609814 7616.92352801
0.27300001 114550.77159778 5178.84062902
0.27400001 112865.52798192 5121.27357454
0.27500001 111201.77347611 6445.25509570
0.27600001 109554.15061347 4551.97517342
0.27700001 107926.67460550 5850.70530726
0.27800001 106316.38828359 4894.27516627
0.27900001 104725.52657844 5278.16678936
0.28000001 103150.97529635 6521.72072177
0.28100001 101594.96990669 5586.70765958
0.28200001 100057.39623918 5096.92400566
0.28300001 98536.75123361  5456.96554160
0.28400001 97033.46774978  4562.99903690
0.28500001 95547.74839631  4918.79832026
0.28600001 94079.23889375  6480.17828172
0.28700001 92627.73502869  4401.67017691
0.28800001 91192.68970714  6325.12525748
0.28900001 89775.96226357  5076.83090631
0.29000001 88374.63768902  5786.32967658
0.29100001 86990.88225109  4953.26106984
0.29200001 85623.58019635  4515.78783331
0.29300001 84272.69446234  4459.71120205
0.29400001 82937.52493046  4770.98134747
0.29500001 81619.72499282  5435.87394184
0.29600001 80317.48449745  3935.95851412
0.29700001 79031.43802947  4945.78762601
0.29800001 77761.26548022  5231.38938283
0.29900001 76507.56603379  3787.12469795
0.30000001 75269.13845209  4757.76246679
0.30100001 74047.28534033  3354.34218471
0.30200001 72839.43661566  3310.55255091
0.30300001 71648.62310366  3267.17736820
0.30400001 70473.31298336  3546.56964379
0.30500001 69313.05435744  3181.46934562
0.30600001 68167.18432036  5022.55837851
0.30700001 67037.76891184  4645.71760553
0.30800001 65922.99881577  4888.84982363
0.30900001 64823.50398019  3617.15169335
0.31000001 63739.02630179  3568.11086131
0.31100001 62668.76046562  2932.89812865
0.31200001 61614.02816154  3760.61238689
0.31300001 60573.37456728  3423.60729264
0.31400001 59548.82033626  3376.41827293
0.31500001 58537.46171700  3329.61098011
0.31600002 57541.23954145  4651.34631856
0.31700002 56559.15993278  3777.02087915
0.31800002 55591.52852374  3458.07119555
0.31900002 54638.06201838  3409.41523138
0.32000002 53699.31353161  3102.74648277
0.32100002 52773.70028564  2803.86682894
0.32200002 51863.40274786  3015.33837854
0.32300002 50965.30245769  2476.91381673
0.32400002 50081.88332156  3173.93950579
0.32500002 49211.84037710  3369.04275175
0.32600002 48355.95087341  3320.60330371
0.32700002 47513.13862023  3272.70514313
0.32800002 46684.34294363  3225.42140671
0.32900002 45868.22718760  2724.57282396
0.33000002 45066.58968167  2461.31191202
0.33100002 44275.33428228  3527.85880267
0.33200002 43500.48435964  2607.41915599
0.33300002 42737.06435036  2569.35243042
0.33400002 41987.09194385  2531.82176411
0.33500002 41248.69563325  2286.82779420
0.33600002 40524.31917434  2663.05576066
0.33700002 39811.53754845  2623.97856408
0.33800002 39111.97738790  2386.61297323
0.33900002 38424.07108870  2155.59049016
0.34000002 37748.84214985  2123.93870415
0.34100002 37085.67719290  2282.99439611
0.34200002 36435.23264655  3186.80777435
0.34300002 35795.61754679  2216.46474347
0.34400002 35169.18604065  1820.00546380
0.34500002 34553.65171752  2510.66845270
0.34600002 33950.85284028  1767.14197403
0.34700002 33357.70834725  1915.39970401
0.34800002 32777.88592681  2573.88361431
0.34900002 32208.56462596  2367.32961213
0.35000002 31650.32546971  1833.02868639
0.35100002 31104.10626687  1970.75626641
0.35200002 30567.30391337  1942.24658265
0.35300002 30042.12783702  2552.37930192
0.35400002 29528.12426101  1886.84722965
0.35500002 29024.60859507  2014.88842410
0.35600002 28530.71485346  1833.38382332
0.35700002 28047.84434427  2108.63703768
0.35800002 27575.97856157  1930.45647064
0.35900002 27113.70881233  1756.96841426
0.36000002 26661.82067567  1732.48518957
0.36100002 26219.22241580  1423.70384461
0.36200002 25787.75938473  2527.45841701
0.36300002 25364.69929966  1661.89517683
0.36400002 24951.49030735  1775.92240675
0.36500002 24547.56151337  2291.02402456
0.36600002 24153.52041274  1728.54677022
0.36700002 23768.01328126  1311.99439527
0.36800002 23393.22261327  1553.77791957
0.36900002 23026.16296179  1533.54252590
0.37000002 22667.89274994  1639.90877868
0.37100002 22318.25222924  1369.89438672
0.37200002 21978.16472827  1475.61404976
0.37300002 21645.91776034  1578.63685704
0.37400002 21322.06812365  2038.92286091
0.37500002 21007.01144015  1777.19325202
0.37600002 20700.06508654  1521.76535693
0.37700002 20400.78004545  1503.74156838
0.37800002 20109.43803475  1486.18808836
0.37900002 19826.31616143  1469.13009716
0.38000002 19550.84690682  1899.46262122
0.38100002 19282.00638870  1546.80262578
0.38200002 19021.74961826  1311.35948081
0.38300002 18767.93478963  1081.03309510
0.38400002 18522.42620274  1497.53822944
0.38500002 18282.54937195  1376.12755642
0.38600002 18050.99264050  1362.21822415
0.38700002 17825.66869067  1244.94476034
0.38800002 17606.98753713  1541.05165720
0.38900002 17394.66297175  1017.58783206
0.39000002 17189.94152751  1209.82814202
0.39100002 16990.29312862  1198.83513995
0.39200002 16797.73899733  1188.27211297
0.39300002 16611.02530013  981.71164175
0.39400002 16431.63386418  1363.00409361
0.39500002 16256.89199884  1738.18697487
0.39600002 16088.17629816  1053.85603834
0.39700002 15925.14962187  1045.80462522
0.39800002 15767.85197108  1038.07658370
0.39900002 15616.02626990  1124.35394470
0.40000002 15469.34955337  1209.62584564
0.40100002 15328.36947630  1478.88115714
0.40200002 15192.69708698  1193.91815715
0.40300002 15061.44825590  1095.26856906
0.40400002 14935.75156522  907.34695058
0.40500002 14814.87526274  992.44854087
0.40600002 14698.88105879  897.36673116
0.40700002 14587.16693053  892.73465845
0.40800002 14480.54476552  1421.41034153
0.40900002 14377.94043663  972.66771662
0.41000002 14280.06715774  1232.51265478
0.41100002 14186.38405369  1139.73414888
0.41200002 14096.53564399  873.28042452
0.41300002 14011.31584619  1392.16440844
0.41400002 13929.84634316  953.84627354
0.41500002 13852.42460179  1383.02613777
0.41600002 13778.26439510  948.01352663
0.41700002 13708.10242057  859.49806250
0.41800002 13642.67641921  1114.67492965
0.41900002 13578.74050225  941.00676139
0.42000002 13519.59287781  1280.64349603
0.42100002 13463.81200027  1107.93714200
0.42200002 13411.54024445  1021.15472260
0.42300002 13361.84453896  934.79468824
0.42400002 13315.07647285  1018.60339844
0.42500002 13271.98135034  932.88761332
0.42600002 13230.84487445  1186.40991611
0.42700002 13193.94438141  931.75639637
0.42800002 13158.59280534  1016.10658458
0.42900002 13127.38929287  846.71664951
0.43000002 13098.19146107  1016.15774170
0.43100002 13070.55192789  931.66898557
0.43200002 13046.67005330  847.38126012
0.43300002 13024.78132480  1441.45261752
0.43400002 13005.34246815  1188.03809076
0.43500002 12987.98195355  934.35546602
0.43600002 12973.14229627  1020.46742138
0.43700002 12959.97360014  936.61733647
0.43800002 12948.85643002  1108.48690722
0.43900002 12940.46300193  1024.88471832
0.44000002 12933.36737092  941.09652134
0.44100002 12928.60967511  1371.46697933
0.44200002 12925.42283577  1288.34158221
0.44300002 12924.06853928  1032.89160661
0.44400002 12924.83722158  1725.46585085
0.44500002 12926.00708539  1124.17488949
0.44600002 12929.02976827  1300.33723057
0.44700002 12934.73389193  956.13557460
0.44800002 12940.19374545  1220.13092608
0.44900002 12948.69126661  874.03670192
0.45000002 12958.08802411  1139.59910529
0.45100002 12968.35003873  967.17959173
0.45200002 12979.98056512  1146.58663756
0.45300002 12992.70533465  973.28360275
0.45400002 13006.84634976  976.48903599
0.45500002 13022.03664177  1336.06102277
0.45600002 13038.10430147  983.13830145
0.45700002 13055.20701156  1345.33914630
0.45800002 13072.85691785  1260.09273803
0.45900002 13091.78504371  993.66653191
0.46000002 13112.07615058  1450.72017406
0.46100002 13131.96927328  1001.05006515
0.46200002 13153.77246484  1004.88249508
0.46300002 13176.00210871  1008.75476925
0.46400002 13198.22576111  1012.63391952
0.46500002 13221.69839321  1201.45578993
0.46600002 13245.67332851  1113.43135277
0.46700002 13269.82036336  1117.84972039
0.46800002 13295.37375252  1028.86254660
0.46900002 13320.33622970  939.08374870
0.47000002 13346.10645941  1131.48295926
0.47100002 13372.54564884  1136.13153217
0.47200002 13399.24477008  1045.74410765
0.47300002 13426.46127927  1050.08358642
0.47400002 13453.27841481  1246.10997223
0.47500002 13480.78831958  962.52833164
0.47600002 13509.07482170  1256.54665410
0.47700002 13536.57140459  970.57221571
0.47800002 13564.58636316  974.61557639
