# SAXS profile: number of points = 501, q_min = 0, q_max = 0.5, delta_q = 0.001
#    q    intensity    error
0.00000000 1646666.22097349 345.79990640
0.00100000 1646580.44032911 740.96121574
0.00200000 1646323.05765643 814.92993934
0.00300000 1645894.30698183 987.53661937
0.00400000 1645294.03260687 1480.76468561
0.00500000 1644522.91391074 2072.09895354
0.00600000 1643580.76489362 2243.48783542
0.00700000 1642468.37146219 3153.53940427
0.00800000 1641185.48640383 2658.72060023
0.00900000 1639733.50087631 2705.56039210
0.01000000 1638111.82124395 3513.75000829
0.01100000 1636321.99425268 3534.45566147
0.01200000 1634363.99256643 3187.00992524
0.01300000 1632239.03659639 4113.24255364
0.01400000 1629947.42329528 4034.12005149
0.01500000 1627490.57384810 5468.36857163
0.01600000 1624868.19205297 4143.41407496
0.01700000 1622082.51749009 5255.54759242
0.01800000 1619133.99015172 5998.89170345
0.01900000 1616023.60602631 5332.87814052
0.02000000 1612752.11482179 7620.25408724
0.02100000 1609322.15155025 5841.83967499
0.02200000 1605732.55301869 6093.75531556
0.02300000 1601986.22494617 6920.58080678
0.02400000 1598083.83964037 6592.09613910
0.02500000 1594027.70210137 6838.37915433
0.02600000 1589818.46698953 7082.64159439
0.02700000 1585457.66408593 9322.49149181
0.02800000 1580945.91206686 7564.82653616
0.02900000 1576286.68189852 9221.27751249
0.03000000 1571480.34970645 7307.38396202
0.03100000 1566528.74531359 9023.20598819
0.03200000 1561432.98169847 8502.00297693
0.03300000 1556197.06010938 11904.90805866
0.03400000 1550819.85200668 9770.16551844
0.03500000 1545305.02380383 14185.90077360
0.03600000 1539653.26772945 11963.10644312
0.03700000 1533867.83967416 11365.96121763
0.03800000 1527949.98704910 10726.20940549
0.03900000 1521902.26525147 10044.55541582
0.04000000 1515724.93971637 11186.05057346
0.04100000 1509421.92595335 12362.16614675
0.04200000 1502994.80377661 10663.74862752
0.04300000 1496445.15021309 10864.19229484
0.04400000 1489775.96877814 18100.77886129
0.04500000 1482989.81351802 11255.89320761
0.04600000 1476086.88368890 10406.41301377
0.04700000 1469071.35849590 11635.04570041
0.04800000 1461944.73335594 11819.82371914
0.04900000 1454709.75214929 12001.35601386
0.05000000 1447368.34475039 11072.36835294
0.05100000 1439924.15285427 16847.11337320
0.05200000 1432376.17959415 20497.30408519
0.05300000 1424730.47882398 12694.34915811
0.05400000 1416987.27498461 19873.24745843
0.05500000 1409150.72189515 14204.23993932
0.05600000 1401221.28598315 14376.53106506
0.05700000 1393204.20138659 16969.22796499
0.05800000 1385098.68409073 25742.06024578
0.05900000 1376908.55864031 12392.17760655
0.06000000 1368637.64189402 15027.64201007
0.06100000 1360287.13433330 12650.67094048
0.06200000 1351859.92476840 14052.58457483
0.06300000 1343359.44062593 20634.00197276
0.06400000 1334784.76305125 18219.81286773
0.06500000 1326142.76555004 15754.57679170
0.06600000 1317434.15343087 14564.23524762
0.06700000 1308660.17556897 16018.00129859
0.06800000 1299825.20722081 17489.14898181
0.06900000 1290932.88740287 18976.71433329
0.07000000 1281982.63427914 16383.73883331
0.07100000 1272978.87099891 16497.80694087
0.07200000 1263923.47193597 16607.95519927
0.07300000 1254819.79859342 22285.60066722
0.07400000 1245670.87306462 14013.79797872
0.07500000 1236477.24365604 14095.84123839
0.07600000 1227242.09446058 17009.57622664
0.07700000 1217969.39064818 18525.31530038
0.07800000 1208660.21895975 17187.14911962
0.07900000 1199315.97213479 18709.33004284
0.08000000 1189942.85146272 15903.58695585
0.08100000 1180540.92633639 18876.85029779
0.08200000 1171111.77264496 17496.41070434
0.08300000 1161658.65023145 19027.96958381
0.08400000 1152184.98716616 17628.43113110
0.08500000 1142692.18254186 17688.87581615
0.08600000 1133182.84821098 23660.85898156
0.08700000 1123659.26760941 17798.76363472
0.08800000 1114123.06355611 19335.60667609
0.08900000 1104577.87448573 20876.52280834
0.09000000 1095025.69508815 20925.94201614
0.09100000 1085467.92154827 20971.24122957
0.09200000 1075907.09887181 16509.79520793
0.09300000 1066347.34646356 18042.59795002
0.09400000 1056787.05981050 19576.98120306
0.09500000 1047230.52852038 21112.16844730
0.09600000 1037679.66003406 22647.35964485
0.09700000 1028139.04528591 30227.28935247
0.09800000 1018607.38809671 18151.58450933
0.09900000 1009088.64844855 22704.49565771
0.10000000 999582.61949687 16658.04513730
0.10100000 990092.84062110 16663.26329136
0.10200000 980621.24138129 18180.71867036
0.10300000 971169.37366623 21210.34011862
0.10400000 961739.64701446 25750.58026025
0.10500000 952335.33955194 16656.34587243
0.10600001 942952.70445153 16647.83078043
0.10700001 933600.36475345 18149.19194487
0.10800001 924274.70483371 16623.08134874
0.10900001 914981.32885318 16606.91190030
0.11000001 905720.13904644 16588.26512744
0.11100001 896491.88547053 22591.59657732
0.11200001 887300.29788708 22559.61113582
0.11300001 878144.78720464 18019.53188181
0.11400001 869028.15110847 22486.10446868
0.11500001 859951.90292889 19452.11296021
0.11600001 850917.55168891 19413.68485600
0.11700001 841926.07173775 19372.71982304
0.11800001 832977.98194699 23789.85228487
0.11900001 824075.20479416 19283.36070046
0.12000001 815218.65235675 17755.46308470
0.12100001 806411.97216473 14757.33978581
0.12200001 797653.85700403 22075.07153257
0.12300001 788946.59620538 17609.28885696
0.12400001 780290.37518349 17556.53426885
0.12500001 771686.12960373 26252.76336616
0.12600001 763137.22987476 20352.87087986
0.12700001 754642.24011359 17386.95803160
0.12800001 746202.79586524 17326.82973659
0.12900001 737820.16279323 15826.24323784
0.13000001 729495.11328326 14334.57965167
0.13100001 721227.55067032 19992.42864698
0.13200001 713019.39507623 22759.58016373
0.13300001 704872.10978603 14167.93007462
0.13400001 696784.43283572 18342.85105919
0.13500001 688758.83572239 15455.74900232
0.13600001 680794.51937569 19586.45924595
0.13700001 672893.77378248 20893.35266114
0.13800001 665054.99727853 18026.31655128
0.13900001 657280.83027738 16563.47770409
0.14000001 649570.89240576 21981.48003567
0.14100001 641925.59396804 27346.03159276
0.14200001 634345.20122863 16328.04624974
0.14300001 626831.71627602 18955.39199427
0.14400001 619381.55084905 13471.54936642
0.14500001 611999.87305673 14743.07763740
0.14600001 604684.13606861 13333.28582930
0.14700001 597437.26158034 22547.28331574
0.14800001 590254.31388947 17149.83989917
0.14900001 583140.17844032 15744.78556074
0.15000001 576093.34955536 22182.47547126
0.15100001 569114.28218348 12975.80624605
0.15200001 562203.56675963 12902.57246597
0.15300001 555361.53673994 12828.85210407
0.15400001 548585.15361470 16580.98705048
0.15500001 541878.46284138 13947.95229178
0.15600001 535237.27919563 13865.32237194
0.15700001 528667.65383611 15035.30878472
0.15800001 522162.07325046 14944.27924178
0.15900001 515726.86858792 14852.93451640
0.16000001 509356.96278587 13531.06835511
0.16100001 503057.68042151 17114.02309579
0.16200001 496824.24002656 15791.55921470
0.16300001 490658.08260879 15691.24622258
0.16400001 484558.97702681 13192.11877235
0.16500001 478526.39780277 17872.96180174
0.16600001 472561.39089419 11837.66340079
0.16700001 466660.78772601 15287.80812771
0.16800001 460825.96846465 12850.13273737
0.16900001 455059.12557570 11604.00825010
0.17000001 449355.84486052 14983.77135440
0.17100001 443717.73743000 17171.87724942
0.17200001 438144.72643238 11369.85618784
0.17300001 432635.79751442 13550.15381805
0.17400001 427190.73688189 12335.13311000
0.17500001 421809.04507619 12249.33524752
0.17600001 416489.08284392 12163.56423893
0.17700001 411233.46633219 14273.91429056
0.17800001 406038.18795948 15262.97620630
0.17900001 400905.41246556 10824.44664785
0.18000001 395833.85150776 15045.64540649
0.18100001 390824.21409712 17071.20247815
0.18200001 385872.01136614 12710.62465482
0.18300001 380980.39492605 10515.05939668
0.18400001 376147.70040835 12525.71901532
0.18500001 371374.82878569 11397.49403387
0.18600001 366658.28956313 12341.71860976
0.18700001 361999.20023240 10208.37792885
0.18800001 357396.81078012 13171.86008362
0.18900001 352852.40620772 16090.07048329
0.19000001 348360.15695387 12974.67465878
0.19100001 343927.08898902 10895.61069399
0.19200001 339545.26926560 13761.77041360
0.19300001 335219.95989727 12681.37168214
0.19400001 330945.61144334 10648.17555136
0.19500001 326725.43959926 11526.87405377
0.19600001 322556.63242043 12391.01361998
0.19700001 318439.07206610 11349.16906477
0.19800001 314372.93814492 11260.83917652
0.19900001 310357.18542400 11172.85920329
0.20000001 306389.91953174 13856.48476570
0.20100001 302473.08335418 10997.92183055
0.20200001 298602.98176019 10910.95346921
0.20300001 294782.41346638 11726.44496194
0.20400001 291008.14560565 10738.20108040
0.20500001 287280.19682542 10652.35020179
0.20600001 283598.36792981 9686.30271449
0.20700001 279962.21339040 9608.30361773
0.20800001 276369.74795878 10397.03040968
0.20900001 272823.44660364 11172.12066654
0.21000001 269318.84733195 10228.73030520
0.21100001 265857.82098664 10990.56283915
0.21200001 262438.67700254 9223.40773929
0.21300001 259060.61254609 9979.01526704
0.21400001 255724.58210525 10721.25361163
0.21500001 252429.95027415 12268.09616333
0.21600001 249174.16803090 9732.74346344
0.21700001 245958.16569025 9651.39887800
0.21800001 242780.92258351 8772.88905234
0.21900001 239641.10449054 8698.97250431
0.22000001 236538.75068906 8625.38595171
0.22100001 233475.16746995 7774.72344437
0.22200001 230448.26364796 9250.19374022
0.22300001 227455.73048296 8406.76419617
0.22400001 224498.84087265 9849.88710905
0.22500001 221579.06577833 9764.98989061
0.22600001 218691.52926134 7446.44692348
0.22700001 215840.07058578 10334.42306835
0.22800001 213021.08657601 8049.00213691
0.22900001 210234.09054160 8703.69176003
0.23000001 207480.82576701 7908.13204810
0.23100001 204760.22939828 11401.05011208
0.23200001 202069.63767002 7062.33417057
0.23300001 199410.74566785 9799.04450556
0.23400001 196783.24579022 9017.59266483
0.23500001 194184.14415891 6874.11902835
0.23600001 191616.24929816 9536.74117863
0.23700001 189077.27874172 8100.07100441
0.23800001 186567.35424131 6688.43996591
0.23900001 184085.52203602 7289.78701743
0.24000001 181631.74235262 8535.78413561
0.24100001 179206.65738498 8456.76256201
0.24200001 176808.31698624 7089.12980489
0.24300001 174437.20961152 7022.84239116
0.24400001 172092.03994177 9486.57415054
0.24500001 169773.12068804 9396.94267460
0.24600001 167480.51818723 7446.18419085
0.24700001 165213.44085013 6145.94029036
0.24800001 162971.27893555 6695.67531182
0.24900001 160753.13117162 7233.89124494
0.25000001 158560.67100973 7760.75240972
0.25100001 156390.93830716 8276.20884675
0.25200001 154247.12193890 6439.04640997
0.25300001 152126.32509828 6955.21591255
0.25400001 150028.47023263 5738.58925790
0.25500001 147953.27638770 6249.54669029
0.25600001 145901.45730241 8999.20231219
0.25700001 143871.15259789 7794.93941656
0.25800001 141864.05440145 10471.69567110
0.25900001 139878.70266373 7091.85056060
0.26000001 137914.95462135 6479.24487468
0.26100001 135971.97417632 6412.43860557
0.26200001 134051.34366397 8990.15378821
0.26300001 132150.79527044 6803.12326243
0.26400001 130271.24101612 7767.42311313
0.26500001 128412.68270702 6660.76616719
0.26600001 126573.45243287 6083.12041177
0.26700001 124755.58666994 5015.17482145
0.26800001 122957.78315924 5457.48146378
0.26900001 121178.45735656 4907.72775518
0.27000001 119419.74120767 7281.61906472
0.27100001 117679.79131918 5761.60285564
0.27200001 115960.45134421 4748.58070726
0.27300001 114259.13992681 6574.47122252
0.27400001 112575.01013310 6036.83520408
0.27500001 110912.46071922 5050.95370019
0.27600001 109266.10456331 5448.00823136
0.27700001 107639.79327563 5386.29551043
0.27800001 106030.72478223 5324.86325057
0.27900001 104441.13301721 7018.44447092
0.28000001 102867.85073156 7804.58420438
0.28100001 101313.19574178 5142.65805925
0.28200001 99776.89739025  5082.63539362
0.28300001 98257.59999395  4604.35135364
0.28400001 96755.59327986  5377.19235104
0.28500001 95271.33105745  5313.28238456
0.28600001 93804.13293042  4038.26811379
0.28700001 92354.00148641  3989.69305306
0.28800001 90920.26167004  4335.53288295
0.28900001 89505.05083016  4282.81688494
0.29000001 88105.15810854  4999.52743352
0.29100001 86722.83248451  4178.30626688
0.29200001 85356.99833781  4876.87233088
0.29300001 84007.55943476  4816.15361037
0.29400001 82673.81237925  4755.81128224
0.29500001 81357.60554405  3973.50564287
0.29600001 80056.83111818  3923.18519466
0.29700001 78772.25077452  4225.34373157
0.29800001 77503.61799185  3823.64117463
0.29900001 76251.49652118  4803.84450824
0.30000001 75014.49338934  5080.35680530
0.30100001 73794.31987382  4011.45941824
0.30200001 72587.99568095  3958.94947186
0.30300001 71398.81930797  3906.94357749
0.30400001 70225.06286448  4176.63581159
0.30500001 69066.42173607  4438.20847087
0.30600001 67922.12770346  4378.93978035
0.30700001 66794.38408098  3394.49075970
0.30800001 65681.26246728  3957.62465733
0.30900001 64583.36845906  3603.75213063
0.31000001 63500.68629706  2962.30715601
0.31100001 62431.98096331  2921.81684742
0.31200001 61378.97938691  3458.09186238
0.31300001 60339.98049279  4263.01982365
0.31400001 59316.99686579  3643.54670499
0.31500001 58307.42557716  3316.52652386
0.31600002 57312.91714131  3542.79814083
0.31700002 56332.58449909  3224.47728940
0.31800002 55366.63416818  4238.86971262
0.31900002 54415.02039802  3134.30532333
0.32000002 53477.87325961  3089.95166325
0.32100002 52554.08944953  3046.03516872
0.32200002 51645.50470054  2502.22482122
0.32300002 50749.20407593  4192.89943929
0.32400002 49867.47146060  2674.14328370
0.32500002 48999.21533300  3114.88026621
0.32600002 48145.12698005  2361.51859019
0.32700002 47304.01589137  2327.35769206
0.32800002 46477.10011950  2293.64499951
0.32900002 45662.81201856  2486.34023215
0.33000002 44862.90555953  3563.90938641
0.33100002 44073.44437156  3072.80068710
0.33200002 43300.44096200  3027.99997986
0.33300002 42538.83552863  2131.19576091
0.33400002 41790.62933415  2519.97506818
0.33500002 41054.16918817  2482.95627008
0.33600002 40331.57194374  2038.76105830
0.33700002 39620.58106140  2008.76355494
0.33800002 38922.88340173  2375.07445765
0.33900002 38236.81825384  3120.12451728
0.34000002 37563.49733048  2305.64757534
0.34100002 36902.16545149  2082.38929505
0.34200002 36253.52213857  1865.24380237
0.34300002 35615.78273117  2205.32937116
0.34400002 34991.18835056  1991.87349119
0.34500002 34377.57415027  2676.29427435
0.34600002 33776.60652780  2109.68694364
0.34700002 33185.38777452  1732.27732387
0.34800002 32607.35908056  2389.79346020
0.34900002 32039.89336034  2523.14172163
0.35000002 31483.54238658  2154.89116071
0.35100002 30939.26674536  2287.03070614
0.35200002 30404.29315483  2092.87961844
0.35300002 29881.01223834  1586.68182501
0.35400002 29368.84068716  2033.05809286
0.35500002 28867.21261266  1541.50922653
0.35600002 28375.17903352  1823.38909106
0.35700002 27894.26364380  1497.92202862
0.35800002 27424.21032151  1624.47317534
0.35900002 26963.88910472  1747.26009675
0.36000002 26513.91194595  1579.30123987
0.36100002 26073.20140468  1557.35239367
0.36200002 25643.54368382  1535.92012169
0.36300002 25222.43789723  1652.57420930
0.36400002 24811.10785314  1630.08986316
0.36500002 24409.13629755  1742.08014007
0.36600002 24016.94389815  1454.34610664
0.36700002 23633.33517289  1956.84024501
0.36800002 23260.36162941  2059.93772348
0.36900002 22895.30467235  1778.96525731
0.37000002 22538.90416196  2132.29312925
0.37100002 22191.11118753  1485.91687550
0.37200002 21852.87601576  1467.20216520
0.37300002 21522.53638818  1569.63865314
0.37400002 21200.59902246  1788.80062726
0.37500002 20887.40304875  1295.85454653
0.37600002 20582.41221075  1396.72255879
0.37700002 20284.98242616  1380.19026966
0.37800002 19995.44365760  1818.78564125
0.37900002 19714.23521873  1573.19604498
0.38000002 19440.70362918  1555.45077106
0.38100002 19173.75268894  1318.38729735
0.38200002 18915.31650325  1195.35348305
0.38300002 18663.43226672  1397.51787434
0.38400002 18419.71736238  1063.73872807
0.38500002 18181.79856669  1368.54404295
0.38600002 17952.05071547  1250.53991208
0.38700002 17728.57678048  1134.98353926
0.38800002 17511.83526453  1328.36032692
0.38900002 17301.31254181  1315.76488114
0.39000002 17098.45369365  1103.10679231
0.39100002 16900.75301973  1291.89362203
0.39200002 16710.05410064  1182.06928308
0.39300002 16525.19597659  1171.96695418
0.39400002 16347.61716525  1065.45599922
0.39500002 16174.73619195  960.77937532
0.39600002 16007.88466598  953.26957702
0.39700002 15846.71159189  1135.25847223
0.39800002 15691.31562093  1314.77539817
0.39900002 15541.32989270  1305.47177284
0.40000002 15396.46407787  926.09735816
0.40100002 15257.33523971  1380.02603782
0.40200002 15123.48185212  1097.05742553
0.40300002 14994.05849863  908.63998807
0.40400002 14870.16247229  1084.03489559
0.40500002 14751.16457612  1167.84975483
0.40600002 14636.95093135  1519.09602439
0.40700002 14527.08442405  1511.39793509
0.40800002 14422.22935209  1061.76457521
0.40900002 14321.46465554  968.84712985
0.41000002 14225.44110248  1052.39818263
0.41100002 14133.56202538  873.45417455
0.41200002 14045.50612983  1044.14297517
0.41300002 13962.18152843  953.75666540
0.41400002 13882.40356163  950.59762892
0.41500002 13806.79561918  1292.31613119
0.41600002 13734.42624899  859.08840258
0.41700002 13666.09831684  856.86440507
0.41800002 13602.45509577  940.40577761
0.41900002 13540.27461744  1279.55601198
0.42000002 13482.82283271  1021.72836268
0.42100002 13428.92211961  1020.06097254
0.42200002 13378.38689481  848.85868870
0.42300002 13330.45565487  1102.16212577
0.42400002 13285.49580268  1101.03551682
0.42500002 13244.14354388  1269.45121883
0.42600002 13204.75063520  1184.07004557
0.42700002 13169.60046731  930.03722907
0.42800002 13136.02753884  1098.89443583
0.42900002 13106.59442741  1268.06307094
0.43000002 13079.09102501  1352.90123974
0.43100002 13053.21225757  930.43301381
0.43200002 13031.00598315  846.36387871
0.43300002 13010.92180566  1439.91878447
0.43400002 12993.16212408  932.58425565
0.43500002 12977.56758642  933.60625641
0.43600002 12964.45835738  934.80231416
0.43700002 12953.00740259  851.01262668
0.43800002 12943.58502849  1193.26916032
0.43900002 12936.85518023  939.21573059
0.44000002 12931.48294833  940.95940133
0.44100002 12928.41159452  1114.29984814
0.44200002 12926.90811121  1116.69101011
0.44300002 12927.25605602  1033.14635296
0.44400002 12929.67000908  1035.66661681
0.44500002 12932.47545158  1124.73744333
0.44600002 12937.23398456  1561.39484359
0.44700002 12944.56761663  1130.83748058
0.44800002 12951.72131841  1133.98801378
0.44900002 12961.97323843  1049.91988207
0.45000002 12972.91794416  1140.90332267
0.45100002 12984.82947962  1320.55722066
0.45200002 12998.14137044  1059.86849758
0.45300002 13012.51864546  1151.99833028
0.45400002 13028.31062492  978.10046652
0.45500002 13045.11473900  1695.34319183
0.45600002 13062.83571502  985.00317377
0.45700002 13081.55633871  898.70296306
0.45800002 13100.83960842  1082.39141975
0.45900002 13121.33715381  995.90953717
0.46000002 13143.25265565  1090.62715706
0.46100002 13164.79612559  1277.24858064
0.46200002 13188.11031694  1190.68859640
0.46300002 13211.99020398  1195.42093031
0.46400002 13235.80049884  1292.47597997
0.46500002 13260.85050168  1019.62684340
0.46600002 13286.36930347  1023.78123520
0.46700002 13312.08919445  1027.95957632
0.46800002 13339.21851684  1501.46250742
0.46900002 13365.75020926  1130.74252130
0.47000002 13393.07789669  1230.08729772
0.47100002 13421.03318437  1330.29287229
0.47200002 13449.31207788  1049.65161087
0.47300002 13478.04483264  1341.60464623
0.47400002 13506.40114098  1058.56423960
0.47500002 13535.46198623  1256.36164111
0.47600002 13565.21587886  1261.76861478
0.47700002 13594.26787191  1169.65086314
0.47800002 13623.76606460  1174.64116577
