# SAXS profile: number of points = 501, q_min = 0, q_max = 0.5, delta_q = 0.001
#    q    intensity    error
0.00000000 1682732.95097187 328.13292544
0.00100000 1682646.13524122 807.67016410
0.00200000 1682385.64979813 832.78092302
0.00300000 1681951.71575705 1211.00527848
0.00400000 1681344.21788075 1639.31067472
0.00500000 1680563.77954226 1512.50746145
0.00600000 1679610.28640379 2469.02722153
0.00700000 1678484.45366103 2618.43585653
0.00800000 1677186.05387999 2717.04152200
0.00900000 1675716.55015173 3519.00490575
0.01000000 1674075.26590535 3038.44673882
0.01100000 1672263.80615946 3612.08997857
0.01200000 1670282.10533240 4234.16532266
0.01300000 1668131.44846856 3853.38381592
0.01400000 1665812.05891310 7121.34686755
0.01500000 1663325.45346080 5588.77377249
0.01600000 1660671.25834963 6352.06784715
0.01700000 1657851.80530953 5371.44009016
0.01800000 1654867.45376235 6602.92143763
0.01900000 1651719.24722119 5946.18955830
0.02000000 1648407.94193272 5711.73377717
0.02100000 1644936.25353884 7599.60583590
0.02200000 1641302.88503916 5662.49521065
0.02300000 1637510.86872544 8253.05515404
0.02400000 1633560.80172152 6738.43861436
0.02500000 1629455.11667206 9532.31286788
0.02600000 1625194.23876045 7240.24066483
0.02700000 1620780.05689978 8849.45951599
0.02800000 1616212.99987786 7733.57955907
0.02900000 1611496.47073523 10152.42823177
0.03000000 1606631.09453689 10459.16890619
0.03100000 1601618.45154696 9994.09959751
0.03200000 1596459.85162249 11853.71494426
0.03300000 1591159.33789701 12172.36949606
0.03400000 1585715.54174421 9157.50767610
0.03500000 1580132.40817304 11092.53001761
0.03600000 1574410.55750926 10485.57479759
0.03700000 1568553.16413695 11622.97948379
0.03800000 1562561.60611539 11883.28156446
0.03900000 1556438.48705512 14007.94703220
0.04000000 1550183.96595765 12393.72138214
0.04100000 1543801.87612051 10698.54749757
0.04200000 1537294.24292108 13881.76765759
0.04300000 1530662.26070169 14143.31994539
0.04400000 1523909.30213276 11315.02709383
0.04500000 1517037.29314140 11514.31358995
0.04600000 1510047.22812549 11710.41679849
0.04700000 1502942.60299200 12985.42469378
0.04800000 1495725.67566478 12092.94265041
0.04900000 1488398.74488383 13395.58932749
0.05000000 1480963.65100992 20392.87042402
0.05100000 1473424.16014226 12641.97988294
0.05200000 1465779.61014462 12818.24328806
0.05300000 1458035.52384370 15353.11478180
0.05400000 1450192.92151069 14356.91059247
0.05500000 1442255.18265142 13326.43850937
0.05600000 1434223.19625464 17167.65246028
0.05700000 1426102.15275556 13647.79823893
0.05800000 1417891.18091815 12548.33753704
0.05900000 1409594.35456588 12686.34978362
0.06000000 1401215.21388628 16667.45574786
0.06100000 1392755.33100520 20724.20029383
0.06200000 1384217.37430841 17005.11123826
0.06300000 1375604.81641446 14526.38754052
0.06400000 1366916.92616230 17325.67284937
0.06500000 1358160.10705322 13445.78568879
0.06600000 1349335.63110931 20341.23559071
0.06700000 1340444.83496520 20508.80693476
0.06800000 1331491.92776898 19293.31893648
0.06900000 1322480.11507313 13886.04185840
0.07000000 1313409.15517973 22380.49305231
0.07100000 1304283.66075868 19720.76987435
0.07200000 1295105.63324170 15599.54808319
0.07300000 1285878.33075433 17127.90016819
0.07400000 1276604.58824728 25851.24412350
0.07500000 1267285.09124127 23115.28114771
0.07600000 1257923.18771496 18887.71754901
0.07700000 1248522.72831465 17529.25992746
0.07800000 1239084.71554600 14683.15456780
0.07900000 1229611.05249165 20657.46665077
0.08000000 1220107.21500376 22236.45503658
0.08100000 1210573.92604663 16379.06598789
0.08200000 1201012.46487358 17943.12706720
0.08300000 1191426.27064476 21016.76040053
0.08400000 1181818.52819540 16575.00563595
0.08500000 1172191.08558383 19657.64542807
0.08600000 1162546.38512954 18205.47724590
0.08700000 1152886.42385299 19783.53196231
0.08800000 1143213.52496929 19840.47165763
0.08900000 1133530.64978100 33665.86187977
0.09000000 1123840.32801103 16874.46331777
0.09100000 1114143.71149764 24600.29430562
0.09200000 1104443.33971176 26191.87503193
0.09300000 1094743.43828539 20066.64816675
0.09400000 1085042.38090040 17008.04011995
0.09500000 1075344.74834425 18581.95812479
0.09600000 1065651.98270433 15505.23707721
0.09700000 1055969.05448456 17075.02041376
0.09800000 1046294.82394709 20198.72252600
0.09900000 1036632.95609129 18659.39408705
0.10000000 1026983.10015830 20226.43310881
0.10100000 1017349.45302733 20235.08157241
0.10200000 1007733.65604762 20240.33143375
0.10300000 998136.74186555 17128.02729613
0.10400000 988561.94496030 18683.82163873
0.10500000 979012.07962061 21792.80991769
0.10600001 969483.84315514 21784.30298072
0.10700001 959985.48929714 23327.64848766
0.10800001 950513.76239937 21757.26104526
0.10900001 941073.75934562 18633.26131203
0.11000001 931665.74140342 15512.23532452
0.11100001 922290.93028512 15494.48835817
0.11200001 912952.09541543 24759.26199326
0.11300001 903649.33007798 20088.12555340
0.11400001 894385.45410298 18513.77977164
0.11500001 885162.14244398 15401.82200377
0.11600001 875979.92971992 18448.13818865
0.11700001 866840.72071382 19946.00592298
0.11800001 857745.02903962 19903.97433631
0.11900001 848694.61876668 16804.15424308
0.12000001 839690.65749077 22860.57922703
0.12100001 830736.38964477 16722.72431133
0.12200001 821830.61364705 16679.05308974
0.12300001 812975.84879173 18145.62179995
0.12400001 804172.20970418 21109.52149936
0.12500001 795420.33427347 21046.82303661
0.12600001 786724.18264562 20981.93493990
0.12700001 778082.16920040 20914.84969375
0.12800001 769495.59026245 19356.66248532
0.12900001 760966.01882270 20774.37329300
0.13000001 752494.45943926 16265.16850744
0.13100001 744080.39359816 25045.74722911
0.13200001 735725.95243224 17613.28013152
0.13300001 727432.60263930 16083.53560258
0.13400001 719199.03774187 24758.42804152
0.13500001 711027.96646342 18856.46255966
0.13600001 702918.39919353 15889.47116297
0.13700001 694872.55418122 17260.63505976
0.13800001 686888.88455405 22914.61426928
0.13900001 678970.60303022 15684.22166964
0.14000001 671116.69838457 15613.53072426
0.14100001 663327.70039945 18367.54489033
0.14200001 655603.96810078 22500.32924645
0.14300001 647947.68297333 16794.80473484
0.14400001 640355.06269441 22284.35723292
0.14500001 632831.17831839 16630.80415072
0.14600001 625373.46523578 22063.17689433
0.14700001 617985.14424673 13719.27084950
0.14800001 610661.52159798 15013.11421679
0.14900001 603407.09820958 21722.65656044
0.15000001 596220.13891590 16205.26414035
0.15100001 589101.61275500 16117.82088550
0.15200001 582051.75300434 16029.70603413
0.15300001 575071.29636040 13284.14757279
0.15400001 568156.89877239 14530.61337182
0.15500001 561312.52806157 22329.01342006
0.15600001 554534.44815915 14365.21555753
0.15700001 547828.39073798 16878.59351525
0.15800001 541187.01720481 12907.31096954
0.15900001 534616.25354304 12830.79069065
0.16000001 528111.50197753 14029.28271225
0.16100001 521677.86419955 17747.48177783
0.16200001 515310.94238690 16379.15907696
0.16300001 509011.55871065 12521.68493540
0.16400001 502780.23168543 17421.33585035
0.16500001 496615.61554443 14838.87529303
0.16600001 490519.26470885 18431.26224163
0.16700001 484488.05651065 13430.00956057
0.16800001 478523.31990141 12130.56673226
0.16900001 472626.90575476 13257.18533240
0.17000001 466794.95498919 13170.62027693
0.17100001 461028.46541325 13083.98846627
0.17200001 455327.94583150 12997.33682753
0.17300001 449692.07328737 16431.74913390
0.17400001 444121.06335833 13989.81415647
0.17500001 438613.62529341 12737.34028007
0.17600001 433168.49982428 19551.06116295
0.17700001 427788.59438776 18275.12961539
0.17800001 422469.88631755 13611.98038007
0.17900001 417214.08376430 12391.25887308
0.18000001 412020.02177220 14542.24735535
0.18100001 406888.85578441 16662.09943143
0.18200001 401815.70570058 12132.82580676
0.18300001 396803.97488090 13142.14826888
0.18400001 391851.58248080 15223.43469855
0.18500001 386959.99249237 10796.18430057
0.18600001 382125.24894735 10718.61373936
0.18700001 377348.48145498 12769.47321573
0.18800001 372629.22383128 11620.44289420
0.18900001 367968.99219457 11535.82845034
0.19000001 363360.86433385 12492.34710605
0.19100001 358813.10391964 11367.19966928
0.19200001 354317.40212289 11283.23820375
0.19300001 349878.37875154 12217.75356332
0.19400001 345491.69816779 11116.19591383
0.19500001 341159.00969936 11033.08289505
0.19600001 336878.99026606 15927.63941246
0.19700001 332650.83124615 9879.73015490
0.19800001 328474.69074617 12746.46097679
0.19900001 324349.85434433 9730.49609019
0.20000001 320274.01430101 11587.51438505
0.20100001 316249.06410156 14373.52064274
0.20200001 312271.90974533 15213.88816185
0.20300001 308344.67015366 11322.41682319
0.20400001 304464.73096927 11234.74910378
0.20500001 300631.49873442 13934.27062497
0.20600001 296845.17024044 15668.97305178
0.20700001 293105.21648596 11888.34814262
0.20800001 289409.32941771 9980.28119674
0.20900001 285760.91965801 13502.20409211
0.21000001 282154.22420095 9823.19977992
0.21100001 278591.96115720 8859.22478360
0.21200001 275072.38769000 11425.13216282
0.21300001 271594.27282958 9589.99422698
0.21400001 268158.92482360 9512.93830786
0.21500001 264765.82616887 10294.09580813
0.21600001 261412.12396996 10210.75804502
0.21700001 258098.71473105 9283.81120781
0.21800001 254824.77699228 9208.09375198
0.21900001 251589.07523755 9132.68386293
0.22000001 248391.29182126 8234.17171321
0.22100001 245232.98259921 10616.13631869
0.22200001 242111.66134324 8908.49900036
0.22300001 239025.87771595 10440.65083232
0.22400001 235975.81285860 14335.53130903
0.22500001 232963.76233134 12635.95506637
0.22600001 229984.51458859 10963.36232888
0.22700001 227042.12574852 9317.80928135
0.22800001 224132.41283836 11548.42311762
0.22900001 221255.60459474 8396.65059146
0.23000001 218413.09389591 9081.61687368
0.23100001 215603.79687548 9003.61498333
0.23200001 212824.91966949 10413.52381192
0.23300001 210078.41023715 10323.25356729
0.23400001 207363.77213233 8771.48797605
0.23500001 204678.04814799 9419.28422127
0.23600001 202024.37765177 7900.16366173
0.23700001 199399.95343745 7118.57867441
0.23800001 196805.14719250 7761.01134662
0.23900001 194238.99686500 11887.42717041
0.24000001 191701.48616821 7623.00995805
0.24100001 189193.22333305 8928.02863139
0.24200001 186712.35740237 8166.79889909
0.24300001 184258.64649561 7418.25345882
0.24400001 181831.93019965 8687.02087622
0.24500001 179431.91872595 8607.34954845
0.24600001 177058.39174925 7216.01509710
0.24700001 174711.14988602 7799.10609986
0.24800001 172389.59341410 8370.37710420
0.24900001 170092.39972076 8292.00487866
0.25000001 167821.21942718 6950.31613138
0.25100001 165573.27674694 6258.67015713
0.25200001 163351.65522343 8058.95429171
0.25300001 161153.70379448 8595.93896708
0.25400001 158978.98187000 8513.32488191
0.25500001 156827.40122146 7828.82423937
0.25600001 154699.67456481 7156.40728396
0.25700001 152594.25460005 5905.39793243
0.25800001 150512.04860960 7601.61137469
0.25900001 148452.25947166 10421.34910799
0.26000001 146414.46751364 7451.76467669
0.26100001 144397.76508395 6809.79892357
0.26200001 142403.92977213 7303.18588393
0.26300001 140430.37488856 6117.14741959
0.26400001 138478.63724476 7155.88391823
0.26500001 136548.16250777 7082.75352443
0.26600001 134637.43328516 7009.89829570
0.26700001 132748.31368141 7471.07544752
0.26800001 130879.85060032 6865.30288811
0.26900001 129030.08917739 5748.29074487
0.27000001 127201.40413331 6204.88478725
0.27100001 125391.97637531 7162.39002950
0.27200001 123603.57687506 6073.88005508
0.27300001 121833.54864611 7010.30272085
0.27400001 120081.04326029 5448.67759579
0.27500001 118350.46087618 5389.68024337
0.27600001 116636.39746499 6300.11530723
0.27700001 114942.93819402 5751.74489944
0.27800001 113266.93921136 6636.31028247
0.27900001 111610.61186486 5156.41051220
0.28000001 109971.26337841 5098.81786786
0.28100001 108350.75540112 5499.88460447
0.28200001 106748.96093778 4531.49360628
0.28300001 105164.52808442 6272.01275181
0.28400001 103597.72661998 5314.56362715
0.28500001 102049.06385121 5691.27656036
0.28600001 100517.74229203 4327.28901049
0.28700001 99003.77541767  5132.35596058
0.28800001 97506.44446430  4226.90456760
0.28900001 96028.32773485  5848.12543587
0.29000001 94565.59910424  5366.12517517
0.29100001 93120.85985172  6118.04078185
0.29200001 91692.76763190  4835.87679381
0.29300001 90281.63305475  5573.98828865
0.29400001 88886.42864557  4326.54711913
0.29500001 87509.04559596  4273.94198922
0.29600001 86147.43410765  5373.01571964
0.29700001 84802.24846649  3790.66068589
0.29800001 83473.27649276  5615.66494189
0.29900001 82161.35087876  4436.71315748
0.30000001 80864.60424121  4381.24446520
0.30100001 79585.10445521  3605.20540249
0.30200001 78319.94435486  4627.53413128
0.30300001 77072.02437433  4217.38137342
0.30400001 75839.72273631  4163.60097534
0.30500001 74622.80327551  3425.18683250
0.30600001 73420.80194297  5071.54213431
0.30700001 72235.50036904  4338.46435756
0.30800001 71065.15056602  3952.64386161
0.30900001 69910.24184320  4226.07431950
0.31000001 68771.03980367  4170.61990635
0.31100001 67646.00813659  3798.99999682
0.31200001 66536.81144822  3436.29378994
0.31300001 65442.17664082  3082.32666572
0.31400001 64363.56156370  3649.41411345
0.31500001 63298.79753399  4200.50840324
0.31600002 62249.28162776  3551.94417786
0.31700002 61214.28094510  3211.91347327
0.31800002 60193.99213419  3168.31092600
0.31900002 59188.55755669  3409.26107669
0.32000002 58197.53055743  3642.87459773
0.32100002 57220.12898247  3592.85206893
0.32200002 56258.41207169  3543.43625212
0.32300002 55309.09437949  4032.03317118
0.32400002 54374.74279850  3180.92260433
0.32500002 53454.21880174  4182.25827709
0.32600002 52548.03052014  2835.22912097
0.32700002 51655.01736528  3049.71236966
0.32800002 50776.61258326  3006.99113957
0.32900002 49911.07780474  2470.59846833
0.33000002 49060.04102167  3166.58049769
0.33100002 48220.20294861  2881.63946467
0.33200002 47396.61135742  3314.44518918
0.33300002 46584.91904858  2800.68546583
0.33400002 45786.82611642  2991.02455770
0.33500002 45000.93271425  2494.85182782
0.33600002 44228.96384642  3130.08391964
0.33700002 43468.94949223  3085.42618107
0.33800002 42722.84410023  3041.43941553
0.33900002 41988.21501797  2783.81878753
0.34000002 41266.89994895  2110.80203235
0.34100002 40557.64798000  2704.78967188
0.34200002 39861.57100510  2666.14130294
0.34300002 39176.53635829  2627.96218337
0.34400002 38505.11787588  2789.69592223
0.34500002 37844.68848839  3142.62308091
0.34600002 37197.23919096  2323.33966990
0.34700002 36560.04503483  1908.43444120
0.34800002 35936.14939224  2633.76051370
0.34900002 35323.14284213  2225.35810445
0.35000002 34721.76444369  2193.72118145
0.35100002 34132.32702206  1982.40564733
0.35200002 33553.05721357  2309.62480269
0.35300002 32985.33827576  2101.82585448
0.35400002 32428.99408461  1899.52841847
0.35500002 31883.77765790  2043.11256909
0.35600002 31348.36807403  1846.57570886
0.35700002 30824.24074131  1986.31416745
0.35800002 30311.15456923  1795.48132595
0.35900002 29808.46158963  2575.45120333
0.36000002 29316.43748926  1587.48516524
0.36100002 28833.75990044  1565.67323675
0.36200002 28362.39609297  2625.36531870
0.36300002 27900.00764840  1675.67453873
0.36400002 27447.72338742  1803.31551197
0.36500002 27005.00083612  2075.60446258
0.36600002 26572.42573954  1755.37452750
0.36700002 26148.77991488  1443.41271967
0.36800002 25736.05454679  1994.28696130
0.36900002 25331.64091966  2108.85920646
0.37000002 24935.98457923  1803.99388984
0.37100002 24549.37647456  1369.85527217
0.37200002 24172.62222948  1758.19576115
0.37300002 23803.95631359  2136.64321992
0.37400002 23444.20199412  1582.48370957
0.37500002 23093.33797330  1432.71075573
0.37600002 22751.17978013  1415.23720527
0.37700002 22416.77313500  1398.13420666
0.37800002 22090.65277626  1758.19513775
0.37900002 21773.23899105  1613.39708567
0.38000002 21463.69159896  1226.65003299
0.38100002 21161.02175440  1455.03192476
0.38200002 20867.17675796  1318.70129769
0.38300002 20580.33070302  1422.51252558
0.38400002 20301.85277557  1641.40487466
0.38500002 20029.59900934  1391.65660510
0.38600002 19765.97098816  1262.15613724
0.38700002 19508.48447855  1816.63016071
0.38800002 19258.54731166  1460.85717553
0.38900002 19014.83547327  1223.60472067
0.39000002 18779.26476703  1321.68471692
0.39100002 18549.18095830  1199.76108122
0.39200002 18326.34094414  1080.33784984
0.39300002 18109.61770778  1177.30630296
0.39400002 17900.62048468  1060.61181397
0.39500002 17696.66088709  1156.29987714
0.39600002 17499.03451638  1146.27431030
0.39700002 17307.33998603  1446.54754457
0.39800002 17121.91433270  1332.17060777
0.39900002 16941.92842162  1118.16732880
0.40000002 16767.68137542  1109.43369077
0.40100002 16599.40611445  1601.51077780
0.40200002 16436.67070903  1391.03550801
0.40300002 16278.81131023  986.49601214
0.40400002 16126.65814730  1175.63343464
0.40500002 15979.87219398  1557.07882036
0.40600002 15837.97711549  1063.59940358
0.40700002 15701.16706068  1057.00261661
0.40800002 15569.24137903  1050.69030425
0.40900002 15442.02096840  1234.58963492
0.41000002 15319.89690991  1133.36602710
0.41100002 15202.00857610  1127.38100942
0.41200002 15088.43502568  1215.14717237
0.41300002 14979.91158137  1116.30306394
0.41400002 14875.22624568  1111.17945320
0.41500002 14775.02251303  921.96144850
0.41600002 14678.28012305  1285.37705128
0.41700002 14586.11048952  914.54917103
0.41800002 14498.66759098  1002.36543140
0.41900002 14413.27237862  1362.05430432
0.42000002 14332.90884649  1176.66020751
0.42100002 14256.36288208  992.67059452
0.42200002 14183.43216570  989.93269491
0.42300002 14113.36981063  987.37139874
0.42400002 14046.78535802  985.03086991
0.42500002 13983.99922861  1429.72414888
0.42600002 13923.49685355  980.98001730
0.42700002 13867.51667286  979.32407384
0.42800002 13813.77364601  1066.69965149
0.42900002 13764.05309878  887.78146694
0.43000002 13716.70928372  1330.17794582
0.43100002 13671.34044577  1151.67377373
0.43200002 13629.90512240  1062.31485558
0.43300002 13590.90940587  973.24506867
0.43400002 13554.59358311  1061.32472785
0.43500002 13520.66422724  1149.52692707
0.43600002 13489.63840099  1149.51959081
0.43700002 13460.48037959  1238.09504399
0.43800002 13433.53231549  1061.51777387
0.43900002 13409.75768796  1239.06166909
0.44000002 13387.60842505  1062.70840714
0.44100002 13368.03677120  1152.19114391
0.44200002 13350.24887678  1241.97371186
0.44300002 13334.69288876  888.09058848
0.44400002 13321.39429679  978.12342260
0.44500002 13308.82281993  1335.54043327
0.44600002 13298.50543555  1069.99779805
0.44700002 13290.98383492  982.46957164
0.44800002 13283.74072537  894.65998025
0.44900002 13279.75879650  1254.93726574
0.45000002 13276.75411332  1167.62419583
0.45100002 13275.01275644  990.05049830
0.45200002 13275.02576783  1713.87228298
0.45300002 13276.15803156  904.10640480
0.45400002 13279.06355522  1631.33303507
0.45500002 13283.32195426  1090.29511768
0.45600002 13288.76421364  1366.41724503
0.45700002 13295.46315068  1004.73819792
0.45800002 13302.97424733  1465.45571254
0.45900002 13311.78198080  1194.06690027
0.46000002 13322.41421506  1197.61848262
0.46100002 13332.90286365  1201.16127591
0.46200002 13345.41382849  926.83903432
0.46300002 13358.79179575  1115.72634366
0.46400002 13372.30230579  1119.26175604
0.46500002 13387.39798435  1403.66874519
0.46600002 13402.98627890  1126.65508000
0.46700002 13418.99574919  1036.21490086
0.46800002 13436.83246195  945.28120850
0.46900002 13454.29289826  1422.79154143
0.47000002 13472.83298016  1142.22683420
0.47100002 13491.94608577  1146.27579378
0.47200002 13511.89646622  1150.40291966
0.47300002 13532.48482673  1058.37568846
0.47400002 13552.84421429  1062.20421564
0.47500002 13574.16287378  1356.87338518
0.47600002 13596.36804245  1070.10219750
0.47700002 13618.13056165  1171.70400906
