# SAXS profile: number of points = 501, q_min = 0, q_max = 0.5, delta_q = 0.001
#    q    intensity    error
0.00000000 1664650.74656089 299.63713438
0.00100000 1664564.31610805 649.18009870
0.00200000 1664304.98631701 748.93726756
0.00300000 1663872.98211389 1197.98858980
0.00400000 1663268.17137420 1247.45117593
0.00500000 1662491.20601806 1645.86635910
0.00600000 1661541.93572879 1919.08101390
0.00700000 1660421.11075174 2391.00649885
0.00800000 1659128.48987625 2687.78826708
0.00900000 1657665.49502941 2735.14818372
0.01000000 1656031.53078830 2732.45214379
0.01100000 1654228.14498341 3870.89402780
0.01200000 1652255.25296898 3866.27746146
0.01300000 1650114.20904872 5197.85998775
0.01400000 1647805.17143120 3707.56180008
0.01500000 1645329.68806256 6318.06628350
0.01600000 1642687.34688079 4607.73821398
0.01700000 1639880.55098575 4870.44545491
0.01800000 1636909.59359837 6531.26957235
0.01900000 1633775.52754280 5881.59216455
0.02000000 1630479.12748943 6163.21138071
0.02100000 1627023.05514327 6979.92922302
0.02200000 1623406.05057290 6160.82624182
0.02300000 1619631.23249650 6996.80724287
0.02400000 1615699.10666355 9694.19508201
0.02500000 1611611.96042564 10684.98778561
0.02600000 1607370.48712148 7160.83584765
0.02700000 1602976.36145822 7405.75112913
0.02800000 1598430.18829185 9039.12312932
0.02900000 1593735.25544406 8606.17077454
0.03000000 1588892.12358655 7388.34871428
0.03100000 1583902.54501870 12164.37210546
0.03200000 1578767.71088981 7814.90052884
0.03300000 1573491.62379356 10432.24994668
0.03400000 1568072.99556231 8232.38360655
0.03500000 1562515.80603370 8437.58574221
0.03600000 1556820.50083957 10368.42501476
0.03700000 1550990.46645599 13260.96910149
0.03800000 1545026.97128368 11749.93066039
0.03900000 1538932.52093765 10156.95510856
0.04000000 1532707.41443375 13196.61144979
0.04100000 1526355.52847643 17308.87249548
0.04200000 1519878.65823597 13724.50492059
0.04300000 1513278.19256207 15980.21845522
0.04400000 1506557.33312160 12203.11496502
0.04500000 1499718.24899906 12417.66767870
0.04600000 1492761.65346194 11576.36716075
0.04700000 1485691.33384784 10696.97810120
0.04800000 1478509.15949257 10867.04282789
0.04900000 1471217.73314409 13240.96021463
0.05000000 1463818.81803732 12318.03592739
0.05100000 1456316.24827144 12495.19399225
0.05200000 1448709.13557769 12668.96198102
0.05300000 1441003.27193659 12839.33975150
0.05400000 1433199.32741721 15371.06350336
0.05500000 1425300.97629544 14367.03451127
0.05600000 1417308.91215114 15753.38929368
0.05700000 1409228.49532856 14712.34617798
0.05800000 1401058.85008257 18599.05710328
0.05900000 1392803.91169984 15042.28294892
0.06000000 1384467.29005625 13934.66392543
0.06100000 1376050.48092325 19195.90510593
0.06200000 1367556.20417005 16800.42875354
0.06300000 1358987.86117687 18264.79770819
0.06400000 1350344.75705120 14482.44819667
0.06500000 1341633.49906581 21251.47561930
0.06600000 1332855.06216901 14734.71340169
0.06700000 1324010.91275443 13504.91194211
0.06800000 1315104.94650061 19055.87156678
0.06900000 1306140.90284836 17828.82415861
0.07000000 1297118.27604670 24865.75851624
0.07100000 1288041.80539962 15301.93736486
0.07200000 1278913.10222749 15404.50903798
0.07300000 1269735.55414073 16912.87837362
0.07400000 1260512.19432449 21271.14427608
0.07500000 1251243.66292412 18543.43195371
0.07600000 1241933.19891069 15778.76203188
0.07700000 1232584.76991270 15863.36673259
0.07800000 1223199.37583042 15944.40461168
0.07900000 1213778.60511779 16021.87833904
0.08000000 1204328.30007660 16095.84848560
0.08100000 1194848.93384588 16166.30683343
0.08200000 1185341.92066965 16233.25836532
0.08300000 1175810.64120657 20741.30068431
0.08400000 1166258.39909862 16356.77481512
0.08500000 1156686.83015278 20889.76513323
0.08600000 1147098.43068469 16466.59874561
0.08700000 1137495.31220326 15014.93882615
0.08800000 1127879.56690750 16562.91221789
0.08900000 1118254.44414487 15096.43570503
0.09000000 1108622.12333482 15132.69269439
0.09100000 1098983.95522292 19715.77308297
0.09200000 1089342.56061498 27353.39298229
0.09300000 1079701.85873901 19790.93600070
0.09400000 1070060.63383139 15248.36474873
0.09500000 1060423.18829698 16797.10409213
0.09600000 1050791.00158968 18346.81175020
0.09700000 1041168.95985796 18366.22131534
0.09800000 1031556.09329838 21446.05218802
0.09900000 1021955.63983111 21461.06944561
0.10000000 1012368.10119351 24539.80392697
0.10100000 1002796.79831483 15342.79173582
0.10200000 993243.51039379 26087.54202755
0.10300000 983709.89727939 19949.63765527
0.10400000 974198.49513492 19946.71512628
0.10500000 964712.32161932 18406.71196252
0.10600001 955248.15109342 21464.42696505
0.10700001 945814.20332670 22983.28622238
0.10800001 936407.08355368 21434.35915128
0.10900001 927032.14383286 19884.84042111
0.11000001 917689.39850293 16807.48212470
0.11100001 908380.12368505 15260.78679629
0.11200001 899107.18496261 15239.86750257
0.11300001 889870.59921800 15216.78796305
0.11400001 880673.24381509 18229.93700532
0.11500001 871516.35808541 21230.13948265
0.11600001 862401.22480614 18162.17064970
0.11700001 853329.29717409 15103.92927130
0.11800001 844300.99965003 16577.85090892
0.11900001 835318.14145029 15035.72725431
0.12000001 826382.00521335 16498.71751126
0.12100001 817495.76467220 14960.17319825
0.12200001 808658.37780216 17903.69732801
0.12300001 799872.04179990 19340.90688196
0.12400001 791137.02511801 14833.81991989
0.12500001 782454.31867082 19224.90351563
0.12600001 773827.22810261 22112.11408503
0.12700001 765254.44021120 17631.46313337
0.12800001 756737.32844349 20500.01519368
0.12900001 748277.47945020 16050.55269070
0.13000001 739875.48643295 14538.55399368
0.13100001 731531.44072708 18829.62017190
0.13200001 723247.09516206 14428.78022866
0.13300001 715023.88285467 21557.97108438
0.13400001 706860.61540548 14313.92813680
0.13500001 698760.08869908 15680.17712970
0.13600001 690721.14499751 15613.75221887
0.13700001 682746.03383373 16959.41228012
0.13800001 674833.30352640 18291.35755463
0.13900001 666985.79969455 15407.37269953
0.14000001 659202.70092888 16730.56533860
0.14100001 651484.79838817 15264.28954614
0.14200001 643832.33203489 15191.22459086
0.14300001 636247.28498911 15117.23620439
0.14400001 628725.89299493 19144.70434475
0.14500001 621273.32366340 16327.06371606
0.14600001 613887.13621583 16243.45439055
0.14700001 606570.34508711 18852.20721469
0.14800001 599318.14064546 28128.99825828
0.14900001 592135.16895436 17319.95450908
0.15000001 585019.81872259 13250.69951927
0.15100001 577972.97138482 17131.11968018
0.15200001 570994.72885946 15725.19557481
0.15300001 564085.84702037 13030.38368106
0.15400001 557243.06648005 14251.49209777
0.15500001 550470.47122064 18033.41348824
0.15600001 543763.91392114 17927.89708809
0.15700001 537129.46522866 17821.95649743
0.15800001 530559.58438373 16450.00069024
0.15900001 524060.60673640 13835.20067087
0.16000001 517627.37140045 13750.77177032
0.16100001 511265.32427895 13666.12276308
0.16200001 504969.74352801 13581.16189330
0.16300001 498741.80864506 12269.04907186
0.16400001 492581.73810488 13410.53845301
0.16500001 486488.54474299 15747.63493680
0.16600001 480463.43748345 15646.29258036
0.16700001 474503.33398982 17936.22687167
0.16800001 468609.69081353 19006.80995683
0.16900001 462784.36213752 12981.10197090
0.17000001 457023.19165399 14067.17450336
0.17100001 451327.73013865 13973.10718492
0.17200001 445697.96850356 12722.44911173
0.17300001 440132.71410259 16082.45013279
0.17400001 434632.11059412 11409.09344190
0.17500001 429195.14988735 16996.12873823
0.17600001 423820.52972936 14628.16627448
0.17700001 418510.78862085 12291.66244234
0.17800001 413262.05732277 11096.08676321
0.17900001 408076.23247000 16527.08819567
0.18000001 402952.06907333 10940.14919210
0.18100001 397890.55934458 11948.65406153
0.18200001 392886.98789779 18334.07215631
0.18300001 387944.56673570 12848.72465725
0.18400001 383061.45305101 10629.95582433
0.18500001 378238.79317394 13718.72167652
0.18600001 373473.08122062 13618.69655010
0.18700001 368765.04537046 11439.09224783
0.18800001 364114.34483466 15483.96324565
0.18900001 359522.45941886 11271.02963531
0.19000001 354982.74183654 13221.33284439
0.19100001 350502.88409799 16151.17366238
0.19200001 346074.89705801 18033.96373782
0.19300001 341703.80597743 13921.01371332
0.19400001 337384.25916388 11842.18805624
0.19500001 333119.20131314 17628.66896654
0.19600001 328906.03552641 9719.17380910
0.19700001 324744.85302083 9644.92259051
0.19800001 320635.25852478 12442.25179506
0.19900001 316576.84070855 10447.03623711
0.20000001 312567.17404264 12251.07096560
0.20100001 308608.33372513 14961.33272610
0.20200001 304696.78198342 16700.43140983
0.20300001 300835.06857331 9205.55353344
0.20400001 297020.39935852 11873.39102556
0.20500001 293252.32874502 10873.79686384
0.20600001 289530.77588613 10787.91721944
0.20700001 285855.37426616 10702.42571842
0.20800001 282223.91910333 11502.03636676
0.20900001 278639.37349485 10532.56881599
0.21000001 275096.68136975 9577.49141464
0.21100001 271598.00677602 9500.49872615
0.21200001 268141.64920159 9423.83870670
0.21300001 264726.71421197 10197.27351353
0.21400001 261354.23572654 9271.54195073
0.21500001 258023.55849816 10031.95642869
0.21600001 254732.14433973 12437.29753540
0.21700001 251480.78383601 11512.79082833
0.21800001 248268.51065840 8971.18305680
0.21900001 245094.22083218 9705.73160386
0.22000001 241957.61190132 10427.16377791
0.22100001 238860.09610589 12726.46652227
0.22200001 235799.61005277 8676.24706214
0.22300001 232773.99002153 12513.93029528
0.22400001 229784.07323830 9306.25540621
0.22500001 226831.65771753 9227.51227229
0.22600001 223911.87411411 9149.03960894
0.22700001 221028.52342423 9071.01103029
0.22800001 218177.76588116 8993.28793491
0.22900001 215359.47903425 10401.86332927
0.23000001 212575.10187499 11785.16420529
0.23100001 209823.72277684 11682.98543673
0.23200001 207102.54411609 7962.05768510
0.23300001 204413.33178029 10762.36242723
0.23400001 201755.74185123 8534.26828394
0.23500001 199126.91696578 8458.91183278
0.23600001 196529.47860649 6986.62329491
0.23700001 193961.21330073 6924.41564235
0.23800001 191422.17601747 7548.73386829
0.23900001 188911.56590881 10201.22504159
0.24000001 186429.13427444 10109.12028420
0.24100001 183975.64348322 10017.47426150
0.24200001 181549.20181466 7940.96246300
0.24300001 179149.91127639 7868.26447545
0.24400001 176776.97703454 9095.17589866
0.24500001 174430.55792156 9011.08304849
0.24600001 172110.29112435 8927.36122293
0.24700001 169815.99462599 9475.73294839
0.24800001 167546.81418023 6257.87380567
0.24900001 165301.86565255 8058.46633179
0.25000001 163082.52512337 9824.09177819
0.25100001 160886.24960880 8514.10073209
0.25200001 158715.92546122 6625.59662183
0.25300001 156568.84429920 7754.85522503
0.25400001 154444.82395168 8270.52071390
0.25500001 152343.52038406 7019.98975143
0.25600001 150265.71741438 8109.84115255
0.25700001 148209.80768920 5735.71982895
0.25800001 146176.86605190 7382.66296926
0.25900001 144165.97463222 6184.72060435
0.26000001 142176.75274452 6122.84214665
0.26100001 140208.35692630 5510.18868792
0.26200001 138262.42997507 5999.89843266
0.26300001 136336.59157753 5938.82221013
0.26400001 134431.99747586 5878.03936777
0.26500001 132548.46957440 7404.15786078
0.26600001 130684.24347291 6804.07545838
0.26700001 128841.42042289 6733.25294992
0.26800001 127018.87498255 6662.77540250
0.26900001 125214.70856959 5578.31553075
0.27000001 123431.26673740 6020.97747638
0.27100001 121666.66757680 6949.60038086
0.27200001 119922.83172901 5401.92421087
0.27300001 118197.00496956 6801.05598780
0.27400001 116488.34635089 7688.23122300
0.27500001 114801.31598209 4752.77470659
0.27600001 113130.53837254 5170.63150102
0.27700001 111479.89280489 5578.45409997
0.27800001 109846.45734345 5516.48934887
0.27900001 108232.35354436 5000.33497040
0.28000001 106634.85427806 6292.52304876
0.28100001 105055.88487073 4443.86414036
0.28200001 103495.25173194 4832.71100835
0.28300001 101951.74533930 5211.77346842
0.28400001 100425.39643998 5151.82308121
0.28500001 98917.00510884  4667.89369202
0.28600001 97425.50180137  7549.50249192
0.28700001 95951.08727539  4145.08716649
0.28800001 94493.02493485  5325.15467226
0.28900001 93053.70597711  6476.53824257
0.29000001 91629.58267348  4399.59462032
0.29100001 90222.98764155  4346.94375033
0.29200001 88832.85620175  4685.04505785
0.29300001 87459.22307912  3856.95192036
0.29400001 86101.26089155  5333.97336472
0.29500001 84760.75001278  5268.72847020
0.29600001 83435.71040876  8177.53436427
0.29700001 82126.80904725  4405.28224583
0.29800001 80833.78791361  4713.01422741
0.29900001 79557.38135749  4296.09879668
0.30000001 78296.00098707  3888.57107311
0.30100001 77051.45995945  4537.56069182
0.30200001 75820.84690390  4479.87495140
0.30300001 74607.25473366  4762.92736768
0.30400001 73409.06821034  4030.15803554
0.30500001 72225.93168391  3646.68746336
0.30600001 71057.21471571  3926.62187109
0.30700001 69904.98146475  4521.45441520
0.30800001 68767.40894335  3187.36955543
0.30900001 67644.86809951  3460.03516710
0.31000001 66537.74431555  4345.58028699
0.31100001 65444.43751396  3369.07980273
0.31200001 64366.90271188  3928.63409302
0.31300001 63303.31515845  4472.37942769
0.31400001 62255.59514198  3235.73471071
0.31500001 61221.46222033  2901.89744664
0.31600002 60202.28956903  3435.14280545
0.31700002 59197.23611868  3670.82078553
0.31800002 58206.59736082  3620.74156027
0.31900002 57230.37477191  3845.88136677
0.32000002 56268.50843288  3251.19457119
0.32100002 55319.90061661  2671.95132630
0.32200002 54386.58926912  3952.54556229
0.32300002 53465.51259907  3118.10884242
0.32400002 52559.06988130  6149.41146730
0.32500002 51666.06978043  3284.41221146
0.32600002 50787.13493972  2491.10908675
0.32700002 49921.16753007  3192.95802642
0.32800002 49069.53456157  4116.68879698
0.32900002 48230.41100868  3103.62709538
0.33000002 47405.58488263  2824.42488105
0.33100002 46591.46881657  2320.25525694
0.33200002 45793.58898167  3202.34582913
0.33300002 45007.13632879  3833.25798265
0.33400002 44234.10571857  3556.42226819
0.33500002 43472.94731195  2191.03664828
0.33600002 42725.45129652  3239.65749798
0.33700002 41989.66762982  2341.76387461
0.33800002 41267.31614205  2308.28743772
0.33900002 40556.37794926  2275.21291070
0.34000002 39858.44432760  2446.51142869
0.34100002 39172.32143721  2210.49420339
0.34200002 38499.04014043  2178.85327994
0.34300002 37836.63082340  2147.60726725
0.34400002 37187.44664414  2116.89550047
0.34500002 36549.07988229  2086.58706930
0.34600002 35923.54568853  2430.76683414
0.34700002 35307.78927324  2027.37335609
0.34800002 34705.24667581  3270.27554915
0.34900002 34113.21688852  1790.94397147
0.35000002 33532.53658445  2295.13457523
0.35100002 32963.72156672  1914.53303927
0.35200002 32404.57563240  2230.56906930
0.35300002 31856.92901723  2029.92361312
0.35400002 31320.41144481  2501.71798264
0.35500002 30794.62195963  1808.87617958
0.35600002 30278.51092206  1945.69720401
0.35700002 29773.38832150  2238.36344003
0.35800002 29279.20844547  1734.35399442
0.35900002 28794.97704103  1865.91460064
0.36000002 28321.20840461  1686.95285852
0.36100002 27856.62518214  2117.66074665
0.36200002 27403.15524955  1790.52224882
0.36300002 26958.36330643  1619.11937688
0.36400002 26523.42293309  3049.53069618
0.36500002 26097.88047777  1862.60581793
0.36600002 25682.23137003  1555.18759428
0.36700002 25275.22273099  1674.23083301
0.36800002 24878.97168715  1927.87160736
0.36900002 24490.75931121  1495.16092677
0.37000002 24111.19695433  1341.78817407
0.37100002 23740.40918378  1589.65787425
0.37200002 23379.28732606  2354.52813814
0.37300002 23026.03991390  1420.93699040
0.37400002 22681.40957285  1658.57815358
0.37500002 22345.57501241  1638.37763752
0.37600002 22018.12269480  1743.17485632
0.37700002 21698.26325730  2214.52485295
0.37800002 21386.42681776  2188.47315993
0.37900002 21083.05216733  1321.90743351
0.38000002 20787.50006635  1425.60682209
0.38100002 20498.57996930  1409.48242546
0.38200002 20218.27855529  1277.69417383
0.38300002 19944.77490221  1263.70099767
0.38400002 19679.42483181  1136.48683788
0.38500002 19420.10097615  1236.86628977
0.38600002 19169.09832228  1335.31945239
0.38700002 18924.32657581  1101.39585889
0.38800002 18686.67676137  1199.40440475
0.38900002 18455.14763533  1619.43928172
0.39000002 18231.55106639  1390.06467691
0.39100002 18013.23116451  1271.01365118
0.39200002 17802.06826699  1049.43197406
0.39300002 17596.76869855  1975.94125077
0.39400002 17399.07868215  1443.25364506
0.39500002 17206.16479802  1533.06935614
0.39600002 17019.46705223  1013.50931098
0.39700002 16838.48501274  1105.78336318
0.39800002 16663.57347139  1097.04641147
0.39900002 16494.10015928  1187.57526773
0.40000002 16330.03563582  1473.37753505
0.40100002 16171.78923099  1365.22251156
0.40200002 16018.95443592  1162.01500984
0.40300002 15870.80627589  1442.65635883
0.40400002 15728.28116153  1051.04243842
0.40500002 15590.83881363  1044.43034161
0.40600002 15458.27053475  1038.10020695
0.40700002 15330.43729043  1219.68964862
0.40800002 15207.55871303  1399.47565688
0.40900002 15089.05750152  1113.57249637
0.41000002 14975.50816758  1015.56413450
0.41100002 14866.16500166  1102.47484876
0.41200002 14760.91104593  914.43848262
0.41300002 14660.52791969  910.41882695
0.41400002 14563.85951157  1269.24041657
0.41500002 14471.53070396  1083.62827046
0.41600002 14382.60467448  1259.48475102
0.41700002 14297.99028830  986.13243691
0.41800002 14218.11201601  1429.77341208
0.41900002 14140.01052169  1068.98484609
0.42000002 14066.80705089  977.15079809
0.42100002 13997.30391430  974.63231774
0.42200002 13931.34151719  1237.52112561
0.42300002 13868.15120939  1411.22313394
0.42400002 13808.16538905  1232.37881937
0.42500002 13751.94762914  966.62444466
0.42600002 13697.85684014  1316.02165828
0.42700002 13648.22613172  1051.45939101
0.42800002 13600.45129071  962.70799023
0.42900002 13556.84811221  961.85841914
0.43000002 13515.45314359  873.77408714
0.43100002 13475.86241428  873.23592583
0.43200002 13440.10167238  1134.81503848
0.43300002 13406.66232373  1047.32851036
0.43400002 13375.81157878  1047.32609625
0.43500002 13347.21527297  1134.78029628
0.43600002 13321.38713213  873.21696789
0.43700002 13297.33806010  1135.72569753
0.43800002 13275.47530411  1049.02810824
0.43900002 13256.53483148  874.93134034
0.44000002 13239.19047038  1226.08148757
0.44100002 13224.28506573  1052.12416969
0.44200002 13211.13437099  1053.45590467
0.44300002 13200.05797261  1054.94868317
0.44400002 13191.18876657  968.56308109
0.44500002 13182.93723292  881.93854268
0.44600002 13176.78730790  971.85399395
0.44700002 13173.37103758  1062.30069081
0.44800002 13170.09571548  1330.50898271
0.44900002 13170.00466141  1333.46303516
0.45000002 13170.83342471  1336.51038511
0.45100002 13172.82232137  1161.05261443
0.45200002 13176.40229193  984.87023599
0.45300002 13181.11510922  1077.16077778
0.45400002 13187.49092383  990.05092803
0.45500002 13195.11196508  902.54570119
0.45600002 13203.78383765  1086.14330996
0.45700002 13213.68300868  1180.11408544
0.45800002 13224.28735130  1092.59067275
0.45900002 13236.21275406  1004.62859565
0.46000002 13249.81051935  1191.09177309
0.46100002 13263.18572996  1011.05269611
0.46200002 13278.51959269  1014.41255236
0.46300002 13294.63956284  1295.42974040
0.46400002 13310.79699685  1021.27094799
0.46500002 13328.43768194  1024.82362194
0.46600002 13346.58743790  1215.40704264
0.46700002 13365.13008332  1313.52504684
0.46800002 13385.31162834  1129.98806122
0.46900002 13405.05284828  1323.07877883
0.47000002 13425.82056757  1043.38769486
0.47100002 13447.21242128  1142.47522146
0.47200002 13469.20287403  1146.76798705
0.47300002 13491.82089876  1055.19536251
0.47400002 13514.19276831  962.88628038
0.47500002 13537.38646084  1159.88332694
0.47600002 13561.45655370  1164.38671489
0.47700002 13585.02271985  1363.66464525
