# SAXS profile: number of points = 501, q_min = 0, q_max = 0.5, delta_q = 0.001
#    q    intensity    error
0.00000000 1664650.74656090 324.60689558
0.00100000 1664564.29737932 699.11702150
0.00200000 1664304.91596078 1048.51213026
0.00300000 1663872.81852001 1297.82084468
0.00400000 1663267.88443241 1496.94115287
0.00500000 1662490.75579375 1945.11426127
0.00600000 1661541.29285820 2965.85132850
0.00700000 1660420.22632158 2590.25566071
0.00800000 1659127.34149629 2687.78640670
0.00900000 1657664.06186870 3232.44505882
0.01000000 1656029.75263938 3005.69413082
0.01100000 1654225.96694297 4466.41030521
0.01200000 1652252.69885376 4188.46077523
0.01300000 1650111.21154135 3465.23369707
0.01400000 1647801.70653941 4449.06480489
0.01500000 1645325.69054983 7107.80729968
0.01600000 1642682.82770446 5026.60967748
0.01700000 1639875.42987754 5313.19663115
0.01800000 1636903.83963975 6064.72899876
0.01900000 1633769.13344009 6371.69990792
0.02000000 1630472.04984369 8731.17822187
0.02100000 1627015.25269494 6979.89575052
0.02200000 1623397.52939076 6160.79390394
0.02300000 1619621.87701528 6996.76682719
0.02400000 1615688.91905321 9088.25058408
0.02500000 1611600.96943406 6913.76847463
0.02600000 1607358.57730374 12368.62481807
0.02700000 1602963.57864503 6732.44733866
0.02800000 1598416.39959140 7648.42282280
0.02900000 1593720.46526311 12909.13636134
0.03000000 1588876.38768983 7388.27554236
0.03100000 1583885.73308283 12164.24298979
0.03200000 1578749.81137025 9377.77431146
0.03300000 1573472.57190544 12037.06572999
0.03400000 1568052.82318484 9878.73324187
0.03500000 1562494.45403182 9281.21748554
0.03600000 1556798.00127105 9504.25223699
0.03700000 1550966.77144513 11492.66430792
0.03800000 1545001.92455130 13557.39251537
0.03900000 1538906.20541681 12003.46895813
0.04000000 1532679.76997252 12253.77532876
0.04100000 1526326.56062400 10577.44355556
0.04200000 1519848.26928737 13724.23050837
0.04300000 1513246.38762214 11984.91194628
0.04400000 1506524.17110124 13219.75021536
0.04500000 1499683.55916681 10347.81703906
0.04600000 1492725.44040661 18942.68671935
0.04700000 1485653.59740490 11766.37703868
0.04800000 1478469.93503295 13040.10543372
0.04900000 1471176.92388935 18757.50665270
0.05000000 1463776.42507021 13437.46820788
0.05100000 1456272.12011442 12494.81537264
0.05200000 1448663.43666503 11516.87485819
0.05300000 1440955.79204196 18674.78793544
0.05400000 1433150.21162510 13005.83877701
0.05500000 1425250.16636254 15563.73254272
0.05600000 1417256.39186906 14541.05125912
0.05700000 1409174.20026125 17163.74256036
0.05800000 1401002.72222117 12398.87467059
0.05900000 1392745.95239702 13788.18557272
0.06000000 1384407.48213087 20267.72648528
0.06100000 1375988.83835112 12796.69679467
0.06200000 1367492.67947956 18091.92899520
0.06300000 1358922.42978182 14350.22152944
0.06400000 1350277.49609167 14481.72682285
0.06500000 1341564.20760429 17265.93215953
0.06600000 1332783.82767872 16073.37371385
0.06700000 1323937.59009292 25657.91169676
0.06800000 1315029.81823711 16332.67110702
0.06900000 1306063.66717329 15085.03606212
0.07000000 1297039.06552943 23482.89338108
0.07100000 1287960.37526131 13909.97270433
0.07200000 1278829.59453366 19604.45860261
0.07300000 1269650.04562338 16911.73940011
0.07400000 1260424.55902155 19851.68773492
0.07500000 1251153.93671697 18542.10221126
0.07600000 1241841.39707911 14343.26880868
0.07700000 1232490.84340058 15862.15789832
0.07800000 1223103.19559319 18841.90561173
0.07900000 1213680.21143130 16020.57954232
0.08000000 1204227.79601495 17557.64208955
0.08100000 1194746.26426100 20573.53163585
0.08200000 1185236.94010262 22134.30089507
0.08300000 1175703.61103798 20739.41267205
0.08400000 1166149.01021334 20815.76080937
0.08500000 1156575.17717177 19395.76663171
0.08600000 1146984.42856210 22452.22124327
0.08700000 1137379.12131013 21018.76714880
0.08800000 1127761.07917651 15055.61111407
0.08900000 1118133.71756771 16604.28648578
0.09000000 1108499.06269686 16644.11420826
0.09100000 1098858.65775005 15164.25018938
0.09200000 1089214.82595076 21272.36655034
0.09300000 1079571.99850952 18266.35907316
0.09400000 1069928.41304589 18295.77672294
0.09500000 1060288.52799934 19848.60217709
0.09600000 1050653.95315317 15287.01573699
0.09700000 1041029.79924827 18363.76652207
0.09800000 1031414.42237957 16848.15538173
0.09900000 1021811.78235468 21458.04843846
0.10000000 1012221.68571115 19935.70703760
0.10100000 1002648.11255722 19942.67189670
0.10200000 993092.62964950 15343.28184978
0.10300000 983556.46078481 23015.22226502
0.10400000 974042.74330921 19943.52610750
0.10500000 964554.34026353 15336.41473176
0.10600001 955087.83807766 16862.07657468
0.10700001 945651.33887577 16851.50765176
0.10800001 936241.98583012 16838.31290759
0.10900001 926864.75148441 21410.57676699
0.11000001 917519.64433243 15276.70279720
0.11100001 908208.07605654 16783.68603559
0.11200001 898932.76218961 19807.98434735
0.11300001 889693.83071884 21299.27131020
0.11400001 880494.08148945 15188.52362084
0.11500001 871334.94707118 19709.59743084
0.11600001 862217.37828118 15131.91570142
0.11700001 853143.06053180 16610.69617083
0.11800001 844112.50853071 18080.89078431
0.11900001 835127.42395604 18038.75320711
0.12000001 826188.91161078 16494.86239730
0.12100001 817300.45303364 14956.59899509
0.12200001 808460.68544396 19390.93045391
0.12300001 799672.16594978 19336.07388367
0.12400001 790934.99854587 16313.03511364
0.12500001 782249.80189808 19219.87853829
0.12600001 773620.56289402 14737.47241761
0.12700001 765045.47828387 19095.53603787
0.12800001 756526.06915539 17566.53615369
0.12900001 748063.97334108 18963.42261798
0.13000001 739659.84971450 15987.74840516
0.13100001 731313.64087854 20272.01508073
0.13200001 723027.05130232 18751.70745949
0.13300001 714801.71400127 17241.01815450
0.13400001 706636.35023234 15740.32544351
0.13500001 698533.54075053 15675.09339349
0.13600001 690492.51566012 15608.58405245
0.13700001 682515.08985642 16953.67563145
0.13800001 674600.28938492 15471.95836663
0.13900001 666750.79013330 22402.82760496
0.14000001 658965.70557727 13937.12533024
0.14100001 651245.77572723 18032.99638038
0.14200001 643591.16196654 15185.53418283
0.14300001 636003.99244006 17858.99295008
0.14400001 628480.70932886 21871.12971630
0.14500001 621026.21004088 14960.52210560
0.14600001 613637.94611533 17589.93255519
0.14700001 606319.14139725 14806.31413143
0.14800001 599065.06635942 17405.83632426
0.14900001 591880.32217654 18644.23102821
0.15000001 584763.00234026 13244.88262794
0.15100001 577714.22447623 17123.45042144
0.15200001 570734.10161038 15718.01790004
0.15300001 563823.24551188 18234.04462030
0.15400001 556978.66134228 14244.72993605
0.15500001 550204.35784980 15449.73909754
0.15600001 543496.05375839 12799.33267007
0.15700001 536859.83906585 12723.57878637
0.15800001 530288.28489793 20235.80190681
0.15900001 523787.50185333 18856.35095675
0.16000001 517352.50525625 19990.50174670
0.16100001 510988.65771417 16142.13245917
0.16200001 504691.51270726 16041.62048866
0.16300001 498462.06034044 14714.60071589
0.16400001 492300.39526238 13402.87889376
0.16500001 486205.50401435 24213.03524304
0.16600001 480178.81555406 21651.26381555
0.16700001 474217.31438990 13145.30457554
0.16800001 468322.03173244 14246.35687796
0.16900001 462495.22148630 14152.35444573
0.17000001 456732.74088978 12886.71489271
0.17100001 451035.64451526 15127.73623139
0.17200001 445404.52940109 15025.72250890
0.17300001 439837.80455035 14923.69741316
0.17400001 434335.87764027 13681.58079180
0.17500001 428897.64214261 14719.76777351
0.17600001 423521.64526246 12368.95023406
0.17700001 418210.50231610 17865.95350276
0.17800001 412960.68729897 14414.39347099
0.17900001 407773.56884273 13211.86425455
0.18000001 402648.22868533 14211.46990273
0.18100001 397585.48824920 15195.71807868
0.18200001 392580.69651911 16164.51094275
0.18300001 387637.13242859 11768.66389648
0.18400001 382752.98196460 15932.09362692
0.18500001 377929.26687746 12653.07245281
0.18600001 373162.38922971 13607.36716612
0.18700001 368453.31268670 11429.42229952
0.18800001 363801.62446063 14439.28715704
0.18900001 359208.74111257 14332.42944756
0.19000001 354668.10441692 14225.73834031
0.19100001 350187.37163881 10085.39677973
0.19200001 345758.62099394 11010.68380582
0.19300001 341386.44525111 10927.78062885
0.19400001 337066.30037373 9859.18975182
0.19500001 332800.16470733 11741.19036571
0.19600001 328586.36549940 9709.72755935
0.19700001 324424.37914848 10598.94496766
0.19800001 320314.08868905 11473.65119907
0.19900001 316254.96433385 13282.70912976
0.20000001 312244.58413614 9414.17465663
0.20100001 308285.06233073 10275.14161311
0.20200001 304372.98052332 10194.97346448
0.20300001 300510.81254315 10115.19442829
0.20400001 296695.56643858 10035.72800913
0.20500001 292926.88201668 9956.58519036
0.20600001 289204.72895183 11673.74943594
0.20700001 285528.92226456 8908.50279575
0.20800001 281896.97275960 9721.21756514
0.20900001 278312.07225805 9643.51375960
0.21000001 274768.99818720 11305.37096484
0.21100001 271269.92485805 10351.66082194
0.21200001 267813.28669595 9412.29840589
0.21300001 264397.99176722 11882.04631175
0.21400001 261025.21446982 9259.86992109
0.21500001 257694.39347050 8349.29874318
0.21600001 254402.66157615 12421.21053871
0.21700001 251151.05261460 13140.22369406
0.21800001 247938.62913016 10588.21965762
0.21900001 244764.25607193 8077.22083228
0.22000001 241627.52838083 10412.93882792
0.22100001 238530.03334179 10325.96563161
0.22200001 235469.27147279 11814.67125480
0.22300001 232443.74330716 11715.16521664
0.22400001 229453.79006683 10841.69209332
0.22500001 226501.42440807 8446.23851558
0.22600001 223581.64004678 12942.02384611
0.22700001 220698.37492942 8302.67325747
0.22800001 217847.74489401 9727.99150828
0.22900001 215029.58628207 10385.92950858
0.23000001 212245.30702494 9560.59030708
0.23100001 209494.22055287 8019.43914202
0.23200001 206773.25081241 10117.41564074
0.23300001 204084.19263516 7879.69105031
0.23400001 201426.89031506 7810.32804136
0.23500001 198798.33277573 9852.44583835
0.23600001 196201.28578699 6974.95603962
0.23700001 193633.26014821 7603.97848567
0.23800001 191094.64674804 7535.81775094
0.23900001 188584.37324514 8825.74908533
0.24000001 186102.41175331 8073.12300372
0.24100001 183649.40280314 10666.35781934
0.24200001 181223.53979817 6605.59833810
0.24300001 178824.49418271 9817.46519502
0.24400001 176452.16732874 11023.84967533
0.24500001 174106.26426516 8994.33003741
0.24600001 171786.44941684 8274.09472757
0.24700001 169492.75518643 7566.15694945
0.24800001 167224.27441313 6870.40963928
0.24900001 164979.93755856 6186.74795113
0.25000001 162761.35487745 7353.55836125
0.25100001 160565.74784850 7283.26266697
0.25200001 158395.97748461 6011.12762993
0.25300001 156249.71534036 7143.73732333
0.25400001 154126.29779917 8253.46363763
0.25500001 152025.81830306 6421.57086894
0.25600001 149948.80039820 6936.63183461
0.25700001 147893.71038397 5723.48686266
0.25800001 145861.61771216 5666.72411623
0.25900001 143851.58086216 5610.21191907
0.26000001 141863.30731102 6109.34361842
0.26100001 139895.67715139 6047.69040941
0.26200001 137950.71239376 8707.44937830
0.26300001 136025.81743415 9695.92072549
0.26400001 134122.12871521 5331.35486870
0.26500001 132239.58688774 5803.99574314
0.26600001 130376.41049235 5743.73303603
0.26700001 128534.59658342 5167.09102716
0.26800001 126713.13126833 5624.16259749
0.26900001 124909.91644060 6576.50741181
0.27000001 123127.59881349 7007.19198007
0.27100001 121364.08211553 6437.15122003
0.27200001 119621.32104809 5388.34266161
0.27300001 117896.62789049 9691.10327122
0.27400001 116189.15440606 6709.92398450
0.27500001 114503.34478282 6636.61417769
0.27600001 112833.77726146 4688.24366709
0.27700001 111184.25278103 5100.02191643
0.27800001 109551.97027742 5501.70020771
0.27900001 107939.17695802 5440.13477615
0.28000001 106342.91638560 5378.82496535
0.28100001 104765.23977340 6204.19779302
0.28200001 103205.94365738 6133.52952186
0.28300001 101663.70869773 4763.96161505
0.28400001 100138.69517817 4709.02236363
0.28500001 98631.61079124  4654.42593354
0.28600001 97141.47570389  4181.94072699
0.28700001 95668.46091994  4546.16547810
0.28800001 94211.65946252  6534.52100962
0.28900001 92773.83429221  5649.92677583
0.29000001 91351.10776783  6379.96166850
0.29100001 89945.85861619  4727.55455264
0.29200001 88557.23859383  4670.50898452
0.29300001 87185.01604443  5767.28908434
0.29400001 85828.51647337  4937.28564384
0.29500001 84489.52163418  4501.60192576
0.29600001 83166.00954926  4075.55049089
0.29700001 81858.53275033  6220.43019816
0.29800001 80567.07163830  3974.77666744
0.29900001 79292.19264433  5352.22325686
0.30000001 78032.28434478  4580.10514644
0.30100001 76789.34030784  4522.12446481
0.30200001 75560.25017946  3434.21353323
0.30300001 74348.32419258  4068.34049242
0.30400001 73151.67141013  4016.02695054
0.30500001 71970.06586690  4624.79665156
0.30600001 70803.00148699  4564.66972197
0.30700001 69652.37708091  3539.73397083
0.30800001 68516.34021776  4763.59877917
0.30900001 67395.51250765  3760.66977597
0.31000001 66290.07200691  3710.91840664
0.31100001 65198.51886190  3051.29082720
0.31200001 64122.57220052  4515.83236103
0.31300001 63060.69987507  3564.19092569
0.31400001 62014.54816809  4395.28130952
0.31500001 60982.13782660  3468.66416381
0.31600002 59964.67279952  3421.58439194
0.31700002 58961.36028810  3656.19412458
0.31800002 57972.43767880  3328.77752913
0.31900002 56997.96928697  3009.49292085
0.32000002 56037.79595871  3507.68600412
0.32100002 55090.93690717  2926.98161647
0.32200002 54159.36802402  2886.42365551
0.32300002 53240.13086297  3104.96457895
0.32400002 52335.33643507  2551.34777202
0.32500002 51444.13754126  3270.30397835
0.32600002 50566.98328422  2728.34171229
0.32700002 49702.78224433  2934.45240266
0.32800002 48852.93842396  2651.98188792
0.32900002 48015.63588058  2376.77408864
0.33000002 47192.55252703  3046.04344710
0.33100002 46380.28338389  2309.73822189
0.33200002 45584.24107956  2504.62624472
0.33300002 44799.61168424  2468.90671683
0.33400002 44028.31923202  2654.90777542
0.33500002 43269.08211961  2398.83802631
0.33600002 42523.37118154  2579.46781803
0.33700002 41789.40853563  2754.34004702
0.33800002 41068.95083122  3759.04124760
0.33900002 40359.89327163  2675.86105063
0.34000002 39663.76987698  2840.32269540
0.34100002 38979.51321769  3399.40350871
0.34200002 38308.06644176  2759.33015648
0.34300002 37647.53998717  3108.18104854
0.34400002 37000.21811165  3063.61820474
0.34500002 36363.74763545  2830.91788749
0.34600002 35740.02298090  2046.29511269
0.34700002 35126.21073164  2567.02360184
0.34800002 34525.44234704  2168.88839096
0.34900002 33935.34558997  2137.92687342
0.35000002 33356.56672903  1931.84565361
0.35100002 32789.62814290  1904.42169274
0.35200002 32232.37297792  1877.37465302
0.35300002 31686.62377226  2187.32774260
0.35400002 31151.95363332  1824.72577050
0.35500002 30628.08105711  1635.53960592
0.35600002 30113.80135777  2257.63179472
0.35700002 29610.67316036  2226.13051364
0.35800002 29118.31451320  1568.02131081
0.35900002 28636.04036986  1700.98087854
0.36000002 28164.18323413  2745.16306986
0.36100002 27701.53514297  1654.61277246
0.36200002 27249.86005282  1632.13044517
0.36300002 26807.01244176  1463.66294865
0.36400002 26373.99144629  1877.16893011
0.36500002 25950.37785997  1709.61097439
0.36600002 25536.65117383  1405.79271371
0.36700002 25131.56707956  1525.98882535
0.36800002 24737.20977625  2053.80693896
0.36900002 24350.92843367  1756.91956971
0.37000002 23973.26648223  2134.57974869
0.37100002 23604.34100424  1975.68343564
0.37200002 23245.09002883  1820.78798821
0.37300002 22893.75214043  1669.64142269
0.37400002 22551.06663795  1395.34731432
0.37500002 22217.05268293  1378.34601374
0.37600002 21891.59982553  1856.95504317
0.37700002 21573.62148049  1712.51415425
0.37800002 21263.69024181  1329.72493226
0.37900002 20962.26416829  1911.75858271
0.38000002 20668.60230898  1653.69494908
0.38100002 20381.53833871  1167.86220213
0.38200002 20103.16017937  1270.41926772
0.38300002 19831.53954229  1827.67477080
0.38400002 19568.05420426  1243.06070221
0.38500002 19310.70689369  1118.08998211
0.38600002 19061.57062154  1327.82907240
0.38700002 18818.65028863  1204.77004855
0.38800002 18582.90477404  1518.03756291
0.38900002 18353.26128971  1395.76558721
0.39000002 18131.54282242  1382.43954799
0.39100002 17915.20170381  1264.09669211
0.39200002 17705.88414188  1252.51430354
0.39300002 17502.55686685  1137.84127582
0.39400002 17306.65476523  1640.67094947
0.39500002 17115.62431316  1626.66901179
0.39600002 16930.80537732  1109.05245879
0.39700002 16751.70191851  1700.13030826
0.39800002 16578.75086189  1289.90977192
0.39900002 16411.08404666  1280.06461629
0.40000002 16248.87162820  1466.05451211
0.40100002 16092.55185305  1164.45710726
0.40200002 15941.54365326  1156.39963140
0.40300002 15795.27494516  957.19370703
0.40400002 15654.53311171  1141.21551791
0.40500002 15519.07943187  1323.15677505
0.40600002 15388.27967186  1315.23632587
0.40700002 15262.36620840  934.05685621
0.40800002 15141.24539511  1393.37317351
0.40900002 15024.64400863  1201.22034541
0.41000002 14912.97901822  1011.32372004
0.41100002 14805.44846735  1372.46513795
0.41200002 14702.03674574  1275.10770738
0.41300002 14603.50883398  906.87794156
0.41400002 14508.67030046  1264.43067660
0.41500002 14418.14919566  899.69255244
0.41600002 14331.06156562  896.40794340
0.41700002 14248.29159301  1340.05188782
0.41800002 14170.21998352  1068.71804180
0.41900002 14093.91759776  887.91685073
0.42000002 14022.46041617  1062.62210069
0.42100002 13954.86928323  1678.35220822
0.42200002 13890.67503120  1145.77238424
0.42300002 13829.24412436  1495.21794558
0.42400002 13771.08858458  965.69763275
0.42500002 13716.69917556  964.14683074
0.42600002 13664.35361535  962.72207959
0.42700002 13616.53457660  1223.85418574
0.42800002 13570.64824892  1135.25263306
0.42900002 13528.78453540  1047.12797266
0.43000002 13489.17041252  1220.90487189
0.43100002 13451.36883797  958.81361621
0.43200002 13417.35808054  1132.89468322
0.43300002 13385.72527731  871.41075685
0.43400002 13356.57318731  1220.12301848
0.43500002 13329.78208441  1046.12134756
0.43600002 13305.70747315  1133.84591606
0.43700002 13283.44424275  1221.81125935
0.43800002 13263.28708477  1135.40374470
0.43900002 13246.11325431  874.24351621
0.44000002 13230.51939255  962.71878922
0.44100002 13217.34838691  1402.09638333
0.44200002 13205.90008157  877.53210201
0.44300002 13196.58326030  1230.44948150
0.44400002 13189.37104513  1320.58583848
0.44500002 13182.80458339  1411.08746948
0.44600002 13178.46587538  1060.33941458
0.44700002 13176.69471434  1062.56871212
0.44800002 13175.17280373  976.08272342
0.44900002 13176.86414010  1067.32604593
0.45000002 13179.27197522  1159.05112879
0.45100002 13182.94243590  1340.70530927
0.45200002 13188.27022800  1254.60020625
0.45300002 13194.68625407  1527.54890003
0.45400002 13202.74404920  1351.63098610
0.45500002 13212.03584659  994.07362421
0.45600002 13222.42076758  997.03668523
0.45700002 13233.96233791  1181.92523241
0.45800002 13246.25329430  1185.60595730
0.45900002 13259.79415407  1006.41842399
0.46000002 13275.06312713  1468.75305400
0.46100002 13290.14484384  1381.51062199
0.46200002 13307.05313407  1109.00986075
0.46300002 13324.85610135  1112.89203433
0.46400002 13342.63508725  1302.90837802
0.46500002 13361.92276412  1214.19797912
0.46600002 13381.65044929  1218.60005592
0.46700002 13401.80112797  1223.04842891
0.46800002 13423.60538998  1416.52602592
0.46900002 13444.97312654  1232.23184545
0.47000002 13467.31238903  1236.90536500
0.47100002 13490.28282931  1337.15689742
0.47200002 13513.87211153  1725.85668916
0.47300002 13538.09555792  1058.81450377
0.47400002 13562.04918402  1449.44407524
0.47500002 13586.86248378  1164.12243279
0.47600002 13612.41985093  1363.55616110
0.47700002 13637.57439999  1173.37695699
