# SAXS profile: number of points = 501, q_min = 0, q_max = 0.5, delta_q = 0.001
#    q    intensity    error
0.00000000 1700912.83420643 306.16431016
0.00100000 1700825.49044035 714.34672295
0.00200000 1700563.42116636 1147.88034563
0.00300000 1700126.84933972 1020.07614594
0.00400000 1699515.65171686 1402.10046594
0.00500000 1698730.47402842 2140.40048200
0.00600000 1697771.16584566 1960.92577639
0.00700000 1696638.48477121 2850.35277288
0.00800000 1695332.18120282 2746.43824950
0.00900000 1693853.71757066 2540.78068497
0.01000000 1692202.40814801 3350.56091281
0.01100000 1690379.92477272 4259.75759589
0.01200000 1688386.12732834 4938.52963896
0.01300000 1686222.32005500 5311.60054244
0.01400000 1683888.77289935 3788.74990698
0.01500000 1681386.94992130 4438.86174545
0.01600000 1678716.50994013 4708.80002088
0.01700000 1675879.78196468 4977.36317571
0.01800000 1672877.17051320 6198.01019565
0.01900000 1669709.63217870 7513.69368384
0.02000000 1666377.97362598 5773.99993980
0.02100000 1662884.89825385 6585.02449564
0.02200000 1659229.19479674 10876.24786603
0.02300000 1655413.76015329 5959.48980782
0.02400000 1651439.33262395 6812.18755769
0.02500000 1647308.26895301 8994.30355926
0.02600000 1643021.07561809 7319.65922667
0.02700000 1638579.46763330 6882.03407926
0.02800000 1633984.08823132 10661.74666465
0.02900000 1629238.25190271 8064.72971720
0.03000000 1624342.52387954 8308.51239155
0.03100000 1619298.65720222 10881.68747710
0.03200000 1614107.79304668 12783.73430972
0.03300000 1608774.09617603 10666.17274936
0.03400000 1603296.27330804 9259.03640557
0.03500000 1597677.98790552 12078.44614633
0.03600000 1591920.13859922 11485.70433079
0.03700000 1586025.80959670 9944.38228607
0.03800000 1579996.41403121 12940.17122978
0.03900000 1573834.54538999 11331.60925157
0.04000000 1567540.38732377 9640.37382877
0.04100000 1561117.66444580 12785.55426463
0.04200000 1554568.60616857 13035.05836746
0.04300000 1547894.39515301 12259.32417866
0.04400000 1541098.01146019 12482.89447256
0.04500000 1534182.00410107 16937.37011227
0.04600000 1527147.03384676 13996.30321585
0.04700000 1519996.56492459 17510.36124230
0.04800000 1512732.97427498 15566.02302955
0.04900000 1505358.58471720 13548.22789309
0.05000000 1497875.14931982 14896.36905365
0.05100000 1490286.54765926 18598.77698119
0.05200000 1482592.04074955 14143.92872788
0.05300000 1474797.37637565 15529.61709719
0.05400000 1466903.15582547 13312.14675991
0.05500000 1458913.13811717 15931.33221142
0.05600000 1450827.99596629 12404.57994436
0.05700000 1442653.15872143 13806.19137342
0.05800000 1434387.64918714 17772.06380325
0.05900000 1426035.37455495 15401.18276452
0.06000000 1417600.14053705 14268.14608110
0.06100000 1409083.60343428 13104.47812433
0.06200000 1400488.00801013 13234.61229433
0.06300000 1391817.33142430 17369.88110831
0.06400000 1383070.64479747 14833.43335916
0.06500000 1374254.13612897 16326.13990091
0.06600000 1365369.50723675 20582.94628464
0.06700000 1356417.72007368 19369.64594913
0.06800000 1347403.17273883 19523.87288688
0.06900000 1338329.24568675 21078.68660645
0.07000000 1329195.57651247 21233.90032914
0.07100000 1320006.48858686 19958.49904224
0.07200000 1310764.50016045 18658.73353389
0.07300000 1301472.53981529 14446.34586884
0.07400000 1292133.59507000 15990.15398836
0.07500000 1282748.28936065 16085.66430256
0.07600000 1273319.98677572 17648.21584407
0.07700000 1263852.53310380 17744.49039679
0.07800000 1254347.28641337 29728.03208213
0.07900000 1244805.57103171 16431.43430831
0.08000000 1235233.04228097 15008.08216776
0.08100000 1225630.90651503 18090.31302893
0.08200000 1215999.90012535 16653.11941367
0.08300000 1206343.72016331 16719.92474616
0.08400000 1196665.65852856 16783.23664865
0.08500000 1186967.25184969 16843.06609445
0.08600000 1177251.12314750 16899.44066624
0.08700000 1167519.52253137 20034.63594742
0.08800000 1157774.27044730 21638.80213090
0.08900000 1148018.67074384 18597.90333959
0.09000000 1138255.32681654 18644.62312910
0.09100000 1128485.36984814 18687.71860266
0.09200000 1118711.21900842 15606.02223844
0.09300000 1108937.15485430 17199.61608004
0.09400000 1099161.44788271 15663.05136845
0.09500000 1089389.03458282 23530.80425300
0.09600000 1079621.13731965 17279.33711506
0.09700000 1069862.62601283 22017.77387846
0.09800000 1060112.50359568 17316.93856044
0.09900000 1050374.63648333 15755.62028812
0.10000000 1040648.24688651 25225.31469080
0.10100000 1030937.86087568 23660.02501987
0.10200000 1021245.27104460 18933.88821575
0.10300000 1011571.23802967 20514.66567227
0.10400000 1001918.81132500 22092.31082905
0.10500000 992291.23724238 17355.17455592
0.10600001 982685.14648413 18926.51681184
0.10700001 973108.89309203 18917.23777191
0.10800001 963558.77375405 17329.60536153
0.10900001 954040.16509814 15741.66346501
0.11000001 944553.63678929 17299.50067208
0.11100001 935099.96260820 21993.55215586
0.11200001 925682.20275599 21966.43970552
0.11300001 916300.33546449 15668.73647414
0.11400001 906957.25240470 25032.02134499
0.11500001 897654.56860011 17181.10925203
0.11600001 888392.94940424 17150.42669589
0.11700001 879174.32818452 18673.66361007
0.11800001 869998.91937976 18635.37773081
0.11900001 860868.89438361 18594.76899453
0.12000001 851785.21610947 17005.89264069
0.12100001 842751.10905445 20049.04982888
0.12200001 833765.41859248 15382.97269774
0.12300001 824830.79831496 23012.78035722
0.12400001 815947.12781969 16828.91030422
0.12500001 807115.47322598 18305.37979532
0.12600001 798339.33379131 16729.20152793
0.12700001 789617.43730292 21224.91771496
0.12800001 780950.86991903 16622.54004963
0.12900001 772341.70410378 21084.92951581
0.13000001 763790.25504965 16509.32714106
0.13100001 755296.31446756 23927.78837023
0.13200001 746862.07671932 19369.86887282
0.13300001 738489.09165602 17812.35773047
0.13400001 730175.89511055 16264.66883040
0.13500001 721925.50222206 14727.28093969
0.13600001 713736.25174175 14667.28066487
0.13700001 705611.40296720 17527.38807618
0.13800001 697548.35588814 15998.27229670
0.13900001 689551.00274119 18824.74326258
0.14000001 681618.26759571 15857.84974348
0.14100001 673750.39481934 17221.06090378
0.14200001 665948.02831603 25712.25458601
0.14300001 658213.24257105 18482.62872318
0.14400001 650542.14573963 15564.22157098
0.14500001 642940.15854147 19712.54619076
0.14600001 635404.44986740 16812.80253662
0.14700001 627938.49871335 20910.35299363
0.14800001 620537.11101548 18029.70661117
0.14900001 613205.26548064 15176.83103670
0.15000001 605941.07624397 17841.93583184
0.15100001 598745.51936666 19111.95787998
0.15200001 591619.04123826 20366.48645566
0.15300001 584562.12782602 14853.72436899
0.15400001 577571.38102941 16114.24229117
0.15500001 570650.97816673 16023.88022314
0.15600001 563796.95846526 15932.90279818
0.15700001 557015.50191821 14521.39482037
0.15800001 550298.79365361 14437.08953291
0.15900001 543653.02349547 13047.67317975
0.16000001 537073.57852915 16861.42579382
0.16100001 530565.48591662 16760.56449128
0.16200001 524124.48031697 19222.26622303
0.16300001 517751.05821819 15284.01196013
0.16400001 511446.21276297 13924.12379982
0.16500001 505208.25066290 12579.68603541
0.16600001 499039.06093712 12500.92906668
0.16700001 492935.17288550 19875.14710914
0.16800001 486898.06548419 14811.43985137
0.16900001 480929.78827218 19621.93628801
0.17000001 475026.10771887 13402.86226217
0.17100001 469188.32275227 13315.56522849
0.17200001 463416.65752521 15633.36167987
0.17300001 457710.26114935 15530.10989420
0.17400001 452069.05281500 11866.81319682
0.17500001 446491.65694860 12966.11833015
0.17600001 440976.97159914 21074.29046804
0.17700001 435527.91694786 13954.31511808
0.17800001 430140.19809660 12704.19135083
0.17900001 424815.92657924 18352.04889506
0.18000001 419553.75598090 11390.88501293
0.18100001 414354.86220221 18099.02123593
0.18200001 409214.34174419 14602.81447495
0.18300001 404135.78445396 12269.56299563
0.18400001 399116.72267395 12183.03853516
0.18500001 394158.84395565 12096.73549247
0.18600001 389258.40036256 16378.04796901
0.18700001 384416.28099281 15176.75549062
0.18800001 379632.09852720 11838.82755191
0.18900001 374907.08743267 14958.79349533
0.19000001 370234.71166737 11667.94748949
0.19100001 365623.22847001 14741.92926847
0.19200001 361064.07399968 17769.76924154
0.19300001 356562.10456943 13488.74505324
0.19400001 352112.70347502 13389.08618232
0.19500001 347717.99002013 11245.20032864
0.19600001 343376.06054291 11161.43937540
0.19700001 339086.73998581 11077.96431885
0.19800001 334849.67135218 11994.31579467
0.19900001 330664.23026740 10911.92011452
0.20000001 326528.29660576 9844.82860794
0.20100001 322443.70566590 12701.05816646
0.20200001 318407.26689836 15512.80277648
0.20300001 314421.13640888 12507.67339752
0.20400001 310482.77945225 11456.81510330
0.20500001 306591.61352181 10421.04943618
0.20600001 302747.75268647 10340.34998177
0.20700001 298950.68725144 13058.16663639
0.20800001 295198.09112872 15732.58301039
0.20900001 291493.27462077 12854.85401844
0.21000001 287830.70796893 10020.82657165
0.21100001 284213.08122987 12653.16697451
0.21200001 280638.38583410 12552.95559179
0.21300001 277105.73041429 9784.60380350
0.21400001 273616.24756268 10588.94928128
0.21500001 270169.36964798 10504.18558853
0.21600001 266762.33718624 8683.11448594
0.21700001 263396.03758782 9474.35591998
0.21800001 260069.70502669 9397.61923546
0.21900001 256781.90587295 10168.56395335
0.22000001 253532.32975919 10085.51655469
0.22100001 250322.87372895 9169.32729825
0.22200001 247150.83790119 9093.91551058
0.22300001 244014.60400501 9838.66929871
0.22400001 240914.40900189 10570.12019478
0.22500001 237852.95588480 8063.21558578
0.22600001 234824.67981256 8795.35879830
0.22700001 231833.64549776 9514.45326116
0.22800001 228875.45576664 9434.24673285
0.22900001 225950.75636988 9354.36175609
0.23000001 223060.76484647 8501.96145420
0.23100001 220204.35697071 11494.66797749
0.23200001 217378.70510313 9876.60193346
0.23300001 214586.07799249 9791.56320188
0.23400001 211825.59890983 8213.53798619
0.23500001 209094.35317175 7401.94045236
0.23600001 206395.64695401 8804.83871550
0.23700001 203726.53764304 8727.64528543
0.23800001 201087.50650120 7929.88619395
0.23900001 198477.43630134 8574.22565377
0.24000001 195896.32095695 8497.98280507
0.24100001 193345.05259402 10527.63861171
0.24200001 190821.24416386 7650.97814666
0.24300001 188325.42472995 8271.25304539
0.24400001 185856.77201234 6830.23669455
0.24500001 183415.17785645 10828.83261290
0.24600001 181000.55195542 8717.89199733
0.24700001 178612.47965986 6644.38455767
0.24800001 176250.39973660 7241.24801574
0.24900001 173913.12024901 7826.09078144
0.25000001 171602.29882874 7106.90954221
0.25100001 169314.97147659 12160.20182674
0.25200001 167054.39863714 8241.62914667
0.25300001 164817.71993835 8791.37759744
0.25400001 162604.88042308 7463.56436453
0.25500001 160415.36803964 8623.93059383
0.25600001 158250.06078240 7930.70217133
0.25700001 156107.41849724 6041.35738168
0.25800001 153988.45515624 6580.69694246
0.25900001 151892.16451296 8293.31257480
0.26000001 149818.11127282 5865.37933385
0.26100001 147765.76200474 8130.07261018
0.26200001 145736.28587926 6899.15609997
0.26300001 143727.61868847 6829.93676325
0.26400001 141741.12998736 8451.31527540
0.26500001 139776.19416658 7250.19153449
0.26600001 137831.23794819 7176.18374335
0.26700001 135908.29912988 10380.67637876
0.26800001 134006.32683338 5407.15554360
0.26900001 132123.42119860 7491.39833647
0.27000001 130261.73626564 5295.13982978
0.27100001 128419.76299405 6811.38455154
0.27200001 126599.17254514 6739.50726938
0.27300001 124797.11185182 6154.99384781
0.27400001 123012.90897338 5581.71100882
0.27500001 121250.92525089 5019.78854295
0.27600001 119505.89034195 5958.56397444
0.27700001 117781.60583996 5402.64251557
0.27800001 116075.18717527 5343.52149451
0.27900001 114388.65614182 7206.48567800
0.28000001 112719.38118026 5701.34656993
0.28100001 111069.27454054 5637.87664251
0.28200001 109438.11400859 6503.90742336
0.28300001 107824.64805663 5511.99626954
0.28400001 106229.09557235 5903.68226586
0.28500001 104651.90334253 6734.35029884
0.28600001 103092.29949724 9763.87214753
0.28700001 101550.39312780 6141.76806707
0.28800001 100025.33665570 6504.14782390
0.28900001 98519.78303304  5999.85507071
0.29000001 97029.81636232  5082.42202163
0.29100001 95558.19070051  5859.62853112
0.29200001 94103.37066161  4549.42766998
0.29300001 92665.78647241  4495.21751456
0.29400001 91244.41404663  4441.32206396
0.29500001 89841.08970156  5185.62794305
0.29600001 88453.72527227  3940.61364742
0.29700001 87083.10676534  4671.13806802
0.29800001 85728.81898930  4998.41902779
0.29900001 84391.93234013  4177.40084859
0.30000001 83070.51981307  5250.88780596
0.30100001 81766.41199760  5926.42982214
0.30200001 80477.03015920  4389.21743267
0.30300001 79204.97393152  5056.44577517
0.30400001 77948.76819153  3922.77194495
0.30500001 76708.20212904  3520.90664441
0.30600001 75482.82649483  3475.98432465
0.30700001 74274.23916841  5490.35201926
0.30800001 73080.96178902  4742.22383500
0.30900001 71903.23052295  4012.20045314
0.31000001 70741.43144827  3630.09672663
0.31100001 69593.96615605  3908.39732437
0.31200001 68462.60513992  4821.47919526
0.31300001 67345.96808639  3489.19477176
0.31400001 66245.68224475  3130.10863426
0.31500001 65159.22911050  3706.25712729
0.31600002 64088.29710933  4266.35814057
0.31700002 63032.07762511  3307.29326958
0.31800002 61990.76227539  4449.38717299
0.31900002 60964.39895804  3804.17867511
0.32000002 59952.84076634  4618.76707134
0.32100002 58954.97185479  3132.27780296
0.32200002 57972.99571439  2808.79177536
0.32300002 57003.43439837  2770.36704294
0.32400002 56049.11238388  4918.30984457
0.32500002 55108.85636389  3233.78784456
0.32600002 54183.05476122  3189.21475426
0.32700002 53270.70903835  3931.37851319
0.32800002 52372.91445982  3101.52414118
0.32900002 51488.31123297  3313.27298474
0.33000002 50618.40760105  3518.48567896
0.33100002 49759.85923437  2725.84521794
0.33200002 48917.58570115  2932.12022578
0.33300002 48087.38099343  3131.93127242
0.33400002 47271.12664026  3325.52391662
0.33500002 46466.91283031  2810.31902106
0.33600002 45677.11551285  2308.97829852
0.33700002 44899.20927168  2504.02901966
0.33800002 44135.41699518  2917.57187863
0.33900002 43383.20148874  2433.79771878
0.34000002 42644.51244417  2399.39360630
0.34100002 41918.02981146  2795.51354052
0.34200002 41204.88217423  2543.98954592
0.34300002 40502.76241385  2507.93116744
0.34400002 39814.62162055  2266.44744309
0.34500002 39137.43014023  2640.60253662
0.34600002 38473.48553684  3204.07202725
0.34700002 37819.78139719  2763.86975541
0.34800002 37179.66215665  2335.62648730
0.34900002 36550.49984532  2110.79146604
0.35000002 35933.08750930  2270.25257636
0.35100002 35327.76600378  2051.83674668
0.35200002 34732.65913853  2390.82270504
0.35300002 34149.35112361  1994.66369360
0.35400002 33577.55614877  1966.80544457
0.35500002 33016.94786145  2292.03662910
0.35600002 32466.30998119  2086.28517821
0.35700002 31926.85811286  1885.91959805
0.35800002 31398.89466200  2198.07972493
0.35900002 30881.22372110  2001.10339191
0.36000002 30374.44936699  1973.73181335
0.36100002 29877.01247790  2109.01841071
0.36200002 29391.19975460  2080.45617317
0.36300002 28914.28747275  2683.82429035
0.36400002 28447.67887452  1713.26154137
0.36500002 27990.76752851  2151.37049415
0.36600002 27544.10529517  1971.19398882
0.36700002 27106.36126923  1645.89833423
0.36800002 26679.83996697  2658.11258182
0.36900002 26261.54554569  1603.26743151
0.37000002 25852.23876101  1438.67715520
0.37100002 25452.07797054  1846.29382344
0.37200002 25061.93395266  2103.32290661
0.37300002 24679.90004987  1522.99670422
0.37400002 24306.82624011  2187.61446524
0.37500002 23942.79856603  1890.52346433
0.37600002 23587.56423962  1467.26450303
0.37700002 23240.23535116  1449.49354752
0.37800002 22901.26176518  2083.09886884
0.37900002 22571.12539234  1415.20962914
0.38000002 22248.86756237  1525.82740971
0.38100002 21933.60967379  1382.47548323
0.38200002 21627.37087669  1739.48952202
0.38300002 21328.08724911  1719.89703725
0.38400002 21037.44321472  1457.89488385
0.38500002 20752.86584055  1562.06828582
0.38600002 20477.18205931  1545.31061731
0.38700002 20207.70256740  1646.52368320
0.38800002 19945.83538170  1280.22350463
0.38900002 19690.32804278  1382.26109409
0.39000002 19443.10146608  1368.40554601
0.39100002 19201.24366953  1354.83981751
0.39200002 18966.89375670  1341.71812792
0.39300002 18738.63662132  1882.67091054
0.39400002 18518.34876984  1536.09710323
0.39500002 18303.10744223  1630.80695037
0.39600002 18094.21589389  1508.51485054
0.39700002 17891.43777924  1174.93077463
0.39800002 17694.88289468  1376.75042885
0.39900002 17503.97263194  1155.26224844
0.40000002 17318.87583156  1250.07651675
0.40100002 17139.72391336  1136.87794104
0.40200002 16966.40167579  1230.74283587
0.40300002 16797.84682508  1119.74452241
0.40400002 16635.18208887  1010.58735978
0.40500002 16477.92513239  1304.55739454
0.40600002 16325.60578901  1196.01393677
0.40700002 16178.45280957  1188.14563063
0.40800002 16036.37759602  1180.59817456
0.40900002 15898.97344100  1564.45906072
0.41000002 15766.73512226  1069.22119298
0.41100002 15638.83810389  966.48024061
0.41200002 15515.36189037  1153.41205758
0.41300002 15396.93756881  1242.99482883
0.41400002 15282.51632936  951.33668658
0.41500002 15172.62605644  1136.12629294
0.41600002 15066.21130952  1319.34818689
0.41700002 14964.56557283  1032.10613646
0.41800002 14867.60965003  1121.31517294
0.41900002 14772.79358627  1023.75464404
0.42000002 14683.14029025  1390.86052990
0.42100002 14597.30295996  924.00932115
0.42200002 14515.20320823  920.98968720
0.42300002 14436.02444217  918.13119803
0.42400002 14360.46985986  1007.02799664
0.42500002 14288.60078218  1095.64995990
0.42600002 14219.25828031  1548.26401122
0.42700002 14154.37154347  1090.45283538
0.42800002 14091.84517161  1088.17233572
0.42900002 14033.44593148  1086.18876657
0.43000002 13977.44373755  1084.37013654
0.43100002 13923.50307897  1172.91595495
0.43200002 13873.55938004  1171.41404176
0.43300002 13826.13305933  1350.12195722
0.43400002 13781.50532119  1258.94057075
0.43500002 13739.30069782  988.40533904
0.43600002 13700.01516814  1257.25045156
0.43700002 13662.67926032  1077.16568393
0.43800002 13627.62774185  1346.06899399
0.43900002 13595.83973866  1166.52310486
0.44000002 13565.73741452  987.11092975
0.44100002 13538.29188019  1256.62431187
0.44200002 13512.69649962  1346.87808743
0.44300002 13489.32286706  1078.06673463
0.44400002 13468.34728802  988.91344649
0.44500002 13448.16556867  1079.61878302
0.44600002 13430.21250254  1350.74368646
0.44700002 13415.25457589  1893.16081547
0.44800002 13400.43320547  1083.02306299
0.44900002 13389.07652935  1174.89152113
0.45000002 13378.77875136  905.07442542
0.45100002 13369.75830501  997.11662164
0.45200002 13362.61659767  1180.38679310
0.45300002 13356.56069268  909.58182628
0.45400002 13352.40514983  1275.82237253
0.45500002 13349.62588636  913.11445390
0.45600002 13348.06612416  1006.51097379
0.45700002 13347.95615246  1283.80648359
0.45800002 13348.59406087  1286.67104251
0.45900002 13350.60973964  921.19211569
0.46000002 13354.62544274  1292.86135039
0.46100002 13358.37213722  925.73523298
0.46200002 13364.32179954  1113.78263156
0.46300002 13371.18216052  1302.88805147
0.46400002 13378.23802519  1026.44536113
0.46500002 13386.91522641  1403.61812801
0.46600002 13396.16365757  938.40130869
0.46700002 13405.85875708  1505.74612696
0.46800002 13417.52679924  1038.31536057
0.46900002 13428.78485970  1230.74819072
0.47000002 13441.22731993  1614.35868378
0.47100002 13454.30242225  1238.33405364
0.47200002 13468.23437839  955.57127444
0.47300002 13482.88355110  1437.94959888
0.47400002 13497.36286167  1154.02457937
0.47500002 13512.83254966  1061.29791875
0.47600002 13529.40871858  1258.43801161
0.47700002 13545.42335320  971.20690046
