# SAXS profile: number of points = 501, q_min = 0, q_max = 0.5, delta_q = 0.001
#    q    intensity    error
0.00000000 1682732.95097187 277.65093691
0.00100000 1682645.97291599 706.71132541
0.00200000 1682385.00455238 757.07327602
0.00300000 1681950.26353525 1816.50634933
0.00400000 1681341.62340871 1387.10689202
0.00500000 1680559.74623411 1815.00459777
0.00600000 1679604.45717734 2469.01865257
0.00700000 1678476.52876905 2215.58911006
0.00800000 1677175.72262325 2490.60605325
0.00900000 1675703.46646115 2764.91083785
0.01000000 1674059.11228353 4419.51624726
0.01100000 1672244.28250680 3913.05179144
0.01200000 1670258.89432979 4559.80698144
0.01300000 1668104.22903355 4553.92474611
0.01400000 1665780.53964997 3748.00638037
0.01500000 1663289.27222089 5189.46276041
0.01600000 1660630.13436112 5504.98914150
0.01700000 1657805.42991825 5818.89732004
0.01800000 1654815.54718912 6131.09187822
0.01900000 1651661.45932302 6441.47998202
0.02000000 1648343.98458160 6230.74054357
0.02100000 1644865.76233397 7056.47444034
0.02200000 1641225.66629899 6228.45168658
0.02300000 1637426.53744627 6484.20938344
0.02400000 1633469.16841801 10413.36642349
0.02500000 1629355.79756078 8260.83427091
0.02600000 1625087.04397302 8556.08367786
0.02700000 1620664.56713844 7487.47064311
0.02800000 1616089.00477682 9138.98374112
0.02900000 1611363.70173840 10876.70548613
0.03000000 1606489.22233850 7470.17522724
0.03100000 1601467.27655658 8455.74760929
0.03200000 1596299.02289500 7901.68052727
0.03300000 1590988.54664870 12171.06294295
0.03400000 1585534.69320306 9988.86902807
0.03500000 1579941.09958468 9384.85056491
0.03600000 1574208.57813959 9610.54381368
0.03700000 1568340.33916627 10727.44841602
0.03800000 1562337.59810026 10967.61044624
0.03900000 1556203.03940122 15873.27173698
0.04000000 1549936.89550750 11438.53481890
0.04100000 1543542.96549686 11669.18536022
0.04200000 1537023.17499402 9913.79993864
0.04300000 1530378.95989115 13130.65208536
0.04400000 1523613.25391428 11312.82893570
0.04500000 1516728.54643409 13605.05569367
0.04600000 1509725.44536244 12772.27786151
0.04700000 1502607.66785963 12982.53085410
0.04800000 1495377.22373168 10991.02310582
0.04900000 1488036.67353611 11160.27557100
0.05000000 1480587.74746000 15857.09551370
0.05100000 1473034.23865670 11489.66759676
0.05200000 1465375.47676819 15144.65625816
0.05300000 1457617.15322162 12987.36944065
0.05400000 1449759.86159318 15548.67524068
0.05500000 1441807.41938075 13322.30117655
0.05600000 1433760.40096055 13484.51720028
0.05700000 1425624.30146867 21084.98440294
0.05800000 1417398.18148202 15052.76939019
0.05900000 1409085.86873065 15218.12809307
0.06000000 1400691.16945009 19224.48719885
0.06100000 1392215.75159325 15537.12851385
0.06200000 1383661.88891833 13075.60546148
0.06300000 1375033.36349891 21120.51345084
0.06400000 1366329.53371694 15986.05629210
0.06500000 1357556.44034012 16127.77126566
0.06600000 1348715.75560611 14910.05337585
0.06700000 1339808.41052706 16399.25571232
0.06800000 1330838.89352702 17906.43815059
0.06900000 1321810.50255612 15266.91201930
0.07000000 1312723.06498828 15378.55142649
0.07100000 1303580.63676718 18302.27299745
0.07200000 1294385.78895094 15590.87755830
0.07300000 1285141.40616878 19971.09838762
0.07400000 1275850.63189516 15788.65230962
0.07500000 1266514.05867692 18769.73922938
0.07600000 1257134.99565451 23231.85580882
0.07700000 1247717.31017006 14598.29321348
0.07800000 1238262.28479531 19075.43139184
0.07900000 1228771.09191003 22117.88069179
0.08000000 1219249.89782119 17776.66434416
0.08100000 1209699.34249449 16367.23287187
0.08200000 1200120.31701357 16435.64851275
0.08300000 1190516.89160164 19500.66759964
0.08400000 1180891.83498747 16562.00876310
0.08500000 1171246.89847448 25685.44568935
0.08600000 1161584.61527767 21222.15191753
0.08700000 1151907.51579930 19766.73389932
0.08800000 1142216.92945256 21348.03541405
0.08900000 1132516.68070885 21404.56627076
0.09000000 1122808.89600190 16858.97636543
0.09100000 1113094.99961841 19968.92523132
0.09200000 1103377.24998594 23088.17004079
0.09300000 1093660.10975774 18504.72992668
0.09400000 1083941.73104550 18535.40447200
0.09500000 1074226.90225349 18562.64174343
0.09600000 1064517.04566413 17037.59611675
0.09700000 1054817.15237265 18606.97544262
0.09800000 1045125.75375882 15520.11817304
0.09900000 1035446.92206880 17084.87501751
0.10000000 1025780.16750074 17094.62729531
0.10100000 1016129.71945730 18656.14252667
0.10200000 1006497.23357065 17105.42128911
0.10300000 996883.80918138 17106.52697026
0.10400000 987292.29629502 20214.81071765
0.10500000 977726.06165957 26427.93669008
0.10600001 968181.52989302 20201.10857175
0.10700001 958666.95345656 24848.64860291
0.10800001 949179.06249514 23278.61760322
0.10900001 939723.07933398 18606.51784654
0.11000001 930299.31766961 21685.27811559
0.11100001 920908.72250075 23206.90089945
0.11200001 911554.32771931 15450.84658222
0.11300001 902236.14291308 16971.06264721
0.11400001 892957.04158787 21564.91356972
0.11500001 883718.33776835 18452.03976147
0.11600001 874521.23370698 16882.63321174
0.11700001 865367.32878744 16848.70268498
0.11800001 856256.90113571 18341.02368616
0.11900001 847192.00485087 16774.40248615
0.12000001 838173.65872900 16734.13788478
0.12100001 829205.18663971 18209.34675642
0.12200001 820285.38983618 15134.26615547
0.12300001 811416.83426729 18110.82459413
0.12400001 802599.46900002 16553.61482809
0.12500001 793834.36122724 18004.16416100
0.12600001 785124.97262849 17947.95772006
0.12700001 776469.84143349 22362.33248714
0.12800001 767870.26311215 16344.11932063
0.12900001 759328.38802022 14806.90426427
0.13000001 750844.22873632 16229.49876911
0.13100001 742417.99274367 14699.87694924
0.13200001 734051.49974721 20502.05935441
0.13300001 725746.35758705 14587.50247520
0.13400001 717501.19033512 15982.33976821
0.13500001 709318.88094548 21705.15878029
0.13600001 701198.07859086 23055.39391115
0.13700001 693141.48449772 18652.43822736
0.13800001 685147.17286407 21427.97884178
0.13900001 677218.43071160 19910.22280185
0.14000001 669354.31658063 18403.89780232
0.14100001 661555.38403600 14091.13034455
0.14200001 653821.97724195 16829.37848797
0.14300001 646156.19310117 13956.97442930
0.14400001 638554.22682995 13888.55508867
0.14500001 631021.51646533 17965.18342122
0.14600001 623555.12304672 15124.33022298
0.14700001 616158.52138836 15046.59180215
0.14800001 608826.55576597 20410.91124501
0.14900001 601564.22699328 13535.19574595
0.15000001 594369.54335641 14808.71787144
0.15100001 587243.56875964 16066.98479938
0.15200001 580186.73124504 21304.45777661
0.15300001 573199.25237966 14564.99369027
0.15400001 566278.20301827 18432.35637809
0.15500001 559427.66603474 20944.97280480
0.15600001 552643.29324029 13014.75017004
0.15700001 545931.55948226 12938.57857039
0.15800001 539284.53906012 19292.90529548
0.15900001 532708.56071644 16620.50787885
0.16000001 526198.74957877 15249.24048259
0.16100001 519760.33485799 13893.19440657
0.16200001 513389.02417170 16318.07090361
0.16300001 507085.35382167 14969.16035148
0.16400001 500850.08268784 13635.64414491
0.16500001 494681.72974841 13549.33321749
0.16600001 488582.09475832 17134.57487215
0.16700001 482547.72060673 12160.20313343
0.16800001 476579.98405461 16913.82443271
0.16900001 470681.19828631 19203.79379685
0.17000001 464846.83582494 20269.64723327
0.17100001 459078.32307238 14213.06555348
0.17200001 453375.94853549 15294.63834610
0.17300001 447738.66889992 15191.77375320
0.17400001 442166.34986896 15088.92740187
0.17500001 436658.05014553 12680.55037510
0.17600001 431212.35713928 16028.16407186
0.17700001 425832.03557771 17054.57383039
0.17800001 420513.06232272 11290.77625665
0.17900001 415257.40911883 13454.34069095
0.18000001 410063.85338349 11133.23414524
0.18100001 404933.30309155 13265.61563590
0.18200001 399861.03389023 13171.42307853
0.18300001 394850.52003681 13077.44984139
0.18400001 389899.62133671 14065.62950419
0.18500001 385009.49421263 13964.29501479
0.18600001 380176.90416909 17062.34026519
0.18700001 375402.31785790 11644.98045012
0.18800001 370685.64057399 10508.93840678
0.18900001 366027.85538578 11474.97380851
0.19000001 361422.95071282 10354.76802717
0.19100001 356878.35797399 12333.71663435
0.19200001 352386.16382467 10201.57992476
0.19300001 347950.91046644 14175.52076223
0.19400001 343568.00135388 11054.30096592
0.19500001 339239.68555477 10971.01194928
0.19600001 334963.98496499 15837.09795755
0.19700001 330740.73305754 13752.20033043
0.19800001 326569.42027093 10722.90742135
0.19900001 322449.71038205 13542.88847608
0.20000001 318379.15405740 13438.78472790
0.20100001 314359.90508872 13335.14780411
0.20200001 310388.45496027 12286.72757032
0.20300001 306467.44231606 9377.90417811
0.20400001 302593.62132088 10235.22972495
0.20500001 298767.02586249 10155.09168907
0.20600001 294987.31903307 9159.35668892
0.20700001 291254.34029253 10904.56301600
0.20800001 287565.61656349 11719.73725704
0.20900001 283924.25817162 9837.97601070
0.21000001 280325.31350228 10646.75591011
0.21100001 276770.77399538 10561.57323495
0.21200001 273259.10222055 9603.69160155
0.21300001 269789.16314826 8660.23254648
0.21400001 266362.25815127 11167.23820094
0.21500001 262977.59832663 15336.85425950
0.21600001 259632.59205731 8451.04127102
0.21700001 256327.99714344 10896.50367375
0.21800001 253063.21496440 9144.43970509
0.21900001 249836.69398575 14840.30032443
0.22000001 246648.22681537 12264.58365829
0.22100001 243499.58372950 9730.24382591
0.22200001 240388.05014663 11257.37292067
0.22300001 237312.08028232 8771.05490198
0.22400001 234272.01500353 11860.02132037
0.22500001 231270.29248706 7840.06328605
0.22600001 228301.43179142 8551.03053211
0.22700001 225369.56907513 13102.98736566
0.22800001 222470.47294621 9170.23332850
0.22900001 219604.45218793 9091.62475053
0.23000001 216772.71685300 9764.52749243
0.23100001 213974.56939502 8935.57844052
0.23200001 211206.86026682 8119.84812697
0.23300001 208471.74552418 7317.35861397
0.23400001 205768.61912819 9429.34741751
0.23500001 203094.49573887 7189.54548919
0.23600001 200452.49289114 7838.69510526
0.23700001 197839.83748197 9181.74729182
0.23800001 195257.02749331 8399.95772007
0.23900001 192702.86305052 6937.30339795
0.24000001 190177.41643360 8937.38810804
0.24100001 187681.42382158 7494.11960768
0.24200001 185212.69666367 10126.50466909
0.24300001 182771.55916941 9365.21513484
0.24400001 180357.36453681 7953.76015231
0.24500001 177969.92886685 7880.50882301
0.24600001 175609.11311615 11060.74051285
0.24700001 173274.65197843 6445.81735852
0.24800001 170965.76983031 8939.80052734
0.24900001 168681.37881939 7590.66240597
0.25000001 166423.29317137 6265.83728433
0.25100001 164188.38292874 6826.95328515
0.25200001 161979.72664345 6147.13091694
0.25300001 159794.87024272 11567.55120414
0.25400001 157633.41813754 7235.37423483
0.25500001 155495.11257474 6568.11386591
0.25600001 153380.67232033 7686.67275701
0.25700001 151288.43706384 8782.29418708
0.25800001 149219.69026870 8695.77786184
0.25900001 147173.27988699 5739.75818717
0.26000001 145148.85443000 6250.83571179
0.26100001 143145.76228264 6750.75446867
0.26200001 141165.28299796 5568.97067778
0.26300001 139205.36116809 6615.03907572
0.26400001 137267.02972796 7638.91056582
0.26500001 135350.15753610 6480.56584948
0.26600001 133452.93495845 5344.79029800
0.26700001 131577.42303018 5818.35392172
0.26800001 129722.59360818 7328.02965970
0.26900001 127886.42746311 5697.34061309
0.27000001 126071.23940310 5637.27573668
0.27100001 124275.32806740 6084.52035012
0.27200001 122500.54863184 6019.67724464
0.27300001 120744.02676591 5955.09568191
0.27400001 119005.02861978 4908.95766288
0.27500001 117287.97482671 5826.86686515
0.27600001 115587.54526924 6723.72782652
0.27700001 113907.44579754 4749.94071456
0.27800001 112244.92601955 5636.94045148
0.27900001 110602.08129752 7896.98897839
0.28000001 108976.12219362 4593.34376786
0.28100001 107369.02073628 4541.70979210
0.28200001 105780.53772516 4939.42244286
0.28300001 104209.49015409 4883.25693975
0.28400001 102655.93223356 5266.24957284
0.28500001 101120.48895956 5205.68301803
0.28600001 99602.31640782  4716.66791674
0.28700001 98101.62271853  5085.58836244
0.28800001 96617.30535816  4188.36038552
0.28900001 95152.25269448  5380.86014457
0.29000001 93702.44110030  6135.16762145
0.29100001 92270.61299084  6062.17956045
0.29200001 90855.49529142  4791.71904849
0.29300001 89457.03726399  4339.56108309
0.29400001 88074.57909946  5066.49040253
0.29500001 86709.90469075  5004.89593567
0.29600001 85360.90343938  5704.24264236
0.29700001 84028.18420958  3756.06001197
0.29800001 82711.76625783  5564.43433841
0.29900001 81412.15831135  3663.54729744
0.30000001 80127.85771348  4703.10483114
0.30100001 78860.54211551  5001.33581773
0.30200001 77607.52934529  5290.89356359
0.30300001 76371.71280160  4527.31534921
0.30400001 75151.39630899  4469.62950708
0.30500001 73946.44450274  7467.11231940
0.30600001 72756.28881109  3685.46998421
0.30700001 71582.67656964  4299.25575831
0.30800001 70423.98362152  4243.39733401
0.30900001 69280.66180529  3865.86111176
0.31000001 68152.90915400  4769.00004384
0.31100001 67039.23639781  3137.43641196
0.31200001 65941.37956234  3095.94791703
0.31300001 64857.86847422  3971.24747470
0.31400001 63790.35100791  3616.91307340
0.31500001 62736.58390764  3865.82848342
0.31600002 61697.94123564  2933.73724466
0.31700002 60673.73485011  3762.37847620
0.31800002 59664.13645332  3425.91487736
0.31900002 58669.10930069  3379.34085573
0.32000002 57688.70135113  3333.25332190
0.32100002 56721.70170719  3287.58998662
0.32200002 55770.20744397  4323.30668577
0.32300002 54831.08436269  2931.26990883
0.32400002 53906.69301417  3153.54169065
0.32500002 52996.09102209  3109.81076843
0.32600002 52099.71260114  3066.58922891
0.32700002 51216.46579469  3527.79033099
0.32800002 50347.63143930  2484.65572919
0.32900002 49491.64063898  2939.80359317
0.33000002 48650.01191560  3140.11516779
0.33100002 47819.39548205  2619.54660855
0.33200002 47005.03183140  2347.90145116
0.33300002 46202.29015701  3009.15530043
0.33400002 45413.19391039  2738.41572248
0.33500002 44636.04857291  3149.51973645
0.33600002 43872.87015968  3326.66053740
0.33700002 43121.41715617  2186.25595335
0.33800002 42383.65439406  2155.20892800
0.33900002 41657.41304236  3186.79224866
0.34000002 40944.31296621  2722.59221962
0.34100002 40243.23857747  2890.26953151
0.34200002 39555.10846537  2849.15459769
0.34300002 38877.89992120  3009.14959641
0.34400002 38214.21639590  2768.62010900
0.34500002 37561.44379939  2339.32683062
0.34600002 36921.60611838  2113.94665843
0.34700002 36291.73372380  2083.87144911
0.34800002 35675.14805274  2241.11290682
0.34900002 35069.33712786  2209.36834370
0.35000002 34474.93503750  2178.12649883
0.35100002 33892.57581131  3042.19774891
0.35200002 33319.89343639  1940.71728512
0.35300002 32758.98751625  1913.45255145
0.35400002 32209.26435109  1886.65774872
0.35500002 31670.44873016  1691.20204229
0.35600002 31141.39733808  2001.14628773
0.35700002 30623.40154701  2137.81976325
0.35800002 30116.61374898  2108.31364536
0.35900002 29619.81845926  2399.20540884
0.36000002 29133.66698275  2208.62339858
0.36100002 28656.73921148  1556.06101289
0.36200002 28191.08243364  1842.00541346
0.36300002 27734.15445525  2119.99886698
0.36400002 27287.30256241  1493.97988606
0.36500002 26849.93942894  2063.68644226
0.36600002 26422.59677296  1600.02042338
0.36700002 26003.91381295  1866.04094361
0.36800002 25596.23213436  1416.75151575
0.36900002 25196.56461585  2237.45504387
0.37000002 24805.71433623  1932.61329548
0.37100002 24423.68825878  1499.12605634
0.37200002 24051.52099399  1480.25092969
0.37300002 23687.33668723  1328.85965110
0.37400002 23331.80448899  1312.41406468
0.37500002 22985.14999406  1685.27127740
0.37600002 22647.10459860  1536.83259086
0.37700002 22316.68676537  1391.89181949
0.37800002 21994.41419399  1500.45900739
0.37900002 21680.73261304  1235.80181749
0.38000002 21374.88375743  1343.73213107
0.38100002 21075.78811279  1569.93553089
0.38200002 20785.51413768  1552.36619691
0.38300002 20501.92604940  1299.00209603
0.38400002 20226.79479628  1401.71694579
0.38500002 19957.61301365  1271.10043306
0.38600002 19696.98187121  1372.09182215
0.38700002 19442.59793714  1131.55925355
0.38800002 19195.45768392  1344.06601070
0.38900002 18954.54912531  1552.37764691
0.39000002 18721.65693472  1207.82775437
0.39100002 18494.11106494  1087.45378214
0.39200002 18273.78490441  1400.41157250
0.39300002 18059.48163856  1280.77849849
0.39400002 17852.76898208  1163.55427353
0.39500002 17651.05273351  1153.31984025
0.39600002 17455.47150527  1143.42071513
0.39700002 17265.85491369  1236.92590462
0.39800002 17082.31830066  1226.85215848
0.39900002 16904.22513382  1014.25355608
0.40000002 16731.71398188  1107.05390806
0.40100002 16565.07133063  1098.76123342
0.40200002 16404.03824651  1388.27382258
0.40300002 16247.63581714  1181.52813260
0.40400002 16096.92485732  1173.46587770
0.40500002 15951.52614622  1165.73758600
0.40600002 15810.85194923  965.25255723
0.40700002 15675.17035474  1247.11661251
0.40800002 15544.45584468  1239.74813463
0.40900002 15418.21685978  948.22038180
0.41000002 15296.98963932  1037.36540154
0.41100002 15180.01095637  938.12472155
0.41200002 15067.26703782  1026.75896094
0.41300002 14959.43478046  1021.87903827
0.41400002 14855.42499984  1017.22527506
0.41500002 14755.79506170  1012.83782103
0.41600002 14659.60385725  1100.34991766
0.41700002 14567.88868970  1187.42866336
0.41800002 14480.88239907  1001.13585210
0.41900002 14395.72517203  906.93072881
0.42000002 14315.54578098  1265.63746247
0.42100002 14239.25374725  1171.74824638
0.42200002 14166.46805222  1168.52117266
0.42300002 14096.48438412  1344.80467397
0.42400002 14029.94637387  1162.73186083
0.42500002 13967.03810598  1338.74066590
0.42600002 13906.45814839  979.77955527
0.42700002 13850.28473741  978.10715450
0.42800002 13796.20659975  976.56453044
0.42900002 13746.26136544  1152.62407011
0.43000002 13698.56224843  1151.29571873
0.43100002 13652.74438694  1238.57702948
0.43200002 13610.84029897  972.42653124
0.43300002 13571.39619166  1148.54731413
0.43400002 13534.50869730  1148.06475465
0.43500002 13499.99334653  882.89960670
0.43600002 13468.25774041  1235.98207141
0.43700002 13438.41392229  971.19422019
0.43800002 13410.74426919  883.09755198
0.43900002 13386.14059222  1325.22798143
0.44000002 13363.17779720  1325.96137976
0.44100002 13342.70996602  973.08388394
0.44200002 13324.01088268  1062.45667814
0.44300002 13307.49282655  974.90697067
0.44400002 13293.18948821  887.32044039
0.44500002 13279.60137442  888.40537405
0.44600002 13268.21222749  1067.56040642
0.44700002 13259.60611816  1247.46380272
0.44800002 13251.10225376  1427.93884654
0.44900002 13246.00081858  1251.74713668
0.45000002 13241.72215161  1343.70381902
0.45100002 13238.67975819  897.58253014
0.45200002 13237.44783977  899.48462334
0.45300002 13237.26635245  1352.18682199
0.45400002 13238.88289793  1174.61994079
0.45500002 13241.72251783  1177.45402209
0.45600002 13245.70176658  1543.58792852
0.45700002 13251.01552997  910.34481005
0.45800002 13257.04970082  1095.29749819
0.45900002 13264.40652623  1189.81732179
0.46000002 13273.58238716  1193.22874525
0.46100002 13282.56052501  1012.52963681
0.46200002 13293.48605402  1015.55591523
0.46300002 13305.35035378  1481.68388562
0.46400002 13317.27963873  1114.65635859
0.46500002 13330.72684958  1024.99963604
0.46600002 13344.74666620  1028.27950310
0.46700002 13359.12089314  1031.59136426
0.46800002 13375.32943549  940.95447038
0.46900002 13391.08889228  1227.29335515
0.47000002 13407.94352290  1326.17975671
0.47100002 13425.46573008  1140.62762249
0.47200002 13443.65282123  1049.20993416
0.47300002 13462.48877993  1435.77449643
0.47400002 13481.13021650  1056.58363080
0.47500002 13500.71618237  1445.92677167
0.47600002 13521.20095468  1354.41876383
0.47700002 13541.22921720  1262.17803516
