# SAXS profile: number of points = 501, q_min = 0, q_max = 0.5, delta_q = 0.001
#    q    intensity    error
0.00000000 1682732.95097187 353.37391970
0.00100000 1682645.99139313 807.67009505
0.00200000 1682385.07540886 984.19530028
0.00300000 1681950.42895204 1412.83841065
0.00400000 1681341.91405492 1891.50972519
0.00500000 1680560.19998637 2117.50593580
0.00600000 1679605.10727906 1939.94397789
0.00700000 1678477.42109564 3222.67678244
0.00800000 1677176.88408562 3622.70222258
0.00900000 1675704.91339659 3267.62472081
0.01000000 1674060.91087667 3038.42068444
0.01100000 1672246.48775367 3913.05695172
0.01200000 1670261.47505556 3582.71102107
0.01300000 1668107.25725446 4553.93301315
0.01400000 1665784.04387683 4497.61711785
0.01500000 1663293.31978460 5189.47538881
0.01600000 1660634.70505362 5081.54242463
0.01700000 1657810.60938151 4923.69773073
0.01800000 1654821.36242752 5659.48931417
0.01900000 1651667.92974261 6937.00561793
0.02000000 1648351.14771496 5711.53698520
0.02100000 1644873.65624954 8142.12496759
0.02200000 1641234.28421966 6228.48439159
0.02300000 1637436.00750837 7663.20086396
0.02400000 1633479.47467018 6738.10314026
0.02500000 1629366.91002025 9531.79685894
0.02600000 1625099.08875633 7239.81677155
0.02700000 1620677.49131723 6806.84577529
0.02800000 1616102.95737734 7733.05300569
0.02900000 1611378.65187207 8701.44511963
0.03000000 1606505.15140165 8964.29915687
0.03100000 1601484.27705326 9993.26234863
0.03200000 1596317.13311291 9482.12420742
0.03300000 1591007.81363875 11359.79631307
0.03400000 1585555.10762520 9988.99763893
0.03500000 1579962.68953723 9384.97880923
0.03600000 1574231.34415976 14852.87341855
0.03700000 1568364.30777707 10727.61236132
0.03800000 1562362.93027340 10967.78827810
0.03900000 1556229.65707264 12138.59188730
0.04000000 1549964.86000480 10485.51276382
0.04100000 1543572.27338816 14586.75865986
0.04200000 1537053.90551301 15862.39704080
0.04300000 1530411.14696992 10100.71403886
0.04400000 1523646.80673282 17483.84791924
0.04500000 1516763.64268252 13605.37050703
0.04600000 1509762.07669331 14901.35238968
0.04700000 1502645.83823236 11900.95559229
0.04800000 1495416.92112759 15387.84083437
0.04900000 1488077.94526334 15624.81915256
0.05000000 1480630.64092106 13592.18991659
0.05100000 1473078.87915352 13788.01895118
0.05200000 1465421.74301527 12815.11373987
0.05300000 1457665.17046836 12987.79727434
0.05400000 1449809.56637708 13157.02242843
0.05500000 1441858.83620734 12111.61478914
0.05600000 1433813.56853794 13485.01724137
0.05700000 1425679.24730059 18605.11504573
0.05800000 1417454.97635495 15053.37255177
0.05900000 1409144.52578203 13950.53145681
0.06000000 1400751.69453306 16661.94218490
0.06100000 1392278.14590232 12948.18736198
0.06200000 1383726.17123973 14383.83422239
0.06300000 1375099.57237767 15841.14781445
0.06400000 1366397.59751158 18651.32807829
0.06500000 1357626.57430817 14784.55408580
0.06600000 1348787.87574256 16266.38254254
0.06700000 1339882.62192790 19133.52473656
0.06800000 1330914.93059750 16529.96421177
0.06900000 1321888.67329872 18043.78123532
0.07000000 1312803.25029096 15379.49079736
0.07100000 1303663.06137233 18303.43023896
0.07200000 1294470.32535525 19844.23101733
0.07300000 1285227.97652184 18545.84057019
0.07400000 1275939.34185596 14354.31826858
0.07500000 1266604.89194287 21658.94466743
0.07600000 1257227.91964336 14520.98315263
0.07700000 1247812.40831513 16059.34644801
0.07800000 1238359.66901735 17609.47531924
0.07900000 1228870.69825247 20645.02869897
0.08000000 1219351.65121535 16296.63558299
0.08100000 1209803.27634495 16368.63909693
0.08200000 1200226.63459252 22414.23345281
0.08300000 1190625.28276312 22502.81890033
0.08400000 1181002.58419467 16563.56202080
0.08500000 1171359.94205032 19643.70715036
0.08600000 1161700.04464453 18192.22355329
0.08700000 1152025.16485452 16727.40617917
0.08800000 1142336.89144406 18300.23786038
0.08900000 1132638.97158462 15290.62683459
0.09000000 1122933.50317425 18393.65164605
0.09100000 1113221.87114656 18434.95505228
0.09200000 1103506.61140232 26169.66051903
0.09300000 1093791.62880729 20049.20149819
0.09400000 1084075.64771411 16992.88657654
0.09500000 1074363.24405485 20112.08087403
0.09600000 1064655.84089581 20137.96617719
0.09700000 1054958.12248902 15507.88512966
0.09800000 1045269.27350446 21731.14921791
0.09900000 1035592.62624400 17087.27913651
0.10000000 1025928.47888867 18651.38062332
0.10100000 1016280.31121915 21768.72529014
0.10200000 1006650.11078545 18663.29393181
0.10300000 997039.26388080 23330.71987231
0.10400000 987450.10771986 20218.04190672
0.10500000 977886.10060326 21767.74562359
0.10600001 968344.00766655 18650.30646522
0.10700001 958831.97668299 23299.61812982
0.10800001 949346.35598431 20178.35774607
0.10900001 939892.70294850 20160.69942712
0.11000001 930471.35067258 18590.81846150
0.11100001 921083.04460381 18569.03505332
0.11200001 911731.06899545 16999.22658169
0.11300001 902415.24953117 20060.69194155
0.11400001 893138.63301154 18487.97057383
0.11500001 883902.18917837 15379.89881591
0.11600001 874707.58115415 21491.56628103
0.11700001 865556.06471290 18384.41168031
0.11800001 856447.92688289 16816.35583637
0.11900001 847385.35390063 18303.52450638
0.12000001 838369.35243506 21302.96624885
0.12100001 829403.17645426 15178.07884412
0.12200001 820485.79431224 18165.55634188
0.12300001 811619.47856138 24153.79681998
0.12400001 802804.31501702 15052.58161581
0.12500001 794041.63926803 15007.38768932
0.12600001 785334.51655569 16456.68556992
0.12700001 776681.69992170 17894.74720951
0.12800001 768084.52321412 16348.67984711
0.12900001 759544.85073458 17773.35034488
0.13000001 751062.89501316 17710.06389917
0.13100001 742638.88670108 22056.37597471
0.13200001 734274.64124481 16113.65776172
0.13300001 725971.66570917 14592.03116867
0.13400001 717728.67131736 18894.20816321
0.13500001 709548.65539766 20264.71055360
0.13600001 701429.93656484 14414.38587606
0.13700001 693375.70003373 14352.87766748
0.13800001 685383.50466851 15719.27142083
0.13900001 677456.85891952 15649.25417903
0.14000001 669594.78802854 19826.70260856
0.14100001 661797.87673706 19734.81361505
0.14200001 654066.59326131 15432.70199589
0.14300001 646403.01729911 15358.53641545
0.14400001 638802.99905849 15283.36247339
0.14500001 631272.27279938 16589.83611175
0.14600001 623807.97208192 16505.95971995
0.14700001 616413.42219732 15052.81648020
0.14800001 609083.36490560 17696.91800225
0.14900001 601822.87252586 17603.31985192
0.15000001 594630.22776764 18855.72541218
0.15100001 587506.27133682 17413.68670409
0.15200001 580451.30138974 18649.90119369
0.15300001 573465.83320633 14571.76750940
0.15400001 566546.61544857 22392.75603234
0.15500001 559697.83649007 14406.62299115
0.15600001 552915.30690824 23438.08096600
0.15700001 546205.34184193 19417.60081893
0.15800001 539560.03729512 12868.50749687
0.15900001 532985.86342617 14070.82745860
0.16000001 526477.86766989 16528.77343569
0.16100001 520041.28779200 15164.40466784
0.16200001 513671.60428386 17582.97984466
0.16300001 507369.48818199 21218.19299744
0.16400001 501135.86072846 18604.66970786
0.16500001 494969.20811399 19719.57418225
0.16600001 488871.23039489 18369.33734936
0.16700001 482838.30630960 15817.78366153
0.16800001 476872.30601518 13297.58488110
0.16900001 470974.94540021 15612.82017722
0.17000001 465142.01454851 13123.98256020
0.17100001 459375.13794311 16592.63076603
0.17200001 453674.13696872 14127.41329234
0.17300001 448038.36870747 11693.80197550
0.17400001 442467.45677265 13937.72554656
0.17500001 436960.45222014 12689.33213176
0.17600001 431516.20680328 14893.78258124
0.17700001 426137.27874822 12515.65246796
0.17800001 420819.44255529 18078.40410606
0.17900001 415565.12787523 15708.36257565
0.18000001 410372.79953576 15598.27084714
0.18100001 405243.52573638 13275.77853022
0.18200001 400172.48365231 12083.20871467
0.18300001 395163.18090332 11997.15473896
0.18400001 390213.36380062 14076.94776411
0.18500001 385324.35085673 15050.76985549
0.18600001 380492.84207475 10672.82472442
0.18700001 375719.42502137 10595.28828618
0.18800001 371003.76992782 12621.54884926
0.18900001 366347.00465450 11484.97913855
0.19000001 361743.06314958 14509.51494849
0.19100001 357199.41318979 12344.81230313
0.19200001 352707.99460811 11231.98661902
0.19300001 348273.87215375 10134.77015857
0.19400001 343891.63766811 14082.36322796
0.19500001 339564.39592531 10981.51308316
0.19600001 335289.38740336 9907.80186598
0.19700001 331066.94974621 11799.22664656
0.19800001 326896.48472679 13661.00474233
0.19900001 322777.35227816 9683.32102598
0.20000001 318707.58670771 10569.93761271
0.20100001 314689.07847294 10488.58748122
0.20200001 310718.26124925 10407.50865244
0.20300001 306797.68578526 14082.01444312
0.20400001 302924.46875529 10246.42063995
0.20500001 299098.47470609 12014.78629685
0.20600001 295319.42698238 11003.60236948
0.20700001 291586.87776803 10007.26211803
0.20800001 287898.73058591 9928.18819356
0.20900001 284257.77040167 11640.35624820
0.21000001 280659.23344506 11547.72470598
0.21100001 277105.20070627 12336.72411864
0.21200001 273593.77752470 13111.98240773
0.21300001 270124.24328842 9538.08748143
0.21400001 266697.62216922 11181.29833806
0.21500001 263313.25242146 8531.34978180
0.21600001 259968.48147691 13539.15915543
0.21700001 256664.22580089 12589.38087075
0.21800001 253399.61528101 9989.01330666
0.21900001 250173.19802216 9906.85911009
0.22000001 246984.85105697 10643.81265957
0.22100001 243836.25867563 13803.57125631
0.22200001 240725.06396542 8857.47914743
0.22300001 237649.02753602 9582.00924334
0.22400001 234608.98693639 7918.05368352
0.22500001 231607.25057603 10992.08063212
0.22600001 228638.46846118 7785.14021925
0.22700001 225706.50077949 8491.07896086
0.22800001 222807.31639005 8418.77484792
0.22900001 219941.18837982 9105.56562954
0.23000001 217109.41896150 12036.54675646
0.23100001 214310.99670655 8203.82534191
0.23200001 211543.10096073 11090.14759236
0.23300001 208807.82870945 9527.90167463
0.23400001 206104.48647441 9444.73853938
0.23500001 203430.11869138 7201.42654227
0.23600001 200787.76085420 9279.40680677
0.23700001 198174.88670272 9197.29692689
0.23800001 195591.64293010 7011.96073070
0.23900001 193037.19634072 11813.87697484
0.24000001 190511.28518632 9641.77659934
0.24100001 188014.91579824 9554.91847283
0.24200001 185545.60705063 6763.13769691
0.24300001 183104.26311804 9382.26288598
0.24400001 180689.51121861 6640.33985140
0.24500001 178301.52625990 10526.92260835
0.24600001 175940.37429487 6518.59117599
0.24700001 173605.28020502 8395.55174787
0.24800001 171295.71360673 12795.79041175
0.24900001 169010.77520518 6971.69480703
0.25000001 166751.92399387 8161.67330599
0.25100001 164516.34221555 6840.58983294
0.25200001 162307.19013963 9239.33723581
0.25300001 160121.51135676 7930.81883271
0.25400001 157959.45860791 6041.94957760
0.25500001 155820.38326883 7180.20360074
0.25600001 153705.16202745 5925.33427650
0.25700001 151612.13408276 6454.12885327
0.25800001 149542.62315299 7552.65053969
0.25900001 147495.31589529 6327.54935129
0.26000001 145469.96528180 6834.17929230
0.26100001 143466.07586482 6202.03875309
0.26200001 141484.69553963 7256.04295408
0.26300001 139523.89940415 6077.66134562
0.26400001 137584.65261624 7109.68726036
0.26500001 135666.81573412 7578.34868551
0.26600001 133768.56116856 5893.17424114
0.26700001 131892.07392106 8483.29859603
0.26800001 130036.13528005 6296.34996821
0.26900001 128199.07512947 7268.88790382
0.27000001 126382.76837293 5137.45977748
0.27100001 124585.81450126 6608.03191386
0.27200001 122809.93795375 5531.97391692
0.27300001 121052.27328570 7960.39786799
0.27400001 119312.13315593 5905.95087072
0.27500001 117593.87291267 6815.74119658
0.27600001 115892.29370340 6741.45504377
0.27700001 114211.03116928 6191.38029270
0.27800001 112547.30827798 5652.12608922
0.27900001 110903.26866682 4657.93750446
0.28000001 109276.05684277 5987.78181809
0.28100001 107667.66431217 5920.64514074
0.28200001 106077.87682422 7204.80973490
0.28300001 104505.53690930 4897.12969135
0.28400001 102950.69861231 4401.14257399
0.28500001 101413.93074099 4350.65783471
0.28600001 99894.41637233  4730.50031122
0.28700001 98392.32316989  6800.87769941
0.28800001 96906.75962449  6301.36234285
0.28900001 95440.20448189  5812.30872806
0.29000001 93989.04471670  4512.88419569
0.29100001 92555.84941734  4053.94639637
0.29200001 91139.23541480  4806.68350330
0.29300001 89739.35602154  4749.00694546
0.29400001 88355.47744390  5082.64908055
0.29500001 86989.28335746  4634.78923668
0.29600001 85638.77287055  4578.24901438
0.29700001 84304.62479068  4898.94197849
0.29800001 82986.64280437  5210.73154835
0.29900001 81685.52274950  4043.43356751
0.30000001 80399.73320839  5808.07700193
0.30100001 79130.81569344  3943.08873267
0.30200001 77876.25868228  3893.42373714
0.30300001 76638.83358419  4193.67717226
0.30400001 75416.93691831  3795.35753009
0.30500001 74210.47506214  4087.51315993
0.30600001 73018.67652137  5043.76531950
0.30700001 71843.45788758  3651.08470270
0.30800001 70683.18188063  3931.39876233
0.30900001 69538.19727610  3556.87895907
0.31000001 68408.71352809  3510.39330089
0.31100001 67293.35824091  5038.92690365
0.31200001 66193.86134758  3418.58213115
0.31300001 65108.61849614  4293.26250690
0.31400001 64039.55384445  3328.45596866
0.31500001 62983.99507466  4776.70641263
0.31600002 61943.72146818  3829.05132385
0.31700002 60917.79333867  3196.35676782
0.31800002 59906.47031215  3726.48216221
0.31900002 58909.63810428  3393.19531547
0.32000002 57927.55910788  3347.05452373
0.32100002 56958.78193882  4126.66394686
0.32200002 56005.55212152  3798.85678028
0.32300002 55064.58684460  3478.98076157
0.32400002 54138.50052791  2903.17722828
0.32500002 53226.08985584  3383.58269235
0.32600002 52327.93348763  3080.02231093
0.32700002 51442.93576546  3290.29032736
0.32800002 50572.24965000  2745.31470225
0.32900002 49714.43368247  3445.21041734
0.33000002 48871.08640445  2669.09451037
0.33100002 48038.62293240  3827.71765651
0.33200002 47222.39093599  2594.63439285
0.33300002 46417.84519075  2790.64098502
0.33400002 45626.97060709  2751.30645790
0.33500002 44847.88757467  2712.40036896
0.33600002 44082.92191634  2674.07017008
0.33700002 43329.63257891  2416.49372336
0.33800002 42589.98404296  3465.12126583
0.33900002 41861.84922453  2561.94529387
0.34000002 41146.85365996  2736.06016369
0.34100002 40443.94663837  2489.72947297
0.34200002 39753.96183536  2045.34143329
0.34300002 39074.85228081  2419.51496781
0.34400002 38409.32501240  2583.98746259
0.34500002 37754.62752568  2939.19789207
0.34600002 37112.93443671  2318.07399470
0.34700002 36481.11711959  2666.04016537
0.34800002 35862.71568981  2440.63723186
0.34900002 35254.95869500  2221.06250298
0.35000002 34658.64767766  2554.68904132
0.35100002 34074.35006601  3418.33896052
0.35200002 33499.81231232  2483.34120433
0.35300002 32936.96089760  3148.11487170
0.35400002 32385.37434638  2414.32977187
0.35500002 31844.65908692  2380.70682610
0.35600002 31313.70635209  1844.53396004
0.35700002 30793.73543498  2480.43550677
0.35800002 30285.06195471  1793.93572986
0.35900002 29786.31091632  1769.30695223
0.36000002 29298.21517113  2062.44795466
0.36100002 28819.32303336  1564.88931483
0.36200002 28351.81330065  1698.13193808
0.36300002 27892.93989843  1827.54550871
0.36400002 27444.14722681  2103.59398458
0.36500002 27004.78732799  1927.33176289
0.36600002 26575.52470390  1462.98270425
0.36700002 26154.91300918  1588.12639314
0.36800002 25745.30261637  1710.00308078
0.36900002 25343.65708895  1406.57303506
0.37000002 24950.87268507  1666.21935684
0.37100002 24566.98203474  1370.83766247
0.37200002 24192.91082242  1353.59342463
0.37300002 23826.77393866  2005.02312192
0.37400002 23469.28398012  1452.16201506
0.37500002 23120.74758619  1564.81227076
0.37600002 22780.66111734  1417.07109193
0.37700002 22448.32753903  1781.94832446
0.37800002 22124.16495607  1509.31060480
0.37900002 21808.53984168  1616.01287882
0.38000002 21500.71933817  1474.51940206
0.38100002 21199.70415302  1457.69172662
0.38200002 20907.50092088  1441.36318177
0.38300002 20621.96561335  1306.60780316
0.38400002 20344.97653465  1409.90694064
0.38500002 20073.80057253  1278.50041903
0.38600002 19811.28301213  1610.06304667
0.38700002 19554.95921236  1251.90854808
0.38800002 19305.83244669  1464.44398962
0.38900002 19063.04173856  1672.78199181
0.39000002 18828.23529489  1104.27605236
0.39100002 18598.69304524  1093.60320287
0.39200002 18376.45808468  1624.93838312
0.39300002 18160.17935100  1073.26665049
0.39400002 17951.63363203  1701.81494894
0.39500002 17747.97308100  1265.07558115
0.39600002 17550.46280685  1149.64312063
0.39700002 17358.91677527  1243.59285670
0.39800002 17173.40787360  1233.39421192
0.39900002 16993.45597067  1019.60740655
0.40000002 16819.04716758  1112.83230857
0.40100002 16650.43664900  1305.22779076
0.40200002 16487.55287451  1295.67440403
0.40300002 16329.23031743  1187.46168495
0.40400002 16176.67135741  982.73283152
0.40500002 16029.26106370  1171.41845404
0.40600002 15886.77122437  969.88742920
0.40700002 15749.13368300  1253.00113519
0.40800002 15616.61158585  958.07916619
0.40900002 15488.46391859  1238.30274896
0.41000002 15365.31294712  1041.99874688
0.41100002 15246.45407042  1130.67708744
0.41200002 15131.83638922  1124.90077048
0.41300002 15022.03101784  1212.72862153
0.41400002 14916.20618418  1207.09404265
0.41500002 14814.73140311  1109.32714003
0.41600002 14716.64233668  1012.57862396
0.41700002 14623.02551564  1283.60924059
0.41800002 14534.16837623  1096.16703088
0.41900002 14447.15907720  1092.20527799
0.42000002 14365.22891104  1360.74637308
0.42100002 14286.93091409  1356.54415457
0.42200002 14212.32666491  1352.65825443
0.42300002 14140.54159592  899.33848812
0.42400002 14072.09374679  1255.93442641
0.42500002 14007.33679184  1074.08263609
0.42600002 13944.94843439  982.49138850
0.42700002 13886.93527830  1248.15780196
0.42800002 13830.95235218  1068.02619125
0.42900002 13779.16395744  977.63172911
0.43000002 13729.66256909  1242.67181802
0.43100002 13682.01979517  886.59492474
0.43200002 13638.31211568  1062.97009667
0.43300002 13596.98039793  1239.22885219
0.43400002 13558.33362389  1415.49009741
0.43500002 13521.97894217  884.33746473
0.43600002 13488.44190669  1237.83437244
0.43700002 13456.79382076  1326.16709388
0.43800002 13427.32865214  972.60859701
0.43900002 13400.91781103  1326.69092616
0.44000002 13376.14331892  884.83192248
0.44100002 13353.89267986  1239.50837729
0.44200002 13333.48493470  886.01011590
0.44300002 13315.11817807  1152.82298649
0.44400002 13299.10921506  1242.80181504
0.44500002 13283.76930935  977.55262980
0.44600002 13270.53941287  1156.72662274
0.44700002 13260.22281103  1336.63052270
0.44800002 13249.92368001  981.62064235
0.44900002 13242.97146785  893.90061644
0.45000002 13237.05577028  1343.23029795
0.45100002 13232.26061119  986.86204315
0.45200002 13229.24451071  1078.71264853
0.45300002 13227.33019875  990.85935215
0.45400002 13227.18422440  1534.68412237
0.45500002 13228.30246857  1357.22389760
0.45600002 13230.54053759  1541.82111462
0.45700002 13234.12480149  1091.02130034
0.45800002 13238.43098170  1002.61261792
0.45900002 13244.09277910  1005.22668958
0.46000002 13251.58857488  1007.98213272
0.46100002 13258.77155902  1102.59949511
0.46200002 13268.11104815  1290.05849835
0.46300002 13278.19757656  1201.41137367
0.46400002 13288.46175880  1019.55727677
0.46500002 13300.19391590  1208.58867842
0.46600002 13312.58655199  1305.56542503
0.46700002 13325.29476191  1216.06645761
0.46800002 13339.84216918  938.45794108
0.46900002 13353.91831557  1412.17692880
0.47000002 13369.10489193  1322.33822754
0.47100002 13384.96354256  1231.95210285
0.47200002 13401.52205877  1141.00564216
0.47300002 13418.71711344  1621.92041438
0.47400002 13435.72428258  1435.94310076
0.47500002 13453.62900616  1056.64807223
0.47600002 13472.56302078  1060.35812281
0.47700002 13490.91696496  1160.75855068
