# SAXS profile: number of points = 501, q_min = 0, q_max = 0.5, delta_q = 0.001
#    q    intensity    error
0.00000000 1700912.83420643 331.67800267
0.00100000 1700825.60707559 765.37154136
0.00200000 1700563.88852915 765.25377407
0.00300000 1700127.89989523 1428.10748679
0.00400000 1699517.53138251 1657.02965606
0.00500000 1698733.39588005 2293.29017521
0.00600000 1697775.38783712 2139.19707577
0.00700000 1696644.21820635 2035.97314646
0.00800000 1695339.66138688 3204.19209530
0.00900000 1693863.19488724 3048.95388113
0.01000000 1692214.11024423 3909.01476345
0.01100000 1690394.05943477 3651.25132735
0.01200000 1688402.94405059 4280.10165082
0.01300000 1686242.04212268 5311.66266696
0.01400000 1683911.59121137 5304.32174746
0.01500000 1681413.16336345 4438.93094894
0.01600000 1678746.30941470 4280.80328037
0.01700000 1675913.35536455 4524.96626247
0.01800000 1672914.75758214 6198.14945574
0.01900000 1669751.49527190 7012.95659658
0.02000000 1666424.31243879 5249.23682163
0.02100000 1662935.93775661 7682.76438076
0.02200000 1659285.10516001 10876.61435847
0.02300000 1655474.81732493 7747.62249774
0.02400000 1651505.68018463 7431.77589970
0.02500000 1647380.21289419 8994.69637320
0.02600000 1643098.68623755 6654.54998363
0.02700000 1638663.10277060 9635.33948560
0.02800000 1634073.88036325 7819.04387612
0.02900000 1629334.35556603 8065.20543036
0.03000000 1624445.25196955 7553.67076886
0.03100000 1619408.07220205 8550.47501466
0.03200000 1614224.19702283 11985.61521493
0.03300000 1608897.72751212 9025.91666744
0.03400000 1603427.19370440 11785.19041750
0.03500000 1597816.46434928 13805.13488947
0.03600000 1592066.35775210 16788.34051835
0.03700000 1586179.88352922 9945.34832968
0.03800000 1580158.54070798 11092.71346914
0.03900000 1574004.99800402 11332.83651045
0.04000000 1567719.21080012 10605.62095252
0.04100000 1561305.11460559 9836.22267809
0.04200000 1554764.80458610 15042.35018223
0.04300000 1548099.46954127 12260.94836790
0.04400000 1541312.30527878 10403.85854381
0.04500000 1534405.52287618 12704.87831975
0.04600000 1527379.91302856 11844.83177617
0.04700000 1520239.00636192 14229.43776133
0.04800000 1512985.20179702 11120.44175062
0.04900000 1505620.61665535 11292.15515054
0.05000000 1498147.28821915 12606.91001742
0.05100000 1490568.68022393 17439.65437103
0.05200000 1482884.54216022 12967.82592551
0.05300000 1475100.21673231 14337.97477504
0.05400000 1467216.61985844 13314.99144614
0.05500000 1459237.20280626 13483.35238292
0.05600000 1451162.98937760 12407.44413816
0.05700000 1442999.02823834 13809.50134485
0.05800000 1434744.52147662 19046.23441192
0.05900000 1426403.37228293 16688.92023518
0.06000000 1417979.41623688 12974.51226472
0.06100000 1409474.12820537 14418.92100536
0.06200000 1400890.04981621 19857.61738436
0.06300000 1392230.99541489 13365.41818089
0.06400000 1383495.86922969 14837.99389141
0.06500000 1374691.10264627 19053.21957394
0.06600000 1365818.20798809 20589.71044878
0.06700000 1356878.38213289 20760.24021819
0.06800000 1347875.85341891 15345.56730949
0.06900000 1338813.97067103 19680.56629029
0.07000000 1329692.29920401 18409.59074457
0.07100000 1320515.39975110 17113.88038235
0.07200000 1311285.59108829 21537.86684261
0.07300000 1302006.05774232 21678.40187716
0.07400000 1292679.39464628 15996.90825843
0.07500000 1283306.57945563 16092.66526068
0.07600000 1273890.68724987 16184.78194026
0.07700000 1264435.74164020 16273.28875794
0.07800000 1254942.81822364 20819.50233069
0.07900000 1245413.83415025 16439.46338186
0.08000000 1235853.98666728 16517.18930665
0.08100000 1226264.35416228 18099.66271664
0.08200000 1216646.11947514 15147.24489825
0.08300000 1207002.52996008 16729.05585037
0.08400000 1197337.09410318 16792.65353302
0.08500000 1187651.37042268 22981.05509653
0.08600000 1177948.07127383 21521.11227262
0.08700000 1168228.94495697 21588.87191657
0.08800000 1158496.55666205 17012.52273355
0.08900000 1148753.71059662 23262.26373220
0.09000000 1139002.99973538 18656.87001208
0.09100000 1129245.74456823 15583.59200718
0.09200000 1119484.25181159 18740.16725587
0.09300000 1109722.73478889 15647.09129581
0.09400000 1099959.81448768 23511.64213966
0.09500000 1090199.95873292 17268.76815801
0.09600000 1080444.57506101 18864.56316735
0.09700000 1070698.67503118 20461.05264178
0.09800000 1060961.04140541 17330.79942621
0.09900000 1051235.61088139 17345.38839517
0.10000000 1041521.60125990 26824.39010192
0.10100000 1031823.60785220 15786.90194262
0.10200000 1022143.39730624 23688.17434678
0.10300000 1012481.47086605 18953.65402621
0.10400000 1002841.54224436 17374.23053676
0.10500000 993225.99680892 17371.52350151
0.10600001 983631.98907161 26838.40008466
0.10700001 974067.69399659 20513.86660090
0.10800001 964529.59741898 23655.08948995
0.10900001 955022.93729839 20485.24296920
0.11000001 945548.15077354 17317.71519655
0.11100001 936106.28945817 17299.24504352
0.11200001 926700.00892870 15707.56589081
0.11300001 917329.80838070 20392.24260039
0.11400001 907998.17562980 21928.15697393
0.11500001 898707.06932376 21892.50523960
0.11600001 889456.60373777 17170.96054376
0.11700001 880249.22793418 20254.53568865
0.11800001 871084.91139323 18658.63968083
0.11900001 861965.88373336 17066.92530180
0.12000001 852893.08693690 21672.01435992
0.12100001 843869.82338211 21619.94589352
0.12200001 834894.79521154 18484.57163682
0.12300001 825970.84776400 15363.05849223
0.12400001 817097.67226540 18384.69849221
0.12500001 808276.28615880 21386.99153953
0.12600001 799510.39032643 18276.80838413
0.12700001 790798.68797323 19738.33618201
0.12800001 782142.12893583 18161.34108982
0.12900001 773542.68628655 18100.89971224
0.13000001 765001.08425191 19541.95361832
0.13100001 756516.75293041 14979.03241410
0.13200001 748092.07900712 19401.76898366
0.13300001 739728.48759198 17842.25196186
0.13400001 731424.59207695 19254.75329420
0.13500001 723183.22873480 19178.82013029
0.13600001 715003.05747284 16162.64487625
0.13700001 706886.87419572 19022.32668157
0.13800001 698832.53316951 14570.65900367
0.13900001 690843.81169111 20310.80902154
0.14000001 682919.56284962 17332.49932253
0.14100001 675059.93184795 15816.65494916
0.14200001 667265.80069799 17175.42252005
0.14300001 659538.79267317 21369.05789054
0.14400001 651875.79346614 18431.78892968
0.14500001 644281.36454102 16931.71505884
0.14600001 636753.27071208 16848.49233786
0.14700001 629294.64696524 19558.47855038
0.14800001 621900.65995197 16679.37648682
0.14900001 614575.81331906 17976.34338772
0.15000001 607318.60994837 16506.92059724
0.15100001 600129.92371140 17787.85177812
0.15200001 593009.90128311 19053.40902730
0.15300001 585959.55171171 16242.79953993
0.15400001 578975.11245904 14807.28919991
0.15500001 572060.87940914 16063.47025189
0.15600001 565213.14997436 17304.00140313
0.15700001 558437.39932905 17205.45708537
0.15800001 551726.30296988 17106.27483098
0.15900001 545086.23135008 18314.89823784
0.16000001 538512.23977423 14305.57832486
0.16100001 532009.39530436 18098.96048260
0.16200001 525573.47363688 21845.46246296
0.16300001 519205.08202264 15326.93474486
0.16400001 512904.96253015 15233.27810630
0.16500001 506671.68227213 17662.57567788
0.16600001 500506.85054922 16299.00635766
0.16700001 494407.48115347 17442.69675865
0.16800001 488374.63338396 12380.29754084
0.16900001 482410.27629091 14761.75515152
0.17000001 476510.44520614 14666.99219602
0.17100001 470676.37522092 17000.83147578
0.17200001 464908.36019916 13270.80976857
0.17300001 459205.36772823 11985.26066370
0.17400001 453567.38918314 15477.98788684
0.17500001 447993.06444813 16557.82444399
0.17600001 442481.34883422 15272.24447631
0.17700001 437035.07676201 12835.72081074
0.17800001 431650.04511997 18543.68681421
0.17900001 426328.29942242 14964.12401654
0.18000001 421068.35216534 13718.40756154
0.18100001 415871.71591084 18165.27740905
0.18200001 410733.26593745 11274.62868257
0.18300001 405656.56174945 13435.34595982
0.18400001 400639.31406991 17788.38638504
0.18500001 395683.16943254 14351.42923331
0.18600001 390784.08169560 13153.79281130
0.18700001 385943.36231981 13060.32399793
0.18800001 381160.19403328 17289.42721821
0.18900001 376436.44893863 13946.97109214
0.19000001 371764.84918902 11716.16977577
0.19100001 367154.18184567 10574.04093678
0.19200001 362595.60341967 14696.00050100
0.19300001 358094.07202327 15630.80698241
0.19400001 353645.11058878 16550.59195763
0.19500001 349250.59313584 11294.76471575
0.19600001 344908.83674175 12230.46792883
0.19700001 340619.33109594 13151.31299511
0.19800001 336382.11688215 11045.10732980
0.19900001 332196.34195516 10962.47980261
0.20000001 328060.01421257 11869.21187516
0.20100001 323974.84858096 10798.08221355
0.20200001 319937.78218894 10716.31652091
0.20300001 315950.68633299 11601.70975050
0.20400001 312011.46524950 9594.35300991
0.20500001 308119.21192245 11425.06091811
0.20600001 304274.16610622 11337.25596501
0.20700001 300475.81116087 15937.23777731
0.20800001 296721.74257256 10232.44977630
0.20900001 293015.59310938 13844.98742889
0.21000001 289351.26437191 12821.15513041
0.21100001 285731.79638120 9086.27155446
0.21200001 282155.34012482 9916.34989748
0.21300001 278620.57583277 11626.83717917
0.21400001 275128.93229485 14196.65357758
0.21500001 271679.96731172 13203.64703559
0.21600001 268270.48935246 13098.30726190
0.21700001 264901.85138516 11260.97823480
0.21800001 261572.89871441 9451.93714194
0.21900001 258282.50213295 14489.64905475
0.22000001 255030.26424148 11835.95512308
0.22100001 251817.92632238 10062.64481164
0.22200001 248642.91931253 11643.94846198
0.22300001 245503.76178368 9073.81946458
0.22400001 242400.49935298 8999.11896401
0.22500001 239335.70214116 9736.17682350
0.22600001 236304.05737343 8850.76888746
0.22700001 233309.59689759 10372.94516859
0.22800001 230347.94844434 8703.69764357
0.22900001 227419.61880307 8630.57494172
0.23000001 224526.07339938 8557.81169233
0.23100001 221665.92181957 9256.76933296
0.23200001 218836.41965363 10707.66652006
0.23300001 216039.77037279 9857.89518833
0.23400001 213275.22292474 8269.74716003
0.23500001 210539.89585273 9689.04646540
0.23600001 207837.07377197 10344.05165087
0.23700001 205163.67848119 8789.21240185
0.23800001 202520.27841389 8712.42278945
0.23900001 199905.82220447 10075.25391566
0.24000001 197320.26829421 7846.44083986
0.24100001 194764.40243080 9897.92739972
0.24200001 192236.08233086 9809.80774537
0.24300001 189735.43169432 6944.31712850
0.24400001 187262.00138196 8258.25465159
0.24500001 184815.61316187 8183.63573793
0.24600001 182395.96950888 7433.54808898
0.24700001 180002.88557120 6696.10766001
0.24800001 177635.89660822 7961.64126262
0.24900001 175293.58628890 7888.21175617
0.25000001 172977.49444204 8466.38386600
0.25100001 170684.91843467 9677.83533309
0.25200001 168419.17463567 8948.11117173
0.25300001 166177.11337895 8863.88764699
0.25400001 163958.80729416 6898.56714328
0.25500001 161763.78778093 6832.90271914
0.25600001 159592.98404536 7382.77179124
0.25700001 157444.89838496 8530.36499810
0.25800001 155320.18495976 6034.18947119
0.25900001 153218.19329464 10158.36669608
0.26000001 151138.47719231 8875.60749307
0.26100001 149080.19672766 6444.73720948
0.26200001 147044.97577220 8701.38685304
0.26300001 145030.32446703 8040.48156891
0.26400001 143037.95665858 5685.75904622
0.26500001 141067.05485658 5628.57575512
0.26600001 139116.05781454 6128.75821703
0.26700001 137186.99814954 7169.39286255
0.26800001 135278.84247890 5458.50155232
0.26900001 133389.80060030 7563.20205194
0.27000001 131521.94574833 6415.64081721
0.27100001 129673.78440736 5290.69065419
0.27200001 127846.80207129 7329.45750960
0.27300001 126038.45348935 6216.21682027
0.27400001 124247.89997251 5637.74872806
0.27500001 122479.49991567 5070.65153648
0.27600001 120727.84735347 5016.24229494
0.27700001 118997.23862987 5458.40359428
0.27800001 117284.28804869 5890.01722456
0.27900001 115591.05237010 5340.30687224
0.28000001 113915.19598593 5281.67831186
0.28100001 112258.43456849 6647.94480979
0.28200001 110620.59197327 6104.59765697
0.28300001 109000.36591706 5107.75738862
0.28400001 107398.09635555 6427.77637111
0.28500001 105814.05808241 6809.13495989
0.28600001 104247.69329481 7629.36779489
0.28700001 102698.89791819 4436.59260006
0.28800001 101166.95263387 4824.14636469
0.28900001 99654.47982911  5635.46110108
0.29000001 98157.54653715  5998.40795282
0.29100001 96678.98951840  5081.44792962
0.29200001 95217.13935248  4603.27281989
0.29300001 93772.55777958  7030.12898951
0.29400001 92344.12748186  5312.09618485
0.29500001 90933.70041972  4441.20213873
0.29600001 89539.11376407  7180.14187263
0.29700001 88161.45369287  4334.89888328
0.29800001 86799.93248215  3892.97715611
0.29900001 85455.92589767  4999.17190167
0.30000001 84127.14720749  4937.84313910
0.30100001 82815.80129294  5252.17836664
0.30200001 81519.15042067  4075.55011822
0.30300001 80239.77496862  4756.61408532
0.30400001 78976.23138478  3974.47903260
0.30500001 77728.29105688  4994.82021978
0.30600001 76495.52139556  3522.61892704
0.30700001 75279.58278298  4869.08364492
0.30800001 74078.87862594  5837.04551768
0.30900001 72893.67749219  5423.28986218
0.31000001 71724.38264386  4684.31965225
0.31100001 70569.51172524  3632.91863562
0.31200001 69430.57685062  3585.74231122
0.31300001 68306.49737135  4182.40703207
0.31400001 67198.67935511  3175.13774986
0.31500001 66104.59898208  3760.02976813
0.31600002 65026.06068545  3710.38719839
0.31700002 63962.20159434  3966.29630866
0.31800002 62913.31349069  4515.60328960
0.31900002 61879.37895653  3564.25239666
0.32000002 60860.08976413  3809.53749917
0.32100002 59854.47825897  3180.06858048
0.32200002 58864.90405271  3707.60615732
0.32300002 57887.57679638  4501.33818483
0.32400002 56925.61832021  4717.71084168
0.32500002 55977.60626702  3832.22710650
0.32600002 55044.01713919  2969.90008538
0.32700002 54123.90329894  2929.18578524
0.32800002 53218.39164024  2888.96052699
0.32900002 52325.93914319  3367.17434331
0.33000002 51448.20307512  3576.16476510
0.33100002 50581.87366103  3526.56839865
0.33200002 49731.68089306  2732.50733607
0.33300002 48893.71327488  2939.49018129
0.33400002 48069.57069818  2898.59525037
0.33500002 47257.53606106  3334.49190238
0.33600002 46459.74994547  3757.66475354
0.33700002 45674.01504488  3010.37447417
0.33800002 44902.40255937  3653.25964524
0.33900002 44142.25306183  2251.25501277
0.34000002 43395.67156851  2441.65757643
0.34100002 42661.24841482  2188.52214733
0.34200002 41940.25104583  2805.17382405
0.34300002 41230.19810665  2340.22615537
0.34400002 40534.20425831  2726.93872063
0.34500002 39849.04519093  2688.61520637
0.34600002 39177.05319225  2854.83200133
0.34700002 38515.50527202  3015.76420563
0.34800002 37867.42941526  2973.54003566
0.34900002 37230.27784363  3322.80245492
0.35000002 36605.03860821  2119.98091140
0.35100002 35991.66660947  2090.39609568
0.35200002 35388.67120622  2248.59627494
0.35300002 34797.42336564  2402.06624870
0.35400002 34217.58938986  2733.13008197
0.35500002 33649.13651623  1796.86397507
0.35600002 33090.56967808  2480.80012627
0.35700002 32543.26402950  1922.33069727
0.35800002 32007.24354868  2240.66719075
0.35900002 31481.73735621  2210.01806708
0.36000002 30967.05026496  1844.55243640
0.36100002 30461.67128895  2481.10324401
0.36200002 29968.01217141  2284.46167603
0.36300002 29483.25731916  1931.74311105
0.36400002 29008.72434158  2223.51882610
0.36500002 28543.92670036  2350.59247512
0.36600002 28089.40337481  1700.95390193
0.36700002 27643.92159670  1831.13345330
0.36800002 27209.49059153  1506.04537558
0.36900002 26783.47435361  1783.77947645
0.37000002 26366.29919395  1907.47000554
0.37100002 25958.39053822  1738.17391278
0.37200002 25560.39322834  1430.10406887
0.37300002 25170.60810579  2118.10677244
0.37400002 24789.90148601  1673.31842957
0.37500002 24418.15378713  1790.33912048
0.37600002 24055.21867164  1904.45175245
0.37700002 23700.19210364  1478.18105153
0.37800002 23353.62292090  1593.18423114
0.37900002 23015.88764237  1705.47735509
0.38000002 22686.02507120  1685.45831251
0.38100002 22363.22526280  1281.41286826
0.38200002 22049.30268890  1393.40574944
0.38300002 21742.56133808  1878.55738860
0.38400002 21444.44073248  1362.25816207
0.38500002 21152.45678965  1469.67276737
0.38600002 20869.40886458  1938.35078717
0.38700002 20592.41295178  1558.02203774
0.38800002 20323.20087192  1778.78824059
0.38900002 20060.33949742  1290.88290782
0.39000002 19805.81134730  2090.89960299
0.39100002 19556.77194855  1264.93206956
0.39200002 19315.17109578  1821.80702406
0.39300002 19079.68444749  1127.60940427
0.39400002 18852.21915041  1228.69344134
0.39500002 18629.86981947  1770.58291153
0.39600002 18413.95562943  1754.48177550
0.39700002 18204.16296647  1630.18287088
0.39800002 18000.65443933  1508.27490693
0.39900002 17802.72709720  1174.98004408
0.40000002 17610.76173826  1271.14484249
0.40100002 17424.83893497  1050.71783756
0.40200002 17244.60923797  1250.92401339
0.40300002 17069.37330164  1655.04651374
0.40400002 16899.97373548  1232.00814369
0.40500002 16736.03035904  1121.14672687
0.40600002 16577.10756074  1012.03246453
0.40700002 16423.49364049  1105.62964426
0.40800002 16274.77749735  998.45764677
0.40900002 16130.95111566  1289.66960280
0.41000002 15992.42856518  1380.30657486
0.41100002 15858.08820958  1666.05082624
0.41200002 15728.33405379  1071.80737488
0.41300002 15603.78418673  1162.79405269
0.41400002 15483.15617622  1060.20916940
0.41500002 15367.15222145  958.91034405
0.41600002 15254.71542499  1049.60074455
0.41700002 15147.07459921  1139.66594685
0.41800002 15044.14789606  1323.73463610
0.41900002 14943.52518498  1129.73055752
0.42000002 14848.11236959  1781.55084708
0.42100002 14756.48246036  1027.49392240
0.42200002 14668.69912265  1209.94770447
0.42300002 14583.90583639  1576.81197375
0.42400002 14502.80485600  1109.46462406
0.42500002 14425.45880196  921.78686112
0.42600002 14350.72430105  919.16393504
0.42700002 14280.49133858  916.80758738
0.42800002 14212.84040093  1188.97522008
0.42900002 14149.18311858  1460.19576703
0.43000002 14088.04092057  1548.34621075
0.43100002 14029.13509295  1272.72319594
0.43200002 13974.24926534  1179.91579263
0.43300002 13921.87145202  1450.10219916
0.43400002 13872.40947133  1086.20971308
0.43500002 13825.43679268  904.18360909
0.43600002 13781.57244478  993.72032822
0.43700002 13739.59158748  1173.49857310
0.43800002 13700.01719181  1082.57540980
0.43900002 13663.81950370  1172.35576897
0.44000002 13629.35052962  991.73973829
0.44100002 13597.60118127  1081.82520125
0.44200002 13567.78103403  1081.89491093
0.44300002 13540.28853147  901.78325893
0.44400002 13515.30741200  992.36149375
0.44500002 13491.10179357  992.81022804
0.44600002 13469.23832208  903.11247229
0.44700002 13450.50522659  1175.03619228
0.44800002 13432.04654644  904.64837778
0.44900002 13417.03934303  1449.04031772
0.45000002 13403.16010783  1088.06858912
0.45100002 13390.72119726  1271.04731628
0.45200002 13380.19605095  1091.02123770
0.45300002 13370.78900003  1001.60585146
0.45400002 13363.42606144  1094.46464630
0.45500002 13357.50807888  1096.38431508
0.45600002 13352.92436890  1189.94591153
0.45700002 13349.84474605  1192.27469078
0.45800002 13347.61112798  1102.77968366
0.45900002 13346.77944466  920.92782533
0.46000002 13347.99483523  1107.61666392
0.46100002 13349.13806459  1017.60484289
0.46200002 13352.56400296  1391.00342094
0.46300002 13356.90823830  1208.53311468
0.46400002 13361.60459608  1025.16916122
0.46500002 13368.00944083  1308.19346588
0.46600002 13375.01001652  1124.30339528
0.46700002 13382.55984512  1315.23804392
0.46800002 13392.15979958  1224.78003252
0.46900002 13401.47399921  1228.24515024
0.47000002 13412.06987966  1231.83161648
0.47100002 13423.27737106  950.36808292
0.47200002 13435.52961692  1239.22613295
0.47300002 13448.60310549  1243.05444396
0.47400002 13461.52152759  1150.96014516
0.47500002 13475.50708249  1347.01175181
0.47600002 13490.68534727  1254.83615705
0.47700002 13505.40375623  1162.00499426
