# SAXS profile: number of points = 501, q_min = 0, q_max = 0.5, delta_q = 0.001
#    q    intensity    error
0.00000000 1682732.95097188 328.13292544
0.00100000 1682646.10781742 908.62891980
0.00200000 1682385.54162860 984.19557302
0.00300000 1681951.47617848 1211.00510599
0.00400000 1681343.78626472 1261.00788761
0.00500000 1680563.11168159 2420.01097661
0.00600000 1679609.31343512 2292.66680618
0.00700000 1678483.13269197 2215.59782723
0.00800000 1677184.33712388 2717.03874085
0.00900000 1675714.35903455 3016.28597520
0.01000000 1674072.56793174 3038.44184199
0.01100000 1672260.57048203 3311.07607372
0.01200000 1670278.22967148 5211.26830506
0.01300000 1668126.91505732 4904.29334657
0.01400000 1665806.78416278 3748.06543052
0.01500000 1663319.43836647 6387.14692774
0.01600000 1660664.39697898 5081.63328192
0.01700000 1657844.06479697 8504.74043392
0.01800000 1654858.81600957 6131.25218921
0.01900000 1651709.64516739 6441.66790682
0.02000000 1648397.31608499 6230.94213666
0.02100000 1644924.50485791 5971.07622335
0.02200000 1641289.98940656 6228.69579278
0.02300000 1637496.84569440 6484.48780411
0.02400000 1633545.59404676 8576.11475980
0.02500000 1629438.60202130 7625.77300573
0.02600000 1625176.41037389 7898.35771567
0.02700000 1620760.82245985 7487.91534272
0.02800000 1616192.41475238 10545.65598988
0.02900000 1611474.40728963 9427.12571548
0.03000000 1606607.48712842 8217.79767440
0.03100000 1601593.28884992 9993.94258228
0.03200000 1596433.10447847 8692.57865425
0.03300000 1591130.98747379 9737.72209225
0.03400000 1585685.53810567 9157.33440508
0.03500000 1580100.65751472 9385.79833906
0.03600000 1574377.01722421 9611.57213434
0.03700000 1568517.80063838 12516.77262796
0.03800000 1562524.45141656 14625.22954211
0.03900000 1556399.47620970 9338.39728972
0.04000000 1550143.01358236 15253.40796048
0.04100000 1543759.02090668 12643.38696746
0.04200000 1537249.35704744 10906.78469425
0.04300000 1530615.45021352 13132.68117242
0.04400000 1523860.26871584 11314.66302069
0.04500000 1516986.31808941 11513.92668929
0.04600000 1509994.06626133 17032.73385923
0.04700000 1502887.36214361 14067.02636389
0.04800000 1495668.17742741 13191.79393870
0.04900000 1488338.97670176 12278.79712934
0.05000000 1480901.71803641 12461.78853757
0.05100000 1473359.92331977 13790.64952470
0.05200000 1465713.08960147 15148.14548695
0.05300000 1457966.86924782 16533.34506802
0.05400000 1450121.81475324 13159.85608258
0.05500000 1442181.63100971 15748.62414529
0.05600000 1434147.22929712 23297.72282710
0.05700000 1426023.74703607 16128.32933182
0.05800000 1417810.46556687 15057.14784737
0.05900000 1409511.06063598 20296.96022114
0.06000000 1401129.45258624 15384.40210814
0.06100000 1392667.10211382 16837.34605139
0.06200000 1384126.59803095 14387.99665908
0.06300000 1375511.58250081 13204.91180941
0.06400000 1366821.10873868 13326.50643344
0.06500000 1358061.77298454 18822.73705405
0.06600000 1349234.74561214 16271.77179341
0.06700000 1340341.42671900 16405.77983081
0.06800000 1331385.69942316 16535.81116086
0.06900000 1322371.42082163 16661.88068244
0.07000000 1313297.92881696 16783.94831625
0.07100000 1304169.88556825 15493.53896623
0.07200000 1294989.24438953 18434.17275747
0.07300000 1285759.28815063 17126.31452063
0.07400000 1276482.84984541 17232.51928050
0.07500000 1267160.85328676 17334.76128549
0.07600000 1257796.19406954 21791.32008384
0.07700000 1248393.14020774 16066.82046782
0.07800000 1238952.67390768 17617.90784918
0.07900000 1229476.37344721 23605.94747739
0.08000000 1219969.93090911 17787.16242707
0.08100000 1210433.99222363 16377.17268317
0.08200000 1200870.05350028 17940.99944118
0.08300000 1191281.21699219 16511.15844241
0.08400000 1181671.09199687 22599.46069523
0.08500000 1172041.06961194 22678.99576166
0.08600000 1162393.90233938 18203.08936530
0.08700000 1152731.42438096 16737.66106797
0.08800000 1143055.99575080 24415.67721589
0.08900000 1133370.71234021 16830.55586878
0.09000000 1123677.80935622 16872.02310006
0.09100000 1113978.84490743 18447.49053835
0.09200000 1104276.11019322 16945.11770711
0.09300000 1094573.59871067 21606.88385390
0.09400000 1084870.31036339 18551.28317908
0.09500000 1075170.42549789 20127.19131135
0.09600000 1065475.44216856 17052.93525353
0.09700000 1055790.24870307 18624.14086269
0.09800000 1046113.80715447 23302.18614998
0.09900000 1036449.54255132 17101.41825625
0.10000000 1026797.67629600 18667.18263293
0.10100000 1017161.84106069 15562.57690016
0.10200000 1007543.91837087 17123.20969813
0.10300000 997945.11990714 17124.73906317
0.10400000 988368.35892348 21793.52333954
0.10500000 978816.29744173 17119.49784772
0.10600001 969286.14994877 26446.97384578
0.10700001 959786.04970900 20213.09515805
0.10800001 950312.36514482 18645.12948161
0.10900001 940870.58811340 21734.11160835
0.11000001 931460.85958485 21712.35365891
0.11100001 922084.28867699 17040.11845689
0.11200001 912743.72053403 20112.30882880
0.11300001 903439.46617423 18538.57871871
0.11400001 894174.18376234 20051.85701500
0.11500001 884949.28088924 23097.17731881
0.11600001 875765.70901036 23054.53337537
0.11700001 866625.34157233 16873.19619506
0.11800001 857528.20937041 16837.56718401
0.11900001 848476.54215459 15272.57847815
0.12000001 839471.36700561 16760.04663175
0.12100001 830515.87923802 16718.28543663
0.12200001 821609.07522195 15158.68815199
0.12300001 812753.28757884 21164.09660569
0.12400001 803948.53143557 16581.43924213
0.12500001 795196.06399265 18035.04758117
0.12600001 786499.04513801 14982.80751592
0.12700001 777856.37765878 16428.32747036
0.12800001 769269.05113181 20839.49957731
0.12900001 760739.08319768 22251.61923230
0.13000001 752266.84331041 17738.45300136
0.13100001 743852.35139106 17673.93270216
0.13200001 735497.53493703 17607.81181643
0.13300001 727203.87675251 19001.83819535
0.13400001 718970.07166595 23294.63142022
0.13500001 710799.00876722 15950.33050877
0.13600001 702689.22489462 17328.31710294
0.13700001 694643.57522810 18692.85949082
0.13800001 686659.96609495 18611.91925866
0.13900001 678741.83496246 15678.93712702
0.14000001 670888.13450422 19864.99859952
0.14100001 663099.39089647 15536.41946145
0.14200001 655376.26776051 22492.51457041
0.14300001 647720.28925036 19587.06247081
0.14400001 640128.34089885 18099.62969267
0.14500001 632605.00683039 18010.26539404
0.14600001 625148.21500709 13784.51879118
0.14700001 617760.92465601 20571.43976153
0.14800001 610438.10924464 17736.28010088
0.14900001 603184.53743086 21714.64437203
0.15000001 595998.69627712 20249.05666142
0.15100001 588881.53254012 20139.74936317
0.15200001 581832.90460228 17358.98552793
0.15300001 574853.85809907 13279.12474872
0.15400001 567940.86925205 17166.01358322
0.15500001 561098.22588647 22320.48847913
0.15600001 554321.74786261 14359.70555609
0.15700001 547617.43172871 14276.38711897
0.15800001 540977.62735671 20643.70723429
0.15900001 534409.10470596 15390.98294200
0.16000001 527906.42353853 14023.83480326
0.16100001 521474.95205735 15206.21031979
0.16200001 515110.23702405 15113.33506773
0.16300001 508813.02748972 13768.48117385
0.16400001 502584.03529807 13682.85100695
0.16500001 496421.93140146 13596.99734302
0.16600001 490328.13834214 18424.08066806
0.16700001 484299.66114249 14645.22244442
0.16800001 478337.74122196 13338.44854377
0.16900001 472444.26689564 12047.32937469
0.17000001 466615.04033499 11968.67634975
0.17100001 460851.75852664 16645.96630403
0.17200001 455154.28032371 15354.63037181
0.17300001 449521.75598667 12905.77022385
0.17400001 443954.02289186 18646.06984204
0.17500001 438449.96172198 13890.09544335
0.17600001 433008.58306005 14945.29195017
0.17700001 427632.28188459 13701.33895870
0.17800001 422316.98391006 12473.13270892
0.17900001 417065.12131614 13512.91056891
0.18000001 411874.84105646 13418.88295546
0.18100001 406747.73698213 13325.05649296
0.18200001 401678.59795141 12128.68583808
0.18300001 396671.04119632 12042.93337962
0.18400001 391722.93608809 15218.43678595
0.18500001 386835.51030938 17268.33799600
0.18600001 382005.27579619 12858.29819077
0.18700001 377233.09062044 11701.77102389
0.18800001 372518.37695041 13729.16543116
0.18900001 367862.76499328 13629.31608695
0.19000001 363259.46057056 11448.12244079
0.19100001 358716.49927828 13430.34636756
0.19200001 354225.51797523 14356.76092191
0.19300001 349791.73197967 16286.30381054
0.19400001 345409.80304438 14144.53210305
0.19500001 341082.65686950 11030.61364441
0.19600001 336807.67425172 12938.46741780
0.19700001 332585.00218855 10865.55253498
0.19800001 328414.12515418 9803.16209914
0.19900001 324294.67823128 13620.37712941
0.20000001 320224.32527667 9654.76386339
0.20100001 316205.13682609 13413.42253811
0.20200001 312233.49102135 13310.51435134
0.20300001 308311.88875323 14151.51636264
0.20400001 304437.75017117 10297.60738626
0.20500001 300610.52371397 13004.41187054
0.20600001 296830.10599177 9216.57522669
0.20700001 293096.14882333 10059.06030310
0.20800001 289406.42830298 12702.04873865
0.20900001 285764.02686846 10801.88072625
0.21000001 282163.60719225 9823.52644878
0.21100001 278607.57386870 11517.63764821
0.21200001 275094.24652135 10547.11391024
0.21300001 271622.51838564 9590.99157762
0.21400001 268193.60208578 11244.01729902
0.21500001 264806.98196363 10295.69594550
0.21600001 261459.68199505 9361.56435643
0.21700001 258152.95567415 11818.24286952
0.21800001 254885.58172419 8372.99175552
0.21900001 251656.47463578 12456.99608346
0.22000001 248465.35892935 9883.95244555
0.22100001 245313.78634244 8168.94947146
0.22200001 242199.45647380 12152.35830319
0.22300001 239120.37193887 8837.88936476
0.22400001 236077.16748021 11154.64669090
0.22500001 233071.94910734 9481.36733803
0.22600001 230099.68748732 9401.87367533
0.22700001 227164.21300079 13207.32796843
0.22800001 224261.42426378 8473.71831653
0.22900001 221391.57216779 8401.81056110
0.23000001 218556.03924198 9844.85725324
0.23100001 215753.77961986 14265.64058313
0.23200001 212981.85076029 8932.45924333
0.23300001 210242.47849140 8855.41361287
0.23400001 207534.99518522 8778.73071153
0.23500001 204856.49671939 10152.68845760
0.23600001 202209.82568130 8626.27157156
0.23700001 199592.56867507 8550.54604646
0.23800001 197004.87267455 11300.20003110
0.23900001 194445.93977691 7700.05957937
0.24000001 191915.42343097 9019.06575074
0.24100001 189414.33283601 6875.74060718
0.24200001 186940.41078417 7495.37612494
0.24300001 184494.12539043 8102.98237044
0.24400001 182074.48939642 7360.36158202
0.24500001 179681.59087277 6630.25101685
0.24600001 177315.27030262 9197.34350568
0.24700001 174975.06782228 6509.07283091
0.24800001 172660.47830301 7093.75608666
0.24900001 170370.35751344 7666.66645080
0.25000001 168106.20979469 7595.03891783
0.25100001 165865.26018269 6896.67784467
0.25200001 163650.79035789 8073.71212427
0.25300001 161459.65612648 7381.93582735
0.25400001 159292.04433077 6092.92098392
0.25500001 157147.35781293 6034.45882552
0.25600001 155026.48192723 8366.77962547
0.25700001 152927.91566165 6510.14167773
0.25800001 150852.53477467 7032.74550394
0.25900001 148799.41810216 6383.49533862
0.26000001 146768.30724073 6895.17540042
0.26100001 144758.39122649 6826.80605326
0.26200001 142771.13214366 5632.32142957
0.26300001 140804.27145819 5575.84941358
0.26400001 138859.06504251 6623.57771594
0.26500001 136935.19652320 5463.71459981
0.26600001 135030.77274916 8652.77232721
0.26700001 133148.08043261 6958.31901268
0.26800001 131285.87158321 5297.38516906
0.26900001 129442.51856810 7863.63337513
0.27000001 127619.94729928 5187.75110321
0.27100001 125816.66218617 6159.98407214
0.27200001 124034.37069543 5079.20772034
0.27300001 122270.31742277 7537.96542584
0.27400001 120523.68804244 7457.40355055
0.27500001 118798.97405724 4918.27775873
0.27600001 117090.67859643 5838.14151111
0.27700001 115403.02022912 6737.22863983
0.27800001 113732.64614663 5235.68261315
0.27900001 112081.78349003 5178.17864231
0.28000001 110447.95793571 6051.99614152
0.28100001 108832.85491396 5984.71897497
0.28200001 107236.27021326 6828.26982901
0.28300001 105657.10964325 4951.09239222
0.28400001 104095.41647809 5340.09511808
0.28500001 102551.77700738 5719.31287440
0.28600001 101025.42018455 5218.97345376
0.28700001 99516.32377345  6018.74754670
0.28800001 98023.73773156  4674.26215498
0.28900001 96550.24091619  4199.93567865
0.29000001 95092.07471804  4980.92310950
0.29100001 93651.82430458  4101.95009871
0.29200001 92228.12014977  5269.45389419
0.29300001 90821.12918102  4806.25438377
0.29400001 89430.09417499  3957.28185457
0.29500001 88056.78247276  3909.72132686
0.29600001 86698.98725265  4634.92807793
0.29700001 85357.71236296  4197.03891557
0.29800001 84032.43838407  4145.74054393
0.29900001 82724.09819473  4094.84305449
0.30000001 81430.94123827  4044.26788805
0.30100001 80154.63252563  3994.10552783
0.30200001 78892.82904481  3944.24717482
0.30300001 77647.99623901  3894.82367573
0.30400001 76418.73595258  3845.77306888
0.30500001 75204.84490015  5868.23432537
0.30600001 74005.58343699  4089.54873434
0.30700001 72822.92792694  4037.30331541
0.30800001 71655.18061592  3985.46133454
0.30900001 70502.61809977  4589.72065559
0.31000001 69365.64848704  3235.90765512
0.31100001 68242.76808148  4790.64254613
0.31200001 67135.70208661  3782.42563464
0.31300001 66042.96120904  3421.68598224
0.31400001 64966.27650461  3376.62238120
0.31500001 63903.08689506  3937.70840091
0.31600002 62855.14595216  4483.14349730
0.31700002 61821.51256978  4423.32943380
0.31800002 60802.59095636  3782.22534952
0.31900002 59798.12236097  4018.43401293
0.32000002 58808.29329623  3114.78140192
0.32100002 57831.71947743  3351.92661963
0.32200002 56870.84420523  3582.01029188
0.32300002 55922.04102525  3261.37358702
0.32400002 54988.31975928  3216.81685824
0.32500002 54068.14526596  3965.89864305
0.32600002 53162.15905680  2868.36442773
0.32700002 52269.36117977  4114.64430691
0.32800002 51390.90813667  3804.21215496
0.32900002 50525.23437794  3001.19906417
0.33000002 49674.00323831  3452.84012860
0.33100002 48833.75367917  2675.11315322
0.33200002 48009.61630629  2637.88849287
0.33300002 47197.19006204  3073.95313431
0.33400002 46398.44404265  2564.67411591
0.33500002 45611.51814492  3218.34887271
0.33600002 44838.56770589  2493.24867536
0.33700002 44077.38944597  3575.55800118
0.33800002 43329.97006324  2203.32908206
0.33900002 42593.82497387  2823.97072950
0.34000002 41870.97334891  2784.21050469
0.34100002 41160.04305141  2533.81237024
0.34200002 40462.22449316  2289.95970364
0.34300002 39775.20782435  3489.08139559
0.34400002 39101.79867187  2428.22181252
0.34500002 38439.09966664  2393.98724062
0.34600002 37789.39034268  2557.01921864
0.34700002 37149.67878996  2520.97732208
0.34800002 36523.35233576  2294.39710240
0.34900002 35907.60772232  3016.23919153
0.35000002 35303.45496024  2416.34508920
0.35100002 34711.09945866  2016.02075204
0.35200002 34128.67682220  2529.95893266
0.35300002 33557.91431225  1781.92533438
0.35400002 32998.32456986  2108.59303989
0.35500002 32449.75286327  2079.38026197
0.35600002 31910.89190240  2563.24251347
0.35700002 31383.01294193  1685.26787480
0.35800002 30866.29945913  1994.58036552
0.35900002 30359.73363086  2623.08110995
0.36000002 29863.77151434  2425.68495615
0.36100002 29376.96737592  1754.68634448
0.36200002 28901.60973873  1731.06199730
0.36300002 28434.88221212  1707.79910655
0.36400002 27978.20433368  1684.98743581
0.36500002 27530.99938916  1662.59713186
0.36600002 27093.92195948  1789.82456942
0.36700002 26665.55483813  1766.32643615
0.36800002 26248.11432793  1743.39983624
0.36900002 25838.70673806  1720.85795027
0.37000002 25438.15026377  1557.19644216
0.37100002 25046.53755153  1397.59686158
0.37200002 24664.70098208  1379.99008532
0.37300002 24290.78191647  2180.34068811
0.37400002 23925.68988303  1884.14816754
0.37500002 23569.48188451  1462.25072538
0.37600002 23221.74656183  1838.46576239
0.37700002 22881.74351986  1556.87390284
0.37800002 22550.02584314  1666.55973889
0.37900002 22226.84842761  1520.31650447
0.38000002 21911.48811671  1377.46576571
0.38100002 21602.90960561  1980.55484647
0.38200002 21303.11072379  1346.25014597
0.38300002 21010.19088535  1331.20575756
0.38400002 20725.73484014  1436.29349247
0.38500002 20447.20865916  1539.06146869
0.38600002 20177.36826010  1639.81479618
0.38700002 19913.59629137  1506.66276678
0.38800002 19657.23146295  1605.79931428
0.38900002 19407.10944371  1135.31595624
0.39000002 19165.07219175  1348.83784476
0.39100002 18928.38130075  1224.28776053
0.39200002 18698.98153523  1212.53551510
0.39300002 18475.50625114  1637.85370676
0.39400002 18259.88225800  1081.89807504
0.39500002 18049.18832789  1393.75838871
0.39600002 17844.75025451  1487.71689920
0.39700002 17646.22191440  1053.47949820
0.39800002 17453.79928584  1357.99291777
0.39900002 17266.95670260  1346.82268661
0.40000002 17085.78299061  1233.25187469
0.40100002 16910.46401818  1223.64123433
0.40200002 16740.72861854  1416.76793011
0.40300002 16575.79630600  1205.39196448
0.40400002 16416.61041843  1495.96369526
0.40500002 16262.57449625  1089.42991712
0.40600002 16113.60003735  1278.85592756
0.40700002 15969.55445071  1075.07045656
0.40800002 15830.49563282  1262.56123902
0.40900002 15695.99677139  1158.36461661
0.41000002 15566.64276147  1247.58864323
0.41100002 15441.45921823  1526.85155984
0.41200002 15320.65836231  1518.58372883
0.41300002 15204.80427005  1510.74942386
0.41400002 15092.86126630  1033.48372418
0.41500002 14985.33365747  1309.11881035
0.41600002 14881.32123297  1396.24003084
0.41700002 14781.85665274  1482.91592967
0.41800002 14687.09710941  1292.31773589
0.41900002 14594.37883878  1103.33509249
0.42000002 14506.75857474  1374.15277111
0.42100002 14422.80711440  1369.44560040
0.42200002 14342.65412397  1183.05388147
0.42300002 14265.31845602  1270.18401551
0.42400002 14191.46742161  1085.64730920
0.42500002 14121.34250929  1173.05997783
0.42600002 14053.68619489  1080.16637212
0.42700002 13990.41093459  988.00286702
0.42800002 13929.41940267  1075.62981724
0.42900002 13872.47609536  1252.68465077
0.43000002 13817.96149913  1071.99750390
0.43100002 13765.42720980  891.99972546
0.43200002 13716.90276043  1158.18673946
0.43300002 13670.76454399  1245.95353958
0.43400002 13627.39308806  978.10618525
0.43500002 13586.37985997  1332.82392742
0.43600002 13548.36110564  1243.33315758
0.43700002 13512.17514726  887.74994924
0.43800002 13478.34103582  1331.32319890
0.43900002 13447.63372197  887.54386771
0.44000002 13418.62939995  976.40661456
0.44100002 13392.19765203  887.90274641
0.44200002 13367.67290943  888.28190693
0.44300002 13345.32752439  1155.43851182
0.44400002 13325.42333175  1067.36645946
0.44500002 13306.22082097  1157.24207964
0.44600002 13289.22253685  1247.45937865
0.44700002 13275.20896188  1070.51290142
0.44800002 13261.40607640  1339.73361236
0.44900002 13250.95232888  1431.10291934
0.45000002 13241.59409823  1433.27021312
0.45100002 13233.54661747  986.95795351
0.45200002 13227.25606608  898.79209229
0.45300002 13222.09877799  990.46746640
0.45400002 13218.88779198  992.40804802
0.45500002 13217.00134318  1175.25581513
0.45600002 13216.35107942  1540.16754603
0.45700002 13217.13061346  1089.62029941
0.45800002 13218.66685314  1183.13683276
0.45900002 13221.63036292  1277.20955359
0.46000002 13226.51041335  1280.45853380
0.46100002 13231.21070604  1191.99982900
0.46200002 13238.14972479  1011.32849616
0.46300002 13245.90486030  1198.48952856
0.46400002 13253.92936960  1386.69242602
0.46500002 13263.54334012  927.12172342
0.46600002 13273.79228135  1208.77795139
0.46700002 13284.54244204  1025.83241599
0.46800002 13297.18621727  1216.09422314
0.46900002 13309.45568853  938.31667051
0.47000002 13322.92978812  1506.02405463
0.47100002 13337.08654681  1133.11892672
0.47200002 13352.09660524  947.33129904
0.47300002 13367.84926963  1235.59036656
0.47400002 13383.47478883  1430.35893585
0.47500002 13400.02755518  1148.11441535
0.47600002 13417.74804817  1248.05189386
0.47700002 13434.93714017  1155.94204633
