# SAXS profile: number of points = 501, q_min = 0, q_max = 0.5, delta_q = 0.001
#    q    intensity    error
0.00000000 1664650.74656090 274.66737318
0.00100000 1664564.34396191 749.05397257
0.00200000 1664305.09417426 1273.19343736
0.00300000 1663873.23348814 1197.98877079
0.00400000 1663268.61207985 1621.68695840
0.00500000 1662491.89699511 1945.11559647
0.00600000 1661542.91464459 1919.08214454
0.00700000 1660422.44914089 1992.50702178
0.00800000 1659130.24596096 3583.72148258
0.00900000 1657667.70227143 3232.45215761
0.01000000 1656034.24901480 3552.19361752
0.01100000 1654231.47193391 3870.90181286
0.01200000 1652259.19067131 4188.47723199
0.01300000 1650118.80616351 4851.34950409
0.01400000 1647810.50097261 4078.33117070
0.01500000 1645335.83472676 5528.32865085
0.01600000 1642694.32708058 4188.87072131
0.01700000 1639888.40247564 4870.46877384
0.01800000 1636918.41378922 6531.30476491
0.01900000 1633785.30758228 6861.89860147
0.02000000 1630490.00567334 5649.64812522
0.02100000 1627034.96397262 5906.13718700
0.02200000 1623419.16072558 7841.11490254
0.02300000 1619645.49295195 8163.01365605
0.02400000 1615714.63226377 6058.93014726
0.02500000 1611628.77659134 6285.35251576
0.02600000 1607388.70414001 7160.91700447
0.02700000 1602995.92513254 7405.84151331
0.02800000 1598451.21792315 9734.56836358
0.02900000 1593757.73778640 8606.29217920
0.03000000 1588916.08289050 13299.22822510
0.03100000 1583928.13081028 11404.28306658
0.03200000 1578794.86704134 8596.53844698
0.03300000 1573520.44036898 12037.43192375
0.03400000 1568103.59518705 9879.05310550
0.03500000 1562548.11325671 10125.31224147
0.03600000 1556854.59932365 11232.70645323
0.03700000 1551026.36302415 10609.02081373
0.03800000 1545064.81714428 9942.49255846
0.03900000 1538972.27170337 12003.98427519
0.04000000 1532749.13860200 12254.32993098
0.04100000 1526399.27061502 10577.94743583
0.04200000 1519924.43308728 9803.51304823
0.04300000 1513326.13505968 9987.95295501
0.04400000 1506607.14850467 11186.55859717
0.04500000 1499770.35144114 11383.25749636
0.04600000 1492815.92145219 10524.35273548
0.04700000 1485747.86626506 10697.38513462
0.04800000 1478567.93908282 11954.22234369
0.04900000 1471278.72868969 13241.50917457
0.05000000 1463882.19018086 12318.56920400
0.05100000 1456381.99081864 12495.75806333
0.05200000 1448777.20684924 12669.55726431
0.05300000 1441073.87923648 12839.96886257
0.05400000 1433272.27630372 15371.84588021
0.05500000 1425376.43433093 15565.11138900
0.05600000 1417386.79767352 16966.12075986
0.05700000 1409308.92397464 13487.08703199
0.05800000 1401141.85917963 16120.13784255
0.05900000 1392889.47109618 15043.20699044
0.06000000 1384555.41746699 12668.68266169
0.06100000 1376141.23611283 12798.11409392
0.06200000 1367649.48475770 16801.57470561
0.06300000 1359083.87344213 14351.92637458
0.06400000 1350443.45854685 22383.60137222
0.06500000 1341734.88621808 14611.49359441
0.06600000 1332959.24877790 14735.86518471
0.06700000 1324117.71995803 18908.40192589
0.06800000 1315214.37967847 14973.71641355
0.06900000 1306253.17659104 17830.35669527
0.07000000 1297233.43261514 20723.30505647
0.07100000 1288159.65418808 15303.33740853
0.07200000 1279033.81791582 15405.96305852
0.07300000 1269859.13388927 14095.43704662
0.07400000 1260638.59330473 26946.15119470
0.07500000 1251372.95454105 17118.78282052
0.07600000 1242065.21667732 15780.43931768
0.07700000 1232719.54207247 20191.94704592
0.07800000 1223337.14874042 17395.85507089
0.07900000 1213919.09281854 17480.43575648
0.08000000 1204471.67521223 16097.76469437
0.08100000 1194995.12482096 14698.44072492
0.08200000 1185491.08905585 17711.23770160
0.08300000 1175962.57348976 17780.55494564
0.08400000 1166413.36147382 19333.30237391
0.08500000 1156844.62636877 16415.62601881
0.08600000 1147259.05213395 17966.07759995
0.08700000 1137658.82440288 15017.09718729
0.08800000 1128045.88198430 16565.35455491
0.08900000 1118423.61295120 16608.59143243
0.09000000 1108794.08600062 21189.05597884
0.09100000 1099158.74932116 19718.90888924
0.09200000 1089520.27843755 16718.68945818
0.09300000 1079882.37787618 16748.97646793
0.09400000 1070243.92092736 16776.07424897
0.09500000 1060609.27769209 16800.05174829
0.09600000 1050979.98450790 18350.11139211
0.09700000 1041360.73483118 19900.40457820
0.09800000 1031750.67838975 21450.09761226
0.09900000 1022152.97481715 27598.13161780
0.10000000 1012568.21310962 19942.53189503
0.10100000 1002999.52610810 21484.25085968
0.10200000 993449.05823822 18418.54640608
0.10300000 983918.18946673 18418.94937326
0.10400000 974409.55061695 16881.64625864
0.10500000 964925.98460488 24547.71820330
0.10600001 955464.41624737 15335.20460235
0.10700001 946033.23469241 19923.46086017
0.10800001 936628.63625094 21439.43049276
0.10900001 927256.18158420 19889.64603110
0.11000001 917916.19815931 16811.63596060
0.11100001 908609.32646091 22896.95610465
0.11200001 899338.92611053 24390.07282433
0.11300001 890104.90542460 16742.87405930
0.11400001 880910.07174770 18234.83934375
0.11500001 871755.59829811 16685.40293711
0.11600001 862643.00824952 24223.01681234
0.11700001 853573.51055961 22662.37777264
0.11800001 844547.52926173 16582.69151807
0.11900001 835567.09359926 16544.22923253
0.12000001 826633.21386961 18004.07224616
0.12100001 817749.32950140 20950.73880878
0.12200001 808914.27702760 19401.80984855
0.12300001 800130.12679708 17858.90527152
0.12400001 791397.21309229 16322.56828911
0.12500001 782716.78779688 19231.35238236
0.12600001 774091.83774877 14746.45020402
0.12700001 765521.19107441 26456.41361033
0.12800001 757006.22727308 16112.87830690
0.12900001 748548.42677633 18975.70351314
0.13000001 740148.44590075 17452.70117697
0.13100001 731806.36041836 14489.76661930
0.13200001 723524.00890725 14434.30465814
0.13300001 715302.73934249 23004.13718174
0.13400001 707141.36616889 18615.49734204
0.13500001 699042.73631209 15686.51974243
0.13600001 691005.47712956 15620.17954702
0.13700001 683032.35184033 19794.27848970
0.13800001 675121.33432130 21114.42072656
0.13900001 667275.46981454 16815.34263231
0.14000001 659494.19598601 22317.28464466
0.14100001 651777.91212988 26377.45334793
0.14200001 644126.98920063 19343.13439802
0.14300001 636543.40962242 20624.00744455
0.14400001 629023.54877429 15049.38911430
0.14500001 621572.59346948 13612.44043911
0.14600001 614187.89594070 13542.84374437
0.14700001 606872.68699683 16167.08914430
0.14800001 599621.71339401 16081.85511195
0.14900001 592440.01215094 14662.89099254
0.15000001 585326.03862026 15909.16248034
0.15100001 578280.48526563 17140.23439203
0.15200001 571303.51543944 14422.55792783
0.15300001 564395.93290727 15645.05599846
0.15400001 557554.27065651 14259.45114496
0.15500001 550782.73691799 16754.81164775
0.15600001 544077.31218538 14094.32343734
0.15700001 537443.92985871 14011.16391270
0.15800001 530874.99857192 15193.64317625
0.15900001 524376.91796798 16360.56061283
0.16000001 517944.72303103 12508.36565162
0.16100001 511583.72771801 17404.07923851
0.16200001 505289.01907322 17296.04393935
0.16300001 499061.84439843 17187.69073248
0.16400001 492902.55929303 12199.33891843
0.16500001 486810.08342202 18182.35747423
0.16600001 480785.75832990 13248.05219626
0.16700001 474826.30659287 13162.18584020
0.16800001 468933.31311375 14264.95205846
0.16900001 463108.64173746 12990.19801411
0.17000001 457347.90792273 12904.07183137
0.17100001 451653.04850310 12817.91412180
0.17200001 446023.64164635 13889.17685675
0.17300001 440459.09970954 14944.77795890
0.17400001 434958.84289973 14842.97121493
0.17500001 429522.25883498 11339.38816878
0.17600001 424148.12843522 12387.24667599
0.17700001 418838.77651080 13419.59503322
0.17800001 413590.06630610 14436.36194627
0.17900001 408404.61923973 13232.31028838
0.18000001 403280.60298531 14233.78955470
0.18100001 398219.36199879 11958.52800570
0.18200001 393215.87156337 11873.15380272
0.18300001 388273.67828615 12859.62483232
0.18400001 383390.68021044 13830.81944197
0.18500001 378567.99516998 11618.25232064
0.18600001 373802.24531846 13630.69951950
0.18700001 369094.32133526 11449.30638874
0.18800001 364443.67585593 10331.97869866
0.18900001 359851.53597602 13332.50003784
0.19000001 355311.75326493 13233.58687562
0.19100001 350831.81588804 11114.35245249
0.19200001 346403.62799008 14039.73970583
0.19300001 342032.42996695 11943.77301882
0.19400001 337712.55021662 13829.32958486
0.19500001 333447.33130653 11764.02240440
0.19600001 329233.87270931 9728.86139831
0.19700001 325072.42404029 11585.58174030
0.19800001 320962.55153580 11496.87913934
0.19900001 316903.60322629 9507.10854609
0.20000001 312893.56828570 9433.74152966
0.20100001 308934.33900755 10296.78200577
0.20200001 305022.37616071 12074.31133100
0.20300001 301160.18713367 11058.60259423
0.20400001 297344.89963171 13715.03414376
0.20500001 293576.43709393 11792.96603548
0.20600001 289854.35286245 12599.96931451
0.20700001 286178.36183651 12500.27143590
0.20800001 282546.45865373 10629.39827701
0.20900001 278961.19172887 14059.64472775
0.21000001 275417.86304127 13075.46366599
0.21100001 271918.60366347 9511.71320580
0.21200001 268461.57628030 8577.34776765
0.21300001 265045.86007578 12761.95876598
0.21400001 261672.67082912 10126.73283984
0.21500001 258341.31439976 11718.36257519
0.21600001 255049.09500570 10792.40296542
0.21700001 251797.04632041 12350.64570595
0.21800001 248584.02962080 9799.18291096
0.21900001 245408.74447879 8908.33784578
0.22000001 242271.37559802 9637.55577698
0.22100001 239173.03753791 11150.24753724
0.22200001 236111.74075783 11057.11334252
0.22300001 233085.12853374 7831.66068906
0.22400001 230094.40590287 8542.25522308
0.22500001 227141.04595871 9240.09818654
0.22600001 224220.37811710 9161.64508310
0.22700001 221336.13765543 12868.48365183
0.22800001 218484.35682385 12007.90081889
0.22900001 215665.05804615 9672.57831080
0.23000001 212879.79395795 8851.54225138
0.23100001 210127.37356191 8774.91953494
0.23200001 207405.04667197 8698.56806881
0.23300001 204714.88302775 7904.04200752
0.23400001 202056.38299489 7122.48783743
0.23500001 199426.39448835 9177.60310842
0.23600001 196827.96238952 8396.68127267
0.23700001 194258.68375148 6935.03533794
0.23800001 191718.47232963 8935.03982554
0.23900001 189206.76822371 8173.73277388
0.24000001 186723.25541163 8100.05520289
0.24100001 184268.74001782 6688.95557904
0.24200001 181841.00983288 9942.15768290
0.24300001 179440.82401966 12478.31549259
0.24400001 177066.72234282 9110.08329548
0.24500001 174719.04616858 7091.84641946
0.24600001 172397.88993001 8303.54476128
0.24700001 170102.38085678 9491.71330082
0.24800001 167832.00157846 8149.08322215
0.24900001 165585.84944567 8693.25750715
0.25000001 163365.38546103 9226.06058038
0.25100001 161167.80076809 7310.57178870
0.25200001 158996.51266970 6033.91794128
0.25300001 156848.09430031 7171.09521068
0.25400001 154722.95150041 8285.41444484
0.25500001 152620.51307665 5860.62797942
0.25600001 150541.45997993 8124.72297952
0.25700001 148484.25554954 6895.60915397
0.25800001 146450.28029123 6258.55302436
0.25900001 144438.12025941 7886.32173930
0.26000001 142447.61347185 8365.23649694
0.26100001 140478.10604279 6624.94779444
0.26200001 138530.91666821 6011.54941326
0.26300001 136603.93638544 8114.27420524
0.26400001 134698.16227816 6425.10264469
0.26500001 132813.43442119 7948.88442624
0.26600001 130947.92455613 6817.80401463
0.26700001 129103.93710832 8303.96562775
0.26800001 127280.11283908 5135.75279609
0.26900001 125474.88845739 5081.73322300
0.27000001 123690.10917024 5530.80349328
0.27100001 121924.40380865 5471.96750188
0.27200001 120179.34603075 5413.47889814
0.27300001 118452.13653111 6328.89795437
0.27400001 116742.31063429 7704.99286650
0.27500001 115054.07153245 5239.56266555
0.27600001 113382.00820804 6595.43172960
0.27700001 111730.19071239 6522.80884249
0.27800001 110095.59458013 5068.25093636
0.27900001 108480.28739237 5923.02397195
0.28000001 106881.55846009 6757.58685347
0.28100001 105301.35544589 5345.09705541
0.28200001 103739.52958222 5284.49188703
0.28300001 102194.77732811 5224.19726428
0.28400001 100667.31242169 4733.88059069
0.28500001 99157.58770483  5530.01892804
0.28600001 97664.92795990  5886.26548675
0.28700001 96189.35851763  4570.91853311
0.28800001 94730.17797730  4106.55340969
0.28900001 93289.57023584  4869.71579681
0.29000001 91864.21642822  4811.84788428
0.29100001 90456.47040534  3961.99359129
0.29200001 89065.14162921  4305.85447588
0.29300001 87690.32841332  4253.85803269
0.29400001 86331.18876321  4202.17081197
0.29500001 84989.46707745  6037.65202699
0.29600001 83663.19371289  5218.07363888
0.29700001 82353.17987483  4049.30604613
0.29800001 81059.02873693  4362.59713314
0.29900001 79781.45197866  4308.19861079
0.30000001 78518.99555370  4254.15938049
0.30100001 77273.10687563  3500.47190718
0.30200001 76041.39990102  3456.08178911
0.30300001 74826.61563091  5118.14075145
0.30400001 73627.24829730  4042.13612288
0.30500001 72443.00289129  4987.70098519
0.30600001 71273.13946031  4594.97951855
0.30700001 70119.70936754  4211.38994400
0.30800001 68980.99383467  3516.99613717
0.30900001 67857.34873109  3786.44023846
0.31000001 66748.92693329  4670.75638329
0.31100001 65654.59784328  4916.21651926
0.31200001 64575.85090231  3335.01997775
0.31300001 63511.13731450  4187.92459280
0.31400001 62462.43107383  3541.62000957
0.31500001 61427.03083786  3785.13381944
0.31600002 60406.72165350  3446.80770075
0.31700002 59400.52757677  4250.10794935
0.31800002 58408.81338804  3353.83422354
0.31900002 57431.30254519  2756.70265270
0.32000002 56468.41318196  3534.64049049
0.32100002 55518.61614231  4290.47885863
0.32200002 54584.29354559  3437.99189176
0.32300002 53661.92350980  3651.15744849
0.32400002 52754.41879270  3600.48925309
0.32500002 51860.26682766  3043.16060155
0.32600002 50980.22588482  2500.58019806
0.32700002 50113.21317553  2465.57020499
0.32800002 49260.34904982  3646.49751109
0.32900002 48420.12174848  3355.51459606
0.33000002 47594.24797442  3544.58178574
0.33100002 46778.95450410  3261.42886247
0.33200002 45979.95633788  2756.03871340
0.33300002 45192.37442579  3169.79329233
0.33400002 44418.28938586  3571.23063574
0.33500002 43655.86492719  2420.28126618
0.33600002 42907.31858752  2602.75806878
0.33700002 42170.43030748  3207.06137676
0.33800002 41446.95073880  2107.57754488
0.33900002 40734.84126497  2492.97240348
0.34000002 40035.73115125  2457.39329444
0.34100002 39348.53512524  3027.86992128
0.34200002 38674.14871221  2785.69906367
0.34300002 38010.56891172  2353.61453848
0.34400002 37360.30416604  3093.43333145
0.34500002 36720.73542656  2286.96751068
0.34600002 36094.07650382  2066.56644810
0.34700002 35477.11512346  2222.28659658
0.34800002 34873.47277362  2738.43957924
0.34900002 34280.32690419  1979.68897248
0.35000002 33698.46807174  1951.64687081
0.35100002 33128.47270374  1924.10178576
0.35200002 32568.12930623  2241.82728697
0.35300002 32019.37486271  2210.29755146
0.35400002 31481.75335791  1844.04379028
0.35500002 30954.79587289  1818.28479569
0.35600002 30437.52468149  1792.92247628
0.35700002 29931.16890236  2250.22538466
0.35800002 29435.90818732  2219.17322335
0.35900002 28950.41258646  2344.98353057
0.36000002 28475.46462473  2004.53042720
0.36100002 28009.66163557  1673.01716874
0.36200002 27555.08162736  1650.41169225
0.36300002 27109.00585372  2072.21250561
0.36400002 26672.90991802  1606.37607590
0.36500002 26246.09804248  1585.00193586
0.36600002 25829.30351471  1564.09354842
0.36700002 25421.07550638  2104.86515163
0.36800002 25023.67198763  1939.08443417
0.36900002 24634.08600260  2324.22612444
0.37000002 24253.34480533  1349.69870235
0.37100002 23881.36398802  1465.83819102
0.37200002 23519.00722128  1579.06621964
0.37300002 23164.51740441  1299.52948795
0.37400002 22818.59750815  1668.61002183
0.37500002 22481.51808840  1648.34498433
0.37600002 22152.74882035  1503.28560616
0.37700002 21831.61722686  1485.42330648
0.37800002 21518.61757992  1835.00020106
0.37900002 21213.93097591  1451.03294749
0.38000002 20917.05106486  1434.49142998
0.38100002 20626.80547775  1300.10761085
0.38200002 20345.25571455  1753.25249426
0.38300002 20070.35587816  1271.65780868
0.38400002 19803.80481680  1372.40373882
0.38500002 19543.07011930  1810.47010162
0.38600002 19290.83676319  1343.79975259
0.38700002 19044.71402670  1773.44385418
0.38800002 18805.65017333  1536.23363544
0.38900002 18572.83768652  1303.81326736
0.39000002 18347.90506186  1183.71515115
0.39100002 18128.14614919  2025.27658374
0.39200002 17915.60815895  1267.35018121
0.39300002 17708.97127080  1151.26027686
0.39400002 17509.88958253  1348.69930899
0.39500002 17315.60489613  1439.96577138
0.39600002 17127.45446939  1325.92195057
0.39700002 16945.12529597  1416.27363934
0.39800002 16768.71048284  1304.68958093
0.39900002 16597.81687545  1394.21668359
0.40000002 16432.35928373  1284.92839507
0.40100002 16272.65491205  1471.86170653
0.40200002 16118.43091688  1071.79511460
0.40300002 15968.78501342  1161.25010120
0.40400002 15824.83919553  1153.63083201
0.40500002 15685.91259595  1241.85375906
0.40600002 15551.91699652  1803.94469748
0.40700002 15422.54078824  1038.24549506
0.40800002 15298.21477626  1126.25462519
0.40900002 15178.17376239  1026.80350368
0.41000002 15063.10146789  928.64024950
0.41100002 14952.21294526  1108.85616456
0.41200002 14845.46426096  1011.64421000
0.41300002 14743.47705433  1190.24095899
0.41400002 14645.38217604  1367.51262548
0.41500002 14551.51306576  1271.22024166
0.41600002 14461.04746859  1447.26169923
0.41700002 14374.84692773  1261.82412311
0.41800002 14293.39355629  1437.34372413
0.41900002 14213.68706928  895.46232780
0.42000002 14138.94556756  892.87445490
0.42100002 14067.78409036  1335.73616267
0.42200002 14000.27193153  977.14902576
0.42300002 13935.47208248  1063.55527973
0.42400002 13873.86164459  1415.13395480
0.42500002 13815.99251170  1324.26294500
0.42600002 13760.34972409  969.48548575
0.42700002 13709.02413080  1056.14326908
0.42800002 13659.59198940  1054.79374340
0.42900002 13614.36910447  878.12684885
0.43000002 13571.30197099  965.12318540
0.43100002 13530.03447166  1315.11941297
0.43200002 13492.62975696  1139.25024752
0.43300002 13457.49520562  1226.51617116
0.43400002 13424.98475200  1401.56847453
0.43500002 13394.63725981  876.00931830
0.43600002 13367.10304364  876.21364603
0.43700002 13341.34625424  1051.83178853
0.43800002 13317.79340927  1052.37208507
0.43900002 13297.18914334  1404.18324008
0.44000002 13278.07003973  1141.84768718
0.44100002 13261.45910397  879.23478026
0.44200002 13246.57343675  968.25833125
0.44300002 13233.72610813  1057.63944068
0.44400002 13223.16292581  1235.70463398
0.44500002 13213.16252706  883.96061495
0.44600002 13205.24585295  1416.65884224
0.44700002 13200.09563397  1064.45576237
0.44800002 13195.01199440  1155.28932992
0.44900002 13193.08067425  1335.79948157
0.45000002 13192.18829806  1517.16768712
0.45100002 13192.39491298  983.88885924
0.45200002 13194.15510524  1075.85145827
0.45300002 13197.07323892  1078.46487620
0.45400002 13201.68199135  1441.62374178
0.45500002 13207.48326417  993.73108789
0.45600002 13214.34173588  1087.01180271
0.45700002 13222.42405682  1544.24697878
0.45800002 13231.18861628  1184.25759323
0.45900002 13241.32464311  1005.01658804
0.46000002 13253.11031953  1191.38840864
0.46100002 13264.62331783  1378.85765924
0.46200002 13278.19124213  1567.68972330
0.46300002 13292.40053456  1202.69645737
0.46400002 13306.76427978  1206.59090826
0.46500002 13322.55810195  931.24685546
0.46600002 13338.87084098  1121.26553604
0.46700002 13355.58723160  1031.31849490
0.46800002 13373.94873161  1317.20027301
0.46900002 13391.81652701  1227.36004287
0.47000002 13410.71032051  1136.96007486
0.47100002 13430.26685692  1426.29440781
0.47200002 13450.40809744  1240.59844967
0.47300002 13471.20298352  1724.04463955
0.47400002 13491.68439302  1057.41081442
0.47500002 13513.03557924  1350.76310052
0.47600002 13535.31253242  1065.29682336
0.47700002 13556.96410112  1166.44124655
