# SAXS profile: number of points = 501, q_min = 0, q_max = 0.5, delta_q = 0.001
#    q    intensity    error
0.00000000 1682732.95097188 403.85590823
0.00100000 1682645.92178261 807.67006164
0.00200000 1682384.78975910 1287.02440492
0.00300000 1681949.78537418 1211.00388861
0.00400000 1681340.77333547 1387.10619071
0.00500000 1680558.41318857 1512.50263174
0.00600000 1679602.55553618 3350.80723471
0.00700000 1678473.94477654 2014.16881744
0.00800000 1677172.33126837 2717.01929137
0.00900000 1675699.16164638 3518.96838989
0.01000000 1674053.84577888 4419.50234369
0.01100000 1672237.89542175 3612.03401138
0.01200000 1670251.27036147 4234.08715600
0.01300000 1668095.31266320 4203.60037331
0.01400000 1665770.18764330 6371.57125019
0.01500000 1663277.33120132 5987.79865895
0.01600000 1660616.62900193 4658.02985258
0.01700000 1657790.18097041 4923.63705835
0.01800000 1654798.41888287 5659.41084724
0.01900000 1651642.43205148 6936.89852763
0.02000000 1648322.87558926 5192.21729298
0.02100000 1644842.59758221 7056.37506355
0.02200000 1641200.14900283 9625.63931122
0.02300000 1637398.77291960 6484.09943591
0.02400000 1633438.93546707 8575.55480223
0.02500000 1629322.90050103 8260.66748281
0.02600000 1625051.52645977 9214.04257646
0.02700000 1620626.27431511 7487.29373026
0.02800000 1616047.88333939 8435.77033789
0.02900000 1611319.68945896 10151.31450968
0.03000000 1606442.16818478 11204.93463813
0.03100000 1601417.08804256 8455.48261393
0.03200000 1596245.58475316 8691.55760930
0.03300000 1590931.75959567 9736.50281758
0.03400000 1585474.34740936 9988.48884955
0.03500000 1579877.25459505 10237.60508253
0.03600000 1574141.12857407 9610.13203406
0.03700000 1568269.11738140 9833.04782074
0.03800000 1562262.59233028 10967.08390571
0.03900000 1556124.09007057 12137.76846465
0.04000000 1549853.90798567 9531.60197580
0.04100000 1543455.91871444 10696.15001263
0.04200000 1536931.90626722 12887.17463192
0.04300000 1530283.43939145 14139.81963632
0.04400000 1523513.35778925 12340.45877121
0.04500000 1516624.16839204 12557.64869778
0.04600000 1509616.46658575 13835.63555943
0.04700000 1502494.21494588 10817.95885073
0.04800000 1495258.93146576 14287.19975491
0.04900000 1487913.53482909 16739.02804599
0.05000000 1480459.68819055 12458.06885625
0.05100000 1472901.27362440 14935.21961029
0.05200000 1465237.55021931 13978.36688050
0.05300000 1457473.95484629 14166.64750152
0.05400000 1449611.33363116 11959.29406017
0.05500000 1441653.65179083 16953.84773594
0.05600000 1433601.17834953 14708.74877624
0.05700000 1425459.67844306 17362.09969387
0.05800000 1417227.91822815 15050.96119435
0.05900000 1408910.01925638 16484.24799521
0.06000000 1400509.73456006 14096.13113690
0.06100000 1392028.44501518 14240.45165798
0.06200000 1383468.76750732 14381.15851046
0.06300000 1374834.20586024 18477.77259070
0.06400000 1366124.21342692 15983.65404460
0.06500000 1357345.20080162 14781.48992818
0.06600000 1348498.23972621 16262.88953201
0.06700000 1339584.89191760 17762.89649811
0.06800000 1330609.02001688 19280.52560255
0.06900000 1321574.33870700 15264.18432672
0.07000000 1312480.29495453 23762.45685291
0.07100000 1303331.64486207 15483.58066618
0.07200000 1294130.06716245 21256.08734892
0.07300000 1284879.02192771 15688.37359283
0.07400000 1275581.64716664 17220.35304377
0.07500000 1266238.21061653 18765.65116093
0.07600000 1256852.50271673 14516.64708693
0.07700000 1247427.86226835 18973.37867474
0.07800000 1237965.74843392 19070.86324898
0.07900000 1228467.89652194 23586.58471952
0.08000000 1218939.60530983 22215.17534891
0.08100000 1209381.87925168 19338.01715654
0.08200000 1199795.83557306 19418.69650998
0.08300000 1190185.06990927 16495.96584313
0.08400000 1180552.62410311 22578.06999576
0.08500000 1170900.50332709 16615.07892221
0.08600000 1161230.90996137 21215.68972110
0.08700000 1151546.35889201 21280.57771161
0.08800000 1141848.40740337 15243.67695474
0.08900000 1132140.64811371 18340.67936090
0.09000000 1122425.39833958 18385.32888846
0.09100000 1112703.97435276 18426.37868097
0.09200000 1102978.57859257 18463.86227320
0.09300000 1093253.71731501 16956.36595237
0.09400000 1083527.63830063 15440.26957144
0.09500000 1073805.13784856 18555.35365417
0.09600000 1064087.55995222 20127.21714263
0.09700000 1054379.83190653 18599.26110923
0.09800000 1044680.40560077 17064.85522784
0.09900000 1034993.77038221 26392.34238578
0.10000000 1025319.52820552 21747.02821594
0.10100000 1015660.88399451 17093.57348157
0.10200000 1006020.31854496 18651.61758313
0.10300000 996399.02402260 20206.97315773
0.10400000 986799.30821969 20204.71678633
0.10500000 977225.14438913 18645.45663220
0.10600001 967672.61070235 17084.26074583
0.10700001 958150.00239363 26387.45230765
0.10800001 948654.03596597 20163.64248339
0.10900001 939189.95888667 15496.63505099
0.11000001 929758.01348811 23220.70747985
0.11100001 920359.17505934 20100.64532950
0.11200001 910996.80031404 20073.81543994
0.11300001 901670.11570436 20044.12761580
0.11400001 892382.97677725 18472.32848905
0.11500001 883135.90369147 19976.53508216
0.11600001 873930.72318906 21472.47887993
0.11700001 864768.69074953 16837.04720183
0.11800001 855650.09998981 19855.36150542
0.11900001 846576.85150187 25905.25287614
0.12000001 837550.28381981 21282.15371436
0.12100001 828573.24835766 25776.91497071
0.12200001 819645.23767257 16634.70088225
0.12300001 810768.56891842 18096.35531086
0.12400001 801942.77403360 18043.71326593
0.12500001 793169.65092465 17989.08853063
0.12600001 784451.98503512 22415.71652868
0.12700001 775788.56689672 23832.22589819
0.12800001 767180.82587163 16329.44464827
0.12900001 758630.71818018 22189.94955263
0.13000001 750138.31874843 16214.24052400
0.13100001 741703.95700294 24965.75636955
0.13200001 733329.13401629 20481.88367860
0.13300001 725015.81553938 16030.10043728
0.13400001 716762.30974316 15965.88120225
0.13500001 708572.07173877 23127.79351199
0.13600001 700443.11043297 20151.74923733
0.13700001 692378.37664274 20065.12630124
0.13800001 684375.75796539 22830.77636233
0.13900001 676439.28815484 17046.27086537
0.14000001 668566.85726742 18382.24660749
0.14100001 660759.94298646 18296.44368421
0.14200001 653018.54753678 15407.97335585
0.14300001 645344.78167702 20909.17191257
0.14400001 637734.61934200 18031.94721246
0.14500001 630194.05031354 19321.75049406
0.14600001 622719.76073747 16477.16564641
0.14700001 615315.12778264 16391.99577745
0.14800001 607975.32079567 13588.24906086
0.14900001 600705.16749241 17570.62697815
0.15000001 593502.77001501 18819.97372516
0.15100001 586368.94928866 16043.05520953
0.15200001 579304.40901634 14624.54049571
0.15300001 572309.36602696 18508.48577071
0.15400001 565380.74072969 14459.61312653
0.15500001 558522.44450751 13069.42581826
0.15600001 551730.57703086 19489.88355344
0.15700001 545011.25080312 16791.79742976
0.15800001 538356.81015641 12839.81052825
0.15900001 531773.38104486 28077.63584445
0.16000001 525256.19176983 16490.41891900
0.16100001 518810.39606817 18910.63982935
0.16200001 512431.70442017 25057.91152903
0.16300001 506120.73175170 13695.62764774
0.16400001 499878.24296923 12371.98709756
0.16500001 493702.86494229 14751.84230093
0.16600001 487596.05344073 14657.13805844
0.16700001 481554.63137010 16989.24819688
0.16800001 475579.86997811 14467.14032782
0.16900001 469673.90706998 11976.68519580
0.17000001 463832.70970618 14276.77147890
0.17100001 458057.51075655 12999.67276913
0.17200001 452348.37489271 14086.12905935
0.17300001 446704.41497960 12824.88435971
0.17400001 441125.34768106 12737.49501583
0.17500001 435610.38282249 12650.12611460
0.17600001 430158.05835214 11420.69698864
0.17700001 424771.32060446 15877.95271412
0.17800001 419446.03559293 12388.33924636
0.17900001 414183.86624025 11182.96491670
0.18000001 408984.11337901 13324.70304328
0.18100001 403847.18260544 12127.53146650
0.18200001 398768.87499706 15324.68859004
0.18300001 393752.26531303 11954.31933962
0.18400001 388795.22323656 14025.78834085
0.18500001 383899.11630551 11781.86443602
0.18600001 379060.69991500 12759.18376193
0.18700001 374280.31303667 13721.11692418
0.18800001 369557.85517452 12572.35882703
0.18900001 364894.42979688 12479.39008867
0.19000001 360283.78607724 10322.13095882
0.19100001 355733.63669936 11269.64214313
0.19200001 351235.82876540 11185.10549555
0.19300001 346795.51835408 14128.45008535
0.19400001 342407.10244768 12018.48986383
0.19500001 338073.53139070 11927.23475109
0.19600001 333792.79801801 10849.93541230
0.19700001 329564.32344195 10766.86695566
0.19800001 325388.02243473 9712.83292869
0.19900001 321263.48864766 10601.69562641
0.20000001 317187.88989120 9563.21533219
0.20100001 313164.06284347 14233.30732893
0.20200001 309187.85935127 11297.72491467
0.20300001 305262.24770529 9341.02522128
0.20400001 301383.77764484 9267.55160062
0.20500001 297552.67957836 11033.25388027
0.20600001 293768.80830532 13682.28289355
0.20700001 290031.47206765 10858.77882750
0.20800001 286338.51534337 9874.38416838
0.20900001 282692.87945045 10685.79134836
0.21000001 279089.98472747 14133.11749470
0.21100001 275531.56842013 10514.28514796
0.21200001 272015.95048892 13036.36504347
0.21300001 268542.35970571 9482.23116949
0.21400001 265111.77048713 12824.78250363
0.21500001 261723.46665381 9327.82479254
0.21600001 258374.92073366 10933.13528775
0.21700001 255066.84267386 10842.89199471
0.21800001 251798.90394340 9925.91326275
0.21900001 248569.06526331 10663.61340399
0.22000001 245377.41876376 8947.68799829
0.22100001 242225.67770995 8872.72699405
0.22200001 239111.23616141 10397.75259613
0.22300001 236032.36459127 7930.68782527
0.22400001 232989.33277760 11795.08552961
0.22500001 229985.05733172 9355.79257466
0.22600001 227013.70283957 9275.78033666
0.22700001 224079.15850346 8429.85834154
0.22800001 221177.61645966 11396.17722701
0.22900001 218309.28356380 9038.00476696
0.23000001 215475.26125138 10452.70541763
0.23100001 212674.88092545 8881.30344747
0.23200001 209905.17701208 8069.80491188
0.23300001 207168.21419736 7998.76512846
0.23400001 204463.15328564 10090.25709187
0.23500001 201787.30203981 7857.59791306
0.23600001 199143.65081145 9203.42425755
0.23700001 196529.30432300 7717.70614580
0.23800001 193945.00983149 7648.22182446
0.23900001 191389.42477304 8268.02354127
0.24000001 188862.75009784 9558.34423456
0.24100001 186365.52244431 7441.57566320
0.24200001 183895.56552785 9384.19115278
0.24300001 181453.59457738 10625.92300109
0.24400001 179038.49691447 8553.56459470
0.24500001 176650.11655665 11081.26233579
0.24600001 174288.77172665 7748.87915753
0.24700001 171953.69503980 7676.01330970
0.24800001 169644.19391497 6969.83203672
0.24900001 167359.31661180 8786.36453778
0.25000001 165100.84639386 8702.46602512
0.25100001 162865.83233911 7387.59450440
0.25200001 160656.94705541 6706.62457212
0.25300001 158472.09772650 6641.56592993
0.25400001 156310.68003036 8370.43731164
0.25500001 154172.52797141 6512.24788962
0.25600001 152058.43389684 7620.40877528
0.25700001 149966.40985170 6964.44040302
0.25800001 147898.17038629 7469.59744878
0.25900001 145852.36851777 8532.36396200
0.26000001 143828.56471069 7320.15514731
0.26100001 141826.26404728 6131.14968487
0.26200001 139846.55741905 6068.64164635
0.26300001 137887.67622368 7098.45790788
0.26400001 135950.30718659 7025.23245629
0.26500001 134034.54399704 5347.97855854
0.26600001 132138.52463305 5821.36297817
0.26700001 130264.35520184 5236.62732691
0.26800001 128411.01591109 5699.52321092
0.26900001 126576.34285040 5638.97634083
0.27000001 124762.80100913 8114.57296163
0.27100001 122968.54950826 5518.82876310
0.27200001 121195.59308082 5955.55172583
0.27300001 119440.98704450 7363.53719977
0.27400001 117704.00284718 6311.87745139
0.27500001 115989.06344369 6722.72643535
0.27600001 114290.89178010 4748.78677820
0.27700001 112612.96715003 5165.55704764
0.27800001 110952.85372793 5572.05257793
0.27900001 109312.64316570 5509.35747630
0.28000001 107689.13314094 4993.00689439
0.28100001 106084.77823711 6282.34086454
0.28200001 104499.06336500 5323.18253976
0.28300001 102930.95950445 6577.28862364
0.28400001 101380.29131968 4767.40842495
0.28500001 99847.93004217  5568.51932202
0.28600001 98332.88621274  4233.23095183
0.28700001 96835.54651892  4601.62538839
0.28800001 95354.62526843  5373.71016136
0.28900001 93892.98589440  4901.21409568
0.29000001 92446.70465076  4842.35861882
0.29100001 91018.47460867  3986.60937657
0.29200001 89607.06408551  6301.16904476
0.29300001 88212.43345712  3890.16849960
0.29400001 86833.97988339  4610.88455007
0.29500001 85473.21969695  4554.01336103
0.29600001 84128.36049566  4872.29422875
0.29700001 82799.80004263  4071.26636082
0.29800001 81487.65133778  6943.97053747
0.29900001 80192.34633654  4691.25248277
0.30000001 78912.54443359  4631.77201480
0.30100001 77649.89806268  3869.29460364
0.30200001 76401.44893457  3819.69062031
0.30300001 75170.30735631  4798.87264881
0.30400001 73954.94694860  4060.12677969
0.30500001 72754.81970251  4007.33565893
0.30600001 71569.69740282  3625.36319357
0.30700001 70401.17353166  3577.78780826
0.30800001 69247.65506893  4493.48055016
0.30900001 68109.64003146  3800.51809369
0.31000001 66987.12747384  3437.44460906
0.31100001 65878.92079233  3391.44700296
0.31200001 64786.55911916  3954.24782305
0.31300001 63708.60190532  3300.74282099
0.31400001 62646.71443640  3256.06313700
0.31500001 61598.82635783  4087.69831065
0.31600002 60566.04991554  2879.91580984
0.31700002 59547.79732087  3976.60209337
0.31800002 58544.18895769  3641.74144654
0.31900002 57555.15642756  4143.97145900
0.32000002 56580.92804630  3269.24617731
0.32100002 55620.23640290  3223.74905456
0.32200002 54675.00590811  3443.70541018
0.32300002 53742.42204771  3917.82275279
0.32400002 52824.30587893  3347.74054360
0.32500002 51920.23918107  4570.01966912
0.32600002 51030.57185138  3253.96456819
0.32700002 50153.96585354  2961.09028421
0.32800002 49291.91187683  2432.55596631
0.32900002 48442.76891689  2637.70889243
0.33000002 47608.18026556  3545.61939318
0.33100002 46784.40255260  3028.82236468
0.33200002 45977.19493736  3444.84149381
0.33300002 45181.59065168  2716.31735861
0.33400002 44399.73782778  2677.30431780
0.33500002 43629.83559741  2858.62696372
0.33600002 42873.99363193  3250.92072109
0.33700002 42129.85927364  2349.58236296
0.33800002 41399.51995681  2526.19882740
0.33900002 40680.89055942  2697.14317182
0.34000002 39975.26320612  2862.62873376
0.34100002 39281.94782599  2015.16401891
0.34200002 38601.47958320  2581.86008420
0.34300002 37932.02174541  3523.12634657
0.34400002 37276.12144160  2507.75118875
0.34500002 36631.29952265  2471.51389584
0.34600002 35999.47463008  2061.15001756
0.34700002 35377.57247945  2031.38030798
0.34800002 34768.99987351  1820.15722958
0.34900002 34171.30054455  1973.39269991
0.35000002 33585.00668578  1945.07575433
0.35100002 33010.90353415  1917.27336807
0.35200002 32446.48492403  2061.64974972
0.35300002 31893.82318955  1862.91830074
0.35400002 31352.47266341  1669.51924840
0.35500002 30822.05544913  2962.61611009
0.35600002 30301.38591321  2271.69500951
0.35700002 29791.87668807  1919.78862471
0.35800002 29293.71764791  2208.45347808
0.35900002 28805.43894875  2333.24066536
0.36000002 28327.75183920  1840.73740170
0.36100002 27859.59311131  1815.33117312
0.36200002 27402.62044608  2088.90185555
0.36300002 26954.46527076  1618.88526084
0.36400002 26516.28015057  3048.70945472
0.36500002 26087.67901574  1575.43501039
0.36600002 25669.07905369  1554.39115572
0.36700002 25259.20854147  1673.17005304
0.36800002 24860.45722711  1788.83428451
0.36900002 24469.69580437  1358.06818147
0.37000002 24087.80183105  1474.53485894
0.37100002 23714.56774204  1455.60023696
0.37200002 23351.43481325  1959.76925954
0.37300002 22996.28520318  1548.10999321
0.37400002 22649.75304069  1656.26326956
0.37500002 22312.15242570  2139.28927592
0.37600002 21983.16454433  1491.77761665
0.37700002 21661.83405004  1473.87125858
0.37800002 21348.50267601  1335.02867809
0.37900002 21043.91076038  2039.15504928
0.38000002 20747.17732743  1304.27136448
0.38100002 20457.28345156  1172.20239730
0.38200002 20176.13384694  1275.03083886
0.38300002 19901.63119747  1260.96741241
0.38400002 19635.60279613  1700.93417279
0.38500002 19375.48120246  1346.20849772
0.38600002 19123.95374990  1332.17468133
0.38700002 18878.80585044  1538.24517357
0.38800002 18640.68322571  1196.45230952
0.38900002 18409.02368815  1938.47028620
0.39000002 18185.14649226  1173.21478153
0.39100002 17966.75606561  2007.24608275
0.39200002 17755.53218642  1046.68867198
0.39300002 17550.38352138  1555.84157288
0.39400002 17352.72420284  1542.22343659
0.39500002 17160.04287136  1630.89055176
0.39600002 16973.45365253  1212.92305548
0.39700002 16792.86165345  1303.29405467
0.39800002 16618.43233368  1193.53586675
0.39900002 16449.31451355  1381.74248460
0.40000002 16285.73355954  1469.38038003
0.40100002 16128.01586928  1069.77134329
0.40200002 15975.98708766  1255.47300477
0.40300002 15828.48321850  959.20612849
0.40400002 15686.71643244  1238.85848895
0.40500002 15550.09435496  1231.10102841
0.40600002 15418.27343935  1035.41420188
0.40700002 15291.33257411  935.82959788
0.40800002 15169.49059152  1023.71312107
0.40900002 15051.90958021  1295.96947626
0.41000002 14939.35120072  1013.11214968
0.41100002 14831.08355938  1008.21710814
0.41200002 14726.89229654  1368.49653150
0.41300002 14627.61250573  908.37477965
0.41400002 14532.11772983  1176.01168301
0.41500002 14441.02802897  1171.45624922
0.41600002 14353.24741970  1346.69350296
0.41700002 14269.81635729  984.18928080
0.41800002 14191.21355843  1248.68494017
0.41900002 14114.32107584  1067.04272389
0.42000002 14042.38250727  1152.80944656
0.42100002 13974.28962844  973.02983294
0.42200002 13909.64592783  970.82378354
0.42300002 13847.76679602  968.78981096
0.42400002 13789.19908974  1230.68607708
0.42500002 13734.25888882  877.61918458
0.42600002 13681.53211124  1139.19282522
0.42700002 13633.26852813  1137.83264528
0.42800002 13586.84965071  1311.47072468
0.42900002 13544.67274585  1135.72086356
0.43000002 13504.60846334  1134.99487209
0.43100002 13466.29371375  1134.40063620
0.43200002 13431.91789517  1046.88373036
0.43300002 13399.93494434  1046.80296746
0.43400002 13370.40466322  1395.87031299
0.43500002 13343.15073768  959.90630956
0.43600002 13318.59052192  873.03365008
0.43700002 13295.97218641  960.89995545
0.43800002 13275.36749129  1049.01958887
0.43900002 13257.74279722  1050.01327930
0.44000002 13241.69608855  1051.12588532
0.44100002 13228.00322376  964.71832083
0.44200002 13216.12685754  1405.13867408
0.44300002 13206.26503780  1319.30593980
0.44400002 13198.53676659  1057.20284511
0.44500002 13191.51785992  970.76384532
0.44600002 13186.49595726  884.15459584
0.44700002 13184.24917992  1151.77606294
0.44800002 13181.91675487  887.80213552
0.44900002 13183.02732748  1156.81070281
0.45000002 13184.84140951  1159.54093271
0.45100002 13187.77561689  983.54435212
0.45200002 13192.44163276  986.06909657
0.45300002 13198.01067730  898.78456972
0.45400002 13205.34080790  991.39100814
0.45500002 13213.85447290  1174.97599542
0.45600002 13223.33509058  1722.27336050
0.45700002 13234.00581421  1091.01149103
0.45800002 13245.43438040  1185.53266041
0.45900002 13258.01776743  914.80326931
0.46000002 13272.36536062  1009.56251900
0.46100002 13286.43048413  1104.89961143
0.46200002 13302.36383051  1293.38889654
0.46300002 13319.00298323  1112.40318188
0.46400002 13335.77123090  1023.18709618
0.46500002 13353.79975569  1026.77371188
0.46600002 13372.43591899  1311.43485273
0.46700002 13391.23831939  1034.07147203
0.46800002 13411.83131288  1037.87461534
0.46900002 13431.92615884  1609.81642644
0.47000002 13452.89292966  950.44693053
0.47100002 13474.50693874  1240.19367742
0.47200002 13496.65846167  1053.34675957
0.47300002 13519.33069877  1345.71424154
0.47400002 13541.66521441  1157.81243071
0.47500002 13564.93942624  1259.09773722
0.47600002 13589.01470519  1166.75285789
0.47700002 13612.46385916  1268.81781645
