# SAXS profile: number of points = 501, q_min = 0, q_max = 0.5, delta_q = 0.001
#    q    intensity    error
0.00000000 1682732.95097188 252.40994265
0.00100000 1682646.03005157 757.19073151
0.00200000 1682385.22215797 1135.61006092
0.00300000 1681950.76080476 1110.08754168
0.00400000 1681342.51071622 1261.00693095
0.00500000 1680561.11793389 1966.25658581
0.00600000 1679606.45515743 2292.66290463
0.00700000 1678479.24730856 3021.26277072
0.00800000 1677179.24992509 2717.03049959
0.00900000 1675707.94049397 3770.34302728
0.01000000 1674064.65520903 3038.42748040
0.01100000 1672250.97644455 3913.06745525
0.01200000 1670266.84245711 5211.23277695
0.01300000 1668113.54562839 4203.64632038
0.01400000 1665791.32507924 5622.04597137
0.01500000 1663301.61711977 3991.92405884
0.01600000 1660644.22920558 7198.89305542
0.01700000 1657821.30400251 4476.11772160
0.01800000 1654833.29424262 5187.90261089
0.01900000 1651681.24140195 7432.56592169
0.02000000 1648365.85483813 5711.58794538
0.02100000 1644889.95179756 8142.20563055
0.02200000 1641252.09081859 6228.55196763
0.02300000 1637455.46594066 7073.80793485
0.02400000 1633500.53100863 6738.18999766
0.02500000 1629389.78235872 6990.08248556
0.02600000 1625123.71493231 8556.27675047
0.02700000 1620704.10483283 10891.13208330
0.02800000 1616131.43792083 9139.22370056
0.02900000 1611409.17737982 9426.74412049
0.03000000 1606537.83240912 9711.52164331
0.03100000 1601519.05409300 9993.47935737
0.03200000 1596354.13641165 11062.73467486
0.03300000 1591047.10618077 10548.64280028
0.03400000 1585596.61555127 9156.82087731
0.03500000 1580006.59571949 10238.44321305
0.03600000 1574277.74525311 9610.96607893
0.03700000 1568413.19962904 9833.95121647
0.03800000 1562414.30668921 9140.12411713
0.03900000 1556283.66424291 11205.24290146
0.04000000 1550021.47778780 11439.15903615
0.04100000 1543631.64358412 14587.31970823
0.04200000 1537115.97886713 10905.83837602
0.04300000 1530475.95858931 11111.25597512
0.04400000 1523714.62303920 12342.08901981
0.04500000 1516834.28652586 11512.77276967
0.04600000 1509835.62553598 12773.20998582
0.04700000 1502722.40715474 10819.60183471
0.04800000 1495496.61332160 13190.28074322
0.04900000 1488160.66034995 14509.56711380
0.05000000 1480716.46752019 18123.97040641
0.05100000 1473167.82661066 17236.06437427
0.05200000 1465513.96271589 17476.25481980
0.05300000 1457760.43583372 12988.64608878
0.05400000 1449908.16047293 19138.78861076
0.05500000 1441960.74960903 14534.96503410
0.05600000 1433918.91156534 12260.00726599
0.05700000 1425788.01622345 13644.79195218
0.05800000 1417566.98865825 22581.84318373
0.05900000 1409260.02766306 15220.00900962
0.06000000 1400870.78527542 14099.76511252
0.06100000 1392400.58457384 16834.12385418
0.06200000 1383852.23468779 13077.40422908
0.06300000 1375229.14121282 13202.20037292
0.06400000 1366530.65149106 15988.40937017
0.06500000 1357763.27532060 20162.78558168
0.06600000 1348927.99789727 25757.78132502
0.06700000 1340026.43883340 20502.40547364
0.06800000 1331062.62175528 22042.39804805
0.06900000 1322039.99093993 15269.56261026
0.07000000 1312958.04766175 20974.50579360
0.07100000 1303821.57979146 22530.03795405
0.07200000 1294632.32053795 24099.58177580
0.07300000 1285393.80934129 15694.65914744
0.07400000 1276108.90307830 17227.47099891
0.07500000 1266778.17102409 17329.52619189
0.07600000 1257405.01010466 17427.63425707
0.07700000 1247993.18413570 21902.28140855
0.07800000 1238543.79892093 19079.76811715
0.07900000 1229058.86164872 16223.57773471
0.08000000 1219543.54780455 20744.43672130
0.08100000 1209998.82194754 19347.88207071
0.08200000 1200425.96669454 17934.36478399
0.08300000 1190828.20833458 16504.87974212
0.08400000 1181208.94689142 16566.45625776
0.08500000 1171570.03421159 15113.25415082
0.08600000 1161913.83584517 18195.57152364
0.08700000 1152242.42183620 16730.56075069
0.08800000 1142557.98437929 18303.77976937
0.08900000 1132863.59360325 19881.75700158
0.09000000 1123161.80338712 21463.62307099
0.09100000 1113453.79829822 16902.22945225
0.09200000 1103741.94426768 21556.08118440
0.09300000 1094030.63790182 18510.99926317
0.09400000 1084318.07877929 18541.84001855
0.09500000 1074609.05059686 20116.68237271
0.09600000 1064905.06732122 24790.99113261
0.09700000 1055210.88127276 27920.88123112
0.09800000 1045525.08529995 15526.04824670
0.09900000 1035852.08353302 17091.56018198
0.10000000 1026191.22424941 15546.79777850
0.10100000 1016546.29661134 15553.15906965
0.10200000 1006919.36577197 17112.59542621
0.10300000 997311.46668209 20225.47749573
0.10400000 987725.56672608 17112.34624858
0.10500000 978164.83775990 17108.10381735
0.10600001 968625.74448943 20210.37710974
0.10700001 959116.60749625 20198.99670439
0.10800001 949634.13152328 21737.12629355
0.10900001 940183.51620511 21718.24024652
0.11000001 930764.97120983 23245.85625014
0.11100001 921379.43316623 18575.01024702
0.11200001 912030.38753703 30917.83159303
0.11300001 902717.03065513 18523.75434116
0.11400001 893442.94272826 20035.45893404
0.11500001 884209.36650536 24616.38992265
0.11600001 875017.13444051 15356.55143259
0.11700001 865868.00926669 29119.14252300
0.11800001 856762.45687179 16822.53163299
0.11900001 847702.13858626 19836.23097724
0.12000001 838688.45285169 16744.41574993
0.12100001 829724.46008233 16702.35416827
0.12200001 820809.09509936 18172.71422164
0.12300001 811945.08836274 15102.17935508
0.12400001 803132.01562367 16564.59860272
0.12500001 794371.12405802 15013.61495215
0.12600001 785665.91247970 20953.71087324
0.12700001 777014.85247531 17902.42304471
0.12800001 768419.46320546 17842.70077654
0.12900001 759881.25261776 17781.22214932
0.13000001 751401.04525181 16241.53435866
0.13100001 742978.59498423 22066.46531119
0.13200001 734615.66259865 19052.25810763
0.13300001 726314.15458546 17518.69823449
0.13400001 718072.40354727 17449.16022885
0.13500001 709893.49445129 14481.82796960
0.13600001 701776.00822145 20190.09670851
0.13700001 693722.48949463 17232.06745159
0.13800001 685731.15249211 18586.74376477
0.13900001 677805.63657884 24197.66236698
0.14000001 669944.29331757 18420.11921347
0.14100001 662148.15401481 14103.75634569
0.14200001 654417.38487262 16844.70428111
0.14300001 646754.16079961 13969.89053220
0.14400001 639154.62734098 16681.93656048
0.14500001 631624.12651619 23515.36733947
0.14600001 624160.04017182 19267.82134905
0.14700001 616765.42347039 17799.85096109
0.14800001 609435.55089645 17707.15076670
0.14900001 602175.06885175 13548.93968841
0.15000001 594982.20860429 20214.52149111
0.15100001 587857.89320223 17424.10877667
0.15200001 580802.51237246 14662.36011672
0.15300001 573816.56898938 14580.67970607
0.15400001 566896.91800548 14498.38936218
0.15500001 560047.40330324 19657.66478365
0.15600001 553264.19773633 14332.30971877
0.15700001 546553.25788777 18134.63795261
0.15800001 539907.16910711 14164.46525007
0.15900001 533331.85427658 16639.95463884
0.16000001 526822.68759277 13995.04535650
0.16100001 520384.71328234 12645.34912968
0.16200001 514013.66324701 12567.63465966
0.16300001 507710.21528721 17485.54063995
0.16400001 501474.98366387 13652.65707479
0.16500001 495306.75544311 13566.45267208
0.16600001 489206.84899404 17156.48500423
0.16700001 483172.21188166 18263.91047145
0.16800001 477204.15913627 15726.26380687
0.16900001 471304.54210130 15623.74630838
0.17000001 465469.61943790 16715.01482329
0.17100001 459700.37391605 14232.32424851
0.17200001 453997.05410248 16493.71375442
0.17300001 448358.79633382 16383.03119172
0.17400001 442785.29790287 11623.11461886
0.17500001 437275.57311325 13852.89081047
0.17600001 431828.34077697 13758.05158693
0.17700001 426446.49096026 13663.34621569
0.17800001 421125.96556220 14699.40252223
0.17900001 415868.39373006 16842.67074161
0.18000001 410672.83636376 14494.69844412
0.18100001 405540.11168572 14392.61924358
0.18200001 400465.71626971 12092.06287397
0.18300001 395452.84308533 14188.84868017
0.18400001 390499.37593375 11919.99401349
0.18500001 385606.80864018 12910.11656317
0.18600001 380771.36874727 11748.70113775
0.18700001 375993.95829528 14844.24217481
0.18800001 371274.28326823 12630.75171354
0.18900001 366613.52552689 10448.48597118
0.19000001 362005.20495109 13482.88449545
0.19100001 357457.19735750 13383.19810142
0.19200001 352961.44433527 13283.70458523
0.19300001 348522.71647249 12170.41383430
0.19400001 344136.08063405 14092.37316788
0.19500001 339803.74300038 13986.32272282
0.19600001 335524.32938191 11897.69328212
0.19700001 331296.72232153 14759.26967691
0.19800001 327121.28592142 11717.48501546
0.19900001 322997.18331731 14534.87393620
0.20000001 318922.14029758 11538.60358129
0.20100001 314898.38552789 13357.99014542
0.20200001 310922.22572484 10414.34044287
0.20300001 306996.40620286 11272.90856858
0.20400001 303117.53434552 12117.12400819
0.20500001 299285.85316587 10172.72662994
0.20600001 295501.09291843 11927.90217946
0.20700001 291762.77277030 10013.29883480
0.20800001 288068.57216228 11740.23521344
0.20900001 284421.78801633 12543.00144444
0.21000001 280817.15095967 14220.58119684
0.21100001 277256.99864289 12343.48216310
0.21200001 273739.42209830 9620.57244445
0.21300001 270263.57105428 9543.00714508
0.21400001 266830.62198677 10326.34555908
0.21500001 263439.80572679 11096.08514181
0.21600001 260088.51277725 8465.88149115
0.21700001 256777.55303267 12594.93957174
0.21800001 253506.41831256 11658.76072943
0.21900001 250273.26769370 11562.62551415
0.22000001 247078.27655679 9009.70978065
0.22100001 243922.78667073 12183.94377030
0.22200001 240804.45613495 9665.89132630
0.22300001 237721.54792063 9584.93326539
0.22400001 234674.43568291 9504.31509458
0.22500001 231665.66161976 9424.15956033
0.22600001 228689.61185788 8565.56981719
0.22700001 225750.46267636 10808.93266409
0.22800001 222843.97620049 9185.62913337
0.22900001 219970.52925902 10624.57706566
0.23000001 217131.32352050 8275.96078737
0.23100001 214325.55526553 10441.94154636
0.23200001 211550.19212083 8872.41547716
0.23300001 208807.43005871 9527.88348419
0.23400001 206096.39337132 8717.87785192
0.23500001 203414.37546513 9361.13000165
0.23600001 200764.50193321 7850.89621942
0.23700001 198143.75283157 7781.10554173
0.23800001 195552.82862211 7711.62616146
0.23900001 192990.49890841 12505.78492078
0.24000001 190456.97400849 7573.52192968
0.24100001 187952.69120747 9551.75621897
0.24200001 185475.65473103 8788.76431516
0.24300001 183026.13731062 8038.50833093
0.24400001 180603.58673201 7964.61855164
0.24500001 178207.52696800 8548.61547304
0.24600001 175838.34595094 7166.29212823
0.24700001 173495.25749125 7744.82866079
0.24800001 171177.79528155 8950.88733871
0.24900001 168884.80367814 9499.77065631
0.25000001 166617.99897746 6273.16795827
0.25100001 164374.44162003 8077.36044334
0.25200001 162156.98371828 9846.17251719
0.25300001 159963.44058785 6704.06811221
0.25400001 157793.09004287 7242.70317563
0.25500001 155645.93460644 6574.48458883
0.25600001 153522.68255727 5918.29969259
0.25700001 151421.61477141 8204.02347647
0.25800001 149343.96283644 6962.41587685
0.25900001 147288.59155996 8616.38301394
0.26000001 145255.28185471 9098.79128589
0.26100001 143243.24246878 7881.24357354
0.26200001 141253.89315403 8915.94615776
0.26300001 139285.01430196 6618.82419282
0.26400001 137337.70084762 7096.92602711
0.26500001 135411.81258278 7564.10420880
0.26600001 133505.68456090 7485.66408755
0.26700001 131621.14935063 6878.52159056
0.26800001 129757.38672024 6282.85296230
0.26900001 127912.23171781 6216.53475566
0.27000001 126088.17987062 8713.32408229
0.27100001 124283.34962724 7099.06526666
0.27200001 122499.61054655 5517.99521820
0.27300001 120734.27792801 6947.05068074
0.27400001 118986.44652188 4908.19115131
0.27500001 117260.51298938 6796.41965451
0.27600001 115551.22022816 6241.49945601
0.27700001 113862.36211026 6172.47894212
0.27800001 112191.03545140 5164.71456144
0.27900001 110539.55074092 6499.72589118
0.28000001 108904.82015117 5049.37222529
0.28100001 107289.08625526 5445.99427607
0.28200001 105691.97114337 4486.62438739
0.28300001 104112.29775804 6209.25773217
0.28400001 102550.22331329 6576.03338121
0.28500001 101006.24855763 4766.48509504
0.28600001 99479.70929309  5139.12202533
0.28700001 97970.60920235  5078.79662144
0.28800001 96478.00230141  5437.01807705
0.28900001 95004.64387223  4545.97242446
0.29000001 93546.65885646  4899.97422284
0.29100001 92106.64582233  4034.27127798
0.29200001 90683.37244913  4384.08784858
0.29300001 89276.89598865  4330.82242941
0.29400001 87886.53169086  5444.57089598
0.29500001 86513.87251733  5761.82418240
0.29600001 85157.06760558  5690.62131212
0.29700001 83816.61999360  5619.90463661
0.29800001 82492.52876107  5179.70612611
0.29900001 81185.33039922  5114.67605727
0.30000001 79893.43731739  3607.18886564
0.30100001 78618.79880294  3917.57492981
0.30200001 77358.38754069  3515.93888017
0.30300001 76115.27058074  4165.02780336
0.30400001 74887.83713405  4453.95432441
0.30500001 73675.73542018  5410.74626541
0.30600001 72478.57764091  3671.40252421
0.30700001 71298.11325650  3623.37028724
0.30800001 70132.63071598  3575.71234634
0.30900001 68982.63151492  3528.46176904
0.31000001 67848.19304794  3481.63019109
0.31100001 66728.09178355  3747.44981199
0.31200001 65623.72971852  3389.13768177
0.31300001 64533.93876031  4863.27785523
0.31400001 63460.24135609  3298.34620065
0.31500001 62400.41457381  3549.33574901
0.31600002 61355.83386447  4084.45805375
0.31700002 60325.78793061  3453.04826464
0.31800002 59310.43570013  3973.20627568
0.31900002 58309.83203125  3358.64648403
0.32000002 57323.82330064  2760.14222262
0.32100002 56351.45424624  4082.66305345
0.32200002 55394.66107421  3489.03289297
0.32300002 54450.45031334  4763.32561896
0.32400002 53520.95935128  3652.80564869
0.32500002 52605.44319665  3344.12818236
0.32600002 51704.33999170  3043.31759602
0.32700002 50816.34892458  4000.26317677
0.32800002 49943.00162525  2711.15597161
0.32900002 49082.59573517  3158.46518512
0.33000002 48236.74335912  3113.44074755
0.33100002 47401.88415499  2832.73673124
0.33200002 46583.55951000  2559.53379848
0.33300002 45776.96949360  3210.79679233
0.33400002 44984.11551877  2712.54229424
0.33500002 44203.39061611  3118.99138958
0.33600002 43436.65700143  3074.01236157
0.33700002 42681.82960978  3678.74706828
0.33800002 41940.91121479  2772.50406715
0.33900002 41211.60062509  3152.68759712
0.34000002 40495.48347096  2278.47848540
0.34100002 39791.67552318  2857.83827142
0.34200002 39100.84209662  2414.08610537
0.34300002 38421.15275536  2577.29104889
0.34400002 37755.08002970  3516.88587133
0.34500002 37100.09835452  2310.59423495
0.34600002 36458.11993438  2466.93880220
0.34700002 35826.32616735  2057.14774596
0.34800002 35207.86919695  2764.69805963
0.34900002 34600.38456685  2179.82433095
0.35000002 34004.47951171  2148.40311730
0.35100002 33420.66915782  2470.45598115
0.35200002 32846.84765106  2434.93693170
0.35300002 32284.73528531  1885.75147733
0.35400002 31734.03328921  2027.80482322
0.35500002 31194.40593267  1832.35949127
0.35600002 30664.61697265  1970.50837999
0.35700002 30146.13364853  2104.50168968
0.35800002 29638.86609195  1596.05301465
0.35900002 29141.88294592  1573.66175362
0.36000002 28655.49007127  2482.71177737
0.36100002 28178.66705312  1530.10169346
0.36200002 27713.09023182  1961.67118498
0.36300002 27256.57487546  1785.85087043
0.36400002 26810.11625395  3082.49326231
0.36500002 26373.22462493  1737.46812059
0.36600002 25946.53053241  2142.53486020
0.36700002 25528.76872317  1550.10691030
0.36800002 25122.04091008  2085.75754536
0.36900002 24723.54639871  1783.80395716
0.37000002 24333.93756556  1354.18368967
0.37100002 23953.20342900  1737.56545905
0.37200002 23582.58311165  1319.44558760
0.37300002 23220.01817546  1563.17169762
0.37400002 22866.27717157  1286.22815183
0.37500002 22521.54583107  2413.40896558
0.37600002 22185.51079235  1630.96790316
0.37700002 21857.26516035  1239.30699330
0.37800002 21537.24042686  1224.39217627
0.37900002 21226.01491611  1330.87119829
0.38000002 20922.65466965  1434.87572522
0.38100002 20626.27552800  1300.07420812
0.38200002 20338.74856342  1285.30727635
0.38300002 20058.06440911  1386.41347764
0.38400002 19785.87616044  1599.68816336
0.38500002 19519.85996501  1356.23993462
0.38600002 19262.49950902  1118.18814947
0.38700002 19011.43600242  1217.11219054
0.38800002 18767.74976128  1204.60807550
0.38900002 18530.49538875  1192.43743476
0.39000002 18301.19891529  1073.36536723
0.39100002 18077.53073631  1062.95885765
0.39200002 17861.06836399  1052.91002994
0.39300002 17650.81510818  1564.74483347
0.39400002 17448.20779410  1137.18699686
0.39500002 17250.67094608  1332.09687357
0.39600002 17059.35395457  1219.06149135
0.39700002 16874.12369650  1208.86227889
0.39800002 16695.17602075  1498.80949827
0.39900002 16521.60569566  1387.81494419
0.40000002 16353.78374813  1180.41616687
0.40100002 16191.91889008  1074.01003087
0.40200002 16035.74009023  1066.29658782
0.40300002 15884.31439713  1155.10739769
0.40400002 15738.68186469  1338.57495601
0.40500002 15598.28471712  1329.90981799
0.40600002 15462.84654871  1416.01023979
0.40700002 15332.44798341  1032.18044715
0.40800002 15207.07211536  1119.54470218
0.40900002 15086.23586547  1020.58390466
0.41000002 14970.50796928  1015.22504604
0.41100002 14859.10754189  1010.12217856
0.41200002 14751.94604389  1279.43634101
0.41300002 14649.82244655  1182.68022215
0.41400002 14551.54533501  1087.00048803
0.41500002 14457.76968179  992.38135798
0.41600002 14367.37514218  1437.88697236
0.41700002 14281.47133625  1164.08278378
0.41800002 14200.45439676  1070.99832135
0.41900002 14121.33548730  1512.39510235
0.42000002 14047.26334686  887.08472239
0.42100002 13977.06254379  1150.17253123
0.42200002 13910.40401065  970.87669393
0.42300002 13846.61990309  880.64506757
0.42400002 13786.28722260  878.87585209
0.42500002 13729.65754885  965.05767484
0.42600002 13675.35957575  1051.08818680
0.42700002 13625.53933031  1137.18756640
0.42800002 13577.79748181  961.10444029
0.42900002 13534.25549479  1047.55142494
0.43000002 13492.96746625  959.55242683
0.43100002 13453.54625495  1046.14780636
0.43200002 13418.12844175  958.65823195
0.43300002 13385.13265857  958.50939510
0.43400002 13354.72506738  1219.95419272
0.43500002 13326.64630893  1307.34406486
0.43600002 13301.43973373  871.90941586
0.43700002 13278.18632403  1134.08994768
0.43800002 13256.98392118  1047.56691909
0.43900002 13238.92019709  1048.52252930
0.44000002 13222.46011583  962.13235592
0.44100002 13208.44487440  875.71993667
0.44200002 13196.32413003  1052.27493600
0.44300002 13186.28938813  1053.84829784
0.44400002 13178.48065871  1143.56271335
0.44500002 13171.38487629  1145.51539698
0.44600002 13166.46223164  971.09246792
0.44700002 13164.32272498  1150.03528776
0.44800002 13162.25188355  975.12547701
0.44900002 13163.55957793  888.54031362
0.45000002 13165.71852734  979.72699064
0.45100002 13169.08984940  892.86433410
0.45200002 13174.17079131  984.70344246
0.45300002 13180.28265883  1346.36593741
0.45400002 13188.18534058  990.10306137
0.45500002 13197.32405084  902.69700786
0.45600002 13207.57255809  905.37914177
0.45700002 13218.99936585  1180.58888932
0.45800002 13231.24640584  1002.06849404
0.45900002 13244.69195698  1096.66054601
0.46000002 13259.92109440  1192.00066328
0.46100002 13274.93844152  1011.94860536
0.46200002 13291.89453841  923.12211944
0.46300002 13309.62036512  1389.52443198
0.46400002 13327.49182432  1022.55185869
0.46500002 13346.73787066  1119.52442565
0.46600002 13366.54176656  936.32629513
0.46700002 13386.61445045  1033.71441686
0.46800002 13408.50066008  1603.58971245
0.46900002 13429.94260531  1420.21649782
0.47000002 13452.31367744  950.40600636
0.47100002 13475.26430530  1144.85850964
0.47200002 13498.95491520  1149.30107595
0.47300002 13523.16442006  1057.64673942
0.47400002 13547.05107053  1447.84115179
0.47500002 13571.89348727  1065.93656501
0.47600002 13597.55704652  1070.19577807
0.47700002 13622.64552491  1269.76684956
