# SAXS profile: number of points = 501, q_min = 0, q_max = 0.5, delta_q = 0.001
#    q    intensity    error
0.00000000 1682732.95097187 302.89193117
0.00100000 1682645.88548249 605.75253316
0.00200000 1682384.64535957 1059.90236014
0.00300000 1681949.46696888 1110.08668774
0.00400000 1681340.19952431 1261.00519756
0.00500000 1680557.52326855 1512.50183081
0.00600000 1679601.25546498 1939.93952904
0.00700000 1678472.18475911 2417.00004650
0.00800000 1677170.03901103 3622.68743721
0.00900000 1675696.25267966 2764.89893511
0.01000000 1674050.24409327 3038.40132423
0.01100000 1672233.58695648 3010.02058758
0.01200000 1670246.12879657 3582.67810335
0.01300000 1668089.26107949 4553.88388360
0.01400000 1665763.19751951 5247.15430480
0.01500000 1663269.34888233 5189.40059959
0.01600000 1660607.50743560 4234.54933326
0.01700000 1657779.94202572 6714.00906639
0.01800000 1654786.99703101 6130.98609988
0.01900000 1651629.70911699 6441.35615621
0.02000000 1648308.80042961 5711.39025185
0.02100000 1644827.07573369 5970.72255562
0.02200000 1641183.19555438 8493.12342286
0.02300000 1637380.28143508 7073.48313777
0.02400000 1633418.85352385 7962.91727402
0.02500000 1629301.19707738 8895.98494233
0.02600000 1625028.16546483 9213.91011961
0.02700000 1620601.08993099 8167.82986735
0.02800000 1616020.92262628 8435.62960296
0.02900000 1611290.86205124 9426.05197579
0.03000000 1606411.33252425 8216.79434355
0.03100000 1601384.29558591 13067.29645325
0.03200000 1596210.80733349 11851.86579033
0.03300000 1590894.92402905 8113.56448659
0.03400000 1585435.50697736 12485.30519352
0.03500000 1579836.16503002 11090.45039065
0.03600000 1574097.79092359 9609.86745770
0.03700000 1568223.52765109 9832.76197311
0.03800000 1562214.76339153 9138.95678879
0.03900000 1556073.94623248 9336.44410977
0.04000000 1549801.44792624 11437.53521570
0.04100000 1543401.05853894 10695.76983160
0.04200000 1536874.60060213 11895.40996052
0.04300000 1530223.74046318 13129.32030261
0.04400000 1523451.02979940 11311.62442159
0.04500000 1516559.45586522 11510.68680486
0.04600000 1509549.23690125 17027.71618381
0.04700000 1502424.36402139 11899.20151646
0.04800000 1495186.48582440 17583.39389142
0.04900000 1487838.47353283 13390.54688509
0.05000000 1480381.97741932 13589.90718554
0.05100000 1472821.06252773 13785.60578745
0.05200000 1465154.53643743 13977.57492899
0.05300000 1457388.45189103 14165.81641276
0.05400000 1449523.12719603 19133.70617127
0.05500000 1441562.69888077 15741.86540612
0.05600000 1433507.53758765 15933.43702381
0.05700000 1425363.29989287 13640.72741670
0.05800000 1417128.90774838 12541.59141917
0.05900000 1408808.25366678 20286.83980032
0.06000000 1400405.21634810 16657.82082669
0.06100000 1391921.31599171 14239.35572802
0.06200000 1383358.89412689 14380.01637662
0.06300000 1374721.69202276 15836.79463256
0.06400000 1366009.06756080 17314.16574106
0.06500000 1357227.35640723 17467.51689405
0.06600000 1348377.81092593 17616.55692400
0.06700000 1339461.75505452 21860.01686552
0.06800000 1330483.08334251 20655.75083577
0.06900000 1321445.93514319 19425.25615607
0.07000000 1312349.45109653 15374.17453954
0.07100000 1303198.26624479 18296.90451506
0.07200000 1293994.22656658 17003.08493363
0.07300000 1284740.59658671 19964.86980642
0.07400000 1275440.73197711 15783.57979790
0.07500000 1266094.93405847 14433.48292480
0.07600000 1256706.67327702 14514.96275682
0.07700000 1247279.73354902 21889.76035016
0.07800000 1237815.51107910 17601.73739300
0.07900000 1228315.20835139 23583.65310651
0.08000000 1218784.61622170 29616.46756353
0.08100000 1209224.72881894 16360.81134854
0.08200000 1199636.63948841 17922.57223498
0.08300000 1190023.66924765 16493.72882986
0.08400000 1180389.37377856 18059.95826652
0.08500000 1170735.21505834 16612.73348157
0.08600000 1161063.70291242 21212.63484817
0.08700000 1151377.35252627 15198.18176702
0.08800000 1141677.37151889 16765.53298813
0.08900000 1131967.90307800 18337.88089119
0.09000000 1122250.86397832 18382.47001549
0.09100000 1112527.81413902 18423.46146770
0.09200000 1102801.00361367 21537.70461256
0.09300000 1093074.54184359 16953.58694068
0.09400000 1083347.00704709 16981.46513355
0.09500000 1073623.13550856 17006.19126579
0.09600000 1063904.44042777 17027.79136949
0.09700000 1054195.31726361 17046.33908155
0.09800000 1044494.90083926 17061.82500742
0.09900000 1034807.07634556 15522.10687507
0.10000000 1025131.79418555 17083.82215351
0.10100000 1015472.22112737 20197.74342816
0.10200000 1005830.87168030 17094.09646825
0.10300000 996208.93721594 17094.94616678
0.10400000 986608.57255949 18646.90289862
0.10500000 977033.67116968 18641.80332300
0.10600001 967480.66680150 23292.09814922
0.10700001 957957.79970296 17070.80879402
0.10800001 948461.27780260 17058.07688406
0.10900001 938996.96233683 23240.17591165
0.11000001 929565.01250799 15477.25818677
0.11100001 920165.92615952 15458.78828718
0.11200001 910803.64786307 20069.55932548
0.11300001 901477.13047514 20039.83755395
0.11400001 892190.30682338 18468.34022082
0.11500001 882943.50666067 24581.14838291
0.11600001 873738.78019726 16867.52794603
0.11700001 864577.29626416 16833.32075103
0.11800001 855459.23988275 19850.93259642
0.11900001 846386.72817091 16758.45800713
0.12000001 837360.92271333 18237.72175578
0.12100001 828384.93252999 18191.33397532
0.12200001 819457.91078286 16630.89908284
0.12300001 810582.26784685 19599.88015997
0.12400001 801757.58313473 22549.43308814
0.12500001 792985.80992020 17984.91901645
0.12600001 784269.58099696 14940.33622203
0.12700001 775607.69160327 19359.16889474
0.12800001 767001.68839188 19293.92838081
0.12900001 758453.18213613 16268.82152360
0.13000001 749962.56576362 19157.79464543
0.13100001 741530.08182229 16150.52594339
0.13200001 733157.33995574 17551.78754594
0.13300001 724846.04818196 17483.28750636
0.13400001 716594.81359494 15962.15022537
0.13500001 708406.92875777 20232.10283923
0.13600001 700280.21101720 14390.75901494
0.13700001 692218.17863115 15761.80867065
0.13800001 684218.27316808 17119.14200193
0.13900001 676284.31746120 17042.36560371
0.14000001 668414.75539480 19791.76184063
0.14100001 660610.70089210 14071.00859263
0.14200001 652872.19942715 19605.75307351
0.14300001 645201.79547921 16723.63132763
0.14400001 637594.66665969 15254.45311938
0.14500001 630057.43201226 13798.25841196
0.14600001 622586.69772063 21964.85973176
0.14700001 615185.64068660 19119.97061455
0.14800001 607849.31330542 16302.51935198
0.14900001 600582.74249223 14864.42357800
0.15000001 593384.18394540 20160.22860076
0.15100001 586254.32358948 14703.25912940
0.15200001 579193.86628629 13292.49985850
0.15300001 572202.83452425 13217.88610125
0.15400001 565278.30015357 14456.99320867
0.15500001 558424.19419056 13067.12676074
0.15600001 551636.55539631 14290.14564196
0.15700001 544921.75590578 12914.64622450
0.15800001 538271.65266108 15405.33542627
0.15900001 531692.80972441 17864.87924997
0.16000001 525180.38015379 12683.10677939
0.16100001 518739.42805635 17647.51617551
0.16200001 512365.48513807 15032.80404359
0.16300001 506059.31314748 16183.77759846
0.16400001 499821.71760093 14844.70571356
0.16500001 493651.43672966 18437.88203233
0.16600001 487549.85322513 17098.37415987
0.16700001 481513.40727517 13347.55227987
0.16800001 475544.05693487 14466.05089499
0.16900001 469643.47679308 13173.50014607
0.17000001 463807.57515315 14275.99783732
0.17100001 458037.80366441 11817.37589257
0.17200001 452334.08576896 12911.87708801
0.17300001 446695.82834390 15156.39017146
0.17400001 441122.31776496 15053.29980464
0.17500001 435613.05427633 12650.20369362
0.17600001 430166.53584038 15989.29089235
0.17700001 424785.66439551 12475.95555254
0.17800001 419466.00989656 14641.46176699
0.17900001 414209.84594842 21248.96610082
0.18000001 409016.03898866 15546.70037631
0.18100001 403885.18406449 15436.49246411
0.18200001 398812.77443048 15326.37564535
0.18300001 393802.36943694 11955.84050089
0.18400001 388851.34825480 14027.81305098
0.18500001 383961.30783804 16068.78149214
0.18600001 379129.04408609 12761.48422683
0.18700001 374355.00148061 13723.85500266
0.18800001 369638.89865737 12575.11592645
0.18900001 364981.55945844 17683.35739126
0.19000001 360377.31712668 13422.25381057
0.19100001 355833.52762596 12297.60729582
0.19200001 351341.96016203 14239.89031822
0.19300001 346908.07657820 11104.52805599
0.19400001 342525.94309226 13024.54960154
0.19500001 338198.96050615 10937.35489961
0.19600001 333924.47047347 13814.45599631
0.19700001 329702.50527591 9792.16486945
0.19800001 325532.73633197 11660.58316648
0.19900001 321414.36865216 11570.91781832
0.20000001 317345.34794770 12438.35150066
0.20100001 313327.93083160 13291.37145406
0.20200001 309358.21505669 12245.94552181
0.20300001 305438.87698995 12150.35910094
0.20400001 301566.80204037 11127.81552125
0.20500001 297742.21318355 9200.23482224
0.20600001 293964.74184698 10040.36623237
0.20700001 290233.78755941 9055.29459989
0.20800001 286547.35805408 9881.58610960
0.20900001 282907.92726792 11585.08016926
0.21000001 279311.39540848 12376.28851561
0.21100001 275759.40265885 8769.14941910
0.21200001 272250.00954746 10438.06585950
0.21300001 268782.70250684 9490.71767419
0.21400001 265358.36969593 9413.58861000
0.21500001 261976.24675827 15278.45543327
0.21600001 258633.93662876 9260.38853881
0.21700001 255332.04046002 9184.29392958
0.21800001 252070.20510712 9936.60795513
0.21900001 248846.31993865 8211.92894625
0.22000001 245660.68975419 10586.74792553
0.22100001 242514.91085143 9690.89629584
0.22200001 239406.55793123 9609.77968975
0.22300001 236333.47266037 10323.04657393
0.22400001 233296.28039163 10235.87478620
0.22500001 230297.78774175 8587.80491098
0.22600001 227332.24428383 9288.79594069
0.22700001 224403.36174288 9209.51440144
0.22800001 221507.37849861 9130.53457350
0.22900001 218644.55280773 9051.88491431
0.23000001 215816.13939188 13460.45325044
0.23100001 213021.12543052 10378.38972180
0.23200001 210256.77154589 8083.32196437
0.23300001 207525.16505044 8012.54700155
0.23400001 204825.35363767 8664.11286865
0.23500001 202154.61365830 10734.41049295
0.23600001 199516.03199210 8511.35432734
0.23700001 196906.81042566 7732.53081115
0.23800001 194327.42493389 9056.63006741
0.23900001 191776.68117624 9665.54518846
0.24000001 189254.75119395 8209.87149512
0.24100001 186762.32805456 9491.26196068
0.24200001 184296.83756082 6717.62004685
0.24300001 181859.56509859 7321.66643720
0.24400001 179448.93189242 7913.69827080
0.24500001 177064.84261885 9147.17020239
0.24600001 174707.98517581 6472.93115697
0.24700001 172377.04918321 8336.15449285
0.24800001 170071.55773868 6987.39028024
0.24900001 167790.68977110 6921.36628049
0.25000001 165536.14330622 6855.67969936
0.25100001 163304.87586001 6790.21705950
0.25200001 161099.82257675 7947.86012283
0.25300001 158918.48295516 6660.27393575
0.25400001 156760.73648367 8394.53783586
0.25500001 154626.04520045 7125.16849994
0.25600001 152515.21717180 6467.40809016
0.25700001 150426.42523496 6985.80351843
0.25800001 148361.40162626 9222.14516143
0.25900001 146318.61817126 6277.06901655
0.26000001 144297.59705260 5649.25119191
0.26100001 142298.27747561 6710.78708328
0.26200001 140321.25886791 5535.67392427
0.26300001 138365.03883814 7123.03253643
0.26400001 136430.27210564 8134.65535922
0.26500001 134516.88241662 6977.39102111
0.26600001 132623.13342663 6905.02376860
0.26700001 130751.19685048 8935.53721559
0.26800001 128899.84963911 6241.33101487
0.26900001 127067.29303437 7204.71585599
0.27000001 125255.56303573 8146.62220536
0.27100001 123463.14377438 6044.75580525
0.27200001 121691.84194572 6478.26551255
0.27300001 119938.69318143 6901.27273226
0.27400001 118203.18921954 6338.64632187
0.27500001 116489.52108986 6269.46632176
0.27600001 114792.60821449 5246.59640674
0.27700001 113115.78292338 4716.92837114
0.27800001 111456.68356086 5130.90867056
0.27900001 109817.36823567 4612.32968419
0.28000001 108194.70610420 5472.48849375
0.28100001 106590.95264842 5861.43676355
0.28200001 105005.79326341 5794.74497550
0.28300001 103438.10663564 4847.10990636
0.28400001 101887.90979242 6533.56252468
0.28500001 100355.68896610 6457.88889063
0.28600001 98840.79760770  6808.15446146
0.28700001 97343.47202327  6307.85728567
0.28800001 95862.59073646  4571.20785564
0.28900001 94400.63950982  4517.07081435
0.29000001 92954.07769067  4463.19025158
0.29100001 91525.50037397  4409.69881675
0.29200001 90113.57017377  5148.63907559
0.29300001 88718.30020490  3912.47722424
0.29400001 87339.12653684  4637.70783864
0.29500001 85977.50396317  5344.36189934
0.29600001 84631.73257749  5655.51579721
0.29700001 83302.15842653  4468.32798952
0.29800001 81988.85688639  5515.80060814
0.29900001 80692.37278382  3631.15694717
0.30000001 79411.28956740  5736.67182992
0.30100001 78147.10824449  4602.08342238
0.30200001 76897.19648631  4543.47106948
0.30300001 75664.37315606  4485.38425303
0.30400001 74447.22846514  3746.55694988
0.30500001 73245.39191502  4034.35637767
0.30600001 72058.35902703  3981.94510835
0.30700001 70887.80257221  3930.01996066
0.30800001 69732.18143347  3555.29543871
0.30900001 68592.00586442  4146.38695081
0.31000001 67467.15130314  3462.07703303
0.31100001 66356.55984235  3726.58457718
0.31200001 65261.70586012  3676.84468224
0.31300001 64181.22158831  3325.22924793
0.31400001 63116.86637388  3280.49928510
0.31500001 62066.07665904  3530.31860752
0.31600002 61030.59755934  4643.20808216
0.31700002 60009.47156393  4293.67789370
0.31800002 59002.89550434  3387.94642027
0.31900002 58010.74174795  4176.77360362
0.32000002 57033.48068587  3020.77844756
0.32100002 56069.58866880  3249.79351312
0.32200002 55121.10666573  3204.74129329
0.32300002 54185.13059317  3160.07696583
0.32400002 53263.67265370  2856.26458130
0.32500002 52356.02429652  2816.23068026
0.32600002 51462.81787126  2776.67646973
0.32700002 50582.69724543  3981.87011571
0.32800002 49716.88306476  3434.93961360
0.32900002 48863.96336229  2902.51956116
0.33000002 48025.61042337  2622.91883748
0.33100002 47197.96837582  3290.64251099
0.33200002 46386.72358821  3243.82373413
0.33300002 45587.17472777  3654.26809923
0.33400002 44801.33167049  2476.39372536
0.33500002 44027.21142947  2440.86871724
0.33600002 43267.24961491  3062.02340025
0.33700002 42518.92843428  4095.84857004
0.33800002 41784.28601684  2549.67725349
0.33900002 41061.27140753  2931.77491734
0.34000002 40351.30395418  2063.96929500
0.34100002 39653.59695690  2441.07554427
0.34200002 38968.68289228  2004.93882976
0.34300002 38294.67923978  1976.00554236
0.34400002 37634.26952633  2337.08824827
0.34500002 36984.83172690  4030.97700082
0.34600002 36348.39290974  2837.90091083
0.34700002 35721.79670680  2051.14566405
0.34800002 35108.58738133  1837.93463646
0.34900002 34506.15034947  1992.73027706
0.35000002 33915.03781303  2142.75219051
0.35100002 33336.12842159  2112.17719683
0.35200002 32766.86766235  1735.00572490
0.35300002 32209.33098641  2223.41022330
0.35400002 31663.17693381  1686.06425158
0.35500002 31127.88726550  2327.12096219
0.35600002 30602.25153151  1802.62571184
0.35700002 30087.80045372  1938.85795307
0.35800002 29584.68185733  1911.76223217
0.35900002 29091.39188357  2042.21580696
0.36000002 28608.65375335  1704.07454153
0.36100002 28135.39670058  1527.75211321
0.36200002 27673.48060237  1958.86741722
0.36300002 27220.19809270  1932.08975214
0.36400002 26777.03543287  2345.66841503
0.36500002 26343.26904809  2458.61741672
0.36600002 25919.62126300  1997.62530536
0.36700002 25504.64062369  1407.85622912
0.36800002 25100.79775448  1806.12798798
0.36900002 24704.88470984  1371.12116635
0.37000002 24317.86816672  1353.28942758
0.37100002 23939.59410668  1602.99529732
0.37200002 23571.36662359  1846.34523509
0.37300002 23211.04163570  1692.78134668
0.37400002 22859.43211985  2185.93330001
0.37500002 22516.72938817  1523.93231718
0.37600002 22182.54824531  1630.75011150
0.37700002 21856.11030456  1487.08981557
0.37800002 21537.76862592  1224.42220439
0.37900002 21228.09089921  1210.00123858
0.38000002 20926.23900669  1195.93461589
0.38100002 20631.24938456  1773.25596861
0.38200002 20345.10150144  1636.35659128
0.38300002 20065.48391602  1386.92631398
0.38400002 19794.56485034  1371.76340911
0.38500002 19529.33084084  1469.97280203
0.38600002 19272.88401580  1342.54916414
0.38700002 19022.68553788  1328.54442091
0.38800002 18779.56624276  1095.78774218
0.38900002 18542.96314886  1518.66875384
0.39000002 18314.22356291  1396.36804171
0.39100002 18090.84822440  1170.11611859
0.39200002 17874.73174604  1475.20168089
0.39300002 17664.69967033  1043.98379998
0.39400002 17462.21903637  1034.63652692
0.39500002 17264.72397217  1435.73451355
0.39600002 17073.31282181  1118.38740938
0.39700002 16887.99002008  1109.03435716
0.39800002 16708.72746170  1500.02607894
0.39900002 16534.94283682  1289.72560238
0.40000002 16366.65709337  1082.89991789
0.40100002 16204.23227491  1074.82677772
0.40200002 16047.64014460  970.07989270
0.40300002 15895.51289942  1059.59494008
0.40400002 15749.17092705  1339.46705081
0.40500002 15607.98885968  950.52656659
0.40600002 15471.69897244  1133.45672042
0.40700002 15340.24832471  1126.58789035
0.40800002 15213.99838672  1026.71672978
0.40900002 15092.01062817  1113.79043713
0.41000002 14975.04157469  1200.17476387
0.41100002 14862.41005529  1561.44487439
0.41200002 14753.94995102  1096.80869133
0.41300002 14650.30329159  1273.69742852
0.41400002 14550.62215648  996.35389938
0.41500002 14455.36941941  992.21660396
0.41600002 14363.40203610  1347.64625989
0.41700002 14275.85773819  1253.13485164
0.41800002 14193.16293997  1070.44839965
0.41900002 14112.22732841  1155.79147296
0.42000002 14036.34442230  1063.67423072
0.42100002 13964.15132139  883.93082053
0.42200002 13895.60648131  1322.51440953
0.42300002 13829.85089498  1231.40998204
0.42400002 13767.42823921  965.44095102
0.42500002 13708.63603755  1138.77644960
0.42600002 13652.18872726  961.86500236
0.42700002 13600.13383362  873.12863349
0.42800002 13549.97067349  1046.32878499
0.42900002 13504.12821484  1045.21957336
0.43000002 13460.45694348  957.24044090
0.43100002 13418.59180641  956.47726929
0.43200002 13380.70589319  1129.79995563
0.43300002 13345.15862700  1129.40082812
0.43400002 13312.20185476  1042.34545462
0.43500002 13281.53256434  955.47349796
0.43600002 13253.60145151  1303.16042448
0.43700002 13227.63477598  1042.86677516
0.43800002 13203.70423529  956.41036161
0.43900002 13182.87447300  1392.11161032
0.44000002 13163.58444706  1219.07961341
0.44100002 13146.74177752  1220.28062962
0.44200002 13131.78738135  1134.38950670
0.44300002 13118.80342462  1310.56852423
0.44400002 13108.08149632  1049.95737761
0.44500002 13098.04477053  1226.76293135
0.44600002 13090.03170701  1140.99266781
0.44700002 13084.92632284  1143.09921774
0.44800002 13079.68687568  1233.28373396
0.44900002 13077.84040518  1059.30512302
0.45000002 13076.94662505  1061.58657733
0.45100002 13077.10050211  1063.95294728
0.45200002 13078.98143810  977.58851392
0.45300002 13081.94191129  1247.23240093
0.45400002 13086.60880965  1339.74164038
0.45500002 13092.48528074  1343.28905347
0.45600002 13099.37964591  987.75876901
0.45700002 13107.54490999  1080.58605359
0.45800002 13116.46627726  1083.68249519
0.45900002 13126.64488003  1268.03395551
0.46000002 13138.62985160  1544.51170541
0.46100002 13150.21581077  1184.70299854
0.46200002 13163.89183887  1097.07879785
0.46300002 13178.19045140  1284.08293844
0.46400002 13192.69016772  920.19018281
0.46500002 13208.49667688  1107.92875377
0.46600002 13225.00408815  926.41158028
0.46700002 13241.69618683  1487.30738620
0.46800002 13260.13784426  1026.13581571
0.46900002 13278.14194290  1123.33086161
0.47000002 13297.05930786  1784.93084079
0.47100002 13316.70878172  1225.66993436
0.47200002 13336.91121952  946.25389587
0.47300002 13357.66810269  1234.64932125
0.47400002 13378.13576278  1715.74599290
0.47500002 13399.51860830  1148.07080877
0.47600002 13421.80816875  1248.42954599
0.47700002 13443.43735663  1445.84175624
