# SAXS profile: number of points = 501, q_min = 0, q_max = 0.5, delta_q = 0.001
#    q    intensity    error
0.00000000 1700912.83420643 357.19169518
0.00100000 1700825.27350413 612.29711300
0.00200000 1700562.54775291 765.25317072
0.00300000 1700124.88856598 1224.08996337
0.00400000 1699512.15670829 1274.63416596
0.00500000 1698725.02879863 1528.85258643
0.00600000 1697763.32125424 2139.18187187
0.00700000 1696627.82057473 2646.73951010
0.00800000 1695318.25774743 3661.88759134
0.00900000 1693836.06902303 3302.98047579
0.01000000 1692180.67569625 3350.51788255
0.01100000 1690353.63447475 3346.90034198
0.01200000 1688354.83542774 3950.75048812
0.01300000 1686185.65216770 5311.48503859
0.01400000 1683846.27950407 4546.38515621
0.01500000 1681338.12012446 4438.73283478
0.01600000 1678661.06606604 5136.70309179
0.01700000 1675817.24816929 4524.70677303
0.01800000 1672807.09958322 5721.00053801
0.01900000 1669631.67495264 7513.34287631
0.02000000 1666291.61906396 6823.46448873
0.02100000 1662789.85038530 7682.08945707
0.02200000 1659124.93056056 6296.37939754
0.02300000 1655300.00630611 8342.71241153
0.02400000 1651315.64838569 6811.67736019
0.02500000 1647174.07811229 10278.36671684
0.02600000 1642876.22863516 8649.74373939
0.02700000 1638423.38586501 6881.37853581
0.02800000 1633816.51896722 7817.81240178
0.02900000 1629058.83651883 7330.76510092
0.03000000 1624150.76376594 9817.99181825
0.03100000 1619094.27641088 9325.98346124
0.03200000 1613890.31377213 11184.26038957
0.03300000 1608543.10577175 13125.71234820
0.03400000 1603051.48918818 12624.03105983
0.03500000 1597419.01589414 11213.88200941
0.03600000 1591646.67923649 11483.73132140
0.03700000 1585737.48529489 14461.92653472
0.03800000 1579692.89867599 9241.20388493
0.03900000 1573515.42454971 9441.09298452
0.04000000 1567205.38430463 9638.31356010
0.04100000 1560766.48246506 11799.39515453
0.04200000 1554200.81429255 12029.51486071
0.04300000 1547509.84098838 13277.63505200
0.04400000 1540696.11085304 12479.63907749
0.04500000 1533762.61872560 12699.55507313
0.04600000 1526709.72827719 11839.63449318
0.04700000 1519541.36553412 10940.69834067
0.04800000 1512259.11745009 15561.14704259
0.04900000 1504865.98524371 13543.79449762
0.05000000 1497363.49704129 14891.28067150
0.05100000 1489755.72920838 15106.12379788
0.05200000 1482041.72010978 14138.67866873
0.05300000 1474227.20623850 14329.48911265
0.05400000 1466312.66764190 18145.62010827
0.05500000 1458302.39241477 14699.68880127
0.05600000 1450196.46738584 13639.09841222
0.05700000 1442000.83948775 15054.48946697
0.05800000 1433714.21064829 19032.55703503
0.05900000 1425340.54623712 17959.29172139
0.06000000 1416883.77726221 12964.48716763
0.06100000 1408345.50887159 17026.89799795
0.06200000 1399727.89138409 13227.42919188
0.06300000 1391034.79726626 18695.50854937
0.06400000 1382265.66461894 16172.50903238
0.06500000 1373426.56434206 14956.61598532
0.06600000 1364519.10610785 16456.10118962
0.06700000 1355544.38883707 17974.51943717
0.06800000 1346506.46535455 19510.87959627
0.06900000 1337409.37775025 15447.07903623
0.07000000 1328252.20740743 15560.47533845
0.07100000 1319039.58733391 19943.87949462
0.07200000 1309773.66704107 15776.22455858
0.07300000 1300457.51411192 15878.58699131
0.07400000 1291094.57607011 18882.25905993
0.07500000 1281684.90338006 17533.45030008
0.07600000 1272232.38873022 20571.99869020
0.07700000 1262740.39864562 25115.90770671
0.07800000 1253210.57446282 14850.54600382
0.07900000 1243644.23538862 19400.85098203
0.08000000 1234046.88447610 17992.40441970
0.08100000 1224419.83756212 25602.62000465
0.08200000 1214763.88396937 18148.57327813
0.08300000 1205082.73298755 16702.44746309
0.08400000 1195379.45249489 21337.52422859
0.08500000 1185655.96214301 19883.45141857
0.08600000 1175914.52877623 19949.39091734
0.08700000 1166157.91475716 18471.94223715
0.08800000 1156387.08726043 20069.09884193
0.08900000 1146606.19630249 15479.18437714
0.09000000 1136817.45412133 17069.31487547
0.09100000 1127022.24744242 21774.07084356
0.09200000 1117222.67858529 18702.30851828
0.09300000 1107423.15408095 15614.66720631
0.09400000 1097622.00432759 20333.44858579
0.09500000 1087824.21207959 18797.60326827
0.09600000 1078031.06717226 21959.49387057
0.09700000 1068247.26515560 20414.20619685
0.09800000 1058471.46227534 20433.79253997
0.09900000 1048708.35283564 18876.75123867
0.10000000 1038957.09079615 18888.24079893
0.10100000 1029221.24789185 15747.08583336
0.10200000 1019503.44740967 17326.46190370
0.10300000 1009804.54465665 18903.54196521
0.10400000 1000126.70026390 17327.19589723
0.10500000 990474.39030762 26772.52402965
0.10600001 980843.51104256 23613.80863946
0.10700001 971242.47130563 20454.36740823
0.10800001 961667.60807036 17295.59274511
0.10900001 952124.45211327 23565.08129891
0.11000001 942613.54078979 20402.87105075
0.11100001 933135.33674581 17244.34183481
0.11200001 923693.54738585 21919.24891136
0.11300001 914287.24524511 17197.74389274
0.11400001 904920.51180351 20292.84343267
0.11500001 895593.49049847 20258.32570900
0.11600001 886308.43804489 15554.71382018
0.11700001 877066.49938878 15524.07777029
0.11800001 867867.68960591 21688.01458472
0.11900001 858714.35581614 23185.28869910
0.12000001 849607.54288844 18504.45315576
0.12100001 840550.18245810 16920.27596996
0.12200001 831541.76976967 18410.33565004
0.12300001 822584.69156210 16830.08358230
0.12400001 813678.40985960 15256.47090371
0.12500001 804824.97802435 16732.31208156
0.12600001 796026.90351640 18197.17587190
0.12700001 787283.11556175 19650.58749048
0.12800001 778594.94029440 18078.97536568
0.12900001 769964.57283142 19518.60284123
0.13000001 761391.84699788 19449.75564832
0.13100001 752877.15674625 19379.05892813
0.13200001 744422.00704622 19306.58566286
0.13300001 736028.51308501 19232.42595359
0.13400001 727694.93132637 16209.40535950
0.13500001 719424.87260745 17611.52171178
0.13600001 711215.78348438 21923.22755960
0.13700001 703071.45662320 14553.57983835
0.13800001 694988.98699687 14490.52106220
0.13900001 686972.98621835 20197.00674727
0.14000001 679021.19211047 15797.42877947
0.14100001 671134.86328498 22872.27721948
0.14200001 663314.33695558 15650.90251865
0.14300001 655561.76890236 19824.18882667
0.14400001 647872.51819922 19727.71910972
0.14500001 640253.44122788 23836.63674134
0.14600001 632700.65160341 16741.26003118
0.14700001 625217.83330982 16655.80386514
0.14800001 617799.83352717 16569.39231692
0.14900001 610451.79901020 19229.23257607
0.15000001 603171.64123400 15028.02215041
0.15100001 595960.41926997 20381.84730075
0.15200001 588818.78683105 16216.07015452
0.15300001 581746.77950227 21501.36198503
0.15400001 574741.34279747 14699.01053571
0.15500001 567806.53529256 17272.67561875
0.15600001 560938.22224246 13210.09575726
0.15700001 554143.11063511 23639.74621541
0.15800001 547412.82756594 18278.11517513
0.15900001 540753.80982654 15573.71045809
0.16000001 534161.55425559 19350.00321628
0.16100001 527640.88796686 15386.00901940
0.16200001 521187.64593678 15291.64625364
0.16300001 514802.17080683 15196.96079963
0.16400001 508485.74249065 13843.52499286
0.16500001 502236.49314065 12505.68926961
0.16600001 496056.50185056 14911.45914964
0.16700001 489941.84901595 12346.53517814
0.16800001 483894.42437300 17173.41393186
0.16900001 477916.04081407 17061.60346268
0.17000001 472002.78684564 15738.93367056
0.17100001 466155.82584191 16837.54922450
0.17200001 460375.13052810 13141.40872150
0.17300001 454660.20356853 15426.62143559
0.17400001 449010.45169136 12965.17740488
0.17500001 443425.13480351 25754.13304569
0.17600001 437902.72992160 12788.94983137
0.17700001 432446.54875882 15010.22041636
0.17800001 427051.85208473 13759.61132407
0.17900001 421720.84748436 12525.10976189
0.18000001 416452.54956692 16960.03088222
0.18100001 411247.48876898 15717.87976321
0.18200001 406101.37802416 14491.72835935
0.18300001 401017.58775720 15495.32032293
0.18400001 395993.43872476 17582.10950997
0.18500001 391030.59992465 13091.70510396
0.18600001 386126.09599916 11913.92125491
0.18700001 381279.97456085 11827.30536966
0.18800001 376492.26926636 10673.55633799
0.18900001 371763.66790590 11654.79153951
0.19000001 367088.42387664 14723.91737738
0.19100001 362474.16316964 14614.95894956
0.19200001 357912.59005187 14506.19796024
0.19300001 353408.97227966 12341.04189515
0.19400001 348957.46595980 10207.00636164
0.19500001 344561.46988279 12156.12923190
0.19600001 340218.56778058 12064.15098361
0.19700001 335928.49255789 12970.19971060
0.19800001 331690.99763343 9900.97674727
0.19900001 327505.45731127 15720.26269388
0.20000001 323369.42318173 15599.34171153
0.20100001 319285.61108379 12576.66081499
0.20200001 315249.82382875 11519.22910714
0.20300001 311265.02585509 15239.53638616
0.20400001 307327.70168741 9450.32727356
0.20500001 303438.39717431 12189.12099063
0.20600001 299596.69837887 10232.72571681
0.20700001 295801.97550463 11997.72869359
0.20800001 292051.96180991 16480.49298397
0.20900001 288349.61835559 12716.21877059
0.21000001 284690.54677773 10812.54747775
0.21100001 281076.53075364 9832.05751056
0.21200001 277505.50447213 9752.93141574
0.21300001 273977.01529430 11433.06138873
0.21400001 270492.07429397 11340.38075091
0.21500001 267049.66975770 8652.40970921
0.21600001 263647.55148604 10298.07384792
0.21700001 260286.26582132 11915.90581268
0.21800001 256965.71732970 13506.11874143
0.21900001 253683.45075875 8371.55427086
0.22000001 250439.80599132 14113.53593396
0.22100001 247236.71599048 9879.57963812
0.22200001 244071.23769600 11429.85660176
0.22300001 240941.69512650 11333.89787468
0.22400001 237848.26420963 8027.37929666
0.22500001 234794.36076692 11143.34088894
0.22600001 231773.75343245 12627.03468411
0.22700001 228790.31423407 9389.55494019
0.22800001 225840.00029688 9309.12525247
0.22900001 222923.53332311 11536.29339503
0.23000001 220041.92858936 8386.89850482
0.23100001 217194.18500322 8314.19379512
0.23200001 214377.53969606 8241.74490340
0.23300001 211594.26080822 10397.74246787
0.23400001 208843.17299351 8097.89441582
0.23500001 206121.55201450 8026.37361506
0.23600001 203432.64410311 10848.04625988
0.23700001 200773.47863329 10034.65893671
0.23800001 198144.80267029 8524.18981406
0.23900001 195545.07773462 10559.43469713
0.24000001 192974.63365701 8371.24000400
0.24100001 190434.27349167 6912.76445473
0.24200001 187921.22511423 11644.53926501
0.24300001 185436.87797797 8144.38806604
0.24400001 182979.74594495 8069.40717788
0.24500001 180549.59112805 7994.73627334
0.24600001 178147.12617574 7260.38647075
0.24700001 175770.94763338 9154.15138579
0.24800001 173420.78552004 7772.71997471
0.24900001 171095.74067545 7057.69963674
0.25000001 168797.48809572 8261.79344570
0.25100001 166522.91316885 7553.47969869
0.25200001 164274.91322163 6857.65657687
0.25300001 162051.29373709 6174.15458349
0.25400001 159851.63305111 6725.75777883
0.25500001 157675.42955337 7871.15781570
0.25600001 155523.63780783 5995.43652115
0.25700001 153394.32369287 6529.99666856
0.25800001 151289.13975905 7053.10002928
0.25900001 149206.81454745 6400.97264695
0.26000001 147146.58162019 8641.18341451
0.26100001 145108.56335858 6843.32017179
0.26200001 143093.18534548 7338.53435768
0.26300001 141099.09444476 7822.53416616
0.26400001 139126.96229909 8295.44551961
0.26500001 137176.54457079 7662.68214231
0.26600001 135246.27166254 6499.93612368
0.26700001 133338.15165888 6968.25213543
0.26800001 131451.28687543 6895.27757934
0.26900001 129583.44464462 7872.19463468
0.27000001 127736.79911647 6231.00135577
0.27100001 125909.99603859 6678.26650592
0.27200001 124104.75487241 6098.50794303
0.27300001 122318.02717884 5027.27115496
0.27400001 120549.33069960 4972.66012669
0.27500001 118802.99334951 5902.13298892
0.27600001 117073.79966041 8269.50823038
0.27700001 115365.00497781 7216.08140287
0.27800001 113674.36179476 5232.99949288
0.27900001 112003.96545402 4704.16677171
0.28000001 110350.63410033 6511.79122645
0.28100001 108716.59091675 5058.58321477
0.28200001 107101.45498203 5001.10267709
0.28300001 105504.36291937 4943.93468040
0.28400001 103924.96303155 7108.46780781
0.28500001 102364.01294863 6147.98290869
0.28600001 100820.69561642 4774.36426690
0.28700001 99295.44683874  4718.51985712
0.28800001 97786.82736955  4239.05916712
0.28900001 96297.73822708  4607.84699227
0.29000001 94824.21152394  5794.70784052
0.29100001 93369.10338182  5725.39369038
0.29200001 91931.03928968  4444.40630484
0.29300001 90509.91932697  7184.67773627
0.29400001 89105.34546624  5125.78524058
0.29500001 87718.64752647  5452.59138835
0.29600001 86348.17073313  5385.53566356
0.29700001 84994.04656991  4939.00427998
0.29800001 83656.70202690  4127.20358987
0.29900001 82336.51422912  5187.20064199
0.30000001 81032.07187982  5122.03750600
0.30100001 79744.83417904  4334.92939119
0.30200001 78472.23750111  3566.56336327
0.30300001 77217.00168676  4225.31453233
0.30400001 75977.74820422  4518.77678837
0.30500001 74754.04043373  3774.33168018
0.30600001 73545.64945534  4402.81051308
0.30700001 72353.90109411  3677.02542769
0.30800001 71177.43537794  3958.88914315
0.30900001 70016.74791050  3906.93471838
0.31000001 68871.67826337  3534.15033741
0.31100001 67741.15883236  3170.28638345
0.31200001 66626.66612529  4066.55875949
0.31300001 65526.81206842  4012.20689291
0.31400001 64443.30125607  3044.94612852
0.31500001 63373.75550175  3905.09099891
0.31600002 62319.76275533  3259.63534525
0.31700002 61280.35419997  3507.68764049
0.31800002 60255.85756032  4036.54008909
0.31900002 59245.92961731  3412.56570754
0.32000002 58251.29483357  3085.27997695
0.32100002 57270.20594456  3042.76618591
0.32200002 56304.85494237  3546.36145647
0.32300002 55352.23587315  3497.15442806
0.32400002 54414.13567543  3183.22708774
0.32500002 53490.41147054  2615.68124477
0.32600002 52581.32094414  2837.02530588
0.32700002 51685.40696709  2797.21435751
0.32800002 50804.15837850  2507.18533470
0.32900002 49936.05435887  3707.75221172
0.33000002 49082.72420017  2924.34884633
0.33100002 48240.33920349  2402.36900610
0.33200002 47414.50587286  2842.02561660
0.33300002 46600.59597066  2801.62796243
0.33400002 45800.71881808  2761.78347552
0.33500002 45012.69203590  3402.95967907
0.33600002 44239.06896008  2907.17055438
0.33700002 43477.17653485  2645.15154565
0.33800002 42729.35558764  3259.18175179
0.33900002 41993.19218831  3854.97522545
0.34000002 41270.37208923  2322.07759557
0.34100002 40560.01906271  2288.80198410
0.34200002 39862.59510339  2256.02367672
0.34300002 39176.20857337  2021.49245812
0.34400002 38503.71984822  2191.82435616
0.34500002 37842.31883034  2553.22137240
0.34600002 37194.15299415  1935.95575503
0.34700002 36555.96541361  1908.22148497
0.34800002 35931.23149897  2821.50008709
0.34900002 35317.54727658  2410.42271579
0.35000002 34715.36669265  2558.86980011
0.35100002 34125.51054342  1982.00974623
0.35200002 33545.52956143  2131.48304929
0.35300002 32977.37289406  1926.20844197
0.35400002 32420.69531835  2244.32273971
0.35500002 31875.15398472  1702.13330340
0.35600002 31339.31565040  1678.22043257
0.35700002 30814.81083660  1985.70650436
0.35800002 30301.89484047  1631.75711445
0.35900002 29798.83855546  2091.87856568
0.36000002 29306.50547010  1586.94734637
0.36100002 28823.80340765  1565.13259917
0.36200002 28352.55267770  1698.17622307
0.36300002 27890.06846245  1675.07759120
0.36400002 27437.84617115  1952.88879373
0.36500002 26995.11794267  1926.64165883
0.36600002 26562.64976552  2047.18351440
0.36700002 26138.89909367  1731.44075798
0.36800002 25726.50952195  1423.96236949
0.36900002 25322.13505424  2248.60569933
0.37000002 24926.78566108  1525.89325652
0.37100002 24540.11582246  1917.07393886
0.37200002 24163.80175668  2163.14363573
0.37300002 23795.43008784  1601.90842940
0.37400002 23435.87370693  1318.26795846
0.37500002 23085.26874613  1822.81290654
0.37600002 22743.43339312  1671.98358510
0.37700002 22409.33364759  1397.67020581
0.37800002 22083.35244980  1757.61410474
0.37900002 21766.25840082  1240.67678762
0.38000002 21457.07358029  1594.15335717
0.38100002 21154.80792653  1212.17055161
0.38200002 20861.47747507  1438.19032526
0.38300002 20574.69251420  1422.12281395
0.38400002 20296.73490166  1523.77744493
0.38500002 20024.49762407  1391.30216083
0.38600002 19761.27092536  1835.42693050
0.38700002 19504.22448674  1362.17510269
0.38800002 19254.41993231  1348.19454753
0.38900002 19011.16188305  1334.58362742
0.39000002 18775.86773835  1541.68657303
0.39100002 18545.97041496  1090.50311206
0.39200002 18323.42072271  1296.19884333
0.39300002 18107.01635694  1284.14966087
0.39400002 17898.21867126  1484.65730912
0.39500002 17694.50550320  1051.05367669
0.39600002 17496.86342004  1562.90739904
0.39700002 17305.41862014  1239.76024868
0.39800002 17120.20448238  1127.10871550
0.39900002 16940.33414796  1118.06210674
0.40000002 16766.08966682  1109.32837536
0.40100002 16597.74678051  1000.84417828
0.40200002 16435.39617450  1291.57566957
0.40300002 16277.40566882  1479.61624540
0.40400002 16125.35990633  1077.57722680
0.40500002 15978.54427315  973.09339234
0.40600002 15836.53503524  1256.86666262
0.40700002 15699.53913615  1056.89302472
0.40800002 15567.74059997  1146.09711727
0.40900002 15440.29921689  1139.49413620
0.41000002 15317.92200736  1038.78493015
0.41100002 15199.81628872  1221.15329850
0.41200002 15086.03196123  1028.03769671
0.41300002 14977.07577158  1209.09938433
0.41400002 14872.06693966  1018.36483195
0.41500002 14771.63707580  1106.10023665
0.41600002 14674.40433386  1376.82605186
0.41700002 14581.72440678  1005.70157999
0.41800002 14493.90146902  1093.13010059
0.41900002 14407.84134462  1180.00226204
0.42000002 14326.87915799  1085.69095404
0.42100002 14249.74615776  992.20987198
0.42200002 14176.19640413  1259.27158625
0.42300002 14105.46351650  1076.52902659
0.42400002 14038.19918712  894.93524059
0.42500002 13974.45765522  1339.45182972
0.42600002 13913.13247959  980.24979530
0.42700002 13856.26364368  978.52938489
0.42800002 13801.34793133  1154.55181591
0.42900002 13750.75256654  886.92358257
0.43000002 13702.33124203  974.44133245
0.43100002 13655.74841189  1592.80657024
0.43200002 13613.17551055  1061.01094957
0.43300002 13573.03019758  1060.32516928
0.43400002 13535.46548602  971.50808130
0.43500002 13500.19529285  971.20409539
0.43600002 13467.68961160  1059.36851505
0.43700002 13437.23303215  1147.67412766
0.43800002 13408.73522580  971.26178211
0.43900002 13383.43533119  883.30677372
0.44000002 13359.71907319  1060.49455029
0.44100002 13338.43627576  1149.63987709
0.44200002 13319.09061053  973.55897431
0.44300002 13301.72062899  1063.07356305
0.44400002 13286.58890001  886.87985111
0.44500002 13272.25369382  1243.07933987
0.44600002 13259.92052147  889.07771310
0.44700002 13250.54579231  1068.52406333
0.44800002 13240.99221784  1426.84938902
0.44900002 13235.00702288  982.69931802
0.45000002 13229.85532349  984.49973055
0.45100002 13225.79516274  1076.05074544
0.45200002 13223.59379177  1257.96053703
0.45300002 13222.34781650  1170.57450767
0.45400002 13222.93309480  1082.95827179
0.45500002 13224.72512121  1175.94261351
0.45600002 13227.55114729  1088.09840894
0.45700002 13231.66420104  1090.81844843
0.45800002 13236.61182976  1002.47484444
0.45900002 13242.72848825  1005.12313990
0.46000002 13250.77867502  1191.17880545
0.46100002 13258.43766974  1286.33368368
0.46200002 13268.18101011  1013.62273631
0.46300002 13278.56930750  1386.28270141
0.46400002 13289.23860866  1019.61688057
0.46500002 13301.15604320  1208.67610693
0.46600002 13313.86070944  932.63598690
0.46700002 13326.66867679  1122.63862254
0.46800002 13341.37256679  1126.27872547
0.46900002 13355.65142121  941.57346982
0.47000002 13370.83708213  1039.11465309
0.47100002 13386.74782116  1042.55996973
0.47200002 13403.31299380  1236.25463258
0.47300002 13420.40582180  1049.60998907
0.47400002 13437.19383075  1436.10015873
0.47500002 13455.01253672  1152.82552879
0.47600002 13473.74814927  1060.45139835
0.47700002 13491.82656219  967.36401036
