# SAXS profile: number of points = 501, q_min = 0, q_max = 0.5, delta_q = 0.001
#    q    intensity    error
0.00000000 1682732.95097187 328.13292544
0.00100000 1682645.86698211 656.23190371
0.00200000 1682384.57451825 832.78039076
0.00300000 1681949.30191710 1110.08657881
0.00400000 1681339.90916022 1387.10547776
0.00500000 1680557.07102828 1966.25185093
0.00600000 1679600.60721688 2645.37106407
0.00700000 1678471.29805487 2215.58220551
0.00800000 1677168.88969907 2490.59590636
0.00900000 1675694.81495309 3518.95926183
0.01000000 1674048.45378528 3590.83408842
0.01100000 1672231.39238792 5418.02994723
0.01200000 1670243.56589603 3908.37011555
0.01300000 1668086.25035015 3502.98128023
0.01400000 1665759.70413658 4122.75545050
0.01500000 1663265.32316470 4790.20434402
0.01600000 1660602.96413741 5504.89907220
0.01700000 1657774.77810371 4475.99210167
0.01800000 1654781.20846368 5659.35198760
0.01900000 1651623.27252000 7432.30506170
0.02000000 1648301.68181819 5711.36558586
0.02100000 1644819.23606480 8141.85558766
0.02200000 1641174.61422590 5662.05267632
0.02300000 1637370.86030553 6483.98890195
0.02400000 1633408.60337065 6737.81079613
0.02500000 1629290.14498399 8260.50141233
0.02600000 1625016.16126301 7897.57890496
0.02700000 1620588.23691888 9529.05926952
0.02800000 1616007.04426597 9138.52025441
0.02900000 1611275.97883656 8700.89068521
0.03000000 1606395.48391240 9710.66114660
0.03100000 1601367.38199966 9992.53292347
0.03200000 1596192.78172311 11061.61648682
0.03300000 1590875.77694968 12170.20025472
0.03400000 1585415.18726077 10820.45915231
0.03500000 1579814.69036686 11943.39961070
0.03600000 1574075.14957970 13977.78797423
0.03700000 1568199.67492952 9832.61241654
0.03800000 1562189.55896379 11880.45214574
0.03900000 1556047.46220528 10269.91372615
0.04000000 1549773.61510427 10484.21899201
0.04100000 1543371.87824702 9723.24328379
0.04200000 1536844.01517520 10903.90879353
0.04300000 1530191.72338450 11109.19242744
0.04400000 1523417.65895517 14396.29754572
0.04500000 1516524.52428620 11510.42167416
0.04600000 1509512.79193599 14898.89194901
0.04700000 1502386.38744111 15144.05548972
0.04800000 1495146.99832327 18681.86261328
0.04900000 1487797.42010773 13390.17740425
0.05000000 1480339.30582961 13589.51546033
0.05100000 1472776.61425484 13785.18975160
0.05200000 1465108.53162677 12812.37470615
0.05300000 1457340.70191040 14165.35228293
0.05400000 1449473.68618325 17937.23770300
0.05500000 1441511.56081007 14530.43721080
0.05600000 1433454.61887821 12256.03756333
0.05700000 1425308.61894429 14880.22267637
0.05800000 1417072.39624669 12541.09129236
0.05900000 1408749.90808651 17750.24967093
0.06000000 1400345.02483777 12813.15757588
0.06100000 1391859.24078435 14238.72069862
0.06200000 1383294.93749306 18300.99287849
0.06300000 1374655.83964383 17155.70568088
0.06400000 1365941.32936677 15981.51430099
0.06500000 1357157.58897496 20153.79113903
0.06600000 1348306.08141651 18970.66745314
0.06700000 1339387.94831654 16394.10925462
0.06800000 1330407.44882609 15146.68951389
0.06900000 1321368.17594477 13874.36649700
0.07000000 1312269.67626629 18168.37451870
0.07100000 1303116.25603485 15481.02184679
0.07200000 1293910.10766531 17001.97961121
0.07300000 1284654.44483482 15685.63150639
0.07400000 1275352.46077966 18652.03061301
0.07500000 1266004.57612203 18762.18869756
0.07600000 1256614.21122739 23222.23171215
0.07700000 1247185.11722434 21888.09983359
0.07800000 1237718.63742920 17600.35984963
0.07900000 1228216.10779212 17686.31278176
0.08000000 1218683.38604946 16287.70421862
0.08100000 1209121.35682848 16359.41272544
0.08200000 1199530.85207750 20907.82373281
0.08300000 1189915.86388890 22489.41088297
0.08400000 1180279.21583935 19563.12892080
0.08500000 1170622.67845141 16611.13658704
0.08600000 1160948.87324116 19695.49855927
0.08700000 1151260.27700252 16716.30000704
0.08800000 1141558.03893740 16763.78058909
0.08900000 1131846.26742210 19863.90292626
0.09000000 1122126.93712155 19912.14343460
0.09100000 1112401.59702391 19956.48558819
0.09200000 1102672.30445677 19996.96318092
0.09300000 1092943.67058213 20033.65842320
0.09400000 1083213.79434243 20066.53648327
0.09500000 1073487.52416508 17004.04318201
0.09600000 1063766.35075636 23216.70169662
0.09700000 1054055.11299693 26340.83851215
0.09800000 1044352.06910571 21712.08053756
0.09900000 1034662.11770390 15519.93249534
0.10000000 1024984.24624969 15528.51206094
0.10100000 1015322.41637795 21748.20718167
0.10200000 1005678.78678237 21752.83318128
0.10300000 996054.32237262 18646.13779194
0.10400000 986451.58794502 17090.27456516
0.10500000 976874.49777487 18638.76629449
0.10600001 967319.03355353 26393.30107241
0.10700001 957793.62809052 17067.88325575
0.10800001 948294.87712142 20156.00856179
0.10900001 938828.23922404 23236.00001441
0.11000001 929393.86551551 20116.73116597
0.11100001 919992.50441841 18547.04976215
0.11200001 910627.80888857 20065.68471349
0.11300001 901298.98965488 16953.43479359
0.11400001 892009.68135083 20003.31804614
0.11500001 882760.59399305 15360.03505875
0.11600001 873553.42068725 16863.94958052
0.11700001 864389.58515655 16829.66601559
0.11800001 855269.17929463 18319.86668333
0.11900001 846194.39617277 18277.79981825
0.12000001 837166.26425075 18233.48209427
0.12100001 828187.92978239 18187.00779478
0.12200001 819258.55278084 19649.91731418
0.12300001 810380.62538694 19595.00444506
0.12400001 801553.81765008 18034.96174689
0.12500001 792779.63980370 14983.53589832
0.12600001 784061.11723521 16430.00148590
0.12700001 775396.91952440 17865.14586776
0.12800001 766788.50117360 22256.03729547
0.12900001 758237.86496610 20699.89468920
0.13000001 749745.03143085 14732.49056203
0.13100001 741310.33907177 14677.94540550
0.13200001 732935.34414941 16084.26688558
0.13300001 724621.90340075 18934.37122848
0.13400001 716368.52280872 14506.46327079
0.13500001 708178.36449172 18780.89111181
0.13600001 700049.58962438 25894.83554117
0.13700001 691985.23651161 22918.55211395
0.13800001 683983.18174051 17113.26001414
0.13900001 676047.12165541 17036.38826912
0.14000001 668175.58009188 16958.29702250
0.14100001 660369.48117211 14065.87061235
0.14200001 652628.96818628 15398.78123064
0.14300001 644956.26694522 20896.58403467
0.14400001 637347.25286084 20793.45510541
0.14500001 629807.97549283 20689.19297089
0.14600001 622335.12825929 15094.73924801
0.14700001 614932.09418039 13651.49313483
0.14800001 607593.88242628 14937.69630419
0.14900001 600325.45976500 14858.05583020
0.15000001 593124.88285486 16121.13507664
0.15100001 585993.01276834 17368.83371800
0.15200001 578930.63310914 22586.97971657
0.15300001 571937.64458233 17175.28827729
0.15400001 565011.28306248 17077.46683647
0.15500001 558155.44022798 14366.92170949
0.15600001 551366.00501492 15581.60403709
0.15700001 544649.36215678 16780.64764004
0.15800001 537997.52658342 16680.61409902
0.15900001 531416.97663262 15304.80964942
0.16000001 524902.72790411 22817.52265903
0.16100001 518459.96205546 13858.43543992
0.16200001 512084.38414897 15024.55654018
0.16300001 505776.66235124 13686.31712933
0.16400001 499537.46810808 23490.75054677
0.16500001 493365.44826337 17198.72033844
0.16600001 487262.16699612 14647.10143144
0.16700001 481224.40379892 16977.59776762
0.16800001 475253.24644336 16866.73851266
0.16900001 469351.20236972 11968.45622556
0.17000001 463513.93795433 14266.95968392
0.17100001 457742.57328122 14171.71073799
0.17200001 452037.47865561 12903.41043756
0.17300001 446397.70211986 11650.98057554
0.17400001 440822.80957526 11571.59929783
0.17500001 435312.21740731 11492.24308230
0.17600001 429864.29755906 15978.05669490
0.17700001 424482.03872588 11333.67096928
0.17800001 419161.26139610 14630.82452008
0.17900001 413903.76977489 12292.94254295
0.18000001 408708.68908441 13315.72971934
0.18100001 403576.54872738 13221.16836083
0.18200001 398502.96951582 12032.79773293
0.18300001 393491.29652696 11946.39632690
0.18400001 388539.27680199 10781.96544060
0.18500001 383648.11021905 11774.16105886
0.18600001 378814.82795229 17001.21028169
0.18700001 374039.57282244 14767.08303270
0.18800001 369322.39931748 12564.34861840
0.18900001 364664.14302008 13510.80713725
0.19000001 360058.90791142 12378.82583888
0.19100001 355514.16110226 15358.21248529
0.19200001 351021.76010797 12194.49652236
0.19300001 346586.81635816 12102.81219912
0.19400001 342203.94015414 12011.35886699
0.19500001 337875.95757542 11920.26434655
0.19600001 333600.77866318 10843.69382288
0.19700001 329377.99979339 15652.04328986
0.19800001 325207.36140286 11648.92823596
0.19900001 321088.44702962 13485.71541258
0.20000001 317018.59637779 13381.35558552
0.20100001 313000.50552851 13277.48207204
0.20200001 309030.10949816 15055.94764635
0.20300001 305110.29384805 14004.56314955
0.20400001 301237.69353369 11115.67141678
0.20500001 297412.43701924 11947.05815976
0.20600001 293634.32344809 12764.28464363
0.20700001 289902.92926711 9949.46900275
0.20800001 286215.92138174 8972.86955947
0.20900001 282576.14509464 11571.49368862
0.21000001 278979.17660156 8829.69135684
0.21100001 275426.68567466 13137.85352775
0.21200001 271916.98890398 12162.84748867
0.21300001 268449.36747115 11202.39263417
0.21400001 265024.72912533 10256.45750204
0.21500001 261642.34829834 15258.98247417
0.21600001 258299.71765589 10089.18744864
0.21700001 254997.51447904 9172.26102947
0.21800001 251735.49263187 10750.36472113
0.21900001 248511.50838518 9020.96818091
0.22000001 245325.80279114 12198.82612058
0.22100001 242179.92044951 8871.05090552
0.22200001 239071.28599271 10396.01536296
0.22300001 235998.27059989 9515.45072053
0.22400001 232961.05620242 8648.67962048
0.22500001 229962.52376290 11693.59488630
0.22600001 226996.87761675 7729.24404835
0.22700001 224068.10796158 9962.06855107
0.22800001 221172.27101923 9116.72144254
0.22900001 218309.52582932 7531.67899729
0.23000001 215481.12900892 8959.70576791
0.23100001 212686.37976251 9621.93227550
0.23200001 209922.21018544 8070.45975226
0.23300001 207190.72430715 8726.87372055
0.23400001 204491.15927248 10091.63918738
0.23500001 201820.71635578 10002.23517566
0.23600001 199182.41454454 7789.02868916
0.23700001 196573.40254509 7719.43788306
0.23800001 193994.39943676 9041.10941338
0.23900001 191444.00051501 8959.57964789
0.24000001 188922.47805914 9561.36706683
0.24100001 186430.42268749 6767.42466366
0.24200001 183965.53568984 7376.09850239
0.24300001 181528.49992807 9301.52077630
0.24400001 179118.36867010 9215.64050401
0.24500001 176734.88195802 9782.27617912
0.24600001 174378.27616364 7106.78698124
0.24700001 172047.96350891 8320.23990889
0.24800001 169743.13048988 8241.87809083
0.24900001 167462.86237797 6279.85763626
0.25000001 165209.03084560 8086.15639728
0.25100001 162978.41896889 8624.81833987
0.25200001 160773.95065737 6711.50888771
0.25300001 158593.38980594 11480.57603120
0.25400001 156436.25328687 8377.16175985
0.25500001 154302.27079306 7110.24897454
0.25600001 152192.25165829 9387.21852642
0.25700001 150104.26105114 5809.03517752
0.25800001 148039.98567501 7476.75983027
0.25900001 145998.03600705 7402.10077579
0.26000001 143977.97404295 7327.75933563
0.26100001 141979.43203528 9485.64630310
0.26200001 140003.28134866 7180.06862370
0.26300001 138047.94899702 6013.36894285
0.26400001 136114.04219129 5410.53343312
0.26500001 134201.66090089 8031.96978498
0.26600001 132308.90611801 8478.35510523
0.26700001 130437.89108200 5767.96381659
0.26800001 128587.64073110 6745.06501373
0.26900001 126756.03480099 8727.15340903
0.27000001 124945.38960770 7110.64245907
0.27100001 123154.01993201 8039.49480161
0.27200001 121383.76355003 5964.79842312
0.27300001 119631.77591966 5408.55284528
0.27400001 117897.36350281 6322.24641704
0.27500001 116184.89745426 7215.08247337
0.27600001 114489.13223492 7611.23787119
0.27700001 112813.46440635 5645.18602606
0.27800001 111155.58578510 5117.04763379
0.27900001 109517.40495264 5979.65059342
0.28000001 107895.99169580 6821.72439783
0.28100001 106293.51680929 4945.83757122
0.28200001 104709.68739293 5333.91172825
0.28300001 103143.23609066 5712.07268505
0.28400001 101594.27237088 4343.15534942
0.28500001 100063.43477674 7297.62664367
0.28600001 98549.82563606  4242.57019444
0.28700001 97053.85320712  5450.54465410
0.28800001 95574.23012563  6629.02891529
0.28900001 94113.75849245  5322.13329466
0.29000001 92668.53711101  4853.97820363
0.29100001 91241.31465268  5195.28070224
0.29200001 89830.85978014  4342.87312164
0.29300001 88437.00001108  4680.08626212
0.29400001 87059.23924029  4237.60867061
0.29500001 85699.16826311  5327.06055140
0.29600001 84354.83421057  4133.80884617
0.29700001 83026.71746601  4824.68278034
0.29800001 81714.91524309  4764.38835879
0.29900001 80419.93936005  4342.67693102
0.30000001 79140.28903665  4287.82106299
0.30100001 77877.71306389  5291.79085321
0.30200001 76629.30696447  3482.80216641
0.30300001 75398.10587910  4469.59992811
0.30400001 74182.55719851  4412.00779825
0.30500001 72982.20293665  3684.87160072
0.30600001 71796.77793284  4298.11431443
0.30700001 70627.81656836  3589.30580793
0.30800001 69473.78680069  4186.14322186
0.30900001 68335.23178707  3495.34727139
0.31000001 67212.10704705  3762.53393063
0.31100001 66103.16389032  3093.62821654
0.31200001 65009.95230273  3662.66088615
0.31300001 63931.13344895  3613.38783361
0.31400001 62868.31500581  3267.58082714
0.31500001 61819.30704210  3809.30588029
0.31600002 60785.46583832  3468.41884496
0.31700002 59766.05337751  3135.92496920
0.31800002 58761.17643563  3374.06691069
0.31900002 57770.80973178  3050.29889827
0.32000002 56795.19259553  3008.15751826
0.32100002 55833.04302235  3775.43054794
0.32200002 54886.28530640  3191.08877881
0.32300002 53952.09505936  3670.90072166
0.32400002 53032.35774660  2843.86031882
0.32500002 52126.49637585  2548.98579348
0.32600002 51235.03310554  3015.69419139
0.32700002 50356.60454896  3220.80857947
0.32800002 49492.66579383  2686.70948984
0.32900002 48641.52509471  2407.75560620
0.33000002 47804.91430286  3085.56833979
0.33100002 46979.08033713  3509.33746737
0.33200002 46169.71103971  2536.79489321
0.33300002 45371.90963846  2273.13278053
0.33400002 44587.82958700  2464.59239713
0.33500002 43815.63026885  2429.13865714
0.33600002 43057.44160530  2611.86453147
0.33700002 42310.93531412  2359.68097422
0.33800002 41578.17271605  3594.22531065
0.33900002 40857.02352783  2500.44995832
0.34000002 40148.95080147  2258.98082383
0.34100002 39453.04019794  2428.72926961
0.34200002 38769.93961162  2593.12753373
0.34300002 38097.82454819  2555.60219172
0.34400002 37439.25896718  2712.47444063
0.34500002 36791.74631608  2291.39006909
0.34600002 36157.13798650  1881.97912133
0.34700002 35532.47518992  2040.27482203
0.34800002 34921.05204944  2559.36402592
0.34900002 34320.49831807  2342.37412115
0.35000002 33731.30046605  2308.73896975
0.35100002 33154.31230571  1750.54777265
0.35200002 32586.89506617  2243.11902812
0.35300002 32031.29216348  2041.03403333
0.35400002 31486.95981691  1844.34875863
0.35500002 30953.56065685  1818.21223910
0.35600002 30429.82050827  1955.42035848
0.35700002 29917.29705868  1927.87071377
0.35800002 29416.06264933  1900.86605843
0.35900002 28924.69314424  2030.51355490
0.36000002 28443.87733312  1694.25963360
0.36100002 27972.58484778  1670.80257210
0.36200002 27512.48780783  2396.88805135
0.36300002 27061.15372153  1625.29296950
0.36400002 26619.87888358  1748.92612549
0.36500002 26188.11248083  1725.27293196
0.36600002 25766.33064011  1702.12388271
0.36700002 25353.29207632  1679.40214669
0.36800002 24951.33923361  1519.16236120
0.36900002 24557.38721070  1771.81557118
0.37000002 24172.29747994  1748.74494402
0.37100002 23795.86555602  1460.59029702
0.37200002 23429.50313102  1441.96883850
0.37300002 23071.13554142  1423.71984170
0.37400002 22721.45528214  2683.97203235
0.37500002 22380.64690068  1514.72225399
0.37600002 22048.47731898  1371.52559660
0.37700002 21723.93649965  1601.27143524
0.37800002 21407.44898137  1338.71488547
0.37900002 21099.68348547  1322.95021721
0.38000002 20799.83241971  1664.19467074
0.38100002 20506.74739148  1410.04401744
0.38200002 20222.48073802  1277.95973078
0.38300002 19944.80116281  1378.58472168
0.38400002 19675.71578994  1249.89990477
0.38500002 19412.46080290  1236.37968711
0.38600002 19157.86816626  1112.11429974
0.38700002 18909.62396484  1430.70221696
0.38800002 18668.46027968  1416.09612160
0.38900002 18433.71567868  1186.20966012
0.39000002 18206.87362138  1281.39982618
0.39100002 17985.48048836  1692.07408451
0.39200002 17771.26747347  1152.37789391
0.39300002 17563.18051665  1349.37922302
0.39400002 17362.53781532  1028.73041430
0.39500002 17166.95299498  1121.68876183
0.39600002 16977.46579781  1314.31057701
0.39700002 16794.03447898  1403.64546826
0.39800002 16616.73417249  1392.31622228
0.39900002 16444.80425951  986.68830232
0.40000002 16278.42075147  979.14705459
0.40100002 16117.92978917  971.91121234
0.40200002 15963.17404431  1157.96870004
0.40300002 15812.93034489  1149.91634916
0.40400002 15668.45097405  1237.41597430
0.40500002 15529.24467691  1134.87725476
0.40600002 15394.78752438  1221.80736976
0.40700002 15265.25595415  1121.08045039
0.40800002 15140.80530931  1300.44382963
0.40900002 15020.70863234  1200.90571206
0.41000002 14905.65076735  1654.08014403
0.41100002 14794.88561168  1188.62116636
0.41200002 14688.28868296  1091.92743243
0.41300002 14586.60070825  1177.57633097
0.41400002 14488.71174116  1082.30681835
0.41500002 14395.29985436  1527.05348091
0.41600002 14305.22075197  1073.74992052
0.41700002 14219.56368425  980.72335377
0.41800002 14138.69330356  1244.06368273
0.41900002 14059.61411250  1240.05802348
0.42000002 13985.47004427  1236.45546520
0.42100002 13915.28288684  1057.00493817
0.42200002 13848.53659689  1405.90350194
0.42300002 13784.57491667  1052.03880749
0.42400002 13724.03037868  1049.88837372
0.42500002 13667.07939007  960.65905585
0.42600002 13612.43652655  871.87660084
0.42700002 13562.22574789  957.76442770
0.42800002 13513.95120291  1304.43420167
0.42900002 13469.94636197  1042.57389782
0.43000002 13428.05620216  954.93626207
0.43100002 13388.00841768  1474.82307718
0.43200002 13351.91913709  1474.25222138
0.43300002 13318.24987637  867.01810804
0.43400002 13287.02928166  1560.56166308
0.43500002 13258.21701027  953.79617692
0.43600002 13232.08531069  1387.78117315
0.43700002 13207.90963282  1214.86358560
0.43800002 13185.76353666  1302.42385505
0.43900002 13166.73091929  955.90471004
0.44000002 13149.23266049  869.82178171
0.44100002 13134.17605600  870.79591378
0.44200002 13120.92372271  959.07396496
0.44300002 13109.78173170  1222.35610659
0.44400002 13100.75241314  961.92279152
0.44500002 13092.47573890  1051.06400213
0.44600002 13086.27176656  1140.66493259
0.44700002 13082.88439845  1142.92083521
0.44800002 13079.43383008  880.89991020
0.44900002 13079.45195997  1059.43565897
0.45000002 13080.18453837  1150.33688374
0.45100002 13082.08363024  1064.35837460
0.45200002 13085.73081202  1067.01054098
0.45300002 13090.40400593  1426.33048808
0.45400002 13096.84859199  1072.63195052
0.45500002 13104.42804214  985.97721262
0.45600002 13113.08869250  1168.57295421
0.45700002 13122.98074779  1172.01346613
0.45800002 13133.62291858  904.24998080
0.45900002 13145.46725947  1451.25965423
0.46000002 13159.12460700  1000.94886067
0.46100002 13172.51385910  1186.71182981
0.46200002 13187.78588716  915.89177327
0.46300002 13203.84316183  1194.68378590
0.46400002 13220.03284168  1290.93626817
0.46500002 13237.52204851  1295.42396906
0.46600002 13255.66742628  1299.98336611
0.46700002 13274.02953466  1118.20430100
0.46800002 13294.13864621  1215.81550751
0.46900002 13313.83415811  1314.07549369
0.47000002 13334.42270481  1130.49241050
0.47100002 13355.72644400  1040.14402476
0.47200002 13377.55295942  2088.10234041
0.47300002 13399.95185552  1238.55760871
0.47400002 13422.07280965  1051.95500632
0.47500002 13445.10405331  1151.97656989
0.47600002 13468.96923549  1734.66863006
0.47700002 13492.27400076  1064.13570088
