# SAXS profile: number of points = 501, q_min = 0, q_max = 0.5, delta_q = 0.001
#    q    intensity    error
0.00000000 1700912.83420643 280.65061764
0.00100000 1700825.39060167 714.34668102
0.00200000 1700563.01876250 994.82939748
0.00300000 1700125.94729615 1326.09828613
0.00400000 1699514.04839215 1784.48981862
0.00500000 1698727.97001177 1681.74075688
0.00600000 1697767.56927738 1782.65602032
0.00700000 1696633.59050458 2646.74851119
0.00800000 1695325.78763957 2517.55890094
0.00900000 1693845.61039496 3048.92222905
0.01000000 1692192.44649404 3629.75295446
0.01100000 1690367.86104503 3651.19473883
0.01200000 1688371.76041749 3621.55758488
0.01300000 1686205.50558125 3895.13488969
0.01400000 1683869.25083830 5683.05897351
0.01500000 1681364.50660855 4035.27499555
0.01600000 1678691.06001715 4708.72863384
0.01700000 1675851.03327521 5882.23739067
0.01800000 1672844.93154594 9535.21653887
0.01900000 1669673.80519298 6010.82596992
0.02000000 1666338.26797461 5248.96578156
0.02100000 1662841.21591739 8231.06439197
0.02200000 1659181.20602052 6869.01050500
0.02300000 1655361.45423707 7151.16180781
0.02400000 1651382.44026623 8050.48976338
0.02500000 1647246.49255759 7709.11393725
0.02600000 1642954.34857110 11977.13774890
0.02700000 1638507.57459623 8258.07855419
0.02800000 1633906.86745308 7818.24471930
0.02900000 1629155.57530484 8797.44051057
0.03000000 1624254.15429866 9818.61681405
0.03100000 1619204.42201581 8549.39974163
0.03200000 1614007.47679930 8788.27111594
0.03300000 1608667.54330025 10665.46630376
0.03400000 1603183.24806924 9258.38368479
0.03500000 1597558.40227232 8626.81577064
0.03600000 1591793.83948600 17668.91243484
0.03700000 1585892.55430921 9039.58797762
0.03800000 1579856.09757603 12014.80617811
0.03900000 1573686.99632872 11330.54689828
0.04000000 1567385.37058550 9639.42047578
0.04100000 1560955.19222912 12784.22361712
0.04200000 1554398.29974769 11028.45644835
0.04300000 1547716.27800283 13279.40628167
0.04400000 1540911.78885922 11441.27056363
0.04500000 1533987.63905397 14818.32128179
0.04600000 1526944.17547866 13994.44401882
0.04700000 1519785.43533683 12036.70120767
0.04800000 1512513.01332914 16675.45674783
0.04900000 1505129.77845951 16932.71079584
0.05000000 1497637.42548005 12602.61952227
0.05100000 1490039.74709928 12784.54162567
0.05200000 1482336.12737685 12963.03003800
0.05300000 1474532.08244090 13138.08146702
0.05400000 1466628.21242388 13309.65164843
0.05500000 1458628.59449698 12252.48076534
0.05600000 1450533.69072704 23563.92090545
0.05700000 1442349.02141546 12548.43707206
0.05800000 1434073.44503318 13960.70563926
0.05900000 1425710.98674376 12831.39947999
0.06000000 1417265.58106172 12967.98067256
0.06100000 1408738.62036044 19651.90467239
0.06200000 1400132.59276842 18523.75506819
0.06300000 1391451.23022657 18701.10540862
0.06400000 1382693.72918835 16177.51738807
0.06500000 1373866.50462142 16321.53483839
0.06600000 1364970.84756528 21948.73225580
0.06700000 1356008.11881456 16597.54015104
0.06800000 1346982.38098860 19517.77561413
0.06900000 1337897.37463879 15452.71540056
0.07000000 1328752.26965044 16981.45480135
0.07100000 1319551.96187087 17101.39422684
0.07200000 1310298.30978850 17217.32059720
0.07300000 1300994.67165466 21661.56229802
0.07400000 1291644.12464242 24702.69504146
0.07500000 1282246.99329613 16079.37804961
0.07600000 1272806.98495690 19111.19777507
0.07700000 1263327.59340194 17737.12024303
0.07800000 1253810.21145188 16343.41687272
0.07900000 1244256.67670075 17917.29698488
0.08000000 1234672.10203647 15001.26674347
0.08100000 1225057.67900938 25615.95726994
0.08200000 1215414.53538206 18158.29401069
0.08300000 1205746.04837546 18230.88110705
0.08400000 1196055.51634578 21349.59196889
0.08500000 1186344.80620959 16834.23359040
0.08600000 1176616.27773104 16890.32745986
0.08700000 1166872.21546399 26184.61374458
0.08800000 1157114.40833637 21626.46930747
0.08900000 1147346.35499657 15489.17651998
0.09000000 1137570.31529743 18633.40263989
0.09100000 1127787.93818720 18676.16913381
0.09200000 1118001.07842462 23394.17366525
0.09300000 1108214.24687044 17188.40377668
0.09400000 1098425.93132972 20348.34133420
0.09500000 1088640.80652451 21946.99969110
0.09600000 1078860.28067752 20406.64316829
0.09700000 1069089.17840807 20430.29515986
0.09800000 1059325.99906952 18877.19019098
0.09900000 1049575.41936285 18892.35843690
0.10000000 1039836.63816793 18904.23097091
0.10100000 1030113.27749917 23641.10083049
0.10200000 1020407.90712994 20494.89377871
0.10300000 1010721.19790483 28381.05257223
0.10400000 1001056.00878406 18919.95945611
0.10500000 991415.80586707 17339.86326044
0.10600001 981797.10963488 22060.98209154
0.10700001 972208.19517284 22049.68290413
0.10800001 962645.44113987 18887.10444402
0.10900001 953114.30221191 17299.02539934
0.11000001 943615.21647576 17282.31350322
0.11100001 934148.92345483 20401.81344864
0.11200001 924718.75119725 20376.17864188
0.11300001 915324.25324411 26608.47729455
0.11400001 905968.91304188 17190.76093439
0.11500001 896653.68781465 17161.95239289
0.11600001 887379.85697175 20245.57239020
0.11700001 878149.23538974 17097.56641825
0.11800001 868961.65146598 17062.06283013
0.11900001 859819.40331635 21667.44998414
0.12000001 850723.52231864 20072.82245464
0.12100001 841677.10561629 20023.49928588
0.12200001 832679.49375720 16899.23112195
0.12300001 823733.22334859 19917.87027899
0.12400001 814837.49939065 15278.20383345
0.12500001 805994.39819267 21326.61278110
0.12600001 797206.66557890 25817.53908138
0.12700001 788473.14511806 19680.29062961
0.12800001 779795.07319980 15089.03537755
0.12900001 771174.57379115 24060.64783631
0.13000001 762611.79043137 16483.85462714
0.13100001 754106.74096125 23890.10267977
0.13200001 745661.24168556 16363.53672017
0.13300001 737277.28835971 16301.20161412
0.13400001 728953.14131112 20665.82253047
0.13500001 720692.19467068 17642.54575735
0.13600001 712492.17495194 17570.05786276
0.13700001 704356.61664027 21870.27397794
0.13800001 696283.05487685 18872.75309240
0.13900001 688275.68641370 14453.79009630
0.14000001 680332.46651098 17266.83881436
0.14100001 672454.51090884 17187.93810946
0.14200001 664642.29245310 18533.55119920
0.14300001 656897.46755282 17026.78316208
0.14400001 649216.54454196 15532.50656083
0.14500001 641605.03487813 22481.84148265
0.14600001 634059.91380342 15379.12393480
0.14700001 626584.57557085 15301.19605730
0.14800001 619174.01168479 20757.80972106
0.14900001 611833.08051076 13766.24496099
0.15000001 604559.96618380 16431.94065618
0.15100001 597355.73432867 17705.62480094
0.15200001 590220.56317996 14900.11882057
0.15300001 583155.20954902 22900.50615964
0.15400001 576156.10297375 17414.31903418
0.15500001 569227.68856170 21311.88566552
0.15600001 562365.63444664 14568.08244788
0.15700001 555576.25959448 22384.16855552
0.15800001 548851.77470350 19635.17316677
0.15900001 542198.57782341 19519.14972296
0.16000001 535611.75370620 14228.52690883
0.16100001 529096.40532366 14142.74758190
0.16200001 522648.30099197 16612.37703123
0.16300001 516267.93773932 16510.24942832
0.16400001 509956.27544960 20194.26946117
0.16500001 503711.80528626 13796.66699815
0.16600001 497536.20908522 16202.26741382
0.16700001 491426.15129637 13622.33355711
0.16800001 485383.04244165 14765.35284824
0.16900001 479408.67310848 14669.90608980
0.17000001 473499.30508740 13359.78352389
0.17100001 467656.13908622 13272.08185399
0.17200001 461879.05353772 14382.91440637
0.17300001 456167.60050618 16668.36490965
0.17400001 450521.21604496 15374.03722359
0.17500001 444939.05003758 11746.39147575
0.17600001 439419.70872912 12833.25319954
0.17700001 433966.25188451 12745.58941983
0.17800001 428574.25909994 16110.10716048
0.17900001 423245.86177157 19426.98597292
0.18000001 417979.85429385 12482.96893812
0.18100001 412777.11269303 14649.46042146
0.18200001 407633.08035448 13427.43430116
0.18300001 402551.18721861 15554.57860891
0.18400001 397528.91946981 14340.85644735
0.18500001 392567.94200025 13143.17531908
0.18600001 387664.79258637 11961.39774035
0.18700001 382820.05516039 14034.18388522
0.18800001 378033.44674406 11788.97359370
0.18900001 373306.10530930 15958.83675599
0.19000001 368631.73964248 11617.42982374
0.19100001 364018.27316996 10483.72676265
0.19200001 359457.32058584 11446.91891494
0.19300001 354954.18205763 11362.08390455
0.19400001 350503.14456357 19479.21317959
0.19500001 346107.43804061 12210.67099109
0.19600001 341764.65661369 16158.63372829
0.19700001 337474.49542735 19043.68667692
0.19800001 333236.80367700 12931.25477780
0.19900001 329051.01393077 12832.99014979
0.20000001 324914.61297536 14694.26406628
0.20100001 320830.24558558 13609.61966096
0.20200001 316793.79544375 12540.28298534
0.20300001 312808.13815339 11486.31537589
0.20400001 308869.99385634 10447.52803600
0.20500001 304979.66230647 10366.25921178
0.20600001 301136.71935356 11220.35469348
0.20700001 297340.69599438 14843.24824567
0.20800001 293589.28296417 16567.24402080
0.20900001 289885.60377561 10044.53664564
0.21000001 286224.79331012 12682.62119111
0.21100001 282608.97123524 15277.84170721
0.21200001 279036.08754296 11589.76444400
0.21300001 275505.60381446 12381.22242075
0.21400001 272018.47697357 11404.37518628
0.21500001 268573.97390976 10442.15659929
0.21600001 265169.44863616 11220.64574954
0.21700001 261805.86960723 10273.26280910
0.21800001 258482.62587418 9340.27012758
0.21900001 255197.80020853 10105.83336608
0.22000001 251951.50470234 11693.06988611
0.22100001 248745.51615066 8283.22607948
0.22200001 245577.11559648 9857.46588615
0.22300001 242444.55731589 11404.59251541
0.22400001 239348.09770278 11309.19815123
0.22500001 236290.87057533 11214.36524780
0.22600001 233266.88534974 7942.73782176
0.22700001 230280.04291642 13388.48232829
0.22800001 227326.29846127 10151.25633784
0.22900001 224406.20940874 10838.82042702
0.23000001 221520.95188006 8443.27148021
0.23100001 218669.51071504 9131.63919932
0.23200001 215848.93597733 9807.09686994
0.23300001 213061.63404822 10469.84919230
0.23400001 210306.52344828 9637.29689282
0.23500001 207580.83578084 7348.36193419
0.23600001 204887.73009023 10197.26280889
0.23700001 202224.30285891 9385.23033958
0.23800001 199591.22126867 10017.48386929
0.23900001 196987.13660523 9928.15215450
0.24000001 194412.17954037 8433.60074737
0.24100001 191867.16247422 9750.68965816
0.24200001 189349.60241552 8282.15200142
0.24300001 186860.49672142 8890.82285457
0.24400001 184398.50686937 6776.64544801
0.24500001 181963.55780147 7385.90116055
0.24600001 179556.00377096 9978.82538162
0.24700001 177174.82329833 9886.35560773
0.24800001 174819.69102095 6529.51576852
0.24900001 172489.55587902 8408.86624690
0.25000001 170186.03655141 7689.00549515
0.25100001 167906.26741209 6981.54292928
0.25200001 165652.98493745 6915.18418337
0.25300001 163423.98293231 8094.39025759
0.25400001 161218.82788627 9866.59273344
0.25500001 159037.09136185 8549.83443612
0.25600001 156879.74202466 7257.25720942
0.25700001 154744.92865007 5988.62902210
0.25800001 152634.06956904 6522.81727165
0.25900001 150545.86789687 5871.28912578
0.26000001 148479.97519285 8719.48695577
0.26100001 146435.98837602 7481.41500012
0.26200001 144414.83672620 6836.59869410
0.26300001 142414.75574036 7331.51197242
0.26400001 140436.63595854 8931.77046960
0.26500001 138480.25265130 6077.89857646
0.26600001 136543.91844368 7109.15945017
0.26700001 134629.70770157 7576.96030799
0.26800001 132736.58573068 5891.51363645
0.26900001 130862.46676363 5829.92317020
0.27000001 129009.64337842 5768.66647665
0.27100001 127176.55136511 5188.80354125
0.27200001 125364.93426493 6160.43316131
0.27300001 123571.92247132 5078.80625392
0.27400001 121796.78282602 9043.41155281
0.27500001 120043.98698647 6957.74981501
0.27600001 118308.12468766 7373.55422012
0.27700001 116592.97923265 6320.50570333
0.27800001 114895.77963293 5770.06632625
0.27900001 113218.64820293 6657.25682941
0.28000001 111558.60699506 5642.63460887
0.28100001 109917.90782932 6044.38603761
0.28200001 108296.01772559 6895.74925505
0.28300001 106692.08349053 5908.60786336
0.28400001 105105.88831967 4493.27693834
0.28500001 103538.14869795 4885.96546832
0.28600001 101988.01593184 7903.05172863
0.28700001 100455.76291349 6075.56482858
0.28800001 98940.14416873  4717.96099800
0.28900001 97444.10523015  5510.46441160
0.29000001 95963.65692601  6702.10211695
0.29100001 94501.50283999  6622.66563251
0.29200001 93056.33403936  4907.79128955
0.29300001 91628.18176965  4848.96360878
0.29400001 90216.46142558  4391.28646776
0.29500001 88822.64371125  3943.72556746
0.29600001 87444.84109338  7012.20213922
0.29700001 86083.69481376  5771.91201049
0.29800001 84739.03393454  6080.87336300
0.29900001 83411.63834874  6005.63824541
0.30000001 82099.78555770  3706.80549341
0.30100001 80805.23313746  4392.57268130
0.30200001 79525.34500545  3614.42710161
0.30300001 78262.73996918  4282.53733385
0.30400001 77016.11060280  3875.83594957
0.30500001 75784.96900168  3826.38326604
0.30600001 74569.09630599  3433.90704746
0.30700001 73369.89583173  5084.53402186
0.30800001 72186.03570876  3680.40520486
0.30900001 71017.74432487  4293.02284769
0.31000001 69865.17108365  3585.13142389
0.31100001 68727.06455102  4502.99748258
0.31200001 67605.02100656  3491.46147519
0.31300001 66497.60807147  3758.44498615
0.31400001 65406.55209279  3708.55167925
0.31500001 64329.31011263  4268.89322119
0.31600002 63267.59941537  3610.04939357
0.31700002 62220.48678941  3264.70909642
0.31800002 61188.34386853  3806.22111056
0.31900002 60170.81644929  5198.75878738
0.32000002 59168.38509207  3418.74945250
0.32100002 58179.52543807  3653.09257523
0.32200002 57206.43109412  3880.31240485
0.32300002 56245.86553005  3826.96887187
0.32400002 55300.17857498  3504.64898314
0.32500002 54368.67209062  3987.94228668
0.32600002 53451.72084474  3146.16843790
0.32700002 52548.03637453  3619.50891687
0.32800002 51658.85983779  2804.30133909
0.32900002 50782.88517909  2513.75293540
0.33000002 49921.64212235  3965.77543799
0.33100002 49071.41280359  2443.75647334
0.33200002 48237.68204764  2650.41956562
0.33300002 47415.83044092  3325.74650462
0.33400002 46607.99941574  2576.25728971
0.33500002 45812.03704414  3694.28284219
0.33600002 45030.48402139  2959.17839760
0.33700002 44260.64913670  2468.41651925
0.33800002 43504.92420288  2875.89315063
0.33900002 42760.77239667  2398.87944506
0.34000002 42029.98286907  3224.75058835
0.34100002 41311.52018254  2543.13730288
0.34200002 40606.17875256  2924.86319407
0.34300002 39911.81083485  2471.33944394
0.34400002 39231.40992155  3248.36089535
0.34500002 38561.92710700  2601.77334513
0.34600002 37905.66937667  2367.58822140
0.34700002 37259.46773180  2139.43873849
0.34800002 36626.81542363  2492.63804171
0.34900002 36005.03969522  2835.39701029
0.35000002 35394.98087857  2422.60958097
0.35100002 34796.98741884  1837.28102273
0.35200002 34209.03727061  2354.77919205
0.35300002 33632.89842417  2500.26978727
0.35400002 33068.15131475  2113.05496909
0.35500002 32514.57943970  2951.67366134
0.35600002 31970.81962728  2396.85246098
0.35700002 31438.26278475  1857.05827065
0.35800002 30917.22690457  2330.84984674
0.35900002 30406.25836481  2134.51943831
0.36000002 29906.01379378  2752.99823018
0.36100002 29415.25835987  1597.24860460
0.36200002 28936.06399233  1890.68251081
0.36300002 28465.62816015  1709.64570828
0.36400002 28005.37892399  2146.61239620
0.36500002 27554.72089336  1664.02967357
0.36600002 27114.33496530  1492.64421054
0.36700002 26682.73483530  2209.33054901
0.36800002 26262.35322104  1744.34558357
0.36900002 25850.11182922  1578.14940193
0.37000002 25446.83553300  1557.72811094
0.37100002 25052.43625280  1817.30381186
0.37200002 24668.20674065  1656.22347902
0.37300002 24291.99439345  1635.33714003
0.37400002 23924.64603872  1614.91368411
0.37500002 23566.28640219  1993.70792407
0.37600002 23216.60451151  1706.76876152
0.37700002 22874.76719095  1945.49904175
0.37800002 22541.14454746  1665.90336670
0.37900002 22216.36187414  1772.86576154
0.38000002 21899.44478664  1627.01932750
0.38100002 21589.46528051  1360.78406109
0.38200002 21288.44903127  1345.32360026
0.38300002 20994.16512702  1209.26396860
0.38400002 20708.57309180  1913.47224433
0.38500002 20428.89364055  1419.39959739
0.38600002 20158.11110627  1404.21408619
0.38700002 19893.52073654  1736.70444258
0.38800002 19636.34102705  1374.93666385
0.38900002 19385.57779478  1360.86762567
0.39000002 19142.90919018  1235.00484491
0.39100002 18905.68432729  1333.98514933
0.39200002 18675.82023832  1100.93965521
0.39300002 18452.04680802  1744.82562883
0.39400002 18236.08657991  1080.48818105
0.39500002 18025.18046135  1177.76534714
0.39600002 17820.45542467  1697.93307331
0.39700002 17621.85093073  1157.22700545
0.39800002 17429.49866323  1251.78665330
0.39900002 17242.63600218  1344.92567189
0.40000002 17061.44524949  1128.87057842
0.40100002 16886.19484208  1120.06135694
0.40200002 16716.85050793  1515.80049162
0.40300002 16552.06539031  1003.05521018
0.40400002 16393.20735803  1394.24235186
0.40500002 16239.60957051  1186.79072364
0.40600002 16090.90089208  1473.52431901
0.40700002 15947.30228486  1073.57244068
0.40800002 15808.83096503  1163.84619079
0.40900002 15674.82931183  1156.80245802
0.41000002 15545.99969671  958.41092671
0.41100002 15421.46294957  953.04645544
0.41200002 15301.26533644  1137.49611901
0.41300002 15186.06751550  1320.27677236
0.41400002 15074.78988191  1313.76800046
0.41500002 14968.04475094  1027.40664039
0.41600002 14864.69499535  1022.76538762
0.41700002 14765.96218793  1018.40846036
0.41800002 14672.07480504  1014.35393971
0.41900002 14580.09418786  1285.96436830
0.42000002 14493.26542812  1006.77473067
0.42100002 14410.23278108  1003.38455609
0.42200002 14330.94914217  1182.08839601
0.42300002 14254.48052741  997.24350495
0.42400002 14181.55297103  994.48144922
0.42500002 14112.24356785  1082.12688806
0.42600002 14045.43711629  1169.49337691
0.42700002 13983.09669083  1167.02930512
0.42800002 13922.90500107  1433.50236684
0.42900002 13866.95429364  1341.62789149
0.43000002 13813.31419015  982.33388518
0.43100002 13761.62982590  891.75365498
0.43200002 13713.94464767  979.79282178
0.43300002 13668.74920516  1067.80273851
0.43400002 13626.26832229  1244.75967023
0.43500002 13586.11863524  1066.23864102
0.43600002 13548.89523951  1243.38217505
0.43700002 13513.66985066  1420.55704202
0.43800002 13480.56973393  1154.00422676
0.43900002 13450.67446665  976.51901256
0.44000002 13422.50340801  976.68850677
0.44100002 13396.82723322  1243.49356272
0.44200002 13373.12387416  1066.37294826
0.44300002 13351.48835061  1333.81374944
0.44400002 13332.23891381  889.92698967
0.44500002 13313.76932377  890.69120997
0.44600002 13297.46348290  1515.71144693
0.44700002 13284.10815134  981.96132108
0.44800002 13270.77891348  983.16570240
0.44900002 13261.01323510  1163.65396653
0.45000002 13252.16920700  986.16021827
0.45100002 13244.56453064  1346.97227660
0.45200002 13238.83136190  1259.41008714
0.45300002 13234.15591870  1171.61987901
0.45400002 13231.32962389  1083.64594755
0.45500002 13229.88055495  1085.90864741
0.45600002 13229.54152681  1541.70469489
0.45700002 13230.60506401  908.94261098
0.45800002 13232.47694205  1093.26729677
0.45900002 13235.64438614  1004.58545652
0.46000002 13240.83048436  915.60347139
0.46100002 13245.70330633  1193.30546742
0.46200002 13252.73433306  1104.48293166
0.46300002 13260.54292752  1107.52059780
0.46400002 13268.67338978  1018.03901408
0.46500002 13278.19746534  1020.96065150
0.46600002 13288.46169441  930.85678581
0.46700002 13299.03940243  1026.95187133
0.46800002 13311.58228982  1030.11684432
0.46900002 13323.71796839  1127.18659355
0.47000002 13336.90497421  1224.92809541
0.47100002 13350.83876360  1039.76337219
0.47200002 13365.54337732  1422.42802135
0.47300002 13380.88493506  1522.20954236
0.47400002 13396.00178441  1336.25124133
0.47500002 13412.17454860  1436.44396224
0.47600002 13429.38689680  1249.13448141
0.47700002 13446.02266387  1060.48785776
