# SAXS profile: number of points = 501, q_min = 0, q_max = 0.5, delta_q = 0.001
#    q    intensity    error
0.00000000 1682732.95097187 277.65093691
0.00100000 1682646.00204657 555.27319386
0.00200000 1682385.11380043 984.19532274
0.00300000 1681950.51973086 1412.83848690
0.00400000 1681342.08194991 1765.40925313
0.00500000 1680560.44975275 1663.75491111
0.00600000 1679605.48325252 2645.37874382
0.00700000 1678477.92476491 2014.17359343
0.00800000 1677177.53211769 2490.60874035
0.00900000 1675705.74787952 3518.98222098
0.01000000 1674061.95636097 3038.42258199
0.01100000 1672247.73973351 4515.06909386
0.01200000 1670262.96817804 4234.11680997
0.01300000 1668109.01599408 3853.33199690
0.01400000 1665786.05394238 4497.62254503
0.01500000 1663295.59857488 4391.10057577
0.01600000 1660637.35091393 8469.25086827
0.01700000 1657813.56398054 5818.92587060
0.01800000 1654824.63594858 5187.87546714
0.01900000 1651671.63209447 5946.01814384
0.02000000 1648355.20815713 5192.31914057
0.02100000 1644878.17568663 7599.33751621
0.02200000 1641239.18893410 7360.95809680
0.02300000 1637441.41846046 7663.22618721
0.02400000 1633485.30295875 7963.24121503
0.02500000 1629373.24405288 9531.83391303
0.02600000 1625105.87992210 6581.67911472
0.02700000 1620684.84636601 7487.56433315
0.02800000 1616110.81288923 7030.08235846
0.02900000 1611387.11159033 10151.73926913
0.03000000 1606514.19125484 8217.32046598
0.03100000 1601493.86767223 8455.88801039
0.03200000 1596327.36054802 11852.73119798
0.03300000 1591018.71493605 12171.29373036
0.03400000 1585566.58790778 10821.49246178
0.03500000 1579974.83587520 9385.05095848
0.03600000 1574244.19252687 12231.87794121
0.03700000 1568377.79113524 12515.65535208
0.03800000 1562377.11067071 10967.88782450
0.03900000 1556244.61943034 11204.96177880
0.04000000 1549980.50137337 12392.09468272
0.04100000 1543588.77683447 10697.07071945
0.04200000 1537071.04532088 12888.34131294
0.04300000 1530429.08676803 13131.08217399
0.04400000 1523665.56207667 13370.16592816
0.04500000 1516783.29341174 16745.28833733
0.04600000 1509782.43933012 11708.36336129
0.04700000 1502667.13716145 14064.96505796
0.04800000 1495439.03899349 15388.06842722
0.04900000 1488100.85805481 16741.13543237
0.05000000 1480654.44626687 18123.21126623
0.05100000 1473103.56804390 16086.29171240
0.05200000 1465447.36742227 13980.36853671
0.05300000 1457691.70911538 15349.49441255
0.05400000 1449836.98975164 17941.73358487
0.05500000 1441887.13805808 13323.03777717
0.05600000 1433842.93327396 15937.16494703
0.05700000 1425709.58798722 21086.24579061
0.05800000 1417486.20619857 20071.60561696
0.05900000 1409176.68454975 13950.84982863
0.06000000 1400784.94631774 15380.61942913
0.06100000 1392312.26718454 15538.20562790
0.06200000 1383761.38057646 16999.50935500
0.06300000 1375135.84101627 18481.82656738
0.06400000 1366434.77521845 18651.83555402
0.06500000 1357664.88075003 14784.97124298
0.06600000 1348827.03775677 14911.28360008
0.06700000 1339922.92085379 23234.26453494
0.06800000 1330956.33707278 16530.47848022
0.06900000 1321931.20521059 20820.41745686
0.07000000 1312846.72562683 22370.90925228
0.07100000 1303707.75492276 16896.05329517
0.07200000 1294515.90096499 18427.43471350
0.07300000 1285274.70904729 19973.16991445
0.07400000 1275987.14746336 21532.28412254
0.07500000 1266653.80840549 17327.82491119
0.07600000 1257277.96783229 26138.81017664
0.07700000 1247863.56259163 14600.00436689
0.07800000 1238411.68615666 24947.80458758
0.07900000 1228924.10460959 23595.34391521
0.08000000 1219406.20521992 23705.25774151
0.08100000 1209858.83154219 16369.39075879
0.08200000 1200283.49171213 16437.88319035
0.08300000 1190683.09349539 16502.86845036
0.08400000 1181061.45277837 18070.24107570
0.08500000 1171419.99865711 15111.31869208
0.08600000 1161761.27365782 18193.18239968
0.08700000 1152087.37825609 19769.82033922
0.08800000 1142400.33614439 21351.46328528
0.08900000 1132703.58416938 21408.09874633
0.09000000 1122999.17593929 18394.72736599
0.09100000 1113288.85594660 21508.74170739
0.09200000 1103574.67244231 20013.32762510
0.09300000 1093860.79149808 18508.12546188
0.09400000 1084146.00281808 16993.98939285
0.09500000 1074434.71796686 18566.23279913
0.09600000 1064728.53521969 18590.16109882
0.09700000 1055031.99546656 18610.76527497
0.09800000 1045344.07284399 23285.04031741
0.09900000 1035668.68593827 23302.54652935
0.10000000 1026005.77619406 17098.38706436
0.10100000 1016358.61344659 15550.28751709
0.10200000 1006729.59733823 17109.37031152
0.10300000 997119.75857879 20221.58965522
0.10400000 987531.91616356 20219.71693469
0.10500000 977969.00513898 23324.56186997
0.10600001 968428.03878395 17097.59782923
0.10700001 958917.20798308 24855.13520055
0.10800001 949432.67896235 23284.83754738
0.10900001 939980.29631438 21713.54586682
0.11000001 930560.06167610 15493.82575619
0.11100001 921172.79126304 18570.84434605
0.11200001 911822.02405366 17000.92243883
0.11300001 902507.17033818 16976.16067331
0.11400001 893231.67611500 21571.54599386
0.11500001 883996.51664749 19996.00214814
0.11600001 874802.88342682 24564.46612340
0.11700001 865652.60558119 18386.46220845
0.11800001 856545.67389728 21405.07739884
0.11900001 847484.12801318 19831.12952959
0.12000001 838469.19356296 24349.14652803
0.12100001 829504.00793310 16697.91646630
0.12200001 820587.66297990 19681.79602381
0.12300001 811722.62557171 16607.84570167
0.12400001 802908.42736134 16559.98709459
0.12500001 794146.88875767 22514.06535715
0.12600001 785440.84919679 20947.70843521
0.12700001 776789.16124895 16405.78785872
0.12800001 768193.10981342 16350.99111299
0.12900001 759654.38110311 14813.26112969
0.13000001 751173.55445097 25092.95376919
0.13100001 742750.59046819 17647.75486140
0.13200001 734387.36376380 17581.23431729
0.13300001 726085.48252897 18972.61455291
0.13400001 717843.58254418 18897.23320140
0.13500001 709664.68133815 18820.30823643
0.13600001 701546.91655751 17300.14777802
0.13700001 693493.55192334 17226.38064206
0.13800001 685502.36448026 20009.81496276
0.13900001 677576.94415786 18497.85144783
0.14000001 669715.83222606 16997.38862350
0.14100001 661920.00374394 16918.67609363
0.14200001 654189.75604943 15435.60802201
0.14300001 646526.94796011 16757.97928156
0.14400001 638928.00444839 15286.35322748
0.14500001 631398.22908094 19358.67061681
0.14600001 623935.03390014 16509.32177581
0.14700001 616541.28948672 16424.66072678
0.14800001 609212.28788382 13615.89527658
0.14900001 601952.71414904 18961.51139031
0.15000001 594761.03524729 17512.73950916
0.15100001 587638.03291620 17417.59211748
0.15200001 580583.93681486 15989.28237437
0.15300001 573599.41237014 25175.27939692
0.15400001 566681.16254442 17127.93894619
0.15500001 559833.25672616 17030.12847331
0.15600001 553051.69293466 13024.36798330
0.15700001 546342.58988696 12948.31999144
0.15800001 539698.05789146 14158.97921707
0.15900001 533124.96567526 12794.99978014
0.16000001 526617.84534444 12717.82156538
0.16100001 520182.05880849 13904.46708830
0.16200001 513813.17414420 17587.82578121
0.16300001 507511.95287899 13733.27409322
0.16400001 501279.01083708 13647.32171432
0.16500001 495113.35720105 18492.48476451
0.16600001 489016.03515639 15924.80793673
0.16700001 482984.04477140 12171.19850290
0.16800001 477018.82423417 13301.67054183
0.16900001 471122.21559804 15617.70218451
0.17000001 465290.04185320 16708.56619192
0.17100001 459523.93924841 18969.14910792
0.17200001 453823.75723057 20020.43599565
0.17300001 448188.78932727 14037.27354463
0.17400001 442618.51337131 13942.48382964
0.17500001 437112.26107619 11539.76423741
0.17600001 431668.67162172 13752.96452741
0.17700001 426290.42215649 21625.71413739
0.17800001 420973.35196693 21475.95656495
0.17900001 415719.66356128 14591.76088022
0.18000001 410527.98265099 14489.58583208
0.18100001 405399.31948351 12174.14213915
0.18200001 400328.87447337 13186.83374807
0.18300001 395320.23638412 15275.17465547
0.18400001 390370.96434491 11916.07424955
0.18500001 385482.57206699 11830.46069563
0.18600001 380651.62631501 11745.00648482
0.18700001 375878.81686571 11659.76145004
0.18800001 371163.72998375 11574.74146641
0.18900001 366507.52609352 14623.65098206
0.19000001 361903.97979832 14515.96931557
0.19100001 357360.85607742 15437.98971199
0.19200001 352869.79038233 11237.13900570
0.19300001 348436.26636771 15209.24374563
0.19400001 344054.46134555 10063.59346990
0.19500001 339727.65094269 14981.99011455
0.19600001 335453.18981069 9912.64222734
0.19700001 331231.04887536 13772.58766310
0.19800001 327060.87563380 13667.87463866
0.19900001 322942.18189875 11625.91909780
0.20000001 318872.64660540 11536.81289943
0.20100001 314854.53762350 13356.13011723
0.20200001 310884.02939761 11359.70297109
0.20300001 306963.73244898 15028.94505104
0.20400001 303090.72337814 11184.04822128
0.20500001 299264.93904471 12946.20187500
0.20600001 295486.09907617 11009.81257199
0.20700001 291753.77805803 11833.53379739
0.20800001 288065.81098774 11740.12268176
0.20900001 284424.91164945 8959.38514048
0.21000001 280826.54331979 12443.42472273
0.21100001 277272.56260783 11462.44828008
0.21200001 273761.29341472 12245.34323333
0.21300001 270291.77803180 12146.91307900
0.21400001 266865.18849848 12909.60410394
0.21500001 263480.79603264 14512.52293159
0.21600001 260136.00103158 11007.65540408
0.21700001 256831.67691327 10078.07547856
0.21800001 253567.05202515 9995.61366343
0.21900001 250340.51184513 9087.36100964
0.22000001 247152.10019285 9012.40175966
0.22100001 244003.35268057 10562.90563699
0.22200001 240891.90346883 8057.83455204
0.22300001 237815.69352304 12784.97228834
0.22400001 234775.38799486 8716.03669146
0.22500001 231773.43901939 10214.25594059
0.22600001 228804.39508479 14023.42203789
0.22700001 225872.04865561 10814.75420105
0.22800001 222972.46289445 8425.01490889
0.22900001 220105.93386769 9112.38609306
0.23000001 217273.73870384 9787.09602276
0.23100001 214474.90012574 7463.72687736
0.23200001 211706.50928124 12578.54284383
0.23300001 208970.82563643 8068.36395941
0.23400001 206266.85698995 8725.08846333
0.23500001 203591.95378686 8648.58660591
0.23600001 200949.07901838 8572.48811638
0.23700001 198335.50291939 7080.57778912
0.23800001 195751.64099402 8421.23599388
0.23900001 193196.42057956 8346.08576380
0.24000001 190669.87010663 8271.25935646
0.24100001 188172.69520409 8879.86990671
0.24200001 185702.55921176 7445.74446379
0.24300001 183260.42412213 8719.53139219
0.24400001 180844.85814935 9969.07327706
0.24500001 178455.89474376 6585.02282755
0.24600001 176093.86154343 7829.13345458
0.24700001 173757.78142406 9695.68466213
0.24800001 171447.26458253 8324.62232562
0.24900001 169161.22479795 7612.25547602
0.25000001 166901.34457536 6283.83592054
0.25100001 164664.72650119 7469.19234745
0.25200001 162454.28801399 8014.68267834
0.25300001 160267.51231223 7327.43100958
0.25400001 158104.20256694 7256.98324116
0.25500001 155963.91536799 7785.71902353
0.25600001 153847.41937334 6523.90012719
0.25700001 151753.04822278 12332.97081258
0.25800001 149682.18083373 5815.15300053
0.25900001 147633.53746375 6909.24988021
0.26000001 145606.74726259 5700.50442505
0.26100001 143601.41897636 9594.01125576
0.26200001 141618.50600911 6704.22039169
0.26300001 139656.22291964 6636.46402716
0.26400001 137715.44064745 5474.18902477
0.26500001 135795.99348181 8127.39059447
0.26600001 133896.08210461 5898.79217625
0.26700001 132017.92635704 5837.83297976
0.26800001 130160.30950116 6827.55935797
0.26900001 128321.45922476 6756.12514789
0.27000001 126503.41590723 5142.36409998
0.27100001 124704.63147050 5596.74412525
0.27200001 122926.94988226 8054.17413744
0.27300001 121167.38244323 6473.97355032
0.27400001 119425.38908469 5911.55703946
0.27500001 117705.22371715 5847.59579101
0.27600001 116001.55567002 6747.81081267
0.27700001 114318.33179562 5243.78212764
0.27800001 112652.60243446 5657.41396201
0.27900001 111006.45054572 6527.17960101
0.28000001 109377.11538452 5993.31932115
0.28100001 107766.63861350 6381.94064074
0.28200001 106174.61118816 5859.24619573
0.28300001 104600.10900707 8466.33322375
0.28400001 103043.03188730 4845.59880385
0.28500001 101503.97704060 6967.23331384
0.28600001 99982.22339661  4304.23492095
0.28700001 98477.86075556  5530.51692181
0.28800001 96989.89148062  4624.96319417
0.28900001 95521.00699244  5401.71320111
0.29000001 94067.42591125  4516.64766892
0.29100001 92631.76747478  5274.45308968
0.29200001 91212.71184075  6013.19831274
0.29300001 89810.34910507  4752.76389962
0.29400001 88423.96623550  6260.41710582
0.29500001 87055.21920786  4638.30229896
0.29600001 85702.08888446  6490.64800892
0.29700001 84365.38982206  4525.35972428
0.29800001 83044.81732286  4841.92830322
0.29900001 81741.05738796  6253.19118620
0.30000001 80452.56731120  4358.92030327
0.30100001 79181.03832424  4662.97156766
0.30200001 77923.82015043  4249.96535220
0.30300001 76683.57546926  3496.77120694
0.30400001 75459.03644735  4487.92640517
0.30500001 74249.76835515  4089.67743462
0.30600001 73055.22577666  3700.61263691
0.30700001 71877.17038540  3652.79797192
0.30800001 70714.09418113  4260.87794661
0.30900001 69566.32494763  4205.28454218
0.31000001 68433.95637779  3830.93305940
0.31100001 67315.79038917  3780.45496724
0.31200001 66213.39431341  4663.07851530
0.31300001 65125.35434224  3067.40433475
0.31400001 64053.36362848  3934.47804716
0.31500001 62994.89361980  4777.53295833
0.31600002 61951.70768142  3829.54499165
0.31700002 60922.85802578  3487.22455851
0.31800002 59908.63259333  4299.94230798
0.31900002 58908.86198885  2827.62550935
0.32000002 57923.84693202  2789.03336184
0.32100002 56952.12200711  3576.02391015
0.32200002 55995.95871406  2984.30476097
0.32300002 55052.07654185  3210.63725595
0.32400002 54122.94283390  3430.04166452
0.32500002 53207.59157901  2862.03648656
0.32600002 52306.48777460  2822.19668152
0.32700002 51418.57082767  3288.73194587
0.32800002 50544.88665710  2743.82930211
0.32900002 49684.13198880  3443.11050987
0.33000002 48837.86935215  2909.76039379
0.33100002 48002.41773713  3107.67667146
0.33200002 47183.24184899  2828.16365036
0.33300002 46375.79236854  3020.45550000
0.33400002 45582.04202053  2290.49772000
0.33500002 44799.99804952  2257.92000862
0.33600002 44032.12444386  3116.15359446
0.33700002 43275.87364342  2194.08689763
0.33800002 42533.36621473  2379.10395189
0.33900002 41802.35818588  2771.49647898
0.34000002 41084.46992653  2101.47073626
0.34100002 40378.71601642  2278.57105272
0.34200002 39685.94746797  2654.39472210
0.34300002 39003.96993982  2213.86543863
0.34400002 38335.69055712  2182.25928832
0.34500002 37678.18168953  2737.69681122
0.34600002 37033.71183035  2120.36527127
0.34700002 36399.16797874  2090.04032433
0.34800002 35778.02642993  2434.87370401
0.34900002 35167.54831249  2215.55564862
0.35000002 34568.62398644  2184.04576690
0.35100002 33981.61595905  2870.76705219
0.35200002 33404.44798680  1768.76560467
0.35300002 32838.99266574  1743.75059314
0.35400002 32284.78981294  2234.91468065
0.35500002 31741.54917127  1694.99880603
0.35600002 31208.02380280  1838.30872917
0.35700002 30685.58773441  1977.37936726
0.35800002 30174.41807279  2437.33873527
0.35900002 29673.24896279  1762.59107188
0.36000002 29182.70059383  2212.34063681
0.36100002 28701.46797908  1870.18774210
0.36200002 28231.66164387  1537.21404932
0.36300002 27770.49582987  1667.89605855
0.36400002 27319.38720030  1944.45747609
0.36500002 26877.76662247  2065.82524046
0.36600002 26446.27225028  1892.62756324
0.36700002 26023.48819813  1580.14627824
0.36800002 25611.72894012  1701.13111678
0.36900002 25208.06055174  1678.85691227
0.37000002 24813.19166921  1518.93959998
0.37100002 24427.24439429  1363.04030177
0.37200002 24051.20076963  1480.23122149
0.37300002 23683.09480882  1727.20818623
0.37400002 23323.77249828  1443.15849169
0.37500002 22973.40604052  1425.27017827
0.37600002 22631.46644924  1663.75233483
0.37700002 22297.40435764  1264.26288697
0.37800002 21971.48022141  1249.07870976
0.37900002 21654.20340681  1357.71861793
0.38000002 21344.73022263  1585.80680701
0.38100002 21042.14167493  2170.28659517
0.38200002 20748.37695337  1549.59260617
0.38300002 20461.37645033  1178.57533937
0.38400002 20182.91878099  1515.23269927
0.38500002 19910.31571373  1613.93026821
0.38600002 19646.43046020  1710.71301337
0.38700002 19388.81143713  1579.80043074
0.38800002 19138.41596258  1675.08993648
0.38900002 18894.44738641  1657.98783671
0.39000002 18658.40440535  1860.33629937
0.39100002 18427.82418124  1083.55611319
0.39200002 18204.50716824  1824.36477230
0.39300002 17987.22391934  1488.26297760
0.39400002 17777.66839911  1263.99228306
0.39500002 17573.14458196  1356.99828891
0.39600002 17374.70573082  1551.99566294
0.39700002 17182.34002776  1641.25719721
0.39800002 16996.11908294  1322.38310790
0.39900002 16815.40221998  1715.17110770
0.40000002 16640.32508752  1101.00716158
0.40100002 16471.11471647  1291.17074380
0.40200002 16307.67225176  1084.37871776
0.40300002 16148.85564581  1076.48276835
0.40400002 15995.85855839  1360.44783485
0.40500002 15847.99144191  1254.68554190
0.40600002 15705.17530004  1054.68109725
0.40700002 15567.23832833  1238.52954008
0.40800002 15434.43428599  1325.66362364
0.40900002 15306.04267306  1317.85033659
0.41000002 15182.76086723  936.01725181
0.41100002 15063.80318055  1768.79185327
0.41200002 14949.09645670  1018.70622631
0.41300002 14839.37859505  1290.13563618
0.41400002 14733.53154640  1284.02733511
0.41500002 14632.13484069  1004.34978305
0.41600002 14534.17824520  1000.02418155
0.41700002 14440.72676771  1358.15041686
0.41800002 14352.11001377  992.23317282
0.41900002 14265.38761953  898.71946262
0.42000002 14183.76303123  1164.41608122
0.42100002 14105.85711585  1071.48095729
0.42200002 14031.71217005  1246.43705113
0.42300002 13960.36275112  1331.81866957
0.42400002 13892.48648757  1239.90447777
0.42500002 13828.26337781  971.98867888
0.42600002 13766.48946350  1146.26679950
0.42700002 13709.11250929  1056.15007776
0.42800002 13653.84359538  1142.21234010
0.42900002 13602.79597194  1052.85645812
0.43000002 13554.09018302  1139.15356341
0.43100002 13507.25322116  962.79705523
0.43200002 13464.43376617  1049.41801746
0.43300002 13424.01740608  961.29393200
0.43400002 13386.31169922  1397.53100763
0.43500002 13350.88737201  1047.77769061
0.43600002 13318.42095460  1047.62704193
0.43700002 13287.87218391  1134.91721701
0.43800002 13259.50357076  1309.70752727
0.43900002 13234.25578389  1222.84529238
0.44000002 13210.68681382  1048.66436898
0.44100002 13189.61086937  1049.36549050
0.44200002 13170.44832047  1225.24686532
0.44300002 13153.40369751  876.01672777
0.44400002 13138.72342967  964.71081354
0.44500002 13124.75309109  1229.26443277
0.44600002 13112.91993455  1055.06558793
0.44700002 13104.03209211  968.65009815
0.44800002 13095.18833044  1587.52975653
0.44900002 13089.72972506  1413.69087730
0.45000002 13085.34013933  1504.87961404
0.45100002 13082.12262266  1241.75513819
0.45200002 13080.67571158  1155.48154374
0.45300002 13080.35827670  979.84968495
0.45400002 13081.83759667  982.11900412
0.45500002 13084.63152772  1163.48549059
0.45600002 13088.56008956  1256.10917133
0.45700002 13093.84901021  899.54746963
0.45800002 13099.88304030  1082.31238808
0.45900002 13107.31682768  1175.72637517
0.46000002 13116.61181191  1088.41649974
0.46100002 13125.63124486  909.60628838
0.46200002 13136.76777058  1003.58342140
0.46300002 13148.67601479  1098.17747280
0.46400002 13160.83286385  917.96813576
0.46500002 13174.42842668  1012.98184974
0.46600002 13188.71296763  1108.64326460
0.46700002 13203.35257790  926.87539490
0.46800002 13219.80646369  1023.01477168
0.46900002 13235.87904388  1213.06837187
0.47000002 13253.00216305  1310.85450608
0.47100002 13270.86181338  1127.49247310
0.47200002 13289.42148576  1131.46139893
0.47300002 13308.62265538  1230.11605034
0.47400002 13327.58820981  1519.34512793
0.47500002 13347.53141942  1238.91792507
0.47600002 13368.53326346  1339.12604047
0.47700002 13388.90127958  959.98426725
