# SAXS profile: number of points = 501, q_min = 0, q_max = 0.5, delta_q = 0.001
#    q    intensity    error
0.00000000 1664650.74656090 299.63713438
0.00100000 1664564.23932101 699.11699712
0.00200000 1664304.67055864 898.72455056
0.00300000 1663872.28502378 1098.15574724
0.00400000 1663266.92242916 1247.45023922
0.00500000 1662489.25844631 1945.11250937
0.00600000 1661539.12108544 2268.00099262
0.00700000 1660417.28767155 1992.50082801
0.00800000 1659123.49747671 2463.79849777
0.00900000 1657659.16284317 3481.08439078
0.01000000 1656023.73000716 2732.43927250
0.01100000 1654218.75383632 4466.39082982
0.01200000 1652244.06377536 4188.43888531
0.01300000 1650101.06584295 4504.77610843
0.01400000 1647789.95084512 5932.04408602
0.01500000 1645312.20148091 4343.62440533
0.01600000 1642667.52022518 4607.68260021
0.01700000 1639858.16917580 5313.14070647
0.01800000 1636884.54603029 6997.68174916
0.01900000 1633747.63384232 6861.74037176
0.02000000 1630448.26435927 8731.05085060
0.02100000 1626989.05405135 5905.97053397
0.02200000 1623368.80521364 7280.80942217
0.02300000 1619590.55492438 8162.73676837
0.02400000 1615654.87205752 8482.18846507
0.02500000 1611563.99110142 6285.09985234
0.02600000 1607318.79174282 7160.60554473
0.02700000 1602920.61894172 7405.49359869
0.02800000 1598370.34137647 11124.65808615
0.02900000 1593671.20051467 10757.28109739
0.03000000 1588823.62248964 8865.63622100
0.03100000 1583829.56811672 8362.62050445
0.03200000 1578690.05692473 10158.87098421
0.03300000 1573409.17497051 10431.70331096
0.03400000 1567985.70312916 12347.88798188
0.03500000 1562423.41306638 10124.50418420
0.03600000 1556722.96962819 12959.71932107
0.03700000 1550887.60587319 10608.07171477
0.03800000 1544918.77821944 9037.77527085
0.03900000 1538818.81074232 12926.07860884
0.04000000 1532588.08033976 10367.95884394
0.04100000 1526230.54169098 10576.77814433
0.04200000 1519747.71639651 10782.61054807
0.04300000 1513141.43846053 10985.40735314
0.04400000 1506414.20447994 12201.95562297
0.04500000 1499569.14082880 12416.43306299
0.04600000 1492606.19633537 10522.87417334
0.04700000 1485529.61285225 11765.39508097
0.04800000 1478340.87313408 14125.54770003
0.04900000 1471042.76175754 13239.38547208
0.05000000 1463637.15833709 12316.50726094
0.05100000 1456127.93812143 13629.35813573
0.05200000 1448513.91822177 18425.09789841
0.05300000 1440801.22168632 14004.58852766
0.05400000 1432990.03393631 16551.03566380
0.05500000 1425084.62335230 14364.85367350
0.05600000 1417085.27570706 14539.29560722
0.05700000 1408997.63980437 12258.28003850
0.05800000 1400820.61763365 16116.44195839
0.05900000 1392558.16064079 15039.62883736
0.06000000 1384214.07731727 13932.11533909
0.06100000 1375789.67233584 17912.78237090
0.06200000 1367287.63935420 18089.21631421
0.06300000 1358711.62103144 18261.08504047
0.06400000 1350060.72150725 14479.40191532
0.06500000 1341341.65630640 14607.21132047
0.06600000 1332555.32314724 14731.39978665
0.06700000 1323703.11959477 14851.94969691
0.06800000 1314789.03542016 14968.87386894
0.06900000 1305817.04995063 16453.29559970
0.07000000 1296786.46505973 13810.77649962
0.07100000 1287701.88641480 18079.33533206
0.07200000 1278564.89540937 19600.40076484
0.07300000 1269379.10685223 15499.11962089
0.07400000 1260147.55223234 15594.32668969
0.07500000 1250870.71257607 14259.92679177
0.07600000 1241551.90172798 14339.92513722
0.07700000 1232194.99229147 15858.35029437
0.07800000 1222801.29027305 24633.33314776
0.07900000 1213372.10070757 16016.51248057
0.08000000 1203913.35660488 23404.07675031
0.08100000 1194425.44117887 14691.43361580
0.08200000 1184910.15148565 20652.98490954
0.08300000 1175370.21557303 19252.56503465
0.08400000 1165809.58855027 14864.07295172
0.08500000 1156229.56523026 29830.72418335
0.08600000 1146632.57491213 16459.91138568
0.08700000 1137021.04410871 22513.01773051
0.08800000 1127396.63052544 15050.74572435
0.08900000 1117763.02304594 22634.70227983
0.09000000 1108122.12442818 18151.04125079
0.09100000 1098475.55842920 16674.85976036
0.09200000 1088825.72182462 21264.76734640
0.09300000 1079176.58603690 16738.02963599
0.09400000 1069526.79487909 19812.98480630
0.09500000 1059880.88897996 16788.51407055
0.09600000 1050240.48368402 18337.19970711
0.09700000 1040610.02179956 21415.75525545
0.09800000 1030988.63591713 18372.21835586
0.09900000 1021379.95148141 16852.76999190
0.10000000 1011784.25510693 16861.38540430
0.10100000 1002204.41139142 15333.72821546
0.10200000 992642.96010249 19937.23479143
0.10300000 983101.21035353 21470.93144413
0.10400000 973581.58971875 21467.47506324
0.10500000 964087.34391277 19927.68633626
0.10600001 954615.09675443 15321.57302384
0.10700001 945173.30199700 22967.71231933
0.10800001 935758.00272814 19889.53728402
0.10900001 926375.08505509 21399.26547194
0.11000001 917024.71403301 18322.15464879
0.11100001 907707.23947032 16774.43057504
0.11200001 898426.83384874 16751.16910571
0.11300001 889182.30741785 15205.01817271
0.11400001 879977.42795247 19733.49475097
0.11500001 870812.85821533 15152.14444643
0.11600001 861690.34868516 19659.46623105
0.11700001 852611.04480732 15091.21620381
0.11800001 843575.44020170 22586.73347520
0.11900001 834585.24250448 18027.04208720
0.12000001 825641.78311710 20979.55869725
0.12100001 816748.31406679 19430.44330698
0.12200001 807903.82608018 17886.99155209
0.12300001 799110.55081185 14863.45694538
0.12400001 790368.40480783 17783.28994608
0.12500001 781679.00638663 20683.22748359
0.12600001 773045.15201273 23562.41734369
0.12700001 764465.66137090 16145.51552903
0.12800001 755942.04756665 23403.96689567
0.12900001 747475.66091092 24778.81932707
0.13000001 739067.26620648 14522.67246548
0.13100001 730716.86589968 20255.47247753
0.13200001 722426.23678356 15853.64451356
0.13300001 714196.86810986 15790.89349834
0.13400001 706027.46742664 21445.58533415
0.13500001 697921.15325783 22780.14751638
0.13600001 689876.10385635 14176.95460270
0.13700001 681895.39461958 19761.32946789
0.13800001 673976.89272569 19673.38642638
0.13900001 666123.89528535 22381.76393707
0.14000001 658335.33805428 16708.55166780
0.14100001 650612.13260588 15243.84298590
0.14200001 642954.15560944 16549.64074596
0.14300001 635363.96322294 13723.86225294
0.14400001 627837.16180346 15021.00480469
0.14500001 620379.87970599 17662.21600839
0.14600001 612988.92872581 13516.40651603
0.14700001 605667.46910302 17479.56398294
0.14800001 598410.36599961 18724.26123551
0.14900001 591222.82753081 14632.76567177
0.15000001 584103.14176647 18521.91149933
0.15100001 577051.83804554 13156.78252824
0.15200001 570069.55572376 19624.64538182
0.15300001 563156.58349013 16911.59300025
0.15400001 556309.83154817 16814.46545204
0.15500001 549533.15913822 16716.79948990
0.15600001 542822.80908010 14061.82553287
0.15700001 536184.72911296 19061.36801960
0.15800001 529611.19155414 15157.47301769
0.15900001 523108.67964165 16320.99157518
0.16000001 516672.20333194 16220.92458927
0.16100001 510306.96895082 14880.55191703
0.16200001 504008.22221278 17252.20226075
0.16300001 497777.16451089 14694.38259005
0.16400001 491614.03287851 18251.17183224
0.16500001 485518.15054467 15716.22327511
0.16600001 479490.36130907 13212.35752967
0.16700001 473527.55791236 15512.76352964
0.16800001 467631.39520343 18967.13028501
0.16900001 461803.63602714 12953.59260220
0.17000001 456040.09040379 16376.40041969
0.17100001 450342.50811191 13942.60470953
0.17200001 444710.53961841 12694.26295287
0.17300001 439143.64503608 12607.81464438
0.17400001 433641.00945738 13659.69244300
0.17500001 428202.28375817 16956.81123765
0.17600001 422826.02691378 20206.85678056
0.17700001 417514.87609272 12262.41249000
0.17800001 412264.49776629 11069.30228785
0.17900001 407077.37184752 12090.19851493
0.18000001 401952.00790576 12004.29728313
0.18100001 396889.33178901 13002.09512358
0.18200001 391884.61907928 13984.40329244
0.18300001 386941.40901436 17087.33342927
0.18400001 382057.39870238 12722.51197781
0.18500001 377233.81929479 18944.68329997
0.18600001 372467.44070488 13582.02586697
0.18700001 367759.00065383 12444.96517009
0.18800001 363108.06936076 12352.93710328
0.18900001 358515.46546173 11239.46037326
0.19000001 353975.52535465 12169.67913670
0.19100001 349495.54703406 14091.66112225
0.19200001 345067.33527398 10988.66981103
0.19300001 340696.49365806 9914.26843392
0.19400001 336376.83200797 11806.82736140
0.19500001 332111.99326150 10740.50236962
0.19600001 327899.16001543 11627.30476361
0.19700001 323738.32583272 10576.53160478
0.19800001 319629.25725154 14311.40066978
0.19900001 315571.14525782 11360.56176618
0.20000001 311561.98932617 11272.31330656
0.20100001 307603.92330210 13048.55904318
0.20200001 303693.18300536 9247.45785958
0.20300001 299832.33368236 11009.84381319
0.20400001 296018.31261277 10923.07625170
0.20500001 292251.32698037 11739.73635970
0.20600001 288530.90831966 11646.55066483
0.20700001 284856.60313446 12442.53701306
0.20800001 281226.54393989 9698.09782620
0.20900001 277642.87888119 10494.90131782
0.21000001 274101.65696801 10410.38142377
0.21100001 270604.51172530 8605.22387966
0.21200001 267149.58799360 9388.97271389
0.21300001 263736.16615625 14392.08326754
0.21400001 260365.35463387 8396.78308391
0.21500001 257036.32956583 8327.97747166
0.21600001 253746.65547288 9085.39942875
0.21700001 250497.05666516 9829.50496828
0.21800001 247286.85111759 9748.04813195
0.21900001 244114.19828799 8861.34581683
0.22000001 240979.62754364 9586.17003694
0.22100001 237884.15997293 11090.16006232
0.22200001 234825.76700756 10996.89118895
0.22300001 231802.14636961 10125.11823219
0.22400001 228814.33963162 10039.22962606
0.22500001 225864.29037039 8422.47978619
0.22600001 222946.93381134 9868.74649183
0.22700001 220065.83989922 9784.12770460
0.22800001 217217.31441217 11938.26416465
0.22900001 214401.37690607 8136.53263837
0.23000001 211619.46762398 8799.13787993
0.23100001 208870.55280091 8722.43469747
0.23200001 206151.78694298 10087.00741217
0.23300001 203465.36582794 10712.45201748
0.23400001 200810.42960228 8494.28157392
0.23500001 198184.08219852 7717.28852581
0.23600001 195589.46022765 13906.41127992
0.23700001 193023.90510934 12403.71672900
0.23800001 190487.57679978 8194.77594153
0.23900001 187979.64252697 6767.26745106
0.24000001 185500.13497988 7376.41321638
0.24100001 183049.57551216 10631.51984863
0.24200001 180625.70222808 7242.18787340
0.24300001 178229.62343864 6523.20452642
0.24400001 175859.67309467 9047.98060872
0.24500001 173515.92498486 7683.28552178
0.24600001 171199.08804503 6977.21916333
0.24700001 168907.73997696 6911.70504682
0.24800001 166641.45717521 6846.46459193
0.24900001 164399.40764242 6781.47588606
0.25000001 162183.24927573 6106.19962410
0.25100001 159990.00295086 7257.14687718
0.25200001 157822.82387887 7786.18938443
0.25300001 155678.75628247 5931.36089498
0.25400001 153557.93933130 5873.59145731
0.25500001 151459.92378136 8142.48588772
0.25600001 149385.27867806 6334.68304205
0.25700001 147332.29551561 8552.64015934
0.25800001 145302.84832485 6774.01910941
0.25900001 143295.15535277 8941.61811708
0.26000001 141309.03632407 6638.69884062
0.26100001 139344.10629637 6571.46836387
0.26200001 137401.28015555 8130.72113792
0.26300001 135478.87605047 7510.94924364
0.26400001 133577.55655768 6371.64974930
0.26500001 131697.30426194 5780.19495757
0.26600001 129836.28474793 5719.93779524
0.26700001 127996.84280286 5145.47332416
0.26800001 126177.62619210 6618.64769511
0.26900001 124376.91137402 7052.17120863
0.27000001 122596.67054010 5980.26587195
0.27100001 120835.47033994 6902.12239245
0.27200001 119095.02805311 5852.32995548
0.27300001 117372.33623283 5306.40357221
0.27400001 115667.15782380 6202.65163184
0.27500001 113983.46606847 4718.91571856
0.27600001 112316.06015117 5133.40577215
0.27700001 110668.67411496 7845.30267930
0.27800001 109038.72155918 5019.59778454
0.27900001 107428.08528936 8121.56363225
0.28000001 105833.90159551 4906.98907972
0.28100001 104258.34383910 4851.14096843
0.28200001 102701.09018514 4795.62763317
0.28300001 101160.99292401 4309.45850253
0.28400001 99638.14623918  6389.29643000
0.28500001 98132.98627061  7577.82955849
0.28600001 96644.92746973  5824.79005430
0.28700001 95174.12882185  5344.97932763
0.28800001 93719.54548393  5281.56523574
0.28900001 92283.55553081  4817.20182672
0.29000001 90862.79584496  4362.77734900
0.29100001 89459.64625462  4310.16596057
0.29200001 88072.99167897  5806.21225127
0.29300001 86702.74503793  4970.66860832
0.29400001 85348.29739536  4154.32857237
0.29500001 84011.12725030  5222.13191708
0.29600001 82689.54950645  4052.20156538
0.29700001 81384.09492788  4729.22998013
0.29800001 80094.61104440  3592.24347539
0.29900001 78821.63076762  5675.15768393
0.30000001 77563.84140215  4202.40912611
0.30100001 76322.70647409  5186.12815043
0.30200001 75095.63431974  4095.71608969
0.30300001 73885.44235463  5390.68212940
0.30400001 72690.76995959  3325.60288309
0.30500001 71511.14841527  3610.59805442
0.30600001 70346.00746599  3563.37717689
0.30700001 69197.21823821  3836.29396075
0.30800001 68063.14946390  3470.19983971
0.30900001 66944.30019370  3112.91010639
0.31000001 65840.45939619  3992.89484912
0.31100001 64750.85649276  4242.47631827
0.31200001 63676.73875951  3288.58532894
0.31300001 62616.75735862  4128.94917572
0.31400001 61572.75065928  3200.24386704
0.31500001 60542.09380867  3156.66492064
0.31600002 59526.53043872  3396.58398765
0.31700002 58525.10171212  3070.81223223
0.31800002 57538.09721961  3303.83769878
0.31900002 56565.28735692  4344.21427471
0.32000002 55607.20746393  3480.73331602
0.32100002 54662.26068674  3432.24351104
0.32200002 53732.61547198  2863.67987718
0.32300002 52815.24629905  3080.18531001
0.32400002 51912.33817322  3289.94458751
0.32500002 51022.97890205  2744.52616510
0.32600002 50147.82824696  2951.70131039
0.32700002 49285.69163997  2909.82737221
0.32800002 48437.63774469  3346.55655025
0.32900002 47602.26569435  3063.20594249
0.33000002 46781.39442564  2787.23561187
0.33100002 45970.92394943  3434.02818164
0.33200002 45176.84480125  3159.21690656
0.33300002 44394.27523442  2668.98395348
0.33400002 43625.17408961  2192.16510181
0.33500002 42867.66915175  2808.68981583
0.33600002 42124.16038489  2555.25168996
0.33700002 41392.23126453  2728.16209184
0.33800002 40673.70264341  2068.25787736
0.33900002 39966.70891099  2445.96270119
0.34000002 39272.57481307  2410.55075619
0.34100002 38590.55600361  3365.48254846
0.34200002 37921.26417173  2146.15404744
0.34300002 37262.73086997  2115.03270435
0.34400002 36617.59197636  1894.96047452
0.34500002 35983.27522781  2427.79169460
0.34600002 35361.81329807  2208.69896320
0.34700002 34750.06172309  2176.74396943
0.34800002 34151.61193567  1966.62066646
0.34900002 33563.79885494  2114.51942801
0.35000002 32987.12243922  1910.44928655
0.35100002 32422.48235989  2225.47929459
0.35200002 31867.39837424  3206.01976529
0.35300002 31323.96807632  1995.96334036
0.35400002 30791.75121793  3443.28774303
0.35500002 30270.20067895  1616.42879282
0.35600002 29758.24325283  1752.90940183
0.35700002 29257.36630693  1728.23270961
0.35800002 28767.65181649  2013.87956080
0.35900002 28287.61903204  2444.05040013
0.36000002 27818.04671664  2259.52095158
0.36100002 27357.85264674  1634.08461599
0.36200002 26908.84607415  1758.22408577
0.36300002 26468.36366299  2023.24181423
0.36400002 26037.84977960  1568.12957725
0.36500002 25616.65545108  1546.98989597
0.36600002 25205.46711721  1942.58544274
0.36700002 24802.87670660  1642.94263087
0.36800002 24411.19659007  1621.39175432
0.36900002 24027.36036427  1600.22227606
0.37000002 23652.35060003  1447.87871057
0.37100002 23286.03249579  1429.29674230
0.37200002 22929.50963545  1282.90612487
0.37300002 22580.84417193  1900.17812708
0.37400002 22240.76007648  1501.25137628
0.37500002 21909.52312941  1235.69716304
0.37600002 21586.65120761  1342.79770198
0.37700002 21271.43057100  1809.13525577
0.37800002 20964.26424805  1787.72771844
0.37900002 20665.54222871  1177.93596284
0.38000002 20374.56532043  1513.72840219
0.38100002 20090.35310385  1496.53047360
0.38200002 19814.87006119  1479.87364063
0.38300002 19545.89590730  1238.42802336
0.38400002 19285.43580440  1113.73397047
0.38500002 19030.63979497  1101.87409633
0.38600002 18784.44692607  1744.69951315
0.38700002 18544.45107725  1511.00194536
0.38800002 18311.41580978  1175.31827943
0.38900002 18084.79446503  1163.75657896
0.39000002 17865.92556961  1257.40390116
0.39100002 17652.33981469  1037.95763028
0.39200002 17445.88952924  1234.12228377
0.39300002 17245.50898879  1528.81444429
0.39400002 17052.52453906  1111.39833949
0.39500002 16864.42870124  1202.09653478
0.39600002 16682.37318550  1291.46598134
0.39700002 16506.27249425  1576.67922335
0.39800002 16336.08523730  1075.48622255
0.39900002 16171.36749443  1067.31030520
0.40000002 16012.05736519  1252.06288499
0.40100002 15858.53846827  1051.89690644
0.40200002 15710.60220900  1139.64713824
0.40300002 15567.16486083  1132.04428232
0.40400002 15429.43700517  1312.27367947
0.40500002 15296.75412191  1211.04408121
0.40600002 15168.94113372  1111.27668011
0.40700002 15045.74828180  1197.03979002
0.40800002 14927.73724613  1098.98006813
0.40900002 14813.87404035  1366.57994497
0.41000002 14704.96209456  1269.18533852
0.41100002 14600.31018369  1172.98897574
0.41200002 14499.73991667  898.25893040
0.41300002 14403.91590358  1073.37986399
0.41400002 14311.96647870  1336.37993327
0.41500002 14224.29799367  1153.87510792
0.41600002 14139.96627160  1061.34591864
0.41700002 14059.84311701  881.55220521
0.41800002 13984.57191040  1054.71646346
0.41900002 13910.94236165  876.38941031
0.42000002 13842.28281346  961.55422120
0.42100002 13777.21522353  1744.19552995
0.42200002 13715.76282779  1653.50386606
0.42300002 13657.00082786  955.44382319
0.42400002 13601.42868753  953.80023191
0.42500002 13549.52036694  1298.72158871
0.42600002 13499.80761879  1124.06153464
0.42700002 13454.43995312  950.15259451
0.42800002 13410.84465278  1380.78063088
0.42900002 13371.54135381  1379.94313310
0.43000002 13334.33342077  948.27116615
0.43100002 13298.84404520  947.94164846
0.43200002 13267.27307691  1034.05131262
0.43300002 13237.89965644  1034.14477017
0.43400002 13211.07742912  1206.83198034
0.43500002 13186.43989578  862.39321005
0.43600002 13164.49839144  949.22620150
0.43700002 13144.44028158  1122.66669765
0.43800002 13126.40157861  864.37358491
0.43900002 13111.36855632  951.88540230
0.44000002 13097.73766982  953.05692671
0.44100002 13086.54466111  1214.69313301
0.44200002 13077.06566923  1042.76526588
0.44300002 13069.60491157  957.47930120
0.44400002 13064.34005112  1656.88500550
0.44500002 13059.63696667  1223.16565627
0.44600002 13056.93584449  875.46758986
0.44700002 13057.00307923  1140.65984306
0.44800002 13056.95506760  967.32456203
0.44900002 13060.10962249  1322.33616194
0.45000002 13064.22184545  883.79464973
0.45100002 13069.34582851  1506.37287158
0.45200002 13076.01537037  977.36681518
0.45300002 13083.80644649  980.10798736
0.45400002 13093.19553537  1072.33276517
0.45500002 13103.73230930  985.92486568
0.45600002 13115.22775699  988.95379589
0.45700002 13127.88597306  992.07439000
0.45800002 13141.25540487  995.25302526
0.45900002 13155.89268071  1452.41062079
0.46000002 13172.13867247  1001.93877561
0.46100002 13188.02235742  1279.50198976
0.46200002 13205.89371230  1192.29417032
0.46300002 13224.29294417  1288.57516555
0.46400002 13242.86618516  1200.79694825
0.46500002 13262.69409824  1390.59354211
0.46600002 13283.15232790  930.48486467
0.46700002 13303.77484737  1307.49505397
0.46800002 13326.02152766  1218.73135658
0.46900002 13347.75644060  1599.72868523
0.47000002 13370.36651062  1039.07808262
0.47100002 13393.69129266  1327.58274385
0.47200002 13417.43088669  1618.34350310
0.47300002 13441.72847646  1146.84832797
0.47400002 13465.63635825  1151.31196320
0.47500002 13490.42748631  1541.14650908
0.47600002 13516.02845999  1160.48625858
0.47700002 13540.91509685  1456.32548769
