# SAXS profile: number of points = 501, q_min = 0, q_max = 0.5, delta_q = 0.001
#    q    intensity    error
0.00000000 1646666.22097350 370.49989972
0.00100000 1646580.42044471 790.35862058
0.00200000 1646322.98327817 740.84536593
0.00300000 1645894.13491846 1086.29016774
0.00400000 1645293.73179506 1357.36738031
0.00500000 1644522.43857999 1480.07025330
0.00600000 1643580.09307101 1725.75916798
0.00700000 1642467.46181040 2365.15324330
0.00800000 1641184.28247165 2658.71864986
0.00900000 1639731.98055605 3689.39711396
0.01000000 1638109.95263528 3243.45784627
0.01100000 1636319.72661672 2945.37563615
0.01200000 1634361.28806617 3187.00465146
0.01300000 1632235.88021897 4113.23459957
0.01400000 1629943.76487435 4400.84836025
0.01500000 1627486.34096222 5077.75760991
0.01600000 1624863.40853423 5800.76262778
0.01700000 1622077.14328893 4817.56933168
0.01800000 1619127.96601296 4614.51491078
0.01900000 1616016.88671445 5817.66105468
0.02000000 1612744.65887028 7112.20426734
0.02100000 1609313.98146003 7966.10456940
0.02200000 1605723.56727471 7201.67052642
0.02300000 1601976.45129444 6343.82703589
0.02400000 1598073.23102771 9588.43982338
0.02500000 1594016.16870706 6216.66334188
0.02600000 1589805.92750834 7082.58573099
0.02700000 1585444.19506758 7990.63910912
0.02800000 1580931.48627925 8940.16796490
0.02900000 1576271.26605970 9221.18732983
0.03000000 1571463.90694097 7307.30750316
0.03100000 1566511.18654877 11278.88106213
0.03200000 1561414.37340456 8501.90165477
0.03300000 1556177.35117289 9523.80582823
0.03400000 1550798.86710466 8141.69442796
0.03500000 1545282.88776276 9178.98077718
0.03600000 1539629.91795060 10253.93572742
0.03700000 1533843.23609450 9617.19753508
0.03800000 1527924.11434942 13407.53472391
0.03900000 1521875.07494933 9131.25087256
0.04000000 1515696.35346470 9321.53300576
0.04100000 1509391.97753121 10460.08688929
0.04200000 1502963.39530380 11632.93721934
0.04300000 1496412.35691610 10863.95421549
0.04400000 1489741.82623856 12066.90935294
0.04500000 1482954.10245352 14325.33729533
0.04600000 1476049.75132463 13527.99659976
0.04700000 1469032.58012467 15865.55260322
0.04800000 1461904.50119745 10744.99858375
0.04900000 1454667.99815473 15274.01469159
0.05000000 1447324.94156411 11072.03631855
0.05100000 1439879.09220046 14600.37467506
0.05200000 1432329.62031940 14803.12731585
0.05300000 1424682.18027628 12693.91881803
0.05400000 1416937.37814373 17534.60087223
0.05500000 1409099.10060962 15387.36289647
0.05600000 1401167.96892373 14375.98403200
0.05700000 1393149.04436500 14544.47670209
0.05800000 1385041.82084616 13483.38275551
0.05900000 1376850.01586092 19826.64115442
0.06000000 1368577.29845530 13774.73115249
0.06100000 1360224.99912883 13915.10239136
0.06200000 1351796.14106935 15329.36895628
0.06300000 1343293.67462826 14185.18186731
0.06400000 1334717.25103727 14314.84318683
0.06500000 1326073.30984338 15753.75165787
0.06600000 1317362.85700469 14563.44706559
0.06700000 1308587.12231860 18686.62498122
0.06800000 1299750.42461832 17488.14278184
0.06900000 1290856.07924426 21686.38314664
0.07000000 1281903.85221759 21843.64266469
0.07100000 1272898.28920299 17871.49281747
0.07200000 1263840.91290706 15222.96450911
0.07300000 1254735.32937040 15320.31908946
0.07400000 1245584.39921507 19617.95520702
0.07500000 1236388.77468125 19732.76576884
0.07600000 1227151.72821335 14173.60312533
0.07700000 1217877.14880544 15674.07964006
0.07800000 1208565.87140758 22914.40999649
0.07900000 1199219.95639886 14390.64015176
0.08000000 1189844.82705374 23130.58452300
0.08100000 1180440.92267182 14519.42403009
0.08200000 1171009.67140356 18952.79242103
0.08300000 1161554.61424307 16099.14770897
0.08400000 1152078.94847097 16157.90801074
0.08500000 1142584.15658711 22109.00446787
0.08600000 1133072.97017671 17743.92354607
0.08700000 1123547.37889837 14830.82609788
0.08800000 1114009.30857789 16359.22746476
0.08900000 1104462.15071317 17892.28768195
0.09000000 1094907.97214320 14945.49452183
0.09100000 1085348.31159683 14977.80740371
0.09200000 1075785.48177986 15007.20817597
0.09300000 1066223.59786612 21047.25481093
0.09400000 1056661.45377132 16563.16906629
0.09500000 1047103.17951953 15078.28649380
0.09600000 1037550.13608955 21134.89726565
0.09700000 1028007.60388874 16622.88373637
0.09800000 1018474.12150262 19661.64384005
0.09900000 1008953.34800082 22701.45139750
0.10000000 999445.54140697 19684.08086370
0.10100000 989953.92136489 15146.29570924
0.10200000 980480.28976301 22722.63178405
0.10300000 971026.56890260 19692.41974369
0.10400000 961594.98587020 21203.17043594
0.10500000 952188.64652599 19681.74024971
0.10600001 942804.30315357 19671.61271092
0.10700001 933450.07655319 19658.45953729
0.10800001 924122.66688312 18131.28757754
0.10900001 914827.37508671 22641.97859906
0.11000001 905564.30663927 18093.17569829
0.11100001 896334.38796070 15058.41842659
0.11200001 887140.89899769 16540.74284050
0.11300001 877983.64012144 18016.22514351
0.11400001 868865.35424873 23980.68490638
0.11500001 859787.30481209 29920.59961636
0.11600001 850751.18582424 19409.88921862
0.11700001 841757.92646397 14899.11600009
0.11800001 832808.21901173 20811.87837331
0.11900001 823903.57586043 23728.42410243
0.12000001 815045.57398197 17751.69343752
0.12100001 806237.09648294 16229.55351675
0.12200001 797477.36462977 22070.18710588
0.12300001 788768.41430039 17605.31183665
0.12400001 780110.54086874 14627.07333048
0.12500001 771504.64849232 16039.58239795
0.12600001 762954.23191434 18894.56244374
0.12700001 754457.61482143 21728.38033084
0.12800001 746016.67740346 24540.21975975
0.12900001 737632.49581406 14383.83434631
0.13000001 729305.89639391 15763.94769359
0.13100001 721036.96826882 17131.83917362
0.13200001 712827.31336180 18487.17724353
0.13300001 704678.43830979 16996.84473331
0.13400001 696589.29971932 19748.30757809
0.13500001 688562.29394897 16856.00575060
0.13600001 680596.60540792 20979.39135089
0.13700001 672694.51510967 18102.21025518
0.13800001 664854.36277156 15248.43552922
0.13900001 657078.92310673 15178.52383956
0.14000001 649367.43386484 15107.53406135
0.14100001 641720.83744072 17769.25082678
0.14200001 634139.28751778 16322.74603057
0.14300001 626624.53423602 21656.14492467
0.14400001 619173.08463823 16160.41827134
0.14500001 611790.14312123 17417.66619629
0.14600001 604473.17586341 14661.49757221
0.14700001 597224.93264549 14584.23354324
0.14800001 590040.95614648 14506.15759124
0.14900001 582925.68248298 17050.57701709
0.15000001 575877.65546976 14347.99246301
0.15100001 568897.55643835 18159.21085835
0.15200001 561985.61573121 14187.32753859
0.15300001 555142.53899128 12823.79325584
0.15400001 548365.05413644 14024.43692137
0.15500001 541657.35761996 19012.17414970
0.15600001 535015.12636205 13859.56750251
0.15700001 528444.48776329 17533.78893153
0.15800001 521937.97403318 18672.33190235
0.15900001 515501.87032724 13609.25001900
0.16000001 509130.91221625 12295.51211040
0.16100001 502830.61646991 15884.41992410
0.16200001 496596.25383927 14570.13477544
0.16300001 490429.20815967 12064.55909027
0.16400001 484329.22789266 16782.00853875
0.16500001 478295.85182721 15482.43745459
0.16600001 472329.96950330 15381.42618308
0.16700001 466428.56724471 17631.00067429
0.16800001 460593.04923218 14011.24121920
0.16900001 454825.35695119 13917.65657987
0.17000001 449121.28091734 12671.95753945
0.17100001 443482.34653810 11441.84508098
0.17200001 437908.76563867 12500.10630545
0.17300001 432399.00911286 13542.73760496
0.17400001 426953.26243578 19052.79023598
0.17500001 421570.88213722 12242.41899544
0.17600001 416250.17736137 13261.73127707
0.17700001 410993.85217889 12070.89000861
0.17800001 405798.19294301 15253.95479320
0.17900001 400664.64013564 14063.32953302
0.18000001 395592.47320548 12888.40338582
0.18100001 390582.29243730 14928.05592210
0.18200001 385629.59678536 10585.53293180
0.18300001 380737.44071252 11559.18924608
0.18400001 375904.13507321 15647.01036160
0.18500001 371130.74065545 12425.45778415
0.18600001 366413.85027460 17472.44527580
0.18700001 361754.10246237 11221.61278855
0.18800001 357151.21684031 10125.23747580
0.18900001 352606.52428711 13064.07234208
0.19000001 348113.77360033 10970.80609337
0.19100001 343680.20599776 12867.38752054
0.19200001 339298.09489413 11787.21637358
0.19300001 334972.31148452 13646.77261472
0.19400001 330697.58234493 14509.35711101
0.19500001 326477.00909345 12477.95187720
0.19600001 322307.84542828 10476.61701073
0.19700001 318190.01704966 16065.41472005
0.19800001 314123.40090363 9376.58396010
0.19900001 310107.53406263 10233.54910770
0.20000001 306139.95583336 9230.12010460
0.20100001 302222.87004343 12820.29475316
0.20200001 298352.43442919 10901.79846930
0.20300001 294531.64171357 12617.73612738
0.20400001 290757.25169887 11623.02168603
0.20500001 287029.02955101 12416.87640528
0.20600001 283346.89879617 13196.88243522
0.20700001 279710.61126208 11345.06292906
0.20800001 276117.83975297 10387.55362253
0.20900001 272571.42643065 8586.00033844
0.21000001 269066.66415836 11922.34445245
0.21100001 265605.39717777 9290.87723249
0.21200001 262186.14548188 10889.90206740
0.21300001 258807.99229248 11630.83172348
0.21400001 255471.87521255 9886.76203814
0.21500001 252177.02130425 10621.69663950
0.21600001 248921.19098551 10533.10069454
0.21700001 245705.05015059 9641.46662375
0.21800001 242527.76971851 11950.55641791
0.21900001 239387.96283043 11059.72440569
0.22000001 236285.50843480 10966.01096496
0.22100001 233221.89575706 8542.91844552
0.22200001 230194.88317880 9240.02304771
0.22300001 227202.46457819 10687.60443913
0.22400001 224245.46990560 9838.77045735
0.22500001 221325.70726025 9003.53019710
0.22600001 218438.16725346 8181.60194137
0.22700001 215586.68120247 8110.37133037
0.22800001 212767.77634091 9501.14550181
0.22900001 209980.90585300 7244.34159452
0.23000001 207227.60359937 13642.82992816
0.23100001 204507.10895416 8540.21727382
0.23200001 201816.68369721 9169.54145744
0.23300001 199157.78492909 6990.43858162
0.23400001 196530.22217110 10391.53598877
0.23500001 193931.32182813 8238.20294089
0.23600001 191363.61221197 10204.46510384
0.23700001 188824.64222536 8763.35206017
0.23800001 186314.91842455 9351.14619803
0.23900001 183833.24527384 9926.99571433
0.24000001 181379.54752358 7212.55804843
0.24100001 178954.60484057 7795.26295558
0.24200001 176556.53134251 8366.13163340
0.24300001 174185.45371030 7012.70669810
0.24400001 171840.47273041 8841.19274020
0.24500001 169521.84427352 6880.89198456
0.24600001 167229.19632596 8054.59462206
0.24700001 164962.41354988 7363.92248922
0.24800001 162720.47133020 8508.65384837
0.24900001 160502.58560067 6620.73196924
0.25000001 158310.33038368 7748.49948720
0.25100001 156140.99657883 7082.55593988
0.25200001 153997.22457794 6428.61444414
0.25300001 151876.73822636 9258.40640030
0.25400001 149779.17796000 6301.95921082
0.25500001 147704.23733779 6239.02728033
0.25600001 145652.71478600 8422.36863099
0.25700001 143622.81563994 6669.84387389
0.25800001 141615.86774682 5501.77672228
0.25900001 139630.94123831 5990.16766255
0.26000001 137667.59065862 5928.65507223
0.26100001 135724.84621833 5867.38537964
0.26200001 133804.55754453 9501.46208082
0.26300001 131904.29159339 5223.41019426
0.26400001 130025.06558911 5685.34626190
0.26500001 128166.93172097 6136.63298118
0.26600001 126328.07405852 7589.15940818
0.26700001 124510.49122419 8008.51517450
0.26800001 122713.20845573 5941.77383460
0.26900001 120934.13398098 6367.18245540
0.27000001 119175.85789019 5328.94873774
0.27100001 117436.27421077 4791.40021454
0.27200001 115717.40898468 4738.62812217
0.27300001 114016.59645882 6560.51527071
0.27400001 112332.87597329 5097.10448851
0.27500001 110670.79822281 5039.94838958
0.27600001 109024.93375899 4982.98483328
0.27700001 107399.03938077 6717.81023120
0.27800001 105790.44100184 5755.52921510
0.27900001 104201.23548864 5251.74251718
0.28000001 102628.51395134 4758.37127456
0.28100001 101074.39824720 4702.99197303
0.28200001 99538.60779871  5070.49692125
0.28300001 98019.86533910  5010.77575330
0.28400001 96518.26476655  6189.23402110
0.28500001 95034.67015758  4484.68629700
0.28600001 93567.95394636  4430.91066885
0.28700001 92118.37160536  4775.41661005
0.28800001 90685.11109656  5110.55967774
0.28900001 89270.61502793  5048.25351878
0.29000001 87871.25702090  5369.81277072
0.29100001 86489.51127862  4167.06485065
0.29200001 85124.30187228  5237.69854213
0.29300001 83775.49021713  4802.84908150
0.29400001 82442.35707484  4012.88192057
0.29500001 81126.74812409  4682.63612338
0.29600001 79826.65986541  4267.53343842
0.29700001 78542.74632314  5266.29139026
0.29800001 77274.71482498  4158.92534876
0.29900001 76023.20919762  3763.14903343
0.30000001 74786.85021344  5064.93967048
0.30100001 73567.45355358  4332.38754487
0.30200001 72361.78899665  4275.49650527
0.30300001 71173.34849774  3894.60581417
0.30400001 70000.33827148  3522.76719029
0.30500001 68842.39071379  4423.81223670
0.30600001 67698.82473246  4052.79033448
0.30700001 66571.82849994  4613.42793346
0.30800001 65459.44992513  3337.45021244
0.30900001 64362.28354179  5985.69265277
0.31000001 63280.46439766  3837.64394509
0.31100001 62212.52334431  3785.01009947
0.31200001 61160.34408066  3445.77394865
0.31300001 60122.13646254  3681.27858990
0.31400001 59099.79845457  3909.45185287
0.31500001 58091.15796745  2753.52101803
0.31600002 57097.48962897  3529.48148853
0.31700002 56117.98618117  3212.19368110
0.31800002 55152.82930065  3694.68820979
0.31900002 54202.18632278  3902.55760002
0.32000002 53265.82795091  3334.17465846
0.32100002 52342.94862643  2528.16453837
0.32200002 51435.18128207  3239.64504645
0.32300002 50539.92774583  4912.48120951
0.32400002 49659.03112184  3389.22903455
0.32500002 48791.71107373  3101.68921983
0.32600002 47938.49991483  2821.66023860
0.32700002 47098.28255835  3244.12985624
0.32800002 46272.44471045  3196.96335643
0.32900002 45459.09582165  2250.22534973
0.33000002 44660.02118643  3326.05523536
0.33100002 43871.55068397  2403.28366027
0.33200002 43099.57734788  2583.38878857
0.33300002 42338.96973062  2545.41898074
0.33400002 41591.69307833  3343.97228185
0.33500002 40856.35849554  2265.07662226
0.33600002 40134.68691840  2231.68937178
0.33700002 39424.73351408  2398.60090059
0.33800002 38728.06148817  2166.25422193
0.33900002 38043.08137493  3492.35503561
0.34000002 37370.87803446  2293.82460239
0.34100002 36710.53303562  2259.90052070
0.34200002 36062.94600588  2597.61412382
0.34300002 35426.38516442  2193.60187327
0.34400002 34802.83601279  1801.04684896
0.34500002 34190.32887668  2129.37378329
0.34600002 33590.48935544  1748.38505375
0.34700002 33000.42939266  2067.14699506
0.34800002 32423.45154136  2036.84132230
0.34900002 31857.14565868  2341.50031681
0.35000002 31301.97183866  1812.85378490
0.35100002 30758.81714483  2273.69187103
0.35200002 30225.05252535  2400.62491053
0.35300002 29702.97596081  1577.22809822
0.35400002 29191.89985610  2487.14998554
0.35500002 28691.43059900  1532.12246655
0.35600002 28200.66275677  1510.14556215
0.35700002 27720.92700803  2084.05939117
0.35800002 27252.04032592  2054.53141748
0.35900002 26793.02100104  1736.18784310
0.36000002 26344.29424139  1711.85232089
0.36100002 25904.87847256  1406.63496769
0.36200002 25476.42067842  1664.62940598
0.36300002 25056.64892633  1641.71171542
0.36400002 24646.55976550  1889.15889551
0.36500002 24245.92549605  1597.32164734
0.36600002 23854.95509602  1707.17994231
0.36700002 23472.66728189  1554.82955440
0.36800002 23101.01986221  1917.96226491
0.36900002 22737.30645022  1766.68879487
0.37000002 22382.17386076  1619.23844466
0.37100002 22035.71994716  1721.43052382
0.37200002 21698.79284964  1335.45226919
0.37300002 21369.84505253  2038.04221920
0.37400002 21049.24684554  1539.22624849
0.37500002 20737.44097021  1520.46924396
0.37600002 20433.88881629  1502.19740749
0.37700002 20137.78660728  1941.08134303
0.37800002 19849.59251094  1354.13926524
0.37900002 19569.77239345  1450.12020305
0.38000002 19297.69221804  1213.14947876
0.38100002 19032.18634677  1526.76206107
0.38200002 18775.11631017  1402.21962805
0.38300002 18524.73397783  1173.72720044
0.38400002 18282.41994197  1372.55274217
0.38500002 18045.98774599  1044.86273999
0.38600002 17817.61643128  1241.17521940
0.38700002 17595.64081291  1126.47297821
0.38800002 17380.42485924  1521.22175787
0.38900002 17171.35958368  1104.97704156
0.39000002 16969.93601277  1293.87283259
0.39100002 16773.84881473  1183.56282844
0.39200002 16584.62846649  1368.72945218
0.39300002 16401.28162293  1357.04210577
0.39400002 16225.18884323  1057.47673296
0.39500002 16053.82242106  1430.39564548
0.39600002 15888.51476103  946.16109885
0.39700002 15728.84686700  1314.61708343
0.39800002 15575.09678369  1025.38654534
0.39900002 15426.61219493  1388.39516332
0.40000002 15283.33667493  1470.86839128
0.40100002 15145.78692076  1004.62009405
0.40200002 15013.50166475  1361.34932795
0.40300002 14885.67278123  992.27899461
0.40400002 14763.35522769  1076.24864709
0.40500002 14645.98411297  1248.71666464
0.40600002 14533.34070620  887.26049215
0.40700002 14425.16644714  1147.66629691
0.40800002 14321.88576428  1230.10682658
0.40900002 14222.72753332  1486.98623406
0.41000002 14128.41154856  1045.21993589
0.41100002 14038.16675792  1474.84986947
0.41200002 13951.78560840  950.74447533
0.41300002 13870.16851403  1119.73875719
0.41400002 13791.99886405  1116.11756096
0.41500002 13718.07383753  941.60863282
0.41600002 13647.37593574  939.00774575
0.41700002 13580.73495914  1277.26818343
0.41800002 13518.78674228  1359.44925922
0.41900002 13458.33026884  1610.96220951
0.42000002 13402.50530954  846.36825040
0.42100002 13350.44632366  929.59162157
0.42200002 13301.59348799  1012.78337617
0.42300002 13255.39807282  927.34769312
0.42400002 13212.23184132  1010.73578376
0.42500002 13172.60307726  841.72937652
0.42600002 13134.92282718  1093.67940103
0.42700002 13101.56734651  925.23272985
0.42800002 13069.78765726  925.14496316
0.42900002 13042.12611551  1177.70404404
0.43000002 13016.40884261  1178.11522017
0.43100002 12992.29299679  1178.66087652
0.43200002 12971.86775268  926.77513551
0.43300002 12953.62884778  1011.93753354
0.43400002 12937.67659040  928.60178128
0.43500002 12923.87684422  1098.78806137
0.43600002 12912.61161957  1015.70607813
0.43700002 12902.99784069  1525.90859695
0.43800002 12895.40128623  934.07843643
0.43900002 12890.49558075  1191.08184811
0.44000002 12886.97841171  852.47366233
0.44100002 12885.71976164  939.75558675
0.44200002 12886.05380902  1113.16181105
0.44300002 12888.33847194  944.19972120
0.44400002 12892.55293025  860.57794888
0.44500002 12897.23185330  949.10733706
0.44600002 12903.88712313  1124.76737439
0.44700002 12913.04991185  1388.41119232
0.44800002 12922.14952764  1044.36817432
0.44900002 12934.34268758  1134.98862462
0.45000002 12947.15187525  1226.22481222
0.45100002 12960.97710997  1318.13143455
0.45200002 12976.21882928  1322.60116686
0.45300002 12992.45215241  1769.57206702
0.45400002 13010.21141657  1065.53636552
0.45500002 13028.95822276  1158.53502007
0.45600002 13048.56794044  1073.37524965
0.45700002 13069.22809269  897.85601252
0.45800002 13090.50016437  901.28097903
0.45900002 13112.89813325  904.79001408
0.46000002 13136.75997582  999.24769492
0.46100002 13160.29395976  1185.61093903
0.46200002 13185.50130039  1373.59966307
0.46300002 13211.43127038  1103.41879200
0.46400002 13237.14814959  1015.62023991
0.46500002 13264.22415195  1112.60317460
0.46600002 13291.63775623  1024.18719585
0.46700002 13319.31186329  1402.52360568
0.46800002 13348.40979421  939.06067353
0.46900002 13376.90057431  1225.99299574
0.47000002 13406.26993909  1136.58361931
0.47100002 13436.17289543  1712.30595495
0.47200002 13466.42221551  1528.70832236
0.47300002 13497.15377681  1439.47151852
0.47400002 13527.47870624  1060.21619385
0.47500002 13558.54511845  1064.88818408
0.47600002 13590.20863499  1069.61742131
0.47700002 13621.32968329  976.64938458
0.47800002 13652.75265782  1373.33045494
