# SAXS profile: number of points = 501, q_min = 0, q_max = 0.5, delta_q = 0.001
#    q    intensity    error
0.00000000 1682732.95097188 328.13292544
0.00100000 1682646.23831289 555.27327183
0.00200000 1682386.06663452 1287.02538173
0.00300000 1681952.65708350 1110.08879322
0.00400000 1681345.87882407 1639.31229414
0.00500000 1680566.38727769 2117.51373178
0.00600000 1679614.02353509 1939.95427616
0.00700000 1678489.55114223 2215.60629959
0.00800000 1677192.71385397 3169.89436302
0.00900000 1675724.96323217 3267.66381799
0.01000000 1674085.62169727 3314.68967409
0.01100000 1672276.33630502 3311.10729005
0.01200000 1670297.02051400 3582.78726609
0.01300000 1668148.89615590 3503.11283643
0.01400000 1665832.30646353 4122.93514127
0.01500000 1663348.59633083 4790.44417075
0.01600000 1660697.60222135 5081.73488997
0.01700000 1657881.46148253 5371.53617616
0.01800000 1654900.67301865 5188.11384337
0.01900000 1651756.17947789 5450.79563823
0.02000000 1648448.74989256 5711.87517676
0.02100000 1644981.13425715 5971.28178808
0.02200000 1641352.07537319 6228.93140904
0.02300000 1637564.41688449 5895.23216913
0.02400000 1633618.98650003 9189.10721806
0.02500000 1629518.06633256 7626.14489873
0.02600000 1625262.17369556 9873.46815680
0.02700000 1620853.04244545 8849.85801709
0.02800000 1616291.22468683 9843.21400975
0.02900000 1611580.17707800 8702.53335579
0.03000000 1606720.31534915 9712.62475273
0.03100000 1601713.40031954 7688.22467529
0.03200000 1596560.64883661 11064.16580603
0.03300000 1591266.11366888 9738.54906461
0.03400000 1585828.54087882 9990.72026851
0.03500000 1580251.57748000 8533.35891245
0.03600000 1574536.16347961 11360.27894451
0.03700000 1568685.30144495 10729.80795811
0.03800000 1562700.39239800 10055.97749047
0.03900000 1556584.05285533 11207.40569957
0.04000000 1550336.41281810 11441.48325678
0.04100000 1543961.32469439 9726.95679658
0.04200000 1537460.70049816 13883.27076958
0.04300000 1530836.04312493 11113.87018897
0.04400000 1524090.07821370 13373.89105743
0.04500000 1517225.59588415 15703.28564705
0.04600000 1510242.98556348 13841.37760613
0.04700000 1503145.82137975 14069.44554246
0.04800000 1495936.47291267 12094.64694624
0.04900000 1488617.15079303 12281.09206570
0.05000000 1481189.70428343 14730.43229504
0.05100000 1473658.00744016 14942.89289154
0.05200000 1466021.25787764 13985.84345191
0.05300000 1458285.21814313 11812.11081761
0.05400000 1450450.29405027 14359.45858073
0.05500000 1442520.51615495 13328.89019105
0.05600000 1434496.46727568 12264.94536754
0.05700000 1426383.30305329 14891.44237899
0.05800000 1418180.40078542 17571.25598618
0.05900000 1409891.43965587 21571.34003424
0.06000000 1401520.29113792 17953.47576824
0.06100000 1393068.48535837 19433.30627889
0.06200000 1384538.47069615 15700.66699160
0.06300000 1375933.86374549 18492.55199336
0.06400000 1367254.02109645 15996.87279495
0.06500000 1358505.02567118 17483.96049825
0.06600000 1349688.61910031 13564.37125662
0.06700000 1340805.43261704 16411.45926327
0.06800000 1331860.30718545 17920.18127201
0.06900000 1322856.35994540 22223.98788759
0.07000000 1313793.34410100 15391.08974688
0.07100000 1304675.35502077 18317.64284245
0.07200000 1295504.94205873 19860.09169214
0.07300000 1286285.12218390 15705.54207776
0.07400000 1277018.85067647 14366.46274338
0.07500000 1267706.66608724 18787.41367203
0.07600000 1258351.99854599 14533.96626457
0.07700000 1248958.63107061 16074.09833557
0.07800000 1239527.77348840 17626.08576560
0.07900000 1230061.15243321 17712.88142584
0.08000000 1220564.06103792 16312.83944102
0.08100000 1211037.62541724 23833.22158642
0.08200000 1201482.65253248 17950.15167115
0.08300000 1191902.96361797 15017.97804641
0.08400000 1182301.74261476 22611.52188886
0.08500000 1172680.38443616 21178.60873715
0.08600000 1163041.67687459 22766.54189374
0.08700000 1153387.89151701 15224.72088294
0.08800000 1143720.59886754 19849.27192554
0.08900000 1134043.24592640 26026.29371646
0.09000000 1124358.33168197 18416.99033810
0.09100000 1114667.20019304 18458.88970242
0.09200000 1104971.88737312 20038.66611906
0.09300000 1095276.88955304 16987.74535526
0.09400000 1085580.55212325 23204.28539218
0.09500000 1075887.58599196 15492.78196649
0.09600000 1066199.19289336 21718.47858018
0.09700000 1056520.48858954 24849.36305986
0.09800000 1046850.03285820 23318.58557830
0.09900000 1037192.11435172 18669.45893622
0.10000000 1027545.76674898 18680.78291800
0.10100000 1017915.42036436 21803.74932967
0.10200000 1008302.80459557 23367.41859562
0.10300000 998708.98725630 23369.79140113
0.10400000 989136.73177293 28042.02766500
0.10500000 979589.30142218 18690.56475051
0.10600001 970063.41625072 18683.42227611
0.10700001 960567.14460023 20229.54501724
0.10800001 951097.10920445 17105.48231406
0.10900001 941658.47875663 17091.10219384
0.11000001 932251.97870445 15521.99617604
0.11100001 922878.01983580 21706.09204832
0.11200001 913540.04003045 23226.75661122
0.11300001 904237.81127547 17008.71403088
0.11400001 894974.25674684 16982.13732137
0.11500001 885750.76029702 23118.09593234
0.11600001 876568.46005444 21537.28807776
0.11700001 867428.91593279 16888.84178859
0.11800001 858332.46536838 19917.60579696
0.11900001 849281.05378329 16815.76565696
0.12000001 840275.80883481 18301.20797850
0.12100001 831319.87671520 24341.04713688
0.12200001 822412.20847851 19725.55774965
0.12300001 813555.37152574 22698.19593498
0.12400001 804749.19193941 19615.76247777
0.12500001 795994.76816573 18053.16219267
0.12600001 787295.79815600 16497.78422779
0.12700001 778650.45275127 20930.12515632
0.12800001 770060.41143403 16390.73662986
0.12900001 761527.37163941 17819.74133624
0.13000001 753051.67259647 26635.43891520
0.13100001 744633.27419664 16218.11347649
0.13200001 736274.08768769 17626.40249016
0.13300001 727975.95917993 19022.01271013
0.13400001 719737.24443686 14574.67988698
0.13500001 711560.87542790 17419.01105175
0.13600001 703445.34231483 17346.96295941
0.13700001 695393.80847452 18713.04826843
0.13800001 687403.81888699 18632.08138954
0.13900001 679478.95807718 17122.87055103
0.14000001 671618.28702750 15625.20018459
0.14100001 663822.15470057 15553.35381818
0.14200001 656091.14315244 16887.78682126
0.14300001 648427.14579112 16807.23241166
0.14400001 640826.44209654 16725.57092766
0.14500001 633294.50084719 13869.15022279
0.14600001 625828.46544473 22079.22930246
0.14700001 618431.56122572 16475.01756829
0.14800001 611098.84131614 16389.67169734
0.14900001 603835.17633640 17662.17974116
0.15000001 596638.76521255 20270.80300453
0.15100001 589510.44839394 16129.00662910
0.15200001 582450.73572614 13367.24501568
0.15300001 575460.05597009 15951.75350424
0.15400001 568535.11169400 18505.81875895
0.15500001 561680.15011028 22343.63742585
0.15600001 554890.92247882 20908.29094577
0.15700001 548173.78100085 14290.89114518
0.15800001 541520.92470495 18081.38452932
0.15900001 534938.50187053 16690.08204614
0.16000001 528421.83590973 15313.66552751
0.16100001 521976.03558795 19026.02739529
0.16200001 515596.72539606 15127.60863724
0.16300001 509284.68844189 12528.40392711
0.16400001 503040.49721040 14940.30347247
0.16500001 496862.83259164 13609.07362719
0.16600001 490753.36022124 18440.05838092
0.16700001 484708.71598287 20764.92237312
0.16800001 478730.22349262 13349.39291240
0.16900001 472820.10749975 14468.29597266
0.17000001 466974.04963435 13175.67343258
0.17100001 461193.35109163 17848.18353006
0.17200001 455478.30652851 15365.56139635
0.17300001 449827.97745808 14088.61291931
0.17400001 444242.17562583 15159.76495917
0.17500001 438719.85962094 13898.64580919
0.17600001 433259.70899170 16104.26414381
0.17700001 427864.58567868 11423.98497718
0.17800001 422530.42351193 17017.41361071
0.17900001 417259.06477054 13519.19433713
0.18000001 412049.41719327 15661.99908731
0.18100001 406902.31150669 16662.65044328
0.18200001 401813.28239686 14338.70765966
0.18300001 396785.57768943 12046.41070772
0.18400001 391816.89750862 11960.21136146
0.18500001 386908.74161140 14033.18072120
0.18600001 382057.76701910 12860.06504542
0.18700001 377264.49854000 12766.63123375
0.18800001 372528.67435088 19010.13915028
0.18900001 367851.45111517 13628.89690775
0.19000001 363226.64395328 11447.08822505
0.19100001 358661.91952430 10329.46377037
0.19200001 354149.22736385 17429.45504828
0.19300001 349693.24303336 12211.28862374
0.19400001 345289.15204660 18179.47471430
0.19500001 340939.54265176 13030.70993592
0.19600001 336642.23686420 9947.77856943
0.19700001 332396.87315407 10859.40635913
0.19800001 328203.38996484 14695.30748016
0.19900001 324061.05596519 13610.56499377
0.20000001 319967.76570829 10611.73145124
0.20100001 315925.50577731 15316.06924396
0.20200001 311930.77258740 12347.78021647
0.20300001 307986.12853899 9424.37597873
0.20400001 304088.60657054 10285.79760341
0.20500001 300238.01056128 10205.09046134
0.20600001 296434.12992140 11965.56421987
0.20700001 292676.77709222 10957.81905230
0.20800001 288963.44205357 9059.00433660
0.20900001 285297.40500692 8986.86868254
0.21000001 281673.36444668 10697.95488740
0.21100001 278093.77832640 11496.39733949
0.21200001 274556.74912646 13158.13282393
0.21300001 271061.51912206 8701.07517517
0.21400001 267608.97661454 12082.54586537
0.21500001 264198.57088595 10272.04092168
0.21600001 260827.69579999 14432.90122946
0.21700001 257497.28051405 8420.16147091
0.21800001 254206.51051743 10855.88954492
0.21900001 250953.78073649 11594.06521821
0.22000001 247739.02700985 8212.54913369
0.22100001 244564.07590013 8958.38252381
0.22200001 241426.20531526 10498.41903455
0.22300001 238323.75680893 8808.44646817
0.22400001 235257.07565934 8733.91934685
0.22500001 232228.92899400 8659.81717169
0.22600001 229233.52938859 9366.48245374
0.22700001 226275.00930522 12381.76909470
0.22800001 223349.23606689 7672.04662171
0.22900001 220456.60672114 7605.75329156
0.23000001 217598.27310644 9801.71467562
0.23100001 214773.38848221 8968.93712718
0.23200001 211979.12065794 9631.27180259
0.23300001 209217.42331421 8812.23828676
0.23400001 206487.68903198 8006.56052089
0.23500001 203787.04989842 7935.46809836
0.23600001 201118.61171831 9294.69708017
0.23700001 198479.47347483 8502.86104583
0.23800001 195870.32167909 7021.95136432
0.23900001 193289.85707904 8350.12222077
0.24000001 190738.09806010 7584.70082812
0.24100001 188216.03816233 10248.36376270
0.24200001 185721.19446877 6769.53785860
0.24300001 183254.20307227 7377.81456468
0.24400001 180814.18955471 6644.92178046
0.24500001 178401.00531346 9216.19637046
0.24600001 176014.65510921 7173.47760832
0.24700001 173654.73431638 7751.94770660
0.24800001 171320.52387412 7038.70405635
0.24900001 169010.91964426 8239.28272244
0.25000001 166727.78424405 6905.03151113
0.25100001 164468.07097103 7460.27205218
0.25200001 162234.70880373 6772.48823942
0.25300001 160025.26371234 6706.65911948
0.25400001 157839.49361238 6037.36091631
0.25500001 155677.01779820 6575.79754291
0.25600001 153538.60859800 7102.69636979
0.25700001 151422.62718980 8204.07832931
0.25800001 149330.25053850 7541.92466029
0.25900001 147260.48838902 6891.79118269
0.26000001 145212.93610454 6822.10406098
0.26100001 143186.89653236 9003.59247997
0.26200001 141183.73943853 8911.51805503
0.26300001 139201.26633794 6614.84448938
0.26400001 137240.78663654 6000.85367963
0.26500001 135301.89870918 6478.25521674
0.26600001 133382.86485667 5876.18238932
0.26700001 131485.85148283 5814.30462771
0.26800001 129609.80296011 6275.70695630
0.26900001 127752.56795150 7243.57094563
0.27000001 125916.67072460 6654.06677933
0.27100001 124100.31657307 6582.28110253
0.27200001 122305.30635891 6010.08303889
0.27300001 120528.93027620 5944.48712254
0.27400001 118770.26400672 6369.05570877
0.27500001 117033.87349766 6298.76336974
0.27600001 115314.35994888 5270.44307089
0.27700001 113615.50399508 6632.87343714
0.27800001 111934.50377696 5152.90512525
0.27900001 110273.49668826 6947.23062016
0.28000001 108629.63142596 5952.36093570
0.28100001 107004.99325050 5431.57371447
0.28200001 105399.26611124 6263.87868146
0.28300001 103811.19120527 4422.35695466
0.28400001 102241.00146743 4807.88332157
0.28500001 100689.17593254 5183.47902235
0.28600001 99155.00869251  4268.62332625
0.28700001 97638.52865288  4217.98463745
0.28800001 96138.87147293  6668.19244099
0.28900001 94658.76863007  4941.18795637
0.29000001 93194.18894281  4474.71919390
0.29100001 91747.95912475  4822.27295986
0.29200001 90318.68616933  4366.45708954
0.29300001 88906.50201139  5097.01000158
0.29400001 87510.60440992  5808.51664266
0.29500001 86132.74968121  4589.15312025
0.29600001 84770.93687311  3776.54541647
0.29700001 83425.85730271  4102.04959776
0.29800001 82097.18797054  5523.08858217
0.29900001 80785.82566829  5816.57972347
0.30000001 79490.03837308  3947.87294269
0.30100001 78211.61380028  5314.47940932
0.30200001 76947.75479985  4896.18586970
0.30300001 75701.46927997  4832.78202762
0.30400001 74471.02635085  3407.04961685
0.30500001 73256.23119557  3698.70728817
0.30600001 72056.57004013  3318.20520744
0.30700001 70873.81274783  3929.24436476
0.30800001 69706.31593313  3877.06547576
0.30900001 68554.54107901  5100.45809776
0.31000001 67418.54875535  4403.10562768
0.31100001 66297.02382146  4654.05129261
0.31200001 65191.62030795  4285.04540572
0.31300001 64100.89919091  3321.06774432
0.31400001 63026.52217004  3871.40430759
0.31500001 61966.15645021  3818.35474125
0.31600002 60921.30513107  3186.48901575
0.31700002 59891.18398296  3999.53345575
0.31800002 58875.94902568  3098.93572370
0.31900002 57875.60052982  3611.43764406
0.32000002 56890.13181004  3561.03796926
0.32100002 55918.52919394  4051.29763193
0.32200002 54962.66190616  3195.52931453
0.32300002 54019.44179503  3412.94849422
0.32400002 53091.25094484  3105.83832734
0.32500002 52177.20543677  3572.05165334
0.32600002 51277.66270983  4024.27116003
0.32700002 50391.57430333  2727.19213044
0.32800002 49520.14932179  2443.81948475
0.32900002 48661.81187609  3131.38774251
0.33000002 47818.18592988  3561.25956577
0.33100002 46985.82716222  3041.86259453
0.33200002 46169.99033478  3689.90580229
0.33300002 45366.11250572  2500.12657858
0.33400002 44576.17539884  2463.94821185
0.33500002 43798.32072851  3531.89675080
0.33600002 43034.76827932  2392.94840349
0.33700002 42283.22700731  2358.13568187
0.33800002 41545.61678072  2746.37312735
0.33900002 40819.81930630  2706.35414817
0.34000002 40107.42819219  2872.09306886
0.34100002 39407.23451076  3032.38683921
0.34200002 38720.23317999  2191.37170060
0.34300002 38044.46894659  2355.71362874
0.34400002 37382.45161138  2127.99615876
0.34500002 36731.59164669  2287.64363610
0.34600002 36093.83236079  3005.89450137
0.34700002 35466.31447299  2036.47587349
0.34800002 34852.24284589  2189.41799927
0.34900002 34249.25823406  2157.70337094
0.35000002 33657.84027815  1949.29391203
0.35100002 33078.65936833  1921.20862711
0.35200002 32509.41991216  2582.06079882
0.35300002 31952.15626682  1696.65957813
0.35400002 31406.24651681  2174.09751810
0.35500002 30871.45054132  1648.53553699
0.35600002 30346.61686621  1787.56755117
0.35700002 29833.01003526  1922.43925773
0.35800002 29330.75764439  1737.40751136
0.35900002 28838.75944772  1713.02239233
0.36000002 28357.43349467  1689.11060612
0.36100002 27885.64451601  2119.86679652
0.36200002 27425.26652220  2090.62816601
0.36300002 26973.83853967  2356.43464644
0.36400002 26532.52474474  1888.45253816
0.36500002 26100.89560992  1862.82100792
0.36600002 25679.35156360  1696.37804465
0.36700002 25266.73756971  1534.19637791
0.36800002 24865.27478623  1926.81023446
0.36900002 24471.88508559  1629.82762390
0.37000002 24087.49661210  1608.56309995
0.37100002 23712.02898446  1455.44440801
0.37200002 23346.55067776  1698.11144399
0.37300002 22989.18479983  2063.50932538
0.37400002 22640.56441024  1910.29771261
0.37500002 22300.99616649  1383.55386771
0.37600002 21970.06793831  1366.64814084
0.37700002 21646.87932004  1718.32936183
0.37800002 21331.94539690  1212.72115326
0.37900002 21025.73246329  1797.70021077
0.38000002 20727.40844902  1184.57144898
0.38100002 20435.95251828  1288.07814825
0.38200002 20153.34898498  1620.93393565
0.38300002 19877.57502643  1259.44321334
0.38400002 19610.30178332  1472.24347613
0.38500002 19348.99666670  1232.33765608
0.38600002 19096.35871664  1662.81551403
0.38700002 18850.04931670  1206.78021443
0.38800002 18611.00653121  1194.54751080
0.38900002 18378.30256805  1612.69612675
0.39000002 18153.61541995  1810.00631120
0.39100002 17934.32931104  1265.44633614
0.39200002 17722.31570493  1149.20361633
0.39300002 17516.37783732  1138.73977715
0.39400002 17318.06985676  1026.09568763
0.39500002 17124.70884864  1220.64930456
0.39600002 16937.59306370  1109.49708620
0.39700002 16756.43678864  1600.57491788
0.39800002 16581.39082556  1290.11517431
0.39900002 16411.84288033  1280.12380532
0.40000002 16247.87542265  1075.04072827
0.40100002 16089.76565880  1164.25549823
0.40200002 15937.28683880  1059.74993856
0.40300002 15789.46400756  956.84156419
0.40400002 15647.33953355  1520.92147472
0.40500002 15510.48452010  944.58855203
0.40600002 15378.36529429  1314.38894398
0.40700002 15251.23792853  1400.06370818
0.40800002 15129.10956964  1206.62219090
0.40900002 15011.37862786  1107.83979523
0.41000002 14898.69099074  918.50434310
0.41100002 14790.22429892  914.03590498
0.41200002 14685.94063802  909.79406563
0.41300002 14586.56061041  996.40800251
0.41400002 14490.97762346  1082.47607976
0.41500002 14399.77603453  1168.10988727
0.41600002 14311.93458227  895.21155054
0.41700002 14228.54755436  981.34297132
0.41800002 14149.83619302  1156.11242093
0.41900002 14072.97791223  1684.53553591
0.42000002 14001.02071500  1591.49610009
0.42100002 13932.90240528  970.14804045
0.42200002 13868.24417309  1143.92217482
0.42300002 13806.38630803  878.08621080
0.42400002 13747.87336524  964.06966542
0.42500002 13692.90287033  962.47418836
0.42600002 13640.27946316  961.02593512
0.42700002 13591.98814089  1047.12681599
0.42800002 13545.67649894  958.83075641
0.42900002 13503.56208252  1132.27373427
0.43000002 13463.53279589  870.41743650
0.43100002 13425.34363652  1043.95477065
0.43200002 13391.02938525  956.72213977
0.43300002 13359.06940425  1043.61055131
0.43400002 13329.64690790  1478.59115333
0.43500002 13302.47710320  869.98204378
0.43600002 13278.05061153  1044.45151060
0.43700002 13255.43025738  1132.14635193
0.43800002 13234.90706947  958.67053901
0.43900002 13217.42456665  872.35006274
0.44000002 13201.43754756  960.60264867
0.44100002 13187.88304459  1398.97069967
0.44200002 13176.08795319  1225.77152037
0.44300002 13166.30816135  876.87616510
0.44400002 13158.69219833  1141.84556962
0.44500002 13151.74384247  967.83687523
0.44600002 13146.84174455  969.64535882
0.44700002 13144.68872329  883.32312407
0.44800002 13142.52709421  1593.26863514
0.44900002 13143.71340258  1242.08097541
0.45000002 13145.65532659  1156.09471249
0.45100002 13148.75867756  1158.93164476
0.45200002 13153.53186816  1072.53903936
0.45300002 13159.22996470  985.75796337
0.45400002 13166.72056021  988.49159291
0.45500002 13175.31163788  991.31049462
0.45600002 13184.96287558  1717.27557112
0.45700002 13195.84265143  1450.48709299
0.45800002 13207.41199657  1363.99553859
0.45900002 13220.13220957  1185.84591540
0.46000002 13234.66794701  1098.21279829
0.46100002 13248.82779792  1009.95819090
0.46200002 13264.93285688  1013.37459363
0.46300002 13281.81595363  1016.85587760
0.46400002 13298.71696509  927.58555228
0.46500002 13317.04479871  1023.94762310
0.46600002 13335.78444873  1121.00609389
0.46700002 13354.88149120  1500.02036019
0.46800002 13375.71583314  1129.17798415
0.46900002 13395.99306011  1227.74282215
0.47000002 13417.25405726  1042.72194848
0.47100002 13439.08271716  951.48710147
0.47200002 13461.52111729  1050.60446539
0.47300002 13484.52680257  1054.62489122
0.47400002 13507.21797767  1347.34505713
0.47500002 13530.76969916  1545.75520370
0.47600002 13555.18601783  1066.86096610
0.47700002 13578.99932061  1460.42144615
