# SAXS profile: number of points = 501, q_min = 0, q_max = 0.5, delta_q = 0.001
#    q    intensity    error
0.00000000 1682732.95097187 302.89193117
0.00100000 1682646.35425922 656.23209375
0.00200000 1682386.53091254 984.19615175
0.00300000 1681953.70218066 1009.17225726
0.00400000 1681347.74975630 1639.31411830
0.00500000 1680569.29441532 1966.26615229
0.00600000 1679618.22306710 1763.59920602
0.00700000 1678495.25656498 3021.29158738
0.00800000 1677200.15993978 3169.90843612
0.00900000 1675734.39122663 3267.68220258
0.01000000 1674097.26445380 3314.71272675
0.01100000 1672290.39703978 3612.14741488
0.01200000 1670313.74923759 3908.53434458
0.01300000 1668168.51206722 4203.78483582
0.01400000 1665855.00881161 4497.80872318
0.01500000 1663374.67862199 6786.56899098
0.01600000 1660727.25264794 4658.34015192
0.01700000 1657914.85751777 4924.00734771
0.01800000 1654938.06260191 6131.54579784
0.01900000 1651797.82369177 5450.93306414
0.02000000 1648494.84510112 6231.31079636
0.02100000 1645031.90777757 7057.18720433
0.02200000 1641407.70152614 7361.71387580
0.02300000 1637625.16643052 5895.45086750
0.02400000 1633684.98751680 8576.84657555
0.02500000 1629589.62812415 8262.01979192
0.02600000 1625339.38230486 6582.62479941
0.02700000 1620936.23833356 7488.72576409
0.02800000 1616380.53990239 10546.88350654
0.02900000 1611675.78900028 10153.55793689
0.03000000 1606822.49471874 8218.89743827
0.03100000 1601822.23284212 9226.49648571
0.03200000 1596676.42671360 10274.61327913
0.03300000 1591389.08016484 8927.69315130
0.03400000 1585958.76643489 9158.91229876
0.03500000 1580389.32410548 9387.51301868
0.03600000 1574681.59169712 13109.22485670
0.03700000 1568838.54853893 8942.38014023
0.03800000 1562861.62132554 17371.20772497
0.03900000 1556753.59214981 11208.62638255
0.04000000 1550514.27067680 10489.22952719
0.04100000 1544147.75283447 9728.13129392
0.04200000 1537655.83020312 10909.66862142
0.04300000 1531040.00869609 11115.35097909
0.04400000 1524303.20021295 13375.76120307
0.04500000 1517447.89859882 16752.62557894
0.04600000 1510474.58468608 15973.26947560
0.04700000 1503386.89615975 14071.70200250
0.04800000 1496187.29719635 12096.67486067
0.04900000 1488877.72635181 17866.53354786
0.05000000 1481460.33811719 13599.80653721
0.05100000 1473938.58292535 11496.72148238
0.05200000 1466312.11099426 17485.77273847
0.05300000 1458586.36671366 11814.55012115
0.05400000 1450761.97268414 13165.66551607
0.05500000 1442842.73482260 13331.86749168
0.05600000 1434829.56781011 14721.35205269
0.05700000 1426727.20722202 16136.28546690
0.05800000 1418535.20637628 21341.86317643
0.05900000 1410257.30246181 20307.70610394
0.06000000 1401897.36678438 17958.30610750
0.06100000 1393456.71890602 16846.89251885
0.06200000 1384938.14929808 17013.96595942
0.06300000 1376345.08773587 17176.78749805
0.06400000 1367676.74107706 16001.81861895
0.06500000 1358939.42101248 17489.55116655
0.06600000 1350134.66332736 20353.28100196
0.06700000 1341263.32151160 17785.15247557
0.06800000 1332330.18381848 15168.57985280
0.06900000 1323338.16745327 15284.55654969
0.07000000 1314287.02958917 18196.30477677
0.07100000 1305181.19219849 22553.53205755
0.07200000 1296022.85528381 18448.88620924
0.07300000 1286815.34302476 18568.74626990
0.07400000 1277561.27471278 20121.59101971
0.07500000 1268261.47274059 20241.45405371
0.07600000 1258919.15441922 18902.67198977
0.07700000 1249538.20359084 17543.51720100
0.07800000 1240119.57816698 16164.95945948
0.07900000 1230665.56294740 20675.18242726
0.08000000 1221181.06598316 19288.55584205
0.08100000 1211667.01451296 17884.20597331
0.08200000 1202124.71344220 16463.09872313
0.08300000 1192557.51219378 18031.47043062
0.08400000 1182968.79348505 22624.27923735
0.08500000 1173359.99273021 21190.88246352
0.08600000 1163733.99717644 16705.40231381
0.08700000 1154092.60993972 21327.63243318
0.08800000 1144438.06423839 19861.72353764
0.08900000 1134773.34641215 16851.38498572
0.09000000 1125100.95420536 18429.15449560
0.09100000 1115422.39953898 20010.67878785
0.09200000 1105739.64023314 21595.09618844
0.09300000 1096057.08987133 21636.16797079
0.09400000 1086373.39823557 20125.06814814
0.09500000 1076692.92256472 17054.81669505
0.09600000 1067016.88818940 18630.11574355
0.09700000 1057350.64816249 15543.05525871
0.09800000 1047692.56626410 18669.88240864
0.09900000 1038046.96341030 24913.12829332
0.10000000 1028412.84461682 18696.54639438
0.10100000 1018794.79737263 15587.56113291
0.10200000 1009194.40964171 17151.25979859
0.10300000 999612.58182856 21831.53981411
0.10400000 990052.69872217 18711.99688616
0.10500000 980517.17414482 17149.24618265
0.10600001 971003.19149513 15584.60195681
0.10700001 961518.79166467 17134.26567376
0.10800001 952060.62691084 17122.81118082
0.10900001 942633.81330683 20219.49624708
0.11000001 933238.88722595 23307.64230555
0.11100001 923876.62025482 20177.46633619
0.11200001 914549.96675662 17051.78493293
0.11300001 905259.31898136 17027.92859173
0.11400001 896006.97985747 20092.95746937
0.11500001 886794.90993213 18516.27859128
0.11600001 877623.68359124 24643.67419575
0.11700001 868495.18998821 21521.31182145
0.11800001 859409.68832083 15340.46365904
0.11900001 850369.15440807 26021.29735053
0.12000001 841374.63095393 25960.61546096
0.12100001 832429.38423953 22850.18767380
0.12200001 823532.22111489 25830.08933216
0.12300001 814685.88420126 22729.73724011
0.12400001 805890.08162705 15110.43974247
0.12500001 797145.75333840 16572.66099282
0.12600001 788456.86807659 34546.23930271
0.12700001 779821.53258853 16469.83154443
0.12800001 771241.33594405 17908.22466462
0.12900001 762717.87466802 22309.49888553
0.13000001 754251.86100886 16303.15474415
0.13100001 745842.86853661 22151.53423971
0.13200001 737493.10517087 17655.58577008
0.13300001 729204.18675478 16122.70532922
0.13400001 720974.66734131 16059.71147217
0.13500001 712807.12497010 17449.51924198
0.13600001 704700.46111267 21722.39273803
0.13700001 696657.48868848 17304.97283501
0.13800001 688676.04273941 15794.78578504
0.13900001 680759.59619696 17155.14263317
0.14000001 672907.22711715 24194.38049202
0.14100001 665119.14874671 18417.15009740
0.14200001 657396.19575092 21151.72359591
0.14300001 649739.84151169 15437.81936248
0.14400001 642147.03268763 22346.71779162
0.14500001 634622.49376127 16677.87992278
0.14600001 627163.88609896 13828.96434085
0.14700001 619774.10055397 16510.78281768
0.14800001 612448.60587551 16425.87238453
0.14900001 605191.79228903 16340.17916275
0.15000001 598002.16653573 14899.22468223
0.15100001 590880.56328123 14819.28522634
0.15200001 583827.04574013 14738.71446519
0.15300001 576842.78869907 21320.11047639
0.15400001 569923.97939671 18551.02640480
0.15500001 563075.00980976 14493.55143650
0.15600001 556291.83724398 15720.80806246
0.15700001 549580.24627415 18235.07343201
0.15800001 542932.79516924 18128.52688634
0.15900001 536355.92816438 19308.81432531
0.16000001 529844.47529037 12795.74468225
0.16100001 523403.75461017 13990.58302114
0.16200001 517029.30925597 22754.46097450
0.16300001 510722.10222076 16332.89360006
0.16400001 504482.44706011 14983.12938503
0.16500001 498309.28012692 13648.69182705
0.16600001 492204.00616654 14795.65312391
0.16700001 486163.65818571 12251.32476472
0.16800001 480189.22202806 20693.75550038
0.16900001 474282.85206685 12094.21329877
0.17000001 468440.45698066 16821.69760449
0.17100001 462663.28032437 14324.05583524
0.17200001 456951.68442786 20158.42451047
0.17300001 451304.55129353 16490.66908303
0.17400001 445721.78711826 16380.27645017
0.17500001 440202.32665293 13945.61036698
0.17600001 434744.93895037 11542.47867427
0.17700001 429352.43527825 13756.45267604
0.17800001 424020.76926187 13661.94983090
0.17900001 418751.71578013 16959.44529015
0.18000001 413544.09921600 14596.03967127
0.18100001 408399.00972517 11149.29349215
0.18200001 403311.86347420 14392.18452793
0.18300001 398285.82613502 12091.95825267
0.18400001 393318.76838378 12006.05597209
0.18500001 388412.15533026 11920.36961023
0.18600001 383562.36137366 15062.49464275
0.18700001 378770.21007799 14953.84860037
0.18800001 374035.22870029 11664.28915811
0.18900001 369359.09121558 17895.44881491
0.19000001 364734.83663246 11494.61891958
0.19100001 360170.76032338 13484.79390366
0.19200001 355658.43953905 13385.20600452
0.19300001 351202.67617845 11241.99819569
0.19400001 346798.79434039 13187.02477793
0.19500001 342449.23978566 12081.60975056
0.19600001 338151.86766810 12990.10461034
0.19700001 333906.13732635 14875.51912087
0.19800001 329712.30258156 11810.29523661
0.19900001 325569.43873259 14650.62543535
0.20000001 321475.57296610 12600.23567791
0.20100001 317432.48701101 12503.66625432
0.20200001 313436.99114447 10498.57251458
0.20300001 309491.19099065 9470.43089193
0.20400001 305592.58196629 15035.15574339
0.20500001 301740.70859522 9323.78833630
0.20600001 297935.43666061 12951.25404382
0.20700001 294176.63177895 10096.14247989
0.20800001 290461.61361038 9105.97201713
0.20900001 286794.01559571 12647.61668564
0.21000001 283168.02196800 9858.49515085
0.21100001 279586.41711494 11558.10302992
0.21200001 276047.42554450 11465.63036202
0.21300001 272549.88376371 9623.73685066
0.21400001 269095.01205628 8678.31454910
0.21500001 265682.29250412 9468.91735251
0.21600001 262308.81492035 11953.41326106
0.21700001 258975.86336065 11009.06447197
0.21800001 255682.25528534 10918.91122821
0.21900001 252426.77557296 12495.12598165
0.22000001 249209.17398389 13218.05521309
0.22100001 246031.16185216 12289.25711559
0.22200001 242890.11810418 10562.07728518
0.22300001 239784.51645155 8862.43614711
0.22400001 236714.59896524 9586.94171142
0.22500001 233682.95365017 9506.22300401
0.22600001 230683.99005619 7854.79023285
0.22700001 227721.85878175 11682.13190794
0.22800001 224792.42981346 8493.78236217
0.22900001 221895.98361310 10717.57651536
0.23000001 219033.95710174 7589.52697250
0.23100001 216205.13997310 7523.93922689
0.23200001 213406.84505671 11187.85438121
0.23300001 210640.96481617 8872.19785766
0.23400001 207906.99396224 9527.33844892
0.23500001 205202.05710632 7264.15316513
0.23600001 202529.32053140 7919.90945397
0.23700001 199885.76967647 9990.29124095
0.23800001 197272.06121784 7779.42410208
0.23900001 194687.05029720 8410.48097065
0.24000001 192130.65269138 7640.07576565
0.24100001 189603.82185457 11700.45240009
0.24200001 187104.31133068 6819.95247060
0.24300001 184632.34351114 9460.56172902
0.24400001 182187.37311231 11382.15667361
0.24500001 179769.26787609 7296.83492826
0.24600001 177377.74287721 7229.03025293
0.24700001 175012.62756795 9114.65807492
0.24800001 172673.36079661 7739.22039702
0.24900001 170358.57254078 8304.98080425
0.25000001 168069.98924489 6960.61893387
0.25100001 165804.88890920 7520.91011673
0.25200001 163566.15900953 9931.73764493
0.25300001 161351.22449822 6147.48194422
0.25400001 159159.83579456 9131.79601075
0.25500001 156991.72069236 7234.17883177
0.25600001 154847.66262333 7760.19097952
0.25700001 152726.07566776 9456.79905278
0.25800001 150627.81876464 8192.64745024
0.25900001 148552.22696504 7531.59826348
0.26000001 146498.84870164 8603.14529707
0.26100001 144466.74947151 6245.29787516
0.26200001 142457.70884276 7305.94394370
0.26300001 140469.13106916 6675.09342426
0.26400001 138502.64206610 5505.48028264
0.26500001 136557.62508832 5993.51444873
0.26600001 134632.44333409 5931.23257175
0.26700001 132729.17229085 6402.85557430
0.26800001 130846.82825735 5807.63674703
0.26900001 128983.35696478 5746.20882470
0.27000001 127141.13552520 6201.94488441
0.27100001 125318.46812164 6646.89186372
0.27200001 123516.96654507 5058.02001938
0.27300001 121734.17377685 9506.22208011
0.27400001 119969.03069840 5443.59502556
0.27500001 118226.13759379 6362.93102643
0.27600001 116499.87184124 7744.91184654
0.27700001 114794.56413910 5744.32026138
0.27800001 113106.95727667 7100.28957908
0.27900001 111439.14544519 6084.57762928
0.28000001 109788.57481701 6478.62410657
0.28100001 108157.16709736 5490.05806170
0.28200001 106544.63517324 6784.22996575
0.28300001 104949.70940019 4917.94361526
0.28400001 103372.71507356 4861.10215641
0.28500001 101814.00762248 4804.60324711
0.28600001 100272.94923182 4316.75066875
0.28700001 98749.47283098  4692.57517104
0.28800001 97242.83699510  5480.12033825
0.28900001 95755.71558013  6248.06073735
0.29000001 94284.10018955  6173.25175212
0.29100001 92830.84650751  5285.78865034
0.29200001 91394.45971663  4418.46536415
0.29300001 89975.22391778  3967.90756260
0.29400001 88572.19586424  4311.25183777
0.29500001 87187.18120315  4258.22213153
0.29600001 85818.05282043  4205.51387754
0.29700001 84465.85183429  4908.31088244
0.29800001 83129.86083193  5219.72420873
0.29900001 81811.32529510  5154.11373758
0.30000001 80508.08060986  3998.43401277
0.30100001 79222.40115135  3588.77494205
0.30200001 77951.18023039  6377.18635655
0.30300001 76697.54092557  4546.63044131
0.30400001 75459.69499415  4487.96557225
0.30500001 74237.45203260  3748.24913058
0.30600001 73030.37041536  4708.26820358
0.30700001 71840.17353335  3319.01617437
0.30800001 70665.21121330  3602.86596428
0.30900001 69505.92156451  3232.02550577
0.31000001 68362.41759318  4145.83901122
0.31100001 67233.38766041  4405.13176807
0.31200001 66120.43389558  4035.66087389
0.31300001 65022.19089474  3675.05440337
0.31400001 63940.23397816  4531.76429777
0.31500001 62872.18843663  4172.19862220
0.31600002 61819.71932980  3527.43335197
0.31700002 60781.91883753  2899.29766583
0.31800002 59759.06898761  3145.41874509
0.31900002 58751.13940122  3666.07127222
0.32000002 57757.91367281  3615.35677753
0.32100002 56778.53254052  3016.64357672
0.32200002 55815.05758762  4597.20743588
0.32300002 54864.03117577  3732.94885796
0.32400002 53928.14994014  3943.49615110
0.32500002 53006.34657212  2851.21151712
0.32600002 52099.01949784  2811.00273011
0.32700002 51205.13967124  3275.08088846
0.32800002 50325.96628583  2483.58655381
0.32900002 49459.76689647  3182.73615050
0.33000002 48608.32509546  3137.42449186
0.33100002 47768.16989297  2616.74047065
0.33200002 46944.38810478  2579.35952656
0.33300002 46132.75915078  3466.87701436
0.33400002 45334.92589145  2961.50417410
0.33500002 44549.24633795  2918.86675829
0.33600002 43777.72252487  2655.55677412
0.33700002 43018.35103221  3053.44270087
0.33800002 42272.91014169  2579.49309900
0.33900002 41539.17860981  2754.04767226
0.34000002 40818.91391016  2923.04256354
0.34100002 40110.77091268  2263.45090980
0.34200002 39415.91987950  3650.30851292
0.34300002 38732.22035762  2198.44093162
0.34400002 38062.36591507  3151.56404703
0.34500002 37403.57437879  2135.37016242
0.34600002 36757.79607965  3061.18940249
0.34700002 36122.43939959  2074.15056856
0.34800002 35500.41905460  2601.82583574
0.34900002 34889.43570198  2564.37364555
0.35000002 34290.23266233  2346.99508573
0.35100002 33703.02608036  2135.42383359
0.35200002 33125.96469134  1929.42190483
0.35300002 32560.74981902  2074.77107674
0.35400002 32006.82061671  1874.79960642
0.35500002 31464.21079710  1848.20782976
0.35600002 30931.46404435  2153.29397144
0.35700002 30410.06121188  2286.22851020
0.35800002 29899.75909515  2254.14294495
0.35900002 29399.95175639  2222.63645806
0.36000002 28910.77738444  1878.62240342
0.36100002 28431.06719507  1698.18772400
0.36200002 27962.88284033  1827.09485133
0.36300002 27503.61363328  1651.86711306
0.36400002 27054.45553219  1629.35466160
0.36500002 26614.94744741  2045.62495770
0.36600002 26185.60577493  1585.66943281
0.36700002 25765.28209079  1564.46800266
0.36800002 25355.89623625  2105.17338473
0.36900002 24954.89950851  2077.49548249
0.37000002 24562.65759456  1776.98554785
0.37100002 24179.51693317  2698.43421757
0.37200002 23806.19970908  1465.15263050
0.37300002 23441.12895194  1446.55213615
0.37400002 23084.92931166  1298.52733529
0.37500002 22737.69837182  1538.88749870
0.37600002 22399.07889115  1266.66797130
0.37700002 22068.28981498  1501.52651014
0.37800002 21745.80387778  1359.87390992
0.37900002 21432.02639550  1588.11323114
0.38000002 21126.15676239  1931.77586587
0.38100002 20827.20533897  1432.07870695
0.38200002 20536.98910906  1533.80510427
0.38300002 20253.82025847  1399.94412259
0.38400002 19979.10111059  1499.93108694
0.38500002 19710.45215392  1711.85285067
0.38600002 19450.49625448  1354.92163328
0.38700002 19196.73520281  1228.97504591
0.38800002 18950.43251304  1216.33356847
0.38900002 18710.38170062  1204.01311948
0.39000002 18478.45923504  1408.89019112
0.39100002 18252.06316697  1609.83204759
0.39200002 18032.84193322  1063.03608233
0.39300002 17819.73708379  1263.77581386
0.39400002 17614.32089077  1252.37827467
0.39500002 17413.93419348  1241.26528812
0.39600002 17219.85211137  1538.16336272
0.39700002 17031.71246912  1118.47261084
0.39800002 16849.80451015  1512.69127157
0.39900002 16673.29767653  1500.59686198
0.40000002 16502.52079665  1191.15200754
0.40100002 16337.66373591  1182.19340394
0.40200002 16178.37731603  1466.97443264
0.40300002 16023.89907232  971.04832979
0.40400002 15875.11289866  1543.06104686
0.40500002 15731.65664008  1245.47531521
0.40600002 15593.00427144  1047.14825146
0.40700002 15459.45424642  1135.34237365
0.40800002 15330.75703392  1128.65038631
0.40900002 15206.68730025  1122.25357593
0.41000002 15087.75355918  1023.17605610
0.41100002 14972.91339347  1295.45652818
0.41200002 14862.42875167  1289.01850671
0.41300002 14756.98908103  1008.04997189
0.41400002 14655.25804777  1277.20579938
0.41500002 14557.98289768  1180.94362862
0.41600002 14464.17613814  995.20768634
0.41700002 14374.86599334  1171.69538264
0.41800002 14290.26876923  1077.77212164
0.41900002 14207.66283728  1342.62420174
0.42000002 14130.00718927  1784.61999257
0.42100002 14056.14520566  978.72943705
0.42200002 13985.88475878  1419.84708799
0.42300002 13918.47890310  973.73683020
0.42400002 13854.47198274  1059.86715690
0.42500002 13794.09959612  969.58730656
0.42600002 13736.11461435  967.77800101
0.42700002 13682.55157861  966.26183827
0.42800002 13631.16759239  1228.03194659
0.42900002 13583.85179397  963.77433045
0.43000002 13538.78410264  1050.33892046
0.43100002 13495.69759112  1399.23399255
0.43200002 13456.47221752  1048.79749433
0.43300002 13419.60413370  1048.33952460
0.43400002 13385.43262315  960.73947205
0.43500002 13353.55889199  960.65507221
0.43600002 13324.61581930  1135.45719085
0.43700002 13297.41416607  1397.82424338
0.43800002 13272.40830683  1310.98219263
0.43900002 13250.56212812  1311.80571285
0.44000002 13230.26065320  962.69996205
0.44100002 13212.49977501  1051.18653192
0.44200002 13196.54286593  876.91031500
0.44300002 13182.68485466  1053.56022351
0.44400002 13171.11836260  1055.00663084
0.44500002 13160.20558079  968.45957459
0.44600002 13151.46734704  1234.52829837
0.44700002 13145.56709465  1148.39679581
0.44800002 13139.86658396  1061.96406764
0.44900002 13137.41213711  1152.80796967
0.45000002 13135.86074680  1066.36922596
0.45100002 13135.54223079  1246.82572764
0.45200002 13136.98404061  1071.18972944
0.45300002 13139.46131540  894.79735799
0.45400002 13143.72901824  986.76550281
0.45500002 13149.25374784  989.34989888
0.45600002 13155.94811801  1082.20834348
0.45700002 13163.90119322  1085.23206580
0.45800002 13172.64168303  1360.40463429
0.45900002 13182.57696312  1182.47720963
0.46000002 13194.38336598  1277.34831420
0.46100002 13205.98892189  1006.69258323
0.46200002 13219.60443393  1377.15235717
0.46300002 13234.00635874  921.08688622
0.46400002 13248.58599796  1201.31559230
0.46500002 13264.68462271  1112.64179889
0.46600002 13281.24728747  1116.42169990
0.46700002 13298.25825904  1026.89155143
0.46800002 13317.03298765  1405.27997263
0.46900002 13335.40725294  1128.17550707
0.47000002 13354.87847960  1037.87443023
0.47100002 13374.90576944  946.94337336
0.47200002 13395.70510039  1045.46785411
0.47300002 13417.16930395  1335.54509582
0.47400002 13438.35036125  1627.72026466
0.47500002 13460.45500621  961.07653300
0.47600002 13483.50753839  1061.21951111
0.47700002 13506.08295080  968.38619347
