# SAXS profile: number of points = 501, q_min = 0, q_max = 0.5, delta_q = 0.001
#    q    intensity    error
0.00000000 1664650.74656089 324.60689558
0.00100000 1664564.53345671 599.24324628
0.00200000 1664305.86100832 898.72519340
0.00300000 1663874.95368025 1397.65501088
0.00400000 1663271.67804603 2370.16223128
0.00500000 1662496.67904591 2244.37060555
0.00600000 1661549.81248322 1919.09011155
0.00700000 1660431.83123582 2590.27376438
0.00800000 1659142.48830787 2911.79518992
0.00900000 1657683.20573706 3978.43986384
0.01000000 1656053.36590241 3552.23462324
0.01100000 1654254.53751212 3573.18995660
0.01200000 1652286.66144255 3544.15504418
0.01300000 1650151.00072604 5891.03933241
0.01400000 1647847.80606540 3707.65772801
0.01500000 1645378.54058268 4343.79954056
0.01600000 1642742.92051510 4188.99463458
0.01700000 1639943.13675022 4870.63133464
0.01800000 1636979.67647414 6065.00997425
0.01900000 1633853.52054067 5391.71686107
0.02000000 1630565.37575044 5649.90928255
0.02100000 1627117.98649795 6980.33647855
0.02200000 1623510.08470215 8401.66507004
0.02300000 1619744.67716677 6997.29732387
0.02400000 1615822.35386511 6059.33410328
0.02500000 1611745.46130199 8171.54986200
0.02600000 1607514.52907090 7161.47755456
0.02700000 1603131.36129962 7406.46722843
0.02800000 1598596.44342654 8344.67381737
0.02900000 1593913.20062655 10041.65362500
0.03000000 1589082.06295718 10344.92470536
0.03100000 1584104.76423891 9884.81418368
0.03200000 1578982.62137949 8597.56076940
0.03300000 1573719.60443889 12841.55256422
0.03400000 1568314.35024870 9057.01579058
0.03500000 1562770.72732878 9282.85854900
0.03600000 1557089.44457627 8641.84681677
0.03700000 1551273.61005964 12379.16398078
0.03800000 1545324.65903326 14464.23947795
0.03900000 1539245.17079201 12929.66003343
0.04000000 1533035.12887686 12256.61642333
0.04100000 1526698.68338947 11541.84258158
0.04200000 1520237.35726357 16669.40339574
0.04300000 1513652.92826304 10989.12076928
0.04400000 1506948.10954233 10171.90021181
0.04500000 1500125.58614396 15526.30053802
0.04600000 1493185.60040611 10526.95897223
0.04700000 1486132.07322244 11770.16656733
0.04800000 1478967.05287557 14131.53084774
0.04900000 1471692.82971289 14349.00575761
0.05000000 1464311.46776538 12322.18157504
0.05100000 1456826.48989696 14772.22129570
0.05200000 1449237.29187739 21890.73031394
0.05300000 1441549.59313335 12844.20747359
0.05400000 1433763.69957101 13011.40618038
0.05500000 1425883.64927703 13175.16553393
0.05600000 1417910.26178760 14547.75996480
0.05700000 1409848.33701921 14718.81732553
0.05800000 1401697.52096560 13645.52600374
0.05900000 1393461.29675461 20065.84361046
0.06000000 1385143.67168384 15208.87822563
0.06100000 1376745.89946712 16644.85870239
0.06200000 1368270.84930483 19395.24019550
0.06300000 1359721.78757130 14358.66274810
0.06400000 1351098.05670727 21077.13067034
0.06500000 1342406.10520471 17276.76738215
0.06600000 1333647.14602283 16083.78533357
0.06700000 1324822.27632032 20269.78177631
0.06800000 1315935.89305770 20429.90569603
0.06900000 1306991.39685209 15095.75134041
0.07000000 1297988.36331461 15205.93438830
0.07100000 1288931.32832743 16704.55079753
0.07200000 1279822.10190245 16816.86320681
0.07300000 1270664.13392329 16925.24705690
0.07400000 1261460.20959675 17029.71362764
0.07500000 1252211.18830436 15702.72903736
0.07600000 1242920.03373853 20098.01788776
0.07700000 1233590.91081795 27422.72723329
0.07800000 1224224.63716338 20309.88768300
0.07900000 1214823.27149042 16035.66793581
0.08000000 1205392.10655198 14645.51478164
0.08100000 1195931.68904344 19122.94860502
0.08200000 1186443.60025476 20679.71292284
0.08300000 1176931.07880392 16312.26551779
0.08400000 1167397.57427726 16372.75174775
0.08500000 1157844.41261967 20910.67107357
0.08600000 1148274.50084273 16483.48123352
0.08700000 1138689.68941055 15030.70460603
0.08800000 1129091.99289249 16580.71669432
0.08900000 1119484.77597404 18135.65422261
0.09000000 1109870.09872832 21209.61858303
0.09100000 1100249.73781342 18220.13651419
0.09200000 1090625.68265886 18257.07478555
0.09300000 1081002.09024698 18290.55622649
0.09400000 1071377.97269492 21373.99155979
0.09500000 1061757.35370739 18347.16793443
0.09600000 1052141.59995854 16839.52709893
0.09700000 1042535.98544762 21455.39158919
0.09800000 1032939.02266280 23008.71781163
0.09900000 1023354.54597714 15350.31891147
0.10000000 1013782.46167657 18430.56602002
0.10100000 1004226.45559513 18437.59859188
0.10200000 994688.26429221 19978.31472802
0.10300000 985169.46558913 24589.83101783
0.10400000 975672.63977721 15366.84479943
0.10500000 966200.53298544 19971.36595645
0.10600001 956750.26219608 16891.42667387
0.10700001 947330.02362814 26089.47007843
0.10800001 937936.12767499 19935.83333195
0.10900001 928574.11970707 15321.47369628
0.11000001 919244.14291903 18366.49884003
0.11100001 909947.05445137 16815.82235784
0.11200001 900686.06369201 16793.29244812
0.11300001 891461.22348087 18292.78516707
0.11400001 882275.11466656 16741.17108905
0.11500001 873129.13347243 18230.93716536
0.11600001 864024.66773565 18196.36035941
0.11700001 854963.09249647 19672.70168483
0.11800001 845944.67944921 15100.11323936
0.11900001 836971.37360929 19585.13106495
0.12000001 828044.37404188 19537.70792584
0.12100001 819166.78020178 17988.90334065
0.12200001 810337.75854908 17940.87881949
0.12300001 801559.47594598 23854.41112804
0.12400001 792831.97760230 16352.16030852
0.12500001 784156.41891201 16302.61271737
0.12600001 775536.22206866 16251.36229927
0.12700001 766969.84189623 16198.40382422
0.12800001 758458.76866094 17611.41343832
0.12900001 750004.60695100 17550.10862983
0.13000001 741607.88828283 16029.85526080
0.13100001 733268.58637104 17422.46243343
0.13200001 724988.58488570 15909.87524531
0.13300001 716769.42306274 20169.89251585
0.13400001 708609.87950100 17219.22088369
0.13500001 700512.46399935 15719.50043329
0.13600001 692476.06010680 17076.46044740
0.13700001 684503.51322289 15586.14573102
0.13800001 676592.65788512 15517.65334034
0.13900001 668746.64459207 18256.78425832
0.14000001 660964.70424775 16775.28498494
0.14100001 653247.36335575 15305.58644528
0.14200001 645595.30267849 15232.82188516
0.14300001 638009.78715979 15159.11325794
0.14400001 630487.90443672 15084.42382518
0.14500001 623034.36130664 16373.34378750
0.14600001 615646.87350841 19005.01988175
0.14700001 608328.25381196 17556.35423326
0.14800001 601073.78093924 20150.99945669
0.14900001 593888.08810449 14698.73087408
0.15000001 586769.70519218 17277.43478458
0.15100001 579719.40458477 15861.12365785
0.15200001 572737.17147411 14458.75057613
0.15300001 565824.09518922 14377.59093722
0.15400001 558976.53267648 14295.82549784
0.15500001 552198.97377462 15505.74791535
0.15600001 545486.88122381 19269.32498865
0.15700001 538846.55038621 14047.73023158
0.15800001 532270.23258141 17772.50390473
0.15900001 525764.78278293 13880.19092062
0.16000001 519324.48102488 13795.85548962
0.16100001 512954.92374387 17450.72732952
0.16200001 506651.49851348 14865.15566811
0.16300001 500415.32648617 13541.23937397
0.16400001 494246.56713519 14679.12373691
0.16500001 488144.43513794 14585.75641053
0.16600001 482110.02851917 13284.54246305
0.16700001 476140.38468775 16798.23356491
0.16800001 470236.71310720 13112.55136412
0.16900001 464401.04444315 14210.67263096
0.17000001 458629.06709683 12940.21973917
0.17100001 452922.47613691 14022.48052336
0.17200001 447281.32162649 16249.73118205
0.17300001 441704.37887282 11528.48483301
0.17400001 436191.67853975 14885.04173313
0.17500001 430742.34795818 12508.75837546
0.17600001 425355.00443217 12422.49349114
0.17700001 420032.27699825 12336.34855809
0.17800001 414770.24555494 13363.89794299
0.17900001 409570.76083310 11058.41106482
0.18000001 404432.66454965 14274.45156953
0.18100001 399356.99243575 13082.93569019
0.18200001 394338.88567877 14071.98380018
0.18300001 389381.77789235 10746.93757751
0.18400001 384483.60215700 18138.01478861
0.18500001 379645.58418743 11651.32352915
0.18600001 374864.36381491 12617.93508212
0.18700001 370140.57333650 12525.55759347
0.18800001 365473.82326970 14505.65673091
0.18900001 360865.59410113 13370.07089315
0.19000001 356309.40634268 11229.09147145
0.19100001 351812.89659325 12158.65428076
0.19200001 347367.91051348 11061.93163299
0.19300001 342979.61478967 10978.77798819
0.19400001 338642.67569795 9905.29873223
0.19500001 334360.19723800 10813.20928966
0.19600001 330129.35839653 10730.85530178
0.19700001 325950.17044678 10648.79257173
0.19800001 321822.45196295 15370.24103213
0.19900001 317745.68700112 9532.37106053
0.20000001 313717.61463053 11350.30383376
0.20100001 309740.29608080 11262.15769777
0.20200001 305809.98423588 9311.91446010
0.20300001 301929.46539993 13858.56311688
0.20400001 298095.74321001 11916.37789806
0.20500001 294308.53707284 10003.54764794
0.20600001 290567.71746698 9022.12805381
0.20700001 286873.06273911 10740.52797665
0.20800001 283222.12622109 11542.71829977
0.20900001 279618.04742194 11450.35958320
0.21000001 276055.69371072 9610.87943087
0.21100001 272537.27712011 9533.35440434
0.21200001 269061.18169501 10315.80619386
0.21300001 265626.44426973 13642.57482265
0.21400001 262234.02209849 10148.45713500
0.21500001 258883.38859603 10065.38662448
0.21600001 255571.87538171 9982.63792437
0.21700001 252300.52521923 11550.31859063
0.21800001 249068.27416191 11454.65047029
0.21900001 245873.84603558 8113.83730281
0.22000001 242717.05685140 10459.89205958
0.22100001 239599.57447018 9574.39944854
0.22200001 236518.86849564 9493.86783033
0.22300001 233473.14816089 11767.04722372
0.22400001 230462.99118112 9333.75158419
0.22500001 227490.67013753 8483.12749057
0.22600001 224550.78216881 11468.93174162
0.22700001 221647.35593819 10612.47590418
0.22800001 218776.56451337 7514.97534642
0.22900001 215938.28380950 11174.80671561
0.23000001 213134.04388679 8123.60446693
0.23100001 210362.82410731 10980.93993772
0.23200001 207621.83009045 7982.02163533
0.23300001 204912.92140691 7911.68826970
0.23400001 202235.68697428 10693.21245450
0.23500001 199587.25240674 7771.92797630
0.23600001 196970.45042124 14004.59968733
0.23700001 194382.72012843 7633.40978049
0.23800001 191824.48090917 8252.28955904
0.23900001 189294.64086653 8177.52887223
0.24000001 186793.04020222 8778.33933952
0.24100001 184320.67920402 8698.09326307
0.24200001 181875.29591833 7292.29033479
0.24300001 179457.40115293 11822.65414720
0.24400001 177065.88465897 7808.60588284
0.24500001 174700.95787877 9025.05191094
0.24600001 172362.45546056 8301.83805998
0.24700001 170049.93312943 10753.95827983
0.24800001 167762.79148241 7519.12866995
0.24900001 165499.88073833 6826.87040342
0.25000001 163262.96025710 8605.59104227
0.25100001 161049.15895948 7913.95604567
0.25200001 158861.37100692 7234.54717792
0.25300001 156697.06590706 7761.20604156
0.25400001 154556.05447106 6502.94629953
0.25500001 152437.93177646 6438.97854288
0.25600001 150343.50587730 8114.03939609
0.25700001 148271.09452255 6885.70995541
0.25800001 146221.86878694 7953.00781961
0.25900001 144194.93145440 6185.96285208
0.26000001 142189.82065884 6123.40491640
0.26100001 140205.74233027 6612.10312115
0.26200001 138244.30776376 8180.60729900
0.26300001 136303.18427497 5937.36698796
0.26400001 134383.56509626 7478.44575147
0.26500001 132485.19828294 5814.77562779
0.26600001 130606.31241111 6800.01797746
0.26700001 128749.07384433 6728.42691750
0.26800001 126912.32426234 5633.00377894
0.26900001 125094.22321867 6586.21116413
0.27000001 123296.96998897 5012.02206723
0.27100001 121518.86969786 5453.76713013
0.27200001 119761.70046835 6375.51442614
0.27300001 118022.86621015 7761.18404927
0.27400001 116301.34329044 7196.14595665
0.27500001 114601.76525732 6642.31862866
0.27600001 112918.52667750 6568.47100769
0.27700001 111255.78793173 5567.23989158
0.27800001 109610.44671083 5045.91715314
0.27900001 107984.68006636 6803.03516615
0.28000001 106375.78399840 8070.73111393
0.28100001 104785.67476146 4875.67767741
0.28200001 103214.10257856 5695.87052038
0.28300001 101659.87317281 5196.85296256
0.28400001 100123.08823217 4280.26222451
0.28500001 98604.44442784  5076.15703941
0.28600001 97103.05130131  5016.34386766
0.28700001 95618.91499140  4543.81105546
0.28800001 94151.27849330  4081.45811587
0.28900001 92702.78503842  4032.57134005
0.29000001 91269.57386144  3983.91708763
0.29100001 89854.30267708  4722.74237226
0.29200001 88455.69145504  4276.39060582
0.29300001 87073.71634107  5375.93150137
0.29400001 85707.67843465  4171.82144529
0.29500001 84359.43640697  5243.78281528
0.29600001 83026.77244345  4438.61146494
0.29700001 81710.61349541  4017.71105576
0.29800001 80410.45281058  3967.04987720
0.29900001 79127.22627794  4272.87042128
0.30000001 77859.22566791  3866.87862585
0.30100001 76608.27657731  3817.39060256
0.30200001 75371.52633060  3768.19963729
0.30300001 74152.03728332  4057.59967224
0.30400001 72948.10609353  5339.80161884
0.30500001 71759.55514548  3623.14011082
0.30600001 70585.59067260  3575.51326480
0.30700001 69428.32383048  4169.86532667
0.30800001 68285.94714111  3798.06455980
0.30900001 67158.94548969  4996.62578099
0.31000001 66047.40974664  3389.22299161
0.31100001 64950.01264173  3039.66073555
0.31200001 63868.52429637  2998.62735769
0.31300001 62801.25210378  3253.73302555
0.31400001 61750.08024404  3209.46057264
0.31500001 60712.54699063  3453.32983633
0.31600002 59690.29590769  3122.10107528
0.31700002 58682.34722062  4478.63695193
0.31800002 57689.04063868  4416.67316042
0.31900002 56710.29775227  2994.30386310
0.32000002 55746.12227598  3489.42868909
0.32100002 54795.43842973  3705.26772206
0.32200002 53860.25732745  3914.29438662
0.32300002 52937.39549236  2830.03329703
0.32400002 52029.34604337  2790.07381369
0.32500002 51134.99253871  3500.70175496
0.32600002 50254.91657166  3944.00603930
0.32700002 49388.00338891  2672.87886998
0.32800002 48535.46935432  2874.27063127
0.32900002 47695.69263266  3305.31165596
0.33000002 46870.37576844  3025.24854723
0.33100002 46055.90910465  2522.94282023
0.33200002 45257.78939798  2486.68935623
0.33300002 44471.33626801  2673.61686304
0.33400002 43698.51497406  2854.60562586
0.33500002 42937.53637649  3029.67271020
0.33600002 42190.50239661  2346.00299686
0.33700002 41455.29843886  2522.14047646
0.33800002 40733.67149250  2278.43802283
0.33900002 40023.61342526  2857.68613390
0.34000002 39326.64343987  2413.86948866
0.34100002 38641.61768884  2378.77809758
0.34200002 37969.59899433  2344.24315293
0.34300002 37308.52711876  2502.65611765
0.34400002 36660.85439968  2086.91923554
0.34500002 36024.16084360  1869.65403633
0.34600002 35400.28180747  2211.10170641
0.34700002 34786.38968130  1997.43459010
0.34800002 34185.73294579  1968.58552492
0.34900002 33595.78408590  2469.29024726
0.35000002 33017.27371215  2086.03145193
0.35100002 32450.72581330  1884.73824450
0.35200002 31893.84595499  1688.77922330
0.35300002 31348.71163541  1997.54000002
0.35400002 30814.66776637  1969.05736353
0.35500002 30291.54122165  1779.32521564
0.35600002 29778.09679277  2073.00230642
0.35700002 29275.77969163  1572.10944390
0.35800002 28784.41183179  2015.05284573
0.35900002 28303.15748657  2445.39292267
0.36000002 27832.33900853  1657.83335157
0.36100002 27370.82313535  1486.23576665
0.36200002 26920.54986632  1758.98881158
0.36300002 26478.92380865  1879.47410096
0.36400002 26047.23322493  1853.91191260
0.36500002 25624.99651233  2250.89980026
0.36600002 25212.70096624  1804.34703012
0.36700002 24809.11444525  1917.24845515
0.36800002 24416.32565891  2027.16553386
0.36900002 24031.59645551  1733.87976640
0.37000002 23655.54786429  1711.36069131
0.37100002 23288.34802465  1429.43886947
0.37200002 22930.78821890  1411.27542778
0.37300002 22581.22066882  1520.16784744
0.37400002 22240.26314306  2126.72526380
0.37500002 21908.20713718  1482.74752928
0.37600002 21584.40938893  1342.65824964
0.37700002 21268.30386433  1205.91288623
0.37800002 20960.28166685  1549.06968997
0.37900002 20660.70084344  1295.42600425
0.38000002 20368.93982312  1164.08496604
0.38100002 20083.82390870  1265.88348093
0.38200002 19807.36673513  1251.72660013
0.38300002 19537.66096208  1125.36932473
0.38400002 19276.24781749  1113.20336420
0.38500002 19020.68677312  1431.68716124
0.38600002 18773.54569647  1307.76525517
0.38700002 18532.65456143  1294.32065589
0.38800002 18298.82854734  1067.73669632
0.38900002 18071.17868035  1585.74600433
0.39000002 17851.36411663  1151.68081055
0.39100002 17636.96745770  1244.46448277
0.39200002 17429.57063695  1335.71520904
0.39300002 17228.12160779  1120.00023878
0.39400002 17034.16341388  1211.12907611
0.39500002 16845.09226237  1200.71823335
0.39600002 16662.12917417  992.22983933
0.39700002 16484.90854349  1279.39381268
0.39800002 16313.73736053  1366.92811820
0.39900002 16147.92633194  1259.53831357
0.40000002 15987.58797964  1153.98415505
0.40100002 15832.99219466  1050.20242203
0.40200002 15683.86432141  1042.89860746
0.40300002 15539.31426713  1035.85073813
0.40400002 15400.39289977  1029.13130429
0.40500002 15266.49182244  1022.70233564
0.40600002 15137.46751243  1293.79940959
0.40700002 15013.11144221  1286.32344932
0.40800002 14893.72288353  913.72994220
0.40900002 14778.64018504  1181.55233878
0.41000002 14668.51988474  1266.04001124
0.41100002 14562.50493908  989.95913266
0.41200002 14460.60779630  1075.00163451
0.41300002 14363.54730659  1159.56922900
0.41400002 14270.14638798  888.31665474
0.41500002 14181.04862643  1061.87697146
0.41600002 14095.29614115  1322.49122311
0.41700002 14013.84086342  1054.40143653
0.41800002 13937.04672900  1226.32079979
0.41900002 13862.02192831  1135.29964972
0.42000002 13791.84762134  958.05074041
0.42100002 13725.32976520  1129.45743990
0.42200002 13662.35741127  1040.25194259
0.42300002 13602.06195417  1038.10941753
0.42400002 13544.99317372  949.84269132
0.42500002 13491.53730763  1034.53112977
0.42600002 13440.29298468  946.93588711
0.42700002 13393.36412686  1031.82482123
0.42800002 13348.34257257  858.96588525
0.42900002 13307.40987376  1201.65916854
0.43000002 13268.63346854  943.59891383
0.43100002 13231.59670847  1028.88900881
0.43200002 13198.41208666  1114.40797735
0.43300002 13167.48274454  1371.52506767
0.43400002 13139.08253454  1028.79021121
0.43500002 13112.88160863  943.34074763
0.43600002 13089.45038547  1029.61621611
0.43700002 13067.72665608  944.40465019
0.43800002 13048.16651803  859.22180593
0.43900002 13031.52495946  1032.09682570
0.44000002 13016.36969368  1205.44605446
0.44100002 13003.64113988  1034.56973812
0.44200002 12992.63852281  1036.03304491
0.44300002 12983.65035513  1037.65338556
0.44400002 12976.86388106  1559.17026920
0.44500002 12970.65205576  954.51033002
0.44600002 12966.49691508  1130.22475717
0.44700002 12965.03827071  1219.75085831
0.44800002 12963.68894230  1309.65673746
0.44900002 12965.50121810  1137.72278581
0.45000002 12968.18964748  1052.75768547
0.45100002 12971.97713645  967.45010069
0.45200002 12977.36897894  1234.53716947
0.45300002 12983.81779664  1149.45744401
0.45400002 12991.93432263  975.36951550
0.45500002 13001.22782476  1067.14083043
0.45600002 13011.58659965  891.94430368
0.45700002 13023.12447853  1073.62643289
0.45800002 13035.35949086  987.23299783
0.45900002 13048.83126962  1350.55410041
0.46000002 13064.01955399  1174.39009347
0.46100002 13078.91531027  997.00576135
0.46200002 13095.76962425  1182.35161656
0.46300002 13113.32553932  1277.76250111
0.46400002 13130.96321354  1190.65014582
0.46500002 13150.03008741  1011.10586134
0.46600002 13169.58327815  1014.78228759
0.46700002 13189.53047093  1851.81016589
0.46800002 13211.08471131  929.39985349
0.46900002 13232.16531112  1492.58831784
0.47000002 13254.28366828  1030.05670410
0.47100002 13277.01682203  1128.01540266
0.47200002 13300.31712077  1415.48631667
0.47300002 13324.21037302  1326.29196339
0.47400002 13347.85166471  1236.34481904
0.47500002 13372.30274647  1527.65193816
0.47600002 13397.65865688  1533.76403574
0.47700002 13422.45564424  1443.58517296
