# SAXS profile: number of points = 501, q_min = 0, q_max = 0.5, delta_q = 0.001
#    q    intensity    error
0.00000000 1646666.22097350 370.49989972
0.00100000 1646580.44759837 790.35863362
0.00200000 1646323.09061325 814.92995566
0.00300000 1645894.38246310 1481.30499699
0.00400000 1645294.17000524 1357.36774183
0.00500000 1644523.12262660 1776.08504274
0.00600000 1643581.06804621 2416.06426839
0.00700000 1642468.78846175 2168.05889087
0.00800000 1641186.02364153 3766.52208328
0.00900000 1639734.16916603 2951.52163067
0.01000000 1638112.64797382 2702.88598587
0.01100000 1636323.02237106 3828.99603906
0.01200000 1634365.19284441 3187.01226578
0.01300000 1632240.44014141 4113.24609057
0.01400000 1629949.04819855 4034.12407313
0.01500000 1627492.43924216 4687.17843373
0.01600000 1624870.33265407 4557.76148684
0.01700000 1622084.93490776 6131.48132900
0.01800000 1619136.71140002 5537.44780216
0.01900000 1616026.58532622 6787.31196463
0.02000000 1612755.44147960 6096.21584456
0.02100000 1609325.79600721 7435.08551465
0.02200000 1605736.56653932 7755.70796874
0.02300000 1601990.59701309 6920.59969411
0.02400000 1598088.62563701 10187.81545298
0.02500000 1594032.84299973 6838.40120878
0.02600000 1589823.98704529 10302.05990725
0.02700000 1585463.59244249 7324.84213257
0.02800000 1580952.32753915 8940.28582223
0.02900000 1576293.55820552 7802.65347137
0.03000000 1571487.66840044 13153.35238911
0.03100000 1566536.55280601 9023.25095935
0.03200000 1561441.29187220 10047.87517598
0.03300000 1556205.92689064 14285.97106745
0.03400000 1550829.20510766 8956.03907273
0.03500000 1545314.91946957 13351.52152076
0.03600000 1539663.73229238 11108.67434186
0.03700000 1533878.80798765 11366.04249284
0.03800000 1527961.62315407 10726.29109095
0.03900000 1521914.49157696 10044.63610958
0.04000000 1515737.73532406 15847.03875715
0.04100000 1509435.33110791 14264.16454035
0.04200000 1503008.77041700 11633.28842273
0.04300000 1496459.89412745 12839.62648760
0.04400000 1489791.20677469 12067.30933530
0.04500000 1483005.76517458 11256.01428068
0.04600000 1476103.55192515 13528.48968229
0.04700000 1469088.60247576 14808.41380166
0.04800000 1461962.76773144 13969.05489563
0.04900000 1454728.47521129 12001.51047913
0.05000000 1447387.73801888 12179.76838259
0.05100000 1439944.26360150 13477.87893516
0.05200000 1432397.07527716 17081.33591869
0.05300000 1424752.15516709 15002.64089330
0.05400000 1417009.67656903 14028.39645223
0.05500000 1409173.88397308 14204.47341308
0.05600000 1401245.15998117 13178.71134460
0.05700000 1393228.77570543 15757.41818876
0.05800000 1385124.12347255 13484.18397161
0.05900000 1376934.81433915 16110.13808021
0.06000000 1368664.64369034 16280.26669729
0.06100000 1360314.97003735 21506.58068132
0.06200000 1351888.58236095 17885.48678067
0.06300000 1343388.85747063 15475.84036164
0.06400000 1334815.07274591 15617.33708150
0.06500000 1326173.76588391 18380.76925496
0.06600000 1317466.10965873 21184.85603452
0.06700000 1308692.98487953 16018.40288457
0.06800000 1299858.85404302 16144.24772291
0.06900000 1290967.33874056 14910.67346056
0.07000000 1282017.99642181 16384.19076152
0.07100000 1273015.07719004 13748.56347760
0.07200000 1263960.55596162 19376.51623062
0.07300000 1254857.78788169 18107.59872757
0.07400000 1245709.67609648 15415.65796414
0.07500000 1236516.87024617 18325.18087599
0.07600000 1227282.55237961 15592.62555897
0.07700000 1218010.68106419 18525.94332764
0.07800000 1208702.32742685 18620.06022722
0.07900000 1199359.15742290 14392.31056413
0.08000000 1189986.90254180 20241.67816179
0.08100000 1180585.78940297 17425.44706916
0.08200000 1171157.49237739 18955.18490360
0.08300000 1161705.14373682 16101.23404786
0.08400000 1152232.44988461 16160.06086816
0.08500000 1142740.50073505 16215.48846667
0.08600000 1133232.06435087 16267.54704754
0.08700000 1123709.37986565 19282.85386397
0.08800000 1114174.05029898 16361.64669705
0.08900000 1104629.74533935 23860.00362003
0.09000000 1095078.31846396 19432.16567398
0.09100000 1085521.47880854 22470.29566702
0.09200000 1075961.54501224 16510.63068399
0.09300000 1066402.41589614 18043.52972487
0.09400000 1056843.04880460 16566.01556857
0.09500000 1047287.50956691 16589.03493127
0.09600000 1037737.34197299 22648.61855322
0.09700000 1028197.54518630 24183.20739970
0.09800000 1018666.87108331 15127.20374683
0.09900000 1009148.81678058 18164.67955620
0.10000000 999643.70960405 19687.98378652
0.10100000 990154.70685757 19694.17804565
0.10200000 980683.84385451 16666.72271025
0.10300000 971232.83866168 21211.72619419
0.10400000 961803.97708963 18178.09602218
0.10500000 952400.23649355 21200.43026181
0.10600001 943018.47951074 16648.99203916
0.10700001 933666.98766128 22688.10886782
0.10800001 924342.02202389 16624.29204847
0.10900001 915049.21640593 16608.14405944
0.11000001 905788.85148196 19605.80061316
0.11100001 896561.31110275 21087.12302978
0.11200001 887370.40441038 18049.11487541
0.11300001 878215.58622942 19522.73340103
0.11400001 869099.84659679 17990.36767162
0.11500001 860024.19156089 17957.30596536
0.11600001 850990.50000689 17921.86077411
0.11700001 841999.65840588 17884.07358679
0.11800001 833052.24950080 16356.98168933
0.11900001 824150.04101312 14834.70143697
0.12000001 815294.22335361 14797.59085091
0.12100001 806488.04108982 14758.73184720
0.12200001 797730.65104135 19133.57056663
0.12300001 789023.86832194 19078.59803490
0.12400001 780368.07355626 19021.47268918
0.12500001 771764.41407551 18962.25254735
0.12600001 763216.13059239 17447.12156751
0.12700001 754721.66521035 14490.65665493
0.12800001 746282.76334523 15884.62936643
0.12900001 737900.60460830 15827.96871485
0.13000001 729576.04694678 20070.63799753
0.13100001 721309.02490720 15710.11130302
0.13200001 713101.29816026 15649.00872583
0.13300001 704954.37595048 17003.50034952
0.13400001 696867.10700002 21167.33937307
0.13500001 688841.98459292 16862.85257789
0.13600001 680877.97092029 13992.04296215
0.13700001 672977.77607964 16716.76874607
0.13800001 665139.33820803 22189.04936896
0.13900001 657365.45373603 13804.67517946
0.14000001 649655.80146525 13740.22084899
0.14100001 642010.77213422 16409.79610969
0.14200001 634430.77362091 16330.24888322
0.14300001 626917.45577574 27082.83536694
0.14400001 619467.52098619 16168.10306039
0.14500001 612086.16753547 13404.68770135
0.14600001 604770.64884576 16002.23212335
0.14700001 597523.96961444 22550.55567711
0.14800001 590341.17753554 13194.12594040
0.14900001 583227.20417186 15747.13525560
0.15000001 576180.54976355 13050.49006790
0.15100001 569201.67810745 14275.57876053
0.15200001 562290.97542739 20647.32559198
0.15300001 555449.12103745 16680.13789187
0.15400001 548672.78390245 21686.29280714
0.15500001 541966.16390051 13950.20971715
0.15600001 535324.97628405 15128.28454377
0.15700001 528755.42151433 17544.10571387
0.15800001 522249.84089775 16192.35708129
0.15900001 515814.60063416 17331.37139936
0.16000001 509444.66607352 13533.39819305
0.16100001 503145.41508806 12226.43416378
0.16200001 496911.82916960 13364.44427640
0.16300001 490745.58944783 15694.04469142
0.16400001 484646.37020888 14393.99787474
0.16500001 478613.66459257 13109.22889209
0.16600001 472648.54621199 13023.83130577
0.16700001 466747.79701647 12938.24954417
0.16800001 460912.90878354 15189.38562615
0.16900001 455145.84066160 11606.21948489
0.17000001 449442.21399017 11528.19333321
0.17100001 443803.85499309 12595.15399946
0.17200001 438230.61544609 12509.29350863
0.17300001 432721.49280845 12423.43464522
0.17400001 427276.14763699 12337.59934567
0.17500001 421894.10523997 18934.60833741
0.17600001 416573.83710387 13272.04307696
0.17700001 411317.89957879 16473.28265617
0.17800001 406122.24959563 14175.69779168
0.17900001 400989.05225166 14074.71639883
0.18000001 395917.06875761 12898.97870941
0.18100001 390907.11499126 11738.94121769
0.18200001 385954.48466603 10594.45110454
0.18300001 381062.52392588 10517.32615719
0.18400001 376229.30999400 16704.58215287
0.18500001 371455.85904959 17618.15222704
0.18600001 366738.97413553 16459.24593679
0.18700001 362079.31509147 13273.82831837
0.18800001 357476.45881327 11147.90389479
0.18900001 352931.49919584 14081.96748325
0.19000001 348438.67100604 14974.15259399
0.19100001 344005.02172446 14861.01764068
0.19200001 339622.66549880 11798.49195692
0.19300001 335296.78336337 10732.85054262
0.19400001 331021.77090407 12587.10343342
0.19500001 326800.98358455 10568.74430855
0.19600001 322631.49970501 13347.26577354
0.19700001 318513.40835196 11351.81841012
0.19800001 314446.47729005 12202.09612790
0.19900001 310430.12283637 11175.48495026
0.20000001 306462.15717957 13859.75171347
0.20100001 302544.65752899 11000.52426766
0.20200001 298673.81703851 10004.07997453
0.20300001 294852.53711726 9022.48806223
0.20400001 291077.54357830 13425.95233214
0.20500001 287348.90123034 8879.08146770
0.20600001 283666.29097239 8807.83875102
0.20700001 280029.36212647 8736.91651133
0.20800001 276436.13029758 9532.90040393
0.20900001 272888.99369732 9455.60407859
0.21000001 269383.55548961 15346.78188172
0.21100001 265921.77139339 8456.31273007
0.21200001 262501.78893804 11741.70557428
0.21300001 259122.89536762 9149.62986798
0.21400001 255786.03679590 8249.10007666
0.21500001 252490.52716849 8998.76281372
0.21600001 249233.92280452 8923.82102792
0.21700001 246017.08081897 8044.75892313
0.21800001 242839.03150917 9572.71507469
0.21900001 239698.22220670 7910.04170682
0.22000001 236595.05272606 10196.06427933
0.22100001 233530.62973651 9331.88440551
0.22200001 230502.76927294 10794.44519546
0.22300001 227509.37068353 9173.17825972
0.22400001 224551.54421143 8336.47647305
0.22500001 221630.86980295 9015.94420992
0.22600001 218742.46242229 10427.45367677
0.22700001 215890.04650917 9598.47192170
0.22800001 213070.14943199 8050.85597701
0.22900001 210282.24221383 7980.21146941
0.23000001 207528.09386156 7909.93367161
0.23100001 204806.54742467 9265.44864368
0.23200001 202114.96591923 8476.70207155
0.23300001 199455.14678151 9801.22637639
0.23400001 196826.69248435 7631.95536204
0.23500001 194226.63201141 7563.18540823
0.23600001 191657.87899581 9538.81308878
0.23700001 189117.94354269 8776.96417495
0.23800001 186607.05286062 10703.78105836
0.23900001 184124.26448233 8617.01598535
0.24000001 181669.51505064 9194.29459161
0.24100001 179243.56993577 7807.85027572
0.24200001 176844.23934256 6445.97282894
0.24300001 174472.23107366 7662.82075123
0.24400001 172126.09947151 6325.63445480
0.24500001 169806.23449711 6892.43538428
0.24600001 167512.70270530 6826.98052171
0.24700001 165244.73666466 6761.81494419
0.24800001 163001.66157131 9740.97975632
0.24900001 160782.50654552 7235.21313683
0.25000001 158589.13520186 7762.14558967
0.25100001 156418.53029930 8277.66901505
0.25200001 154273.77323884 8196.56595996
0.25300001 152152.00649182 6956.39006592
0.25400001 150053.30546985 8609.30880865
0.25500001 147977.25591803 7955.25765453
0.25600001 145924.51230266 7313.00728005
0.25700001 143893.30062537 6125.53809744
0.25800001 141885.32545292 6614.69418558
0.25900001 139899.14487842 7092.88698093
0.26000001 137934.52032134 6480.16407131
0.26100001 135990.67743803 6413.32065143
0.26200001 134069.16080264 6346.83437271
0.26300001 132167.72464331 6280.61057223
0.26400001 130287.38131823 5696.81601770
0.26500001 128428.01514052 5636.70585124
0.26600001 126587.88511159 6083.81404635
0.26700001 124769.17909908 5517.29336084
0.26800001 122970.65491920 9923.73232158
0.26900001 121190.51561751 5889.85933773
0.27000001 119430.91463699 5340.35360071
0.27100001 117690.19466495 5762.11220348
0.27200001 115970.13709003 5223.87507243
0.27300001 114267.99517527 4696.41482396
0.27400001 112583.15599423 6501.67756636
0.27500001 110919.83568320 5510.49769753
0.27600001 109272.71552368 5902.36600835
0.27700001 107645.63902384 5386.58803168
0.27800001 106035.93838067 5325.12507750
0.27900001 104445.52323609 4386.71218353
0.28000001 102871.59257003 5203.24539845
0.28100001 101316.25318156 7285.65211111
0.28200001 99779.29418452  4659.19436246
0.28300001 98259.32679600  4185.84751963
0.28400001 96756.61118580  4963.61438876
0.28500001 95271.66635074  6130.73201985
0.28600001 93803.85396998  4845.90732546
0.28700001 92353.14278786  4388.62155300
0.28800001 90918.74117238  6306.12418620
0.28900001 89502.97480694  4282.71754723
0.29000001 88102.41084820  4230.23745711
0.29100001 86719.52000257  4178.14667150
0.29200001 85353.13050015  4126.39728935
0.29300001 84003.16348624  4074.99365361
0.29400001 82668.87985737  6218.76678164
0.29500001 81352.07224767  3973.23539666
0.29600001 80050.78634692  3922.88897063
0.29700001 78765.73874535  4224.99442630
0.29800001 77496.54552249  4170.86427746
0.29900001 76243.93790508  4460.27057859
0.30000001 75006.52697725  3386.54485334
0.30100001 73785.81018283  4679.49630332
0.30200001 72579.05439946  3628.58999648
0.30300001 71389.43711718  3906.43018399
0.30400001 70215.25169883  3212.34791730
0.30500001 69056.20435218  3803.61591579
0.30600001 67911.52076574  4690.98851898
0.30700001 66783.35040186  3702.46912157
0.30800001 65669.84906904  4261.31670784
0.30900001 64571.62322029  3603.09674628
0.31000001 63488.47142601  3850.25853192
0.31100001 62419.51144163  4089.72658328
0.31200001 61366.16416247  3457.36985261
0.31300001 60326.83958015  3125.53370663
0.31400001 59303.51974628  3082.30058475
0.31500001 58293.61234287  4420.98776940
0.31600002 57298.82131986  3541.92680759
0.31700002 56318.16660742  2686.37667437
0.31800002 55351.98930589  3443.17065780
0.31900002 54400.07049031  3655.68491004
0.32000002 53462.68358277  2831.65117004
0.32100002 52538.64569780  3806.42506104
0.32200002 51629.84507179  3251.90594583
0.32300002 50733.32067830  3205.33135223
0.32400002 49851.38921057  2673.28087300
0.32500002 48982.92072426  2874.31792420
0.32600002 48128.65349528  3068.92373545
0.32700002 47287.39769005  2791.84809182
0.32800002 46460.31495141  2980.66164685
0.32900002 45645.84275142  3615.15091710
0.33000002 44845.73551204  2894.56813569
0.33100002 44056.16345061  3071.59586123
0.33200002 43283.01024378  3242.97969609
0.33300002 42521.27627411  2343.34764644
0.33400002 41773.00372307  3778.36836568
0.33500002 41036.40590587  2068.23495560
0.33600002 40313.64396776  2649.21123880
0.33700002 39602.64438833  2208.63958213
0.33800002 38904.82837895  2373.97274011
0.33900002 38218.69178277  2144.06871055
0.34000002 37545.33702508  2112.48848776
0.34100002 36883.89915806  2649.00176298
0.34200002 36235.22592036  1864.30246189
0.34300002 35597.46911977  1836.82949357
0.34400002 34972.83332511  1809.84421029
0.34500002 34359.15284573  1961.56412886
0.34600002 33758.19193551  1932.82537081
0.34700002 33166.94252293  1731.31448169
0.34800002 32588.87516987  2047.23323513
0.34900002 32021.42380339  1849.23731223
0.35000002 31465.09036552  1987.96450345
0.35100002 30920.77012697  3265.23348006
0.35200002 30385.84603534  1769.82368615
0.35300002 29862.62163980  1902.84634101
0.35400002 29350.43891246  1875.49313534
0.35500002 28848.80854907  1694.57909443
0.35600002 28356.88762013  1518.51140398
0.35700002 27875.95401178  1646.63268147
0.35800002 27405.93031198  1770.97130064
0.35900002 26945.66893716  2182.59928729
0.36000002 26495.74325866  2439.06576120
0.36100002 26055.09512265  1697.75007861
0.36200002 25625.53530315  1395.31046335
0.36300002 25204.47640315  1513.78092448
0.36400002 24793.23551674  1628.91565061
0.36500002 24391.31801694  1740.80844933
0.36600002 23999.18488639  1849.61726681
0.36700002 23615.68092118  1564.30277832
0.36800002 23242.84716477  1543.78998181
0.36900002 22877.80873269  1650.63397825
0.37000002 22521.46103719  1754.64711252
0.37100002 22173.81117112  1361.02859415
0.37200002 21835.64413389  1343.87478188
0.37300002 21505.41418172  1447.74455129
0.37400002 21183.54008430  1310.73160481
0.37500002 20870.52048391  1294.80715216
0.37600002 20565.63749901  1860.77896906
0.37700002 20268.25678780  1264.13123574
0.37800002 19978.86393849  1703.69770306
0.37900002 19697.74163472  1235.04845900
0.38000002 19424.31230444  1221.10945087
0.38100002 19157.47034131  1427.04003333
0.38200002 18899.17234758  1085.75750280
0.38300002 18647.37796276  1181.49792369
0.38400002 18403.82038532  1381.66688088
0.38500002 18165.94647531  1156.98918582
0.38600002 17936.33019052  1041.20401689
0.38700002 17713.01161550  1340.16652232
0.38800002 17496.39837424  1327.18936155
0.38900002 17285.98254771  1415.72203773
0.39000002 17083.19827937  1001.92962655
0.39100002 16885.67532713  1191.45330753
0.39200002 16695.05648466  1574.67780224
0.39300002 16510.34552374  1073.33761335
0.39400002 16332.88844745  1741.90263545
0.39500002 16160.10257559  1247.88318001
0.39600002 15993.36265014  1047.64527003
0.39700002 15832.29022077  1039.70654806
0.39800002 15677.02957539  1032.09729100
0.39900002 15527.10720540  1024.78912411
0.40000002 15382.42006522  1017.77787184
0.40100002 15243.39326218  1103.01198871
0.40200002 15109.65560720  1096.05446968
0.40300002 14980.34943822  1452.49475035
0.40400002 14856.59181182  902.53799533
0.40500002 14737.71873029  1077.03253584
0.40600002 14623.60313878  982.04811531
0.40700002 14513.86812262  1154.72340255
0.40800002 14409.12965396  1060.80017539
0.40900002 14308.43793797  967.96587237
0.41000002 14212.54717493  1051.44428982
0.41100002 14120.73680526  1047.19389110
0.41200002 14032.82480013  1043.20024507
0.41300002 13949.59553830  1039.52390877
0.41400002 13869.93844620  949.74408011
0.41500002 13794.44805473  946.85095934
0.41600002 13722.16666114  1373.31450452
0.41700002 13653.93470123  1455.37296877
0.41800002 13590.38490431  854.15573171
0.41900002 13528.33132918  1022.74189695
0.42000002 13470.94292035  1276.03512859
0.42100002 13417.17458061  1019.16862944
0.42200002 13366.75226529  1187.36865999
0.42300002 13318.91967942  931.79166493
0.42400002 13274.05905811  1015.46556606
0.42500002 13232.78452046  1014.68996511
0.42600002 13193.47765683  1014.05074076
0.42700002 13158.43576097  1182.68026224
0.42800002 13124.96257820  929.05052012
0.42900002 13095.64056019  1182.53639862
0.43000002 13068.24142509  1098.32040262
0.43100002 13042.41739634  929.66355607
0.43200002 13020.33761488  1268.50645224
0.43300002 13000.33914130  930.95433002
0.43400002 12982.69123229  1270.68096458
0.43500002 12967.14716699  1017.66175789
0.43600002 12954.13550556  1103.88670942
0.43700002 12942.75545981  850.33907401
0.43800002 12933.43570631  936.83345978
0.43900002 12926.83307981  853.17102370
0.44000002 12921.52258321  1282.13813908
0.44100002 12918.54228585  856.49939414
0.44200002 12917.08273128  1030.00822580
0.44300002 12917.55253163  1204.43265513
0.44400002 12920.04988605  1034.89604492
0.44500002 12922.97498190  1210.36589416
0.44600002 12927.80968103  1126.85258425
0.44700002 12935.19803232  1130.01895366
0.44800002 12942.46590448  1046.01014397
0.44900002 12952.77904476  1224.03767774
0.45000002 12963.83683272  964.70396363
0.45100002 12975.82984769  879.76130537
0.45200002 12989.24636977  970.88126592
0.45300002 13003.68120204  1062.66087819
0.45400002 13019.56849835  977.44415134
0.45500002 13036.46857729  1426.71118872
0.45600002 13054.23413959  984.35457195
0.45700002 13073.07703760  1167.55656556
0.45800002 13092.46956477  901.41657226
0.45900002 13113.04422206  1176.24012247
0.46000002 13135.04400053  999.11716925
0.46100002 13156.66037298  1002.93226777
0.46200002 13180.08960131  1189.96444605
0.46300002 13204.04561461  1194.70210383
0.46400002 13227.97268887  1014.91625266
0.46500002 13253.14733941  1019.03454722
0.46600002 13278.70506907  1302.24266784
0.46700002 13304.51854422  1307.56814450
0.46800002 13331.72295909  1313.04145647
0.46900002 13358.34608535  1130.11613238
0.47000002 13385.80229835  1134.84837264
0.47100002 13413.87180150  1519.52346969
0.47200002 13442.21281364  1144.47005320
0.47300002 13471.06366576  957.79267203
0.47400002 13499.49781139  1442.75889698
0.47500002 13528.65998122  1159.13564213
0.47600002 13558.51273363  1261.14512169
0.47700002 13587.68571742  1363.93195696
