# SAXS profile: number of points = 501, q_min = 0, q_max = 0.5, delta_q = 0.001
#    q    intensity    error
0.00000000 1664650.74656090 449.45570157
0.00100000 1664564.47991320 699.11709817
0.00200000 1664305.64423196 898.72507634
0.00300000 1663874.46612050 1697.15201590
0.00400000 1663270.80583234 1372.19846695
0.00500000 1662495.32252794 1496.24584950
0.00600000 1661547.85283705 2616.93797476
0.00700000 1660429.17270413 2191.76659906
0.00800000 1659139.02867412 2463.82156160
0.00900000 1657678.79755068 3232.47379340
0.01000000 1656047.93167393 4098.71880787
0.01100000 1654247.97635225 4466.46973062
0.01200000 1652278.85591979 3544.13830134
0.01300000 1650141.84040855 4504.88742300
0.01400000 1647837.20350330 4078.39725947
0.01500000 1645366.34144818 3948.87939531
0.01600000 1642729.07647408 5445.64713195
0.01700000 1639927.50273430 4870.58490161
0.01800000 1636962.15548199 6531.47929427
0.01900000 1633833.96274419 4901.50210940
0.02000000 1630543.77850514 6163.45576156
0.02100000 1627094.17618217 5906.35212733
0.02200000 1623483.98647740 8401.53001172
0.02300000 1619716.08431614 8163.36943654
0.02400000 1615791.31446861 8482.90478776
0.02500000 1611711.71193607 8799.94634907
0.02600000 1607478.14924515 7161.31548243
0.02700000 1603092.09963984 8752.88326493
0.02800000 1598554.25411052 7649.08245670
0.02900000 1593867.96260545 8606.88739325
0.03000000 1589033.69127794 8866.80840490
0.03100000 1584053.24141947 9124.14709041
0.03200000 1578927.65974640 9378.83073087
0.03300000 1573661.09844088 8828.23916924
0.03400000 1568252.31185344 8233.32501712
0.03500000 1562705.04020238 11814.05064948
0.03600000 1557020.05707534 12962.19257418
0.03700000 1551200.35250330 14146.94786909
0.03800000 1545247.52615651 11751.60798028
0.03900000 1539163.85643791 9234.98356630
0.04000000 1532949.75595204 10370.40557957
0.04100000 1526609.00614019 15388.21949539
0.04200000 1520143.40673651 11765.91051399
0.04300000 1513554.61215698 9989.46090393
0.04400000 1506845.07599985 10171.20473537
0.04500000 1500017.89570618 16560.19833806
0.04600000 1493073.22686191 14736.63343419
0.04700000 1486014.98994874 12839.17011028
0.04800000 1478844.97323824 11956.46216494
0.04900000 1471565.75843222 15451.44118276
0.05000000 1464179.21962169 12321.06870686
0.05100000 1456689.11704540 12498.39320648
0.05200000 1449094.64296558 14976.39383297
0.05300000 1441401.52335092 15177.95874845
0.05400000 1433610.06466125 15375.46866051
0.05500000 1425724.68086987 13173.69666578
0.05600000 1417745.41625270 12121.72387461
0.05700000 1409677.86073475 22075.55632956
0.05800000 1401521.18945707 23566.57990110
0.05900000 1393279.12589405 13793.46399059
0.06000000 1384955.46372321 12672.34308510
0.06100000 1376551.68855391 17922.70382252
0.06200000 1368070.38591338 14221.09232631
0.06300000 1359515.03295936 22187.28637527
0.06400000 1350885.00136695 21073.80700688
0.06500000 1342186.54028369 15945.17684445
0.06600000 1333421.25856041 14740.97270309
0.06700000 1324589.75781857 13510.81616204
0.06800000 1315696.65786557 14979.20715096
0.06900000 1306745.40647212 15092.91015139
0.07000000 1297735.72255062 17967.15192009
0.07100000 1288671.66778312 20876.48199589
0.07200000 1279555.58334725 15412.24772343
0.07300000 1270390.53486971 18331.73627711
0.07400000 1261179.69111332 14188.27218995
0.07500000 1251923.24242387 15699.11819585
0.07600000 1242624.98643933 18658.01504609
0.07700000 1233288.36011114 15872.42193886
0.07800000 1223914.78070041 17404.06899774
0.07900000 1214505.84917960 16031.47796111
0.08000000 1205067.18895782 20498.19384576
0.08100000 1195599.24253620 14705.87137317
0.08200000 1186103.37656862 20673.78282371
0.08300000 1176583.17858281 14824.94874591
0.08400000 1167041.86844897 16367.76297328
0.08500000 1157480.90381186 17917.80523216
0.08600000 1147902.91546567 17976.16050020
0.08700000 1138310.26549260 21035.97469410
0.08800000 1128704.42986035 18081.84581555
0.08900000 1119089.10067632 15107.70356873
0.09000000 1109466.34115681 18173.05952184
0.09100000 1099837.67834500 19731.08887650
0.09200000 1090205.37309165 15208.36566922
0.09300000 1080573.49825170 16759.69574546
0.09400000 1070940.83518292 21365.27066601
0.09500000 1061311.74401436 18339.46779857
0.09600000 1051687.59646574 27543.69944621
0.09700000 1042073.46561838 18382.17679771
0.09800000 1032467.78650227 18398.57682053
0.09900000 1022874.79491322 21480.37170324
0.10000000 1013294.11393406 19956.82851244
0.10100000 1003729.15699095 16892.76250665
0.10200000 994182.26041357 15360.11664587
0.10300000 984654.70111244 18432.73687191
0.10400000 975148.80103612 16894.45377275
0.10500000 965667.98423182 24566.59467470
0.10600001 956208.81951499 16881.86750289
0.10700001 946779.54738935 19939.17820631
0.10800001 937376.67986172 16858.72038071
0.10900001 928005.47907971 16843.30023804
0.11000001 918666.50937305 24473.27696164
0.11100001 909360.19934848 18332.70248185
0.11200001 900090.22752751 22884.79511224
0.11300001 890856.02031041 18280.36639742
0.11400001 881660.88269215 21292.11131954
0.11500001 872505.39014935 16699.75395382
0.11600001 863391.83861558 19698.28572564
0.11700001 854320.94630535 18145.77775410
0.11800001 845293.18954998 21123.87780175
0.11900001 836310.63269917 18064.31051716
0.12000001 827374.20901593 16518.52686111
0.12100001 818487.05084329 19471.80785684
0.12200001 809648.77785122 17925.62478613
0.12300001 800861.07271692 14896.01665435
0.12400001 792124.07279849 16337.55977125
0.12500001 783439.17264049 20729.80148487
0.12600001 774809.56495728 17712.14748958
0.12700001 766233.60249792 16182.85444740
0.12800001 757713.02400246 17594.09724653
0.12900001 749249.41806685 14610.36434092
0.13000001 740843.21226174 18924.84074925
0.13100001 732494.50085200 17404.07016063
0.13200001 724204.82757785 26006.19658426
0.13300001 715976.18024611 15830.23409153
0.13400001 707807.00602012 21499.63882147
0.13500001 699700.15056313 14273.88374448
0.13600001 691654.26228517 19898.89406419
0.13700001 683672.18530869 18397.61937416
0.13800001 675751.79043710 18316.25314351
0.13900001 667896.32217079 16830.98811242
0.14000001 660104.85304834 18149.58379051
0.14100001 652378.07022961 19453.91497175
0.14200001 644716.44202303 20743.75250048
0.14300001 637121.53023521 19266.55598307
0.14400001 629589.97675785 13693.58264041
0.14500001 622127.13836104 17711.96046465
0.14600001 614730.21151474 13554.80180334
0.14700001 607402.22079471 20226.49490668
0.14800001 600138.27018098 18778.32735990
0.14900001 592943.31798192 14675.34781245
0.15000001 585815.67396602 14595.59820553
0.15100001 578755.86367067 19793.45147149
0.15200001 571764.51588162 13121.99625867
0.15300001 564842.12321789 14352.63902825
0.15400001 557985.40518402 12973.16128275
0.15500001 551198.53634503 20636.87417467
0.15600001 544477.29689469 15386.92913643
0.15700001 537827.93228184 15295.82711601
0.15800001 531242.67386761 17738.19371766
0.15900001 524727.79315312 20149.54820815
0.16000001 518278.45560521 15019.71035241
0.16100001 511900.09515027 13683.09018927
0.16200001 505587.60218117 16070.10269393
0.16300001 499342.60337622 15968.97720983
0.16400001 493165.10377210 13426.42058405
0.16500001 487054.07271449 13340.41168147
0.16600001 481010.93071906 14459.18926008
0.16700001 475032.57020820 15562.06773478
0.16800001 469120.10055841 17838.29266599
0.16900001 463275.74909354 23627.06431939
0.17000001 457495.37369875 14081.70826738
0.17100001 451780.16532374 13987.11457891
0.17200001 446130.59860375 21996.47020289
0.17300001 440545.39756138 13797.88250322
0.17400001 435024.27287418 12561.32647246
0.17500001 429566.69939813 18144.89823952
0.17600001 424171.17222923 11261.74515457
0.17700001 418840.34672858 11183.03778583
0.17800001 413570.20054170 12214.79644993
0.17900001 408362.70887795 13230.95239259
0.18000001 403216.81372302 10947.33700968
0.18100001 398133.18239622 11955.94003211
0.18200001 393107.39449004 11869.87833733
0.18300001 388142.58583454 12855.28305011
0.18400001 383236.70395288 14888.74665192
0.18500001 378391.10903163 10557.11244072
0.18600001 373602.49137970 12575.46045395
0.18700001 368871.28285820 10402.17066805
0.18800001 364197.39364286 12389.99591711
0.18900001 359581.66265708 11272.88565691
0.19000001 355018.42536886 14239.78971436
0.19100001 350514.82676339 12113.79298532
0.19200001 346062.93845648 12022.22705004
0.19300001 341667.93950473 10936.79126034
0.19400001 337324.13228223 12826.75073615
0.19500001 333034.84652938 12728.59243584
0.19600001 328797.47080497 12630.75543786
0.19700001 324611.83339088 14461.45786098
0.19800001 320477.73840737 15306.01750968
0.19900001 316394.76946436 17085.31835853
0.20000001 312360.39088139 10359.43285318
0.20100001 308376.97411791 9343.82275738
0.20200001 304440.62874983 11124.26110029
0.20300001 300554.33431563 11036.35567770
0.20400001 296714.76317694 10948.77527873
0.20500001 292921.86435885 9051.28603651
0.20600001 289175.62480465 11672.57464698
0.20700001 285475.38771455 8906.83251771
0.20800001 281819.23229056 9718.53668494
0.20900001 278209.65374039 12269.04630992
0.21000001 274642.33511627 12169.40244428
0.21100001 271119.00813095 10345.90183936
0.21200001 267637.96781635 8551.03347598
0.21300001 264198.49596581 11025.00375787
0.21400001 260801.46274601 10934.10184255
0.21500001 257446.34431386 9175.38814514
0.21600001 254130.49165750 11580.72705235
0.21700001 250854.72216769 9023.24478299
0.21800001 247618.50565667 10574.54878404
0.21900001 244419.87749355 12098.78450798
0.22000001 241259.22226195 7997.74359614
0.22100001 238137.91816023 7929.99304969
0.22200001 235053.64525774 9435.05376678
0.22300001 232004.39705455 9354.41773157
0.22400001 228990.79886670 8501.28380992
0.22500001 226015.25555660 12259.06804109
0.22600001 223072.40884539 11393.42382055
0.22700001 220165.86307201 9788.57473507
0.22800001 217292.27929199 9703.18719065
0.22900001 214451.27226251 7398.56924294
0.23000001 211644.44261559 11000.22042517
0.23100001 208870.77497238 10176.18463791
0.23200001 206127.49614332 7924.57196401
0.23300001 203416.49826811 10709.87914033
0.23400001 200737.21794960 8491.18472086
0.23500001 198086.88496244 8414.73127119
0.23600001 195468.35770596 7643.79048962
0.23700001 192879.00388826 8262.93691739
0.23800001 190319.32017639 8187.53754125
0.23900001 187788.13944902 11492.63467788
0.24000001 185285.48573588 7367.87768879
0.24100001 182812.14237129 7299.68919017
0.24200001 180365.75228159 7889.19837797
0.24300001 177947.19111339 7164.15425311
0.24400001 175555.11205171 9677.47600963
0.24500001 173189.72065323 8307.91129274
0.24600001 170851.06988650 8229.04217036
0.24700001 168538.53333170 8150.52385749
0.24800001 166251.28915249 15523.71485899
0.24900001 163988.44153899 7379.48021836
0.25000001 161751.82649433 6698.95221118
0.25100001 159538.60103108 6030.55940427
0.25200001 157351.38092054 7165.78222613
0.25300001 155187.85707191 6503.92339759
0.25400001 153047.73779942 7610.29912213
0.25500001 150930.74144979 6375.31482047
0.25600001 148837.60786874 6311.45906029
0.25700001 146766.41575963 7383.81872622
0.25800001 144718.89787960 6184.56239350
0.25900001 142693.56441110 6121.55420288
0.26000001 140690.28129693 7160.43220541
0.26100001 138708.27310822 9267.10016484
0.26200001 136748.89660931 5934.21864915
0.26300001 134810.12728484 6940.02568101
0.26400001 132892.91169284 8980.23893257
0.26500001 130997.12551170 6272.14266629
0.26600001 129121.03261996 8791.20592193
0.26700001 127266.73608016 6650.95994227
0.26800001 125433.03225631 5567.34540015
0.26900001 123618.13653088 8010.45562627
0.27000001 121824.24676460 7428.23379799
0.27100001 120049.59316046 5877.62835928
0.27200001 118296.09202609 4844.22519771
0.27300001 116561.03490059 5269.72463724
0.27400001 114843.46062290 5211.02227237
0.27500001 113147.94364351 5152.75759738
0.27600001 111469.12029697 5557.85060104
0.27700001 109810.58018522 5037.01155148
0.27800001 108169.86367708 6337.67261278
0.27900001 106548.84131408 6712.57732048
0.28000001 104944.69372226 4865.76095472
0.28100001 103359.51287276 4809.31836159
0.28200001 101793.18912667 6049.56951612
0.28300001 100244.27772708 5124.48771995
0.28400001 98712.92872000  4641.97569277
0.28500001 97199.72470966  7088.77625860
0.28600001 95704.02554151  6180.08774186
0.28700001 94225.85143117  5291.72406685
0.28800001 92764.31134375  5227.73301322
0.28900001 91321.79381729  4766.99786290
0.29000001 89894.83250974  4316.30058726
0.29100001 88485.94680436  4650.82158418
0.29200001 87093.86883981  4593.33086004
0.29300001 85718.54452882  5292.26318972
0.29400001 84359.40951092  5226.06566658
0.29500001 83018.02238486  4054.60040521
0.29600001 81692.46988731  4003.33967634
0.29700001 80383.45345424  4311.76864740
0.29800001 79090.64819249  3901.93731329
0.29900001 77814.87832097  3851.83665923
0.30000001 76554.50596530  4147.72332955
0.30100001 75311.29085486  3752.76180095
0.30200001 74082.35730136  3703.74762862
0.30300001 72870.72859323  3322.90538116
0.30400001 71674.98155217  3279.13056125
0.30500001 70494.56304261  4529.98083558
0.30600001 69329.00558854  5427.42145945
0.30700001 68180.13192512  4409.89114170
0.30800001 67046.24922239  4039.87193816
0.30900001 65927.99293752  3678.78218008
0.31000001 64825.07813289  3326.49904188
0.31100001 63736.60422633  3877.73518472
0.31200001 62664.10658331  3530.49593206
0.31300001 61605.92532230  3481.96706407
0.31400001 60563.94206776  4006.30495747
0.31500001 59535.79705281  3104.19660531
0.31600002 58522.87572094  3895.86802120
0.31700002 57524.48546106  3841.48532098
0.31800002 56540.78613756  2705.47674478
0.31900002 55571.65071626  4001.15904102
0.32000002 54617.30567124  3681.75274963
0.32100002 53676.57241557  2851.83642747
0.32200002 52751.29484255  3322.54046298
0.32300002 51838.62488585  3023.22874650
0.32400002 50940.59044741  2731.68929209
0.32500002 50056.40500865  3426.86164916
0.32600002 49186.71741001  3860.17376513
0.32700002 48330.17025749  2615.62893819
0.32800002 47488.07846175  2812.24413967
0.32900002 46658.88162618  2540.57622485
0.33000002 45844.23314640  2731.39954020
0.33100002 45040.41084728  2915.91633633
0.33200002 44253.10842357  2873.57573156
0.33300002 43477.52493970  2396.04651289
0.33400002 42715.60286642  3434.33463310
0.33500002 41965.57161543  2115.06490958
0.33600002 41229.61830966  2500.98876510
0.33700002 40505.44834296  3080.43949236
0.33800002 39794.87886008  2225.92665445
0.33900002 39096.03320725  2392.67734560
0.34000002 38410.26838461  2554.09091719
0.34100002 37736.60410611  3291.00939995
0.34200002 37075.91226801  3052.08924245
0.34300002 36426.15936591  2067.54890353
0.34400002 35789.88014009  2778.18957745
0.34500002 35164.68928118  1825.04746013
0.34600002 34552.40412847  1978.29799207
0.34700002 33949.99162443  2303.84654075
0.34800002 33360.91628851  2794.31048067
0.34900002 32782.63608064  1721.08847575
0.35000002 32215.63079931  2883.46017126
0.35100002 31660.82919301  2340.36860479
0.35200002 31115.57503749  2306.59768678
0.35300002 30582.11964569  2435.86594515
0.35400002 30059.85737772  2561.09996989
0.35500002 29548.40389091  2366.82726376
0.35600002 29046.74153273  1710.99839103
0.35700002 28556.18085983  1686.81368329
0.35800002 28076.74746105  1814.31950687
0.35900002 27607.16382691  1490.78691726
0.36000002 27148.05641803  1911.08752207
0.36100002 26698.35424558  1449.72070420
0.36200002 26259.89227598  1429.85120215
0.36300002 25830.02879504  1692.38356681
0.36400002 25410.11544659  2086.80582990
0.36500002 24999.65262852  1509.72909375
0.36600002 24599.11029299  1489.59919435
0.36700002 24207.24965052  2137.98439041
0.36800002 23826.27652078  1318.78446789
0.36900002 23453.19092456  1431.81737377
0.37000002 23088.88190264  1927.34450812
0.37100002 22733.27582233  1522.22022117
0.37200002 22387.40734077  1377.83305006
0.37300002 22049.51330014  2226.55995852
0.37400002 21720.12991891  1588.28457556
0.37500002 21399.60145148  1206.93757904
0.37600002 21087.41921905  1192.49361333
0.37700002 20782.77794867  1296.22192206
0.37800002 20486.17635511  1164.63918096
0.37900002 20198.05428768  1611.80480851
0.38000002 19917.62588308  1707.43855971
0.38100002 19643.93678082  1463.27692012
0.38200002 19378.79272255  1335.97403358
0.38300002 19120.27663735  1211.46078513
0.38400002 18870.08458011  1307.69692335
0.38500002 18625.58867455  1294.10596242
0.38600002 18389.54306059  1174.26432776
0.38700002 18159.78373226  1691.03914126
0.38800002 17936.81485096  1255.93583536
0.38900002 17720.14996102  1140.29170401
0.39000002 17511.16664559  1745.95095311
0.39100002 17307.54785406  1424.75740685
0.39200002 17110.88533730  1210.42408611
0.39300002 16920.14695868  1299.97495242
0.39400002 16736.75190914  1090.81785736
0.39500002 16558.12770347  1081.90811540
0.39600002 16385.54082777  1170.91080303
0.39700002 16218.71073397  1161.90849203
0.39800002 16057.83170637  1153.27352779
0.39900002 15902.25991840  1240.37633240
0.40000002 15751.93639967  1042.22692126
0.40100002 15607.33894039  1129.34709923
0.40200002 15468.22589844  1402.58144980
0.40300002 15333.48565950  1022.13020249
0.40400002 15204.31230152  1200.76062090
0.40500002 15080.17247248  1010.22080180
0.40600002 14960.69495092  1278.69065804
0.40700002 14845.78761943  999.41846989
0.40800002 14735.89550602  1084.85667855
0.40900002 14630.07208549  1169.67431866
0.41000002 14529.11628338  1074.86407357
0.41100002 14432.23720190  1337.86845201
0.41200002 14339.30660176  977.15209468
0.41300002 14251.13085297  884.99526790
0.41400002 14166.52897962  1410.98635323
0.41500002 14086.16740198  1142.66995379
0.41600002 14009.01103168  876.26368155
0.41700002 13936.01693351  873.78830313
0.41800002 13867.66370334  1045.89924606
0.41900002 13800.82880550  956.39748154
0.42000002 13738.74189927  1474.92270648
0.42100002 13680.34451949  865.96584912
0.42200002 13625.26604821  864.52317172
0.42300002 13572.81747896  863.23123257
0.42400002 13523.43266195  862.11887305
0.42500002 13477.56963229  1205.70343644
0.42600002 13433.73203498  1032.51669314
0.42700002 13394.19709573  1117.87974258
0.42800002 13356.32046786  1375.16682054
0.42900002 13322.58483213  945.23743863
0.43000002 13290.75404270  1288.87093437
0.43100002 13260.55318927  1288.92583108
0.43200002 13234.12460992  1891.02415512
0.43300002 13209.86030790  945.95814148
0.43400002 13187.94365876  860.51336451
0.43500002 13168.13529014  947.31569766
0.43600002 13150.89330121  1034.44931609
0.43700002 13135.35909351  1035.59176001
0.43800002 13121.79400563  1296.10526433
0.43900002 13111.04644671  1124.92783844
0.44000002 13101.61310975  1386.67479725
0.44100002 13094.53799760  954.98470142
0.44200002 13089.02997833  956.74269161
0.44300002 13085.41360182  1132.93516334
0.44400002 13083.85942250  960.68242362
0.44500002 13082.77555623  1137.80904405
0.44600002 13083.60833800  1052.70717676
0.44700002 13087.05576308  1055.34022675
0.44800002 13090.34029566  969.79790676
0.44900002 13096.83243410  884.03623120
0.45000002 13103.92445950  1152.42469121
0.45100002 13112.00771770  1066.79299847
0.45200002 13121.68395537  980.78031373
0.45300002 13132.24415602  1162.59763023
0.45400002 13144.32866146  1255.94066313
0.45500002 13157.47303083  1349.95679694
0.45600002 13171.48552828  1264.06752606
0.45700002 13186.60168422  1268.28741010
0.45800002 13202.31530084  999.87739670
0.45900002 13219.14188871  1003.33291691
0.46000002 13237.53804548  1189.98853900
0.46100002 13255.51450746  1102.32863869
0.46200002 13275.32170164  1014.16824946
0.46300002 13295.66797895  1017.91638871
0.46400002 13316.05033859  1300.31237719
0.46500002 13337.67734919  1118.76442907
0.46600002 13359.70917392  1123.01720639
0.46700002 13381.95428971  1221.23720636
0.46800002 13405.74081638  1037.40330224
0.46900002 13428.94613902  1230.76297197
0.47000002 13452.93319215  1330.62968510
0.47100002 13477.55528075  1335.89534275
0.47200002 13502.56416640  1053.80767031
0.47300002 13528.02085105  1058.02656091
0.47400002 13553.11610742  1158.79148211
0.47500002 13578.98133449  1454.30896985
0.47600002 13605.58226588  1362.87124017
0.47700002 13631.49643779  1466.06751137
