# SAXS profile: number of points = 501, q_min = 0, q_max = 0.5, delta_q = 0.001
#    q    intensity    error
0.00000000 1664650.74656090 349.57665678
0.00100000 1664564.58901592 549.30632742
0.00200000 1664306.07777482 898.72531046
0.00300000 1663875.44464584 1098.15783259
0.00400000 1663272.54780325 1496.94534990
0.00500000 1662498.03547154 1945.12277849
0.00600000 1661551.76528113 1919.09236703
0.00700000 1660434.48997379 2391.02576493
0.00800000 1659145.96008654 2463.83185475
0.00900000 1657687.60214622 2983.83781142
0.01000000 1656058.77096521 3825.49592611
0.01100000 1654261.08967735 3870.97111838
0.01200000 1652294.46463623 5155.15895569
0.01300000 1650160.11832024 4158.40368157
0.01400000 1647858.39206161 5932.29047441
0.01500000 1645390.68954836 5528.51296306
0.01600000 1642756.74374424 6283.54482572
0.01700000 1639958.70528171 6199.04418405
0.01800000 1636997.12098123 4665.44200473
0.01900000 1633872.87749389 6372.10450975
0.02000000 1630586.85957265 5136.34884000
0.02100000 1627141.63540483 5369.56764028
0.02200000 1623536.05204533 6721.43956084
0.02300000 1619772.91530261 9329.89241682
0.02400000 1615853.05514428 9695.11877294
0.02500000 1611778.75697642 6914.53118322
0.02600000 1607550.52880314 8463.75392127
0.02700000 1603170.11527431 7406.64627180
0.02800000 1598638.01997918 7649.48327640
0.02900000 1593957.68737724 7890.09091478
0.03000000 1589129.58861941 11084.17939011
0.03100000 1584155.44704525 11405.91974355
0.03200000 1579036.47011456 11724.34633060
0.03300000 1573776.72486642 8828.88783352
0.03400000 1568374.88221696 11527.55591618
0.03500000 1562834.70458675 10971.10013282
0.03600000 1557156.99665285 12099.11042314
0.03700000 1551344.79396928 9726.93230803
0.03800000 1545399.58666311 13560.88200056
0.03900000 1539323.83980095 9235.94346652
0.04000000 1533117.72391972 13200.14421463
0.04100000 1526785.17967693 10580.62178575
0.04200000 1520327.93771392 9806.11565319
0.04300000 1513747.60798568 11988.88161175
0.04400000 1507046.83451588 12207.07992650
0.04500000 1500228.55232728 13457.05073966
0.04600000 1493292.91866672 12633.25867920
0.04700000 1486243.74192635 18191.62424723
0.04800000 1479083.24439995 17394.01976345
0.04900000 1471813.49937716 13246.32211098
0.05000000 1464436.64987568 11202.94089323
0.05100000 1456956.32759407 13637.11186155
0.05200000 1449371.75689344 12674.75660469
0.05300000 1441688.73121156 17516.51890080
0.05400000 1433907.65387001 14195.68643531
0.05500000 1426032.54069646 15572.27607084
0.05600000 1418063.95904281 14549.33689871
0.05700000 1410007.03252080 18400.59263331
0.05800000 1401861.11096299 18609.70711697
0.05900000 1393630.01073927 16305.47188721
0.06000000 1385317.42423779 15210.78602876
0.06100000 1376924.75820437 17927.56118960
0.06200000 1368454.77648003 15518.27789066
0.06300000 1359910.95756844 19582.71870458
0.06400000 1351292.45105737 17127.63261816
0.06500000 1342605.66007983 14620.97632221
0.06600000 1333852.08950309 16086.25695206
0.06700000 1325032.37469701 14866.86393985
0.06800000 1316151.38348836 17708.81769377
0.06900000 1307212.22203481 15098.30187139
0.07000000 1298214.66397554 17973.78286443
0.07100000 1289162.83882046 15315.25524252
0.07200000 1280059.08800111 23828.30103942
0.07300000 1270906.63940294 18339.18366588
0.07400000 1261708.25620654 15613.64040228
0.07500000 1252464.55780340 22844.95460513
0.07600000 1243178.92381319 15794.58896751
0.07700000 1233855.11044091 17323.32656286
0.07800000 1224494.30863069 17412.30988530
0.07900000 1215098.35427733 18955.53521581
0.08000000 1205672.65693128 16113.81581580
0.08100000 1196217.73787201 17656.17463939
0.08200000 1186735.10553635 16252.33803296
0.08300000 1177227.94063745 22249.60912227
0.08400000 1167699.91332485 20843.44443121
0.08500000 1158152.18247929 20916.22939749
0.08600000 1148587.53047740 20984.69516708
0.08700000 1139008.13224144 16538.39885675
0.08800000 1129415.83316604 19601.01270513
0.08900000 1119813.87273156 16629.23679113
0.09000000 1110204.60092007 18185.15221733
0.09100000 1100589.46934727 18225.76246866
0.09200000 1090970.66158094 24350.46631064
0.09300000 1081352.40042268 18296.48347494
0.09400000 1071733.29643003 16799.42021107
0.09500000 1062117.82756083 19882.84666649
0.09600000 1052507.20601456 16845.37862413
0.09700000 1042906.66053286 21463.02008280
0.09800000 1033314.69709788 19948.14116539
0.09900000 1023735.38392508 16891.63462905
0.10000000 1014168.07572356 18437.57648372
0.10100000 1004616.91428093 18444.76741369
0.10200000 995083.64384093 18448.85162458
0.10300000 985569.52621919 16912.37386549
0.10400000 976077.45425754 18447.86475335
0.10500000 966610.12247881 18442.92200462
0.10600001 957164.50226121 15362.49098415
0.10700001 947748.71143016 16888.88283244
0.10800001 938359.32919722 16876.39332984
0.10900001 929001.60112816 19927.08528208
0.11000001 919676.12030428 15312.60812382
0.11100001 910383.20290584 18353.32623453
0.11200001 901126.49881599 16801.50436139
0.11300001 891905.69482024 18301.90571938
0.11400001 882723.60042509 15226.98282429
0.11500001 873581.70230658 19760.41903665
0.11600001 864481.14123868 19723.13816615
0.11700001 855423.18762230 25739.68492776
0.11800001 846408.51273211 22662.58899577
0.11900001 837438.93413668 18088.68182936
0.12000001 828515.45904039 27067.60132187
0.12100001 819641.41415499 22499.15787845
0.12200001 810815.76592485 17951.46190329
0.12300001 802040.72794731 17901.54989120
0.12400001 793316.48523991 22312.02719866
0.12500001 784643.94225885 19278.70256972
0.12600001 776026.74605356 14783.31020896
0.12700001 767463.21640381 16208.82389431
0.12800001 758954.97148642 19091.51320751
0.12900001 750503.46971514 14634.81834921
0.13000001 742109.36252255 17498.93959309
0.13100001 733772.54733404 23245.91539530
0.13200001 725494.85220030 20263.07217716
0.13300001 717278.06608016 20184.20573104
0.13400001 709120.67952315 15795.66388107
0.13500001 701025.23041684 15731.00691224
0.13600001 692990.82056307 18513.25064426
0.13700001 685020.04434725 19851.88182126
0.13800001 677110.88421072 16941.31512183
0.13900001 669266.40503913 14054.59516861
0.14000001 661486.14483980 16788.51914779
0.14100001 653770.16736176 16710.36626588
0.14200001 646119.20988978 16631.10924697
0.14300001 638534.84006889 19309.29447446
0.14400001 631013.90731058 15097.00844453
0.14500001 623561.30015142 16387.19174100
0.14600001 616174.57915146 14945.31512235
0.14700001 608856.56610896 16219.93968634
0.14800001 601602.58168531 16134.98200203
0.14900001 594417.36682945 14711.83052314
0.15000001 587299.26675369 15962.79482354
0.15100001 580248.97228499 19844.51578851
0.15200001 573266.83773168 13156.47454676
0.15300001 566353.61113901 17007.59974508
0.15400001 559505.91296860 14309.36439945
0.15500001 552727.77497125 14227.21359918
0.15600001 546015.28056546 20573.85674269
0.15700001 539374.37692565 15339.80800376
0.15800001 532797.49759736 15248.66510095
0.15900001 526290.73999211 15157.17402720
0.16000001 519849.48170782 13809.80213342
0.16100001 513478.90934755 14973.04570337
0.16200001 507174.16727037 18600.61346270
0.16300001 500936.73562308 14787.65313369
0.16400001 494766.52068082 13470.01916145
0.16500001 488662.61924219 13384.46977294
0.16600001 482626.47513800 14507.75252760
0.16700001 476654.86812112 14414.04389254
0.16800001 470749.07425427 13126.83855538
0.16900001 464911.22606284 14226.28418926
0.17000001 459137.04737178 16487.61214966
0.17100001 453427.94248104 11698.44146843
0.17200001 447784.19238836 13944.00040945
0.17300001 442204.64154093 15004.00419604
0.17400001 436689.17371031 13755.70962150
0.17500001 431236.82481254 15938.51379781
0.17600001 425846.43610846 18089.95746026
0.17700001 420520.59330470 14596.27048300
0.17800001 415255.10125232 13379.51999429
0.17900001 410052.34228621 11071.41376467
0.18000001 404910.64193419 16489.98667168
0.18100001 399831.15047771 10915.39092365
0.18200001 394809.35395510 11921.26900581
0.18300001 389848.34908539 12911.77793165
0.18400001 384946.13995904 11750.48147735
0.18500001 380103.93660028 11665.39036536
0.18600001 375318.42808187 11580.45064557
0.18700001 370590.26237255 12540.77507117
0.18800001 365919.09036664 12448.56804242
0.18900001 361306.12072379 12356.66991257
0.19000001 356745.13169710 10220.74850604
0.19100001 352243.80350846 13188.00862649
0.19200001 347793.95916755 16109.81694985
0.19300001 343400.54267151 9992.95626393
0.19400001 339058.47035138 13884.44501698
0.19500001 334770.57148030 10826.48079328
0.19600001 330534.39998392 12697.47957542
0.19700001 326349.72221443 10661.84592860
0.19800001 322216.49031154 12503.61149744
0.19900001 318134.03720403 9544.02156717
0.20000001 314100.14681880 9470.11987416
0.20100001 310116.83239200 10336.19451214
0.20200001 306180.62785306 11187.84067053
0.20300001 302294.01763419 11100.23685218
0.20400001 298454.13320492 9177.46502983
0.20500001 294660.67992948 14568.02470430
0.20600001 290913.56717156 9936.15335641
0.20700001 287212.35211157 8961.02580946
0.20800001 283554.96705366 12445.22809227
0.20900001 279944.29488229 9700.07027621
0.21000001 276375.19185487 12246.18533000
0.21100001 272850.08191911 13882.61282432
0.21200001 269367.12100434 12048.79189212
0.21300001 265925.44470112 10243.44861415
0.21400001 262526.01072866 9313.11067089
0.21500001 259168.37929386 10076.46706334
0.21600001 255849.76043990 9160.70110566
0.21700001 252571.26189265 9910.89678525
0.21800001 249331.75868679 9009.60352613
0.21900001 246129.91956586 8934.51650268
0.22000001 242965.85454981 8054.31845915
0.22100001 239840.83234853 10382.71012330
0.22200001 236752.68294585 8711.31538090
0.22300001 233699.33045587 11778.44681192
0.22400001 230681.71402942 8564.05903831
0.22500001 227701.68845462 10806.72264508
0.22600001 224754.18692099 8418.16846921
0.22700001 221843.04211191 9863.14211871
0.22800001 218964.44348181 9777.85768608
0.22900001 216118.41356282 7456.08562052
0.23000001 213306.32509649 7391.06451413
0.23100001 210527.17466459 11722.15363970
0.23200001 207778.27865611 7988.03630072
0.23300001 205061.51749115 7917.42556478
0.23400001 202376.34685314 7133.76656397
0.23500001 199719.80756881 9898.11413125
0.23600001 197095.08425276 7006.73057658
0.23700001 194499.32419603 9026.71406288
0.23800001 191932.95970471 11697.35478247
0.23900001 189395.09959283 8181.86868941
0.24000001 186885.51716610 7431.50294162
0.24100001 184405.06381178 7363.29454630
0.24200001 181951.61413626 6632.13664898
0.24300001 179525.56743086 9198.89051029
0.24400001 177126.01532529 9113.13391957
0.24500001 174752.96199894 9027.73844392
0.24600001 172406.45134611 7665.19118945
0.24700001 170085.94011658 10123.51563464
0.24800001 167790.76013254 8147.08074365
0.24900001 165519.68542635 8069.08504626
0.25000001 163274.73514719 7376.75288293
0.25100001 161052.91444478 6696.58049942
0.25200001 158857.23110117 7234.35864660
0.25300001 156684.91866117 6566.66525176
0.25400001 154535.90356975 7093.19830944
0.25500001 152409.90476209 5852.54061976
0.25600001 150307.58863794 5794.35781614
0.25700001 148227.24802477 9751.87110894
0.25800001 146170.29057634 5678.71605757
0.25900001 144135.47587525 5621.28382510
0.26000001 142122.69179605 9458.97620004
0.26100001 140130.94455101 7159.29029586
0.26200001 138161.89479641 7085.63310990
0.26300001 136213.05678316 5933.44103423
0.26400001 134285.90220776 6405.43783840
0.26500001 132380.04025301 5810.16024164
0.26600001 130493.69909773 5748.90018579
0.26700001 128629.06516095 5687.97753057
0.26800001 126784.97830704 7673.66117516
0.26900001 124959.59235714 7085.20922193
0.27000001 123155.15174245 5006.25715524
0.27100001 121369.86656517 6932.64710627
0.27200001 119605.66441709 7346.77828450
0.27300001 117859.75369358 5328.43971665
0.27400001 116131.34322827 6227.54357533
0.27500001 114424.83536669 5684.62609004
0.27600001 112734.81173753 6089.37114419
0.27700001 111065.33350909 5094.56708917
0.27800001 109413.44483466 6410.53403626
0.27900001 107781.11456717 5884.84913388
0.28000001 106165.68219146 5369.86045939
0.28100001 104569.22582857 4865.60630809
0.28200001 102991.37184696 5683.57912438
0.28300001 101430.92619745 5617.24495868
0.28400001 99888.09005427  5978.30247271
0.28500001 98363.30267847  4641.76447310
0.28600001 96856.00893588  5003.58165846
0.28700001 95366.08949445  4531.79678728
0.28800001 93892.81393489  4884.30441208
0.28900001 92438.62616728  6433.72868577
0.29000001 90999.85508656  4369.35824880
0.29100001 89579.18277603  4315.92523044
0.29200001 88175.17086602  7363.06799170
0.29300001 86788.05488381  3827.35340155
0.29400001 85416.96140307  4535.64086520
0.29500001 84063.65008215  4852.15411243
0.29600001 82726.10208571  5896.71683581
0.29700001 81405.15751330  4366.57285572
0.29800001 80100.39223784  4311.00331432
0.29900001 78812.69126315  6383.82829452
0.30000001 77540.25279051  3851.03683715
0.30100001 76284.95130247  3801.27930336
0.30200001 75044.00646572  4092.90030640
0.30300001 73820.46653386  3366.21343330
0.30400001 72612.53016142  3654.22575337
0.30500001 71420.13567199  3606.00282080
0.30600001 70242.51858358  3234.66813391
0.30700001 69081.66612190  3829.88775112
0.30800001 67935.84160998  3463.70904847
0.30900001 66805.51513714  3417.10226104
0.31000001 65690.72216923  4596.70850142
0.31100001 64590.24591886  3627.38838254
0.31200001 63505.76431280  3577.91493078
0.31300001 62435.75282338  4117.01373610
0.31400001 61381.84253697  6090.61361410
0.31500001 60341.76222910  3146.21963159
0.31600002 59317.00498481  4512.83795292
0.31700002 58306.76226997  4171.84903795
0.31800002 57311.32227614  3016.58159084
0.31900002 56330.52106580  4055.79770878
0.32000002 55364.37290976  2932.37415001
0.32100002 54411.90358036  2890.90457411
0.32200002 53475.09567320  3109.04220965
0.32300002 52550.64092789  3575.54577804
0.32400002 51641.24937637  5035.02205261
0.32500002 50745.64327866  2729.60828121
0.32600002 49864.46468002  2690.43731921
0.32700002 48996.47591029  2892.75207472
0.32800002 48143.08998413  2851.03392387
0.32900002 47302.55265656  2575.62411411
0.33000002 46476.63475619  2307.56502492
0.33100002 45661.72128612  2501.34921050
0.33200002 44863.21460654  2913.19297843
0.33300002 44076.59787397  2429.06142386
0.33400002 43303.65386291  3699.21480642
0.33500002 42542.74613226  2572.98540793
0.33600002 41795.85303985  2112.78047122
0.33700002 41060.98241929  2498.15028869
0.33800002 40339.76185476  2666.66008369
0.33900002 39630.22625151  2021.14163454
0.34000002 38933.97123191  2389.76726739
0.34100002 38249.76040377  2158.43408180
0.34200002 37578.64015035  2126.76324003
0.34300002 36918.64035334  2286.00231894
0.34400002 36272.17761004  2627.91939231
0.34500002 35636.76235463  2034.50285918
0.34600002 35014.30644244  2186.99368397
0.34700002 34401.94712451  1975.35989744
0.34800002 33802.94844842  3362.21042666
0.34900002 33214.81684361  2964.42254369
0.35000002 32638.18900778  2405.76102571
0.35100002 32073.62998085  1862.83651752
0.35200002 31518.90774844  3004.06723979
0.35300002 30976.01098822  2631.72201821
0.35400002 30444.36790363  1621.16266765
0.35500002 29923.68092073  1917.50956422
0.35600002 29412.87796599  2205.08356555
0.35700002 28913.24713898  1863.16973388
0.35800002 28424.66686082  2296.00257443
0.35900002 27946.29904618  1509.10021997
0.36000002 27478.49449910  2231.94082141
0.36100002 27020.08127777  1613.90953117
0.36200002 26573.04526454  1591.59262151
0.36300002 26134.74965301  1569.65313851
0.36400002 25706.50227300  1407.43106611
0.36500002 25287.74347331  1943.61605542
0.36600002 24879.03479561  1506.55002341
0.36700002 24479.23508263  1351.25384057
0.36800002 24090.24512464  1733.41367005
0.36900002 23709.39047720  1579.04548058
0.37000002 23337.34168727  1428.59543906
0.37100002 22974.21984068  1666.54998619
0.37200002 22620.80639977  1392.19759582
0.37300002 22275.49307953  1624.55178725
0.37400002 21938.84559193  1480.87214761
0.37500002 21611.16648832  1462.64381722
0.37600002 21291.90170399  1324.46280824
0.37700002 20980.30446828  1308.54165167
0.37800002 20676.94595770  1410.58132006
0.37900002 20382.11051680  1277.95838994
0.38000002 20095.07470566  1378.12028860
0.38100002 19814.88586063  1248.93231496
0.38200002 19543.31626139  1796.42171585
0.38300002 19278.58128124  1443.58023473
0.38400002 19022.20083158  1208.38536507
0.38500002 18771.74532918  1086.88410605
0.38600002 18529.81302496  1183.22126676
0.38700002 18294.13802942  1384.13454888
0.38800002 18065.58692514  1581.19057053
0.38900002 17843.28636258  1148.21553183
0.39000002 17628.86581063  1240.71963453
0.39100002 17419.90067709  1434.00629168
0.39200002 17218.00029937  1218.00139888
0.39300002 17022.11408373  1207.20838801
0.39400002 16833.73161466  1196.87837451
0.39500002 16650.21334726  1285.72953559
0.39600002 16472.87956191  1275.24803170
0.39700002 16301.40043938  1265.15174804
0.39800002 16135.90582208  1255.45421197
0.39900002 15975.88198570  1150.26355747
0.40000002 15821.34112403  1332.31519918
0.40100002 15672.53882097  1606.59203066
0.40200002 15529.23353753  1032.61643300
0.40300002 15390.54315972  1212.46704757
0.40400002 15257.48742435  926.89240495
0.40500002 15129.53583038  1197.80540844
0.40600002 15006.42231258  1099.37055071
0.40700002 14887.99895158  1093.37469481
0.40800002 14774.57083547  1178.34595281
0.40900002 14665.42854678  992.11628820
0.41000002 14561.27701201  1346.55415549
0.41100002 14461.23738970  1251.18631824
0.41200002 14365.28802867  978.92259910
0.41300002 14274.26574423  886.43194472
0.41400002 14186.85090369  1059.75781272
0.41500002 14103.74536630  1144.09587833
0.41600002 14023.97833162  964.91987483
0.41700002 13948.52150700  1224.40127590
0.41800002 13877.71080608  959.43558204
0.41900002 13808.64985053  1217.92297453
0.42000002 13744.34332868  867.95532233
0.42100002 13683.82626363  866.18624353
0.42200002 13626.73139762  1124.00099259
0.42300002 13572.34569657  1122.16159537
0.42400002 13521.18856365  948.17339296
0.42500002 13473.59615931  1119.25168599
0.42600002 13428.17550695  1204.10455477
0.42700002 13387.04132029  1203.22733088
0.42800002 13347.81391088  1030.71823904
0.42900002 13312.68531630  944.53506795
0.43000002 13279.62016622  944.38023287
0.43100002 13248.29964846  858.48985790
0.43200002 13220.79305918  944.55960487
0.43300002 13195.49684452  944.92957381
0.43400002 13172.68528675  945.46953126
0.43500002 13152.05237310  946.15869256
0.43600002 13134.13075323  1033.13077401
0.43700002 13117.87684598  1120.39791451
0.43800002 13103.75868237  949.17080514
0.43900002 13092.52315591  950.51722616
0.44000002 13082.68126963  951.96134770
0.44100002 13075.27052065  1300.33571490
0.44200002 13069.48203515  1302.70068359
0.44300002 13065.68982605  1044.20998038
0.44400002 13064.03940347  1133.63207296
0.44500002 13062.89933603  961.29880770
0.44600002 13063.76848502  963.51829028
0.44700002 13067.28907602  965.93405428
0.44800002 13070.82572335  1144.41620044
0.44900002 13077.49228995  971.00384855
0.45000002 13084.94659110  885.19667884
0.45100002 13093.45140176  976.50965182
0.45200002 13103.54671362  1246.54045794
0.45300002 13114.60286018  982.41494682
0.45400002 13127.26866567  1075.12335467
0.45500002 13141.01846531  988.73027619
0.45600002 13155.75179158  1442.92292489
0.45700002 13171.64952091  1628.80625695
0.45800002 13188.13112417  1271.20401931
0.45900002 13205.80157163  1093.44042195
0.46000002 13225.09396873  1097.41834954
0.46100002 13244.02426265  1376.71638735
0.46200002 13264.82660141  1381.86337670
0.46300002 13286.26762466  1017.19669755
0.46400002 13307.75699175  1206.68092242
0.46500002 13330.58371215  1211.35019934
0.46600002 13353.76428389  1122.51747891
0.46700002 13377.28357972  939.08535181
0.46800002 13402.35429487  1037.14123627
0.46900002 13426.88864409  1325.23397198
0.47000002 13452.29257505  1235.52587012
0.47100002 13478.26000422  1049.68693888
0.47200002 13504.76872658  1341.42874119
0.47300002 13531.75411886  1154.52931614
0.47400002 13558.39472071  1062.63923660
0.47500002 13585.80394927  970.02644795
0.47600002 13614.04167852  1071.49320109
0.47700002 13641.58026044  1271.53175634
0.47800002 13669.54403263  1178.58814236
