# SAXS profile: number of points = 501, q_min = 0, q_max = 0.5, delta_q = 0.001
#    q    intensity    error
0.00000000 1646666.22097350 345.79990640
0.00100000 1646580.42906261 592.76896854
0.00200000 1646323.01954197 889.01445870
0.00300000 1645894.22005283 1086.29022393
0.00400000 1645293.88301021 1233.97045915
0.00500000 1644522.67356429 1480.07046479
0.00600000 1643580.42633000 2243.48737328
0.00700000 1642467.90754810 2956.44235646
0.00800000 1641184.88752749 2437.15966088
0.00900000 1639732.74239142 3197.47898435
0.01000000 1638110.87394356 4865.18950569
0.01100000 1636320.85077590 3239.91542560
0.01200000 1634362.64526751 4143.10948740
0.01300000 1632237.45121950 4113.23855849
0.01400000 1629945.58303262 4767.59104172
0.01500000 1627488.44651088 3905.97244555
0.01600000 1624865.81944056 4972.08962976
0.01700000 1622079.81146379 5255.53882490
0.01800000 1619130.97109907 5075.97582280
0.01900000 1616020.20887432 5332.86692992
0.02000000 1612748.37796905 7620.23643061
0.02100000 1609318.02584423 7435.04961649
0.02200000 1605728.04879733 7201.69062605
0.02300000 1601981.24624886 5767.13274901
0.02400000 1598078.46079143 6592.07395135
0.02500000 1594021.87259147 7460.02270443
0.02600000 1589812.09240633 9658.10890311
0.02700000 1585450.84489273 7990.67262424
0.02800000 1580938.57209553 8252.49972480
0.02900000 1576278.80488782 8511.90593721
0.03000000 1571471.95789734 8768.81392813
0.03100000 1566519.78236281 12030.87248212
0.03200000 1561423.41168783 12366.47399014
0.03300000 1556186.93261720 9523.86446667
0.03400000 1550809.07639737 12212.62204012
0.03500000 1545293.62571889 11682.42034991
0.03600000 1539641.27915236 9399.51044361
0.03700000 1533855.17437028 9617.27238808
0.03800000 1527936.63073191 13407.64455517
0.03900000 1521888.23739784 11870.72880144
0.04000000 1515710.14426581 9321.61781919
0.04100000 1509406.41800885 18067.59566130
0.04200000 1502978.45937548 11633.05381526
0.04300000 1496428.15661013 10864.06892128
0.04400000 1489758.12180273 14078.21490486
0.04500000 1482971.12193303 10232.50121679
0.04600000 1476067.40416639 14568.78595638
0.04700000 1469050.93318203 10577.16721083
0.04800000 1461923.62612755 11819.65306719
0.04900000 1454687.76704708 17456.25401711
0.05000000 1447345.42254126 15501.07019724
0.05100000 1439900.22393790 14600.58895088
0.05200000 1432351.47399391 13664.63369869
0.05300000 1424704.79447211 11540.10937320
0.05400000 1416960.67277094 17534.88914326
0.05500000 1409123.18984491 13020.29888155
0.05600000 1401192.76821037 14376.23847269
0.05700000 1393174.61485292 16968.86760099
0.05800000 1385068.10053209 15935.20924067
0.05900000 1376876.97063961 16109.46130889
0.06000000 1368604.98569226 17531.83068578
0.06100000 1360253.48455353 12650.35799752
0.06200000 1351825.18592508 15329.69832495
0.06300000 1343323.61991459 14185.49808955
0.06400000 1334747.99388780 18219.31096863
0.06500000 1326104.62910229 14441.28008646
0.06600000 1317395.05525558 15887.78510975
0.06700000 1308619.83300760 13347.92292135
0.06800000 1299783.89087150 28250.80419049
0.06900000 1290890.29738192 16265.21850853
0.07000000 1281939.00084341 20478.97649747
0.07100000 1272933.85660052 15122.45492472
0.07200000 1263877.25765422 22143.13059144
0.07300000 1254772.47047603 15320.77258238
0.07400000 1245622.24631216 15414.57602050
0.07500000 1236427.33884211 15504.79955583
0.07600000 1227190.99259622 19843.67928056
0.07700000 1217916.98065794 15674.59227603
0.07800000 1208606.41230539 20050.78132045
0.07900000 1199261.04645954 20147.58652552
0.08000000 1189886.67091698 18794.26084879
0.08100000 1180483.42603759 20327.92555012
0.08200000 1171052.78912973 18953.49028146
0.08300000 1161598.39247708 27808.66682102
0.08400000 1152123.36568055 14689.57360194
0.08500000 1142629.10700068 16213.90778950
0.08600000 1133118.38258225 19223.35426307
0.08700000 1123593.49115123 16314.57825761
0.08800000 1114055.90958601 19334.44121888
0.08900000 1104509.35765661 19384.14013734
0.09000000 1094955.62566417 17935.37399090
0.09100000 1085396.55721296 20969.86247054
0.09200000 1075834.22856591 22511.83229050
0.09300000 1066272.90337301 15034.44864406
0.09400000 1056711.24336672 16563.94951824
0.09500000 1047153.32013497 16586.90937057
0.09600000 1037600.70064305 24155.34544646
0.09700000 1028058.83116900 16623.71208153
0.09800000 1018525.58665573 16637.61624028
0.09900000 1009005.44145287 24216.13173357
0.10000000 999497.75204541 25742.06581451
0.10100000 990006.48714721 18176.51995890
0.10200000 980533.40015735 16664.16591950
0.10300000 971079.89248473 18178.61644245
0.10400000 961648.72472092 15145.96812690
0.10500000 952242.77451133 25739.12340605
0.10600001 942858.69581961 16646.17105796
0.10700001 933504.66307176 21171.88675477
0.10800001 924177.50892240 21154.42417480
0.10900001 914882.37602088 19624.22788927
0.11000001 905619.66527990 19602.13857765
0.11100001 896389.91065002 16565.28632860
0.11200001 887196.58045379 16541.78102130
0.11300001 878039.44387931 15014.47519723
0.11400001 868921.31233487 17986.67201222
0.11500001 859843.42247354 16457.40388109
0.11600001 850807.33137950 19411.17017952
0.11700001 841814.16667367 19370.14488740
0.11800001 832864.48876269 17839.95818953
0.11900001 823960.03371638 20763.79382766
0.12000001 815101.90918317 14794.10034855
0.12100001 806293.47303184 19181.72262704
0.12200001 797533.71970866 19128.84716840
0.12300001 788824.75166315 20540.99750109
0.12400001 780166.82161129 20479.38003223
0.12500001 771560.79645999 14582.49974023
0.12600001 763010.33248114 18895.95177434
0.12700001 754513.56386725 17383.99333075
0.12800001 746072.32509599 14436.50017099
0.12900001 737688.04715481 17261.90111701
0.13000001 729361.35179001 15765.14636203
0.13100001 721092.12595531 19988.67467370
0.13200001 712882.14531038 21332.99920406
0.13300001 704733.17283860 16998.16493021
0.13400001 696643.82527595 18339.14956500
0.13500001 688616.46069321 18262.10939861
0.13600001 680650.39570415 18183.57617861
0.13700001 672747.92207440 18103.64743667
0.13800001 664907.37933400 20794.97926927
0.13900001 657131.54175034 16559.71563303
0.14000001 649419.90422719 15108.75478438
0.14100001 641772.80919615 16403.71377670
0.14200001 634190.84635002 17684.41258456
0.14300001 626675.39230207 14889.80802341
0.14400001 619223.56969976 21548.98124201
0.14500001 611840.24105240 14739.23210223
0.14600001 604522.70068008 14662.69879670
0.14700001 597274.05517194 19889.22697553
0.14800001 590089.38598149 17145.04791857
0.14900001 582973.69838916 14428.59971588
0.15000001 575925.00546416 15653.64238710
0.15100001 568944.22945611 14269.12194805
0.15200001 562031.68276673 21927.66713784
0.15300001 555187.89778490 16672.29335723
0.15400001 548409.79733184 14025.58122864
0.15500001 541701.46772223 13943.39643720
0.15600001 535058.55905658 16380.81855861
0.15700001 528487.27297605 13777.66385675
0.15800001 521979.99002322 16183.99035453
0.15900001 515543.04829116 12373.03374300
0.16000001 509171.32411943 14755.78566949
0.16100001 502870.37323978 14663.70077586
0.16200001 496635.21101592 13357.00463080
0.16300001 490467.45023288 14478.59981438
0.16400001 484366.66673292 15584.49823787
0.16500001 478332.32046949 13101.52287620
0.16600001 472365.64178461 13016.03587390
0.16700001 466463.54208976 12930.36999723
0.16800001 460626.95531660 14012.27264234
0.16900001 454858.48318349 18558.22699017
0.17000001 449153.58433118 16129.10597494
0.17100001 443513.71549513 12586.91984012
0.17200001 437939.17264034 11364.52206668
0.17300001 432428.51960403 13543.66187359
0.17400001 426981.83457609 11208.27368694
0.17500001 421598.54670608 14469.26280630
0.17600001 416276.95644873 14367.79983041
0.17700001 411019.69392772 10974.22634619
0.17800001 405822.91834279 13075.61504659
0.17900001 400688.52239616 17309.74498512
0.18000001 395615.40188980 15037.34213612
0.18100001 390604.09835531 13862.54010545
0.18200001 385650.42526998 11644.71514110
0.18300001 380757.33318318 10508.90289229
0.18400001 375923.08017276 11475.05256436
0.18500001 371148.58907915 14497.06457430
0.18600001 366430.70432220 12334.05809019
0.18700001 361770.01051000 10201.91477837
0.18800001 357166.14465268 12150.79281516
0.18900001 352620.25999481 14069.54903854
0.19000001 348126.50128577 13963.35462632
0.19100001 343691.96623427 12867.82782382
0.19200001 339308.92085200 9822.99372281
0.19300001 334981.99641164 10722.77421182
0.19400001 330706.31873404 11607.79233608
0.19500001 326484.65607654 12478.24414491
0.19600001 322314.53427409 11429.27392547
0.19700001 318195.62636373 16065.69793433
0.19800001 314128.05536739 12189.73976460
0.19900001 310111.08212342 13024.66606473
0.20000001 306142.44400175 10153.21463517
0.20100001 302224.28793714 13736.09453594
0.20200001 298352.91272167 9993.33128393
0.20300001 294531.09374667 12617.71265248
0.20400001 290755.69505787 10728.88565474
0.20500001 287026.43532092 9756.02899770
0.20600001 283343.32384877 13196.71593204
0.20700001 279706.04882990 11344.87787680
0.20800001 276112.28273526 9521.73252022
0.20900001 272564.88532496 9444.37372296
0.21000001 269059.10852279 11922.00966223
0.21100001 265596.87992851 10979.77553530
0.21200001 262176.66421282 9214.19929936
0.21300001 258797.52681509 9138.14110385
0.21400001 255460.42770001 13181.75869251
0.21500001 252164.75280162 9804.16605244
0.21600001 248907.86650175 8101.95143768
0.21700001 245690.88945591 8034.09246506
0.21800001 242512.64208752 9559.84880309
0.21900001 239371.82766578 9479.12482375
0.22000001 236268.57941989 10965.22528934
0.22100001 233204.08043061 10095.40511919
0.22200001 230176.15064055 7699.39260299
0.22300001 227182.88418980 8396.67979670
0.22400001 224225.05442501 9081.11513363
0.22500001 221304.43192579 9752.88677616
0.22600001 218416.12384278 8180.77630539
0.22700001 215563.81450527 10321.19592659
0.22800001 212744.07243319 10230.86292713
0.22900001 209956.37520551 8692.19434457
0.23000001 207202.29350791 8615.47177150
0.23100001 204481.09904036 7115.94258314
0.23200001 201789.84741583 10578.83325109
0.23300001 199130.20024849 6989.47035929
0.23400001 196502.01842988 6926.69647725
0.23500001 193902.37206420 8923.38758444
0.23600001 191333.92977051 8842.49798257
0.23700001 188794.34723830 8087.95021823
0.23800001 186283.93913524 10685.24725420
0.23900001 183801.60107437 7940.22954198
0.24000001 181347.31221330 7211.27621126
0.24100001 178921.80282138 7793.83409956
0.24200001 176523.08684942 7077.69350202
0.24300001 174151.40720344 8286.12434670
0.24400001 171805.89666332 7576.64040125
0.24500001 169486.73045944 6879.46671478
0.24600001 167193.59058316 8052.87967138
0.24700001 164926.30009599 6748.78451919
0.24800001 162683.93571112 6683.86981488
0.24900001 160465.47784222 6619.20127413
0.25000001 158272.80317856 6554.86845374
0.25100001 156102.98595305 7080.83177782
0.25200001 153958.83117468 8764.10687925
0.25300001 151837.96878345 6363.52957278
0.25400001 149739.94607292 8591.32981240
0.25500001 147664.69929634 9072.51955401
0.25600001 145612.82849857 7297.38724546
0.25700001 143582.50189788 7779.30032089
0.25800001 141575.33746875 6600.24254508
0.25900001 139590.05568208 5988.41367210
0.26000001 137626.43744454 7004.49786516
0.26100001 135683.46048920 5865.59627449
0.26200001 133762.92277665 5276.94755323
0.26300001 131862.47718321 5743.92977789
0.26400001 129983.08255776 5683.51055377
0.26500001 128124.74418927 6134.61304207
0.26600001 126285.74285988 7586.61636130
0.26700001 124468.04741200 7505.42361410
0.26800001 122670.63925892 5444.73658116
0.26900001 120891.51585612 8812.99192296
0.27000001 119133.10328615 7264.14131663
0.27100001 117393.46638948 5268.61902089
0.27200001 115674.54841684 6631.62217457
0.27300001 113973.68666930 5152.75061817
0.27400001 112289.99355368 5095.15869863
0.27500001 110627.95123774 6411.99635719
0.27600001 108982.08363053 4528.20578915
0.27700001 107356.21698872 5372.10535236
0.27800001 105747.72972138 4868.09696812
0.27900001 104158.64739351 4374.66339757
0.28000001 102585.96253191 5621.19808298
0.28100001 101032.00836396 5983.11581849
0.28200001 99496.37773000  5490.70786490
0.28300001 97977.78833788  5008.62477689
0.28400001 96476.39946449  6186.54940847
0.28500001 94992.90091989  4890.23477082
0.28600001 93526.42402531  5234.20656832
0.28700001 92077.11937827  4375.50491996
0.28800001 90644.09535467  5894.13257943
0.28900001 89229.81970088  3881.49734071
0.29000001 87830.75700972  4217.19399744
0.29100001 86449.28002978  5301.07010235
0.29200001 85084.40671489  4113.40583734
0.29300001 83735.91055805  3692.75383041
0.29400001 82403.13306809  4375.60657304
0.29500001 81087.88411566  4320.36267020
0.29600001 79788.13564393  4265.47393344
0.29700001 78504.54867444  4210.98419024
0.29800001 77236.95785818  4503.30104110
0.29900001 75985.96426026  3761.30540894
0.30000001 74750.03912842  5062.44663963
0.30100001 73530.97593069  4330.23937755
0.30200001 72325.80921331  3287.20818436
0.30300001 71137.86736304  3892.66428639
0.30400001 69965.26827466  4161.18452763
0.30500001 68807.83270101  4105.76357165
0.30600001 67664.81444944  3115.96485292
0.30700001 66538.32609560  4303.69913561
0.30800001 65426.45449961  3942.27120252
0.30900001 64329.92575188  3888.74419581
0.31000001 63248.55301341  4130.76319288
0.31100001 62181.22593657  3492.09781393
0.31200001 61129.63509419  3444.04380427
0.31300001 60092.03628908  4528.53606915
0.31400001 59070.29278466  2791.07146622
0.31500001 58062.22642550  3577.79456174
0.31600002 57069.16505612  2985.00281959
0.31700002 56090.27611971  4548.36070590
0.31800002 55125.83992356  3692.88019133
0.31900002 54175.76492336  3640.61157523
0.32000002 53240.06950927  3076.21136190
0.32100002 52317.84938038  3285.03791814
0.32200002 51410.83645296  2739.94065850
0.32300002 50516.16445127  3437.11999201
0.32400002 49635.95592348  3871.60474536
0.32500002 48769.30587509  2861.78300426
0.32600002 47916.86366437  2350.32227403
0.32700002 47077.33932863  2316.20520465
0.32800002 46252.14751360  3652.06974061
0.32900002 45439.54338020  2699.10900460
0.33000002 44641.22063128  3103.01139302
0.33100002 43853.51469517  2402.29564876
0.33200002 43082.22725317  3227.93602980
0.33300002 42322.36609298  2332.38570583
0.33400002 41575.87246261  2507.02522822
0.33500002 40841.25618563  2470.07929108
0.33600002 40120.29500046  2028.08100832
0.33700002 39411.14237726  2397.77401578
0.33800002 38715.22949534  3346.73817222
0.33900002 38030.95064468  2521.45214715
0.34000002 37359.53405192  2484.22233443
0.34100002 36699.98703028  2447.52225096
0.34200002 36053.15981268  2596.90922429
0.34300002 35417.31749829  2924.05387114
0.34400002 34794.56943434  2160.74286421
0.34500002 34182.81573511  2306.31468688
0.34600002 33583.72642996  2097.63965216
0.34700002 32994.42885291  2239.00204800
0.34800002 32418.21608649  2036.51243101
0.34900002 31852.66293827  2173.94434850
0.35000002 31298.27791186  2636.56705617
0.35100002 30755.90786886  1948.69441487
0.35200002 30222.84847994  1920.35988337
0.35300002 29701.54950109  1892.58282385
0.35400002 29191.25524028  1709.87785669
0.35500002 28691.54955123  1685.34170046
0.35600002 28201.53667830  1812.23083278
0.35700002 27722.60479786  2381.92631705
0.35800002 27254.41368823  1761.18029595
0.35900002 26796.13334806  1591.69039627
0.36000002 26348.14566536  1569.42737089
0.36100002 25909.44399199  1969.63602557
0.36200002 25481.72245094  1526.22783849
0.36300002 25062.64923010  1505.26278406
0.36400002 24653.31746034  2024.65379233
0.36500002 24253.40113544  1331.51178541
0.36600002 23863.14920844  1445.03306877
0.36700002 23481.58293026  1814.65681481
0.36800002 23110.62836500  1662.92534277
0.36900002 22747.61124691  1388.74173241
0.37000002 22393.16806748  1744.65180678
0.37100002 22047.39747007  1353.26932082
0.37200002 21711.13657262  1579.15959341
0.37300002 21382.82774618  1559.44970140
0.37400002 21062.92202865  1303.26836226
0.37500002 20751.76877667  1404.47977734
0.37600002 20448.89596124  1272.02363353
0.37700002 20153.40009508  1485.50719138
0.37800002 19865.85621780  1694.06096922
0.37900002 19586.68575667  1451.37348332
0.38000002 19315.19866134  1324.63638695
0.38100002 19050.29117340  1091.58173595
0.38200002 18793.85649207  1943.47279191
0.38300002 18544.03508521  1709.01835442
0.38400002 18302.30381626  1268.34971455
0.38500002 18066.43019531  1255.25562944
0.38600002 17838.64188995  1035.53321077
0.38700002 17617.20057596  1127.85323431
0.38800002 17402.55862761  1116.98327843
0.38900002 17193.96622374  1207.01648609
0.39000002 16993.10686310  1195.97491769
0.39100002 16797.54326427  1382.77382703
0.39200002 16608.80849977  979.08930745
0.39300002 16426.01600380  1456.16638773
0.39400002 16250.38586959  1059.11894923
0.39500002 16079.50996960  1146.14752493
0.39600002 15914.64896899  1137.26086920
0.39700002 15755.44517157  1034.66013344
0.39800002 15602.13894909  1027.16686638
0.39900002 15454.08087065  1019.96938579
0.40000002 15311.22784271  1289.35855772
0.40100002 15174.07679483  1006.49656149
0.40200002 15042.18813439  1363.95047371
0.40300002 14914.75170326  903.83399604
0.40400002 14792.78391436  1168.26016499
0.40500002 14675.86874663  1430.01671843
0.40600002 14563.53371295  889.10377530
0.40700002 14455.71307718  1415.50349159
0.40800002 14352.73511322  968.59437501
0.40900002 14253.91445072  964.27735828
0.41000002 14159.90690549  1047.54996250
0.41100002 14069.91735405  869.52093368
0.41200002 13983.82068353  1039.55727887
0.41300002 13902.51801493  1295.01961445
0.41400002 13824.60225981  860.58153145
0.41500002 13750.91059606  1029.66823422
0.41600002 13680.45943459  855.71277818
0.41700002 13614.10134019  938.96461392
0.41800002 13552.34793690  936.94161901
0.41900002 13492.09118443  1020.00214188
0.42000002 13436.40300537  933.35977900
0.42100002 13384.55267211  1101.41489158
0.42200002 13335.87859578  930.77769070
0.42300002 13289.80462459  1098.80109843
0.42400002 13246.79669020  1097.82832772
0.42500002 13207.28593899  1012.73473379
0.42600002 13169.73111601  1096.57771334
0.42700002 13136.45420806  1265.04060018
0.42800002 13104.78754734  1180.61036608
0.42900002 13077.25731559  1012.17976419
0.43000002 13051.57742171  1265.67678045
0.43100002 13027.53838105  1013.02143251
0.43200002 13007.16357749  1267.22297159
0.43300002 12988.98383056  1014.69946493
0.43400002 12973.01518162  931.13820879
0.43500002 12959.25408628  1017.04230889
0.43600002 12947.97971065  1527.73219846
0.43700002 12938.33779853  1190.06836711
0.43800002 12930.71109543  1106.93357578
0.43900002 12925.81568115  853.10387538
0.44000002 12922.24723792  1025.76803436
0.44100002 12920.97485150  942.32674058
0.44200002 12921.17717571  1030.33471682
0.44300002 12923.40290699  1118.90827671
0.44400002 12927.53722034  1035.49578042
0.44500002 12932.11067326  951.67406955
0.44600002 12938.70802675  1474.81870432
0.44700002 12947.72883809  1044.10490299
0.44800002 12956.68381392  1047.15923547
0.44900002 12968.76400731  875.39161198
0.45000002 12981.37999962  1141.64751817
0.45100002 12995.03449015  1497.80774632
0.45200002 13010.15146304  1149.25178395
0.45300002 13026.22919745  975.79487543
0.45400002 13043.79638249  1246.33480341
0.45500002 13062.31036959  1161.50069311
0.45600002 13081.73155354  986.42801455
0.45700002 13102.20212261  1080.14559418
0.45800002 13123.22983913  993.88785897
0.45900002 13145.38298447  1179.14090959
0.46000002 13169.01369525  1639.14721233
0.46100002 13192.30628105  1005.64955547
0.46200002 13217.21986880  1101.52315607
0.46300002 13242.83247585  1106.04142080
0.46400002 13268.35209286  1018.01436257
0.46500002 13295.13004696  929.32963433
0.46600002 13322.20538104  933.22053117
0.46700002 13349.59926711  1499.42706075
0.46800002 13378.38725472  941.16958798
0.46900002 13406.58783918  1228.71383370
0.47000002 13435.57841449  1044.14602597
0.47100002 13465.18052751  1334.66875715
0.47200002 13495.09655988  1148.97257557
0.47300002 13525.46521612  1442.49093367
0.47400002 13555.43895768  1158.99008582
0.47500002 13586.14423149  1261.06596734
0.47600002 13617.47529600  1169.19648433
0.47700002 13648.20226014  1076.43376328
