# SAXS profile: number of points = 501, q_min = 0, q_max = 0.5, delta_q = 0.001
#    q    intensity    error
0.00000000 1646666.22097350 271.69992646
0.00100000 1646580.55072579 691.56384773
0.00200000 1646323.50120680 889.01471880
0.00300000 1645895.29796001 1185.04465675
0.00400000 1645295.79472413 1357.36908222
0.00500000 1644525.65772144 1924.09509569
0.00600000 1643584.74816786 1898.34046142
0.00700000 1642473.76771486 2168.06546349
0.00800000 1641192.50704438 2658.73197366
0.00900000 1639742.41139679 2951.53646669
0.01000000 1638122.83921660 3243.48336170
0.01100000 1636335.28516205 3534.48436984
0.01200000 1634379.77977239 4143.15292337
0.01300000 1632257.54121122 4456.06328404
0.01400000 1629968.88321127 5134.40220973
0.01500000 1627515.17028282 3906.03658261
0.01600000 1624896.15962726 6629.57662764
0.01700000 1622114.01646619 5255.64964911
0.01800000 1619169.23093340 5076.09576739
0.01900000 1616062.85129350 7757.10203623
0.02000000 1612795.48572127 6096.36721180
0.02100000 1609369.92539204 6373.10519350
0.02200000 1605784.83575836 8309.93690259
0.02300000 1602043.33938322 9227.77005488
0.02400000 1598145.84244526 7191.65661893
0.02500000 1594094.85339277 7460.36425460
0.02600000 1589890.92381532 10302.49365754
0.02700000 1585535.63846928 9988.87497986
0.02800000 1581029.53659407 11003.96607933
0.02900000 1576376.23680858 7803.06273047
0.03000000 1571575.97798156 7307.82863352
0.03100000 1566630.54518814 8271.80965921
0.03200000 1561541.22318209 10048.51823399
0.03300000 1556311.96688249 11112.06795581
0.03400000 1550941.35915790 8956.68676240
0.03500000 1545433.45381607 11683.47745037
0.03600000 1539788.75019389 8545.82795851
0.03700000 1534010.49548562 13115.79034297
0.03800000 1528099.95122700 14303.01620542
0.03900000 1522059.80313635 11872.06701426
0.04000000 1515890.04143952 13051.81386160
0.04100000 1509594.84536604 12363.58235680
0.04200000 1503175.57829845 12604.12780877
0.04300000 1496633.91515138 11853.34115821
0.04400000 1489973.12262603 11063.05094929
0.04500000 1483195.24798208 11257.45245526
0.04600000 1476300.63514303 14571.08794623
0.04700000 1469293.73848300 12694.69849090
0.04800000 1462175.74124797 11821.69141803
0.04900000 1454949.51023376 12003.33401815
0.05000000 1447616.99753160 11074.27054680
0.05100000 1440181.89222616 14603.44506746
0.05200000 1432642.91089292 14806.36517407
0.05300000 1425006.29014299 15005.31693472
0.05400000 1417272.41653965 11692.49798172
0.05500000 1409445.09578264 13023.27329256
0.05600000 1401525.25360127 16776.25806846
0.05700000 1393517.62611590 15760.68508706
0.05800000 1385421.67336906 12260.98238181
0.05900000 1377241.21446701 17353.24011278
0.06000000 1368980.05633605 17536.63534096
0.06100000 1360639.36442150 16450.13068459
0.06200000 1352222.06482811 15334.19893193
0.06300000 1343731.38859957 16769.76851380
0.06400000 1335166.59483766 22130.38734440
0.06500000 1326534.76521120 14445.96426890
0.06600000 1317835.97904816 14568.67743002
0.06700000 1309072.26399884 16023.04526121
0.06800000 1300247.43052518 13457.56153587
0.06900000 1291365.18533635 20339.00262130
0.07000000 1282424.97167426 24584.08785823
0.07100000 1273431.60328682 15128.36815563
0.07200000 1264386.28043288 16614.03650320
0.07300000 1255292.88949415 22294.00276201
0.07400000 1246154.26321650 18225.00695364
0.07500000 1236970.75291012 16921.76069298
0.07600000 1227745.92003689 14180.46604121
0.07700000 1218483.45441304 17107.50850210
0.07800000 1209184.35359870 17194.60231454
0.07900000 1199850.64979556 17277.85016745
0.08000000 1190487.77009533 18803.75521076
0.08100000 1181095.93009408 15980.22868394
0.08200000 1171677.17343312 17504.85779251
0.08300000 1162234.06230275 14644.14987229
0.08400000 1152770.62280148 16167.60874368
0.08500000 1143287.95323557 14748.41528911
0.08600000 1133788.92838795 16275.54083117
0.08700000 1124275.23856273 25228.73753803
0.08800000 1114749.21536675 14881.90272406
0.08900000 1105213.89485727 17904.46593766
0.09000000 1095671.74534804 25425.06404516
0.09100000 1086124.06764812 16487.36412149
0.09200000 1076573.04231796 19523.65303979
0.09300000 1067023.01337137 15045.02519553
0.09400000 1057472.58118696 16575.88348913
0.09500000 1047925.74646960 15090.13145844
0.09600000 1038384.70478631 18130.19779783
0.09700000 1028853.37152452 18148.97432693
0.09800000 1019331.52694887 16650.78127559
0.09900000 1009822.07134920 18176.79813900
0.10000000 1000325.63987793 19701.41440390
0.10100000 990845.27656414 16675.92678887
0.10200000 981382.69592532 19711.07237480
0.10300000 971940.12186920 21227.17326017
0.10400000 962519.62493208 22739.52720880
0.10500000 953124.26780144 16670.14422817
0.10600001 943750.61185492 18176.63763960
0.10700001 934407.08446652 18164.87457683
0.10800001 925090.43941846 19662.79821520
0.10900001 915805.76795121 18132.95505887
0.11000001 906553.06538559 21131.75294880
0.11100001 897333.56152320 22612.80681485
0.11200001 888150.36185172 16559.56427630
0.11300001 879003.28944366 22546.43543573
0.11400001 869894.84687356 19507.39285963
0.11500001 860827.01070674 14978.39069160
0.11600001 851800.57391394 16444.01085378
0.11700001 842817.25098344 19393.22585845
0.11800001 833877.16136687 19350.12044088
0.11900001 824982.01134112 17819.61228430
0.12000001 816133.42144374 19256.66898605
0.12100001 807334.25689953 14774.21759725
0.12200001 798583.66155847 16207.25617487
0.12300001 789884.03351343 16161.02808710
0.12400001 781235.11416912 14648.15908086
0.12500001 772638.12312561 14602.86121517
0.12600001 764096.34405744 20378.45045632
0.12700001 755608.61235791 17409.22324916
0.12800001 747176.17558124 14457.85967889
0.12900001 738800.32850093 21609.91062717
0.13000001 730482.00078737 24401.75238648
0.13100001 722221.14330193 15729.97724259
0.13200001 714019.51823160 17093.62807226
0.13300001 705878.75478372 21282.24546004
0.13400001 697797.42592554 15543.43839530
0.13500001 689778.20107826 19700.06635162
0.13600001 681820.11015036 16813.68470909
0.13700001 673925.37087938 19530.35816900
0.13800001 666092.60284527 18054.44085149
0.13900001 658324.40397362 20737.21970310
0.14000001 650620.22536339 23393.05130617
0.14100001 642980.71717267 17804.13689821
0.14200001 635405.85720746 17718.29316392
0.14300001 627897.96535112 18987.63536782
0.14400001 620453.32633967 14844.34653288
0.14500001 613076.81604155 16111.65948559
0.14600001 605766.47091749 14692.86644523
0.14700001 598524.47311815 17273.41710909
0.14800001 591346.76895780 14538.26100072
0.14900001 584237.49734612 21032.55089679
0.15000001 577195.56584362 18302.87225648
0.15100001 570221.43902742 13001.04942328
0.15200001 563315.25417670 16806.51140141
0.15300001 556477.97919717 14140.10611866
0.15400001 549706.03592560 15336.79912608
0.15500001 543003.76713174 12706.28875053
0.15600001 536366.88402001 18947.16107222
0.15700001 529801.40982083 17578.81160752
0.15800001 523300.10575606 13728.77892249
0.15900001 516869.04954913 13645.34355217
0.16000001 510503.08220869 18492.97502592
0.16100001 504207.67770249 13477.47186118
0.16200001 497978.09347686 12175.56496027
0.16300001 491815.67267692 14518.39934280
0.16400001 485720.23400232 14425.89163091
0.16500001 479691.41866321 11944.31688862
0.16600001 473729.75786746 13053.62409434
0.16700001 467832.69172004 15326.19970437
0.16800001 462001.30255533 12882.90693004
0.16900001 456237.61053058 19777.90135037
0.17000001 450537.63170262 13867.54895863
0.17100001 444902.59125686 17217.73109468
0.17200001 439332.59462992 12540.74950592
0.17300001 433826.75679348 15852.03044184
0.17400001 428384.60168860 16867.64448808
0.17500001 423005.77700924 15634.29425663
0.17600001 417688.44404579 17743.40594107
0.17700001 412435.61851114 12113.23468779
0.17800001 407242.91265333 12027.91999332
0.17900001 402112.71644569 14114.15701391
0.18000001 397043.56236973 12935.67987302
0.18100001 392036.30047878 14983.62811207
0.18200001 387086.46861105 15938.28609795
0.18300001 382197.25630236 14768.10268116
0.18400001 377366.63208458 12566.30944206
0.18500001 372595.98026842 12474.51400871
0.18600001 367881.59882736 11350.98726808
0.18700001 363224.44059281 12291.51565037
0.18800001 358623.89962820 10166.98803481
0.18900001 354081.47614919 12109.58705645
0.19000001 349590.87934552 16025.24666637
0.19100001 345159.57010585 17893.07295974
0.19200001 340779.38713221 12825.23284073
0.19300001 336455.74382903 13707.20765130
0.19400001 332182.98473445 11659.62331514
0.19500001 327964.27414710 15427.44018490
0.19600001 323796.96987832 10525.02100327
0.19700001 319680.69870913 12342.87236045
0.19800001 315615.74865629 12247.46970541
0.19900001 311601.23667962 12152.44880483
0.20000001 307635.21411305 11130.24257264
0.20100001 303719.32259563 9202.69590959
0.20200001 299850.39021880 10043.48929507
0.20300001 296030.65918194 16305.36947841
0.20400001 292257.35183704 8986.91399376
0.20500001 288530.23633015 9807.14319641
0.20600001 284849.09167015 10613.47765731
0.20700001 281213.56280686 12283.40900403
0.20800001 277621.73880533 9573.78611526
0.20900001 274076.18091157 11223.42013887
0.21000001 270571.93042725 10276.32240341
0.21100001 267111.25106735 9343.55200404
0.21200001 263692.60301108 13479.96650318
0.21300001 260314.67917898 10027.32191602
0.21400001 256978.87117689 10773.83968344
0.21500001 253684.29236323 9041.30860728
0.21600001 250428.61532093 13857.46808394
0.21700001 247212.63424639 10509.00957868
0.21800001 244035.26801408 12024.83839994
0.21900001 240895.27419670 8744.49886679
0.22000001 237792.87888803 12612.53489257
0.22100001 234728.91693457 8598.12063386
0.22200001 231701.58893721 8525.46036807
0.22300001 228708.64895229 12295.37754907
0.22400001 225751.31463122 8381.01795199
0.22500001 222830.80082276 9064.75740612
0.22600001 219942.63688238 8237.95185399
0.22700001 217090.37407003 9651.83848758
0.22800001 214270.53785795 12512.32864992
0.22900001 211482.73336314 8755.38557528
0.23000001 208728.52842447 10848.66577792
0.23100001 206006.83256239 8602.84573466
0.23200001 203315.12393065 10658.79587616
0.23300001 200654.99227474 8451.58867433
0.23400001 198026.12897491 9074.54778946
0.23500001 195425.61807174 8993.48736902
0.23600001 192856.25354200 10284.06020653
0.23700001 190315.77046461 8832.55532502
0.23800001 187804.10468509 9425.88845998
0.23900001 185320.55283416 9340.15630463
0.24000001 182864.91889145 8593.73726979
0.24100001 180437.88679296 9824.84340060
0.24200001 178037.62339634 8436.31318369
0.24300001 175664.36536139 10929.83732980
0.24400001 173316.96749468 7006.33874240
0.24500001 170995.90487768 6940.72410731
0.24600001 168700.82970255 9375.54905423
0.24700001 166431.20072808 6191.24095997
0.24800001 164186.61333121 6132.37029802
0.24900001 161965.87581106 8503.20888235
0.25000001 159770.58006717 7819.97141134
0.25100001 157598.05085400 7744.36858534
0.25200001 155451.25797574 8849.06327892
0.25300001 153327.55428835 6425.95810424
0.25400001 151226.47544830 6941.29555148
0.25500001 149148.09772995 6872.74466856
0.25600001 147092.92611422 6237.47582698
0.25700001 145059.37889721 8420.69734339
0.25800001 143048.58508818 9447.64424916
0.25900001 141059.72613801 6051.46253764
0.26000001 139092.27903011 7623.64817436
0.26100001 137145.41814676 7545.74126347
0.26200001 135220.97122254 5334.46756714
0.26300001 133316.41817557 5807.26345051
0.26400001 131432.79337981 5746.89916247
0.26500001 129569.97021790 8271.74729012
0.26600001 127726.48194571 6138.53501278
0.26700001 125904.18134404 6073.61799544
0.26800001 124101.88763772 5508.26254346
0.26900001 122317.96715547 4953.87790422
0.27000001 120554.61873635 7350.81822531
0.27100001 118809.87620457 8240.65340352
0.27200001 117085.71196339 6233.05817134
0.27300001 115379.41268385 4742.09408572
0.27400001 113690.24306752 5158.69502332
0.27500001 112022.53019070 4637.73296938
0.27600001 110370.75782865 4585.90520481
0.27700001 108739.21232530 5441.31044228
0.27800001 107124.71209136 4483.16941320
0.27900001 105529.43605987 4432.23652428
0.28000001 103950.54818461 6134.12213869
0.28100001 102390.20951420 4331.10606744
0.28200001 100848.00238084 6421.49685553
0.28300001 99322.76235537  4654.26486426
0.28400001 97814.67494048  5436.05081711
0.28500001 96324.27715684  4545.54285418
0.28600001 94850.93054380  4083.33275318
0.28700001 93394.44202948  5648.49612130
0.28800001 91954.34745466  3986.22115084
0.28900001 90532.66737682  5513.43970422
0.29000001 89126.20170522  6613.61011059
0.29100001 87737.17614304  3842.88849697
0.29200001 86364.54296302  3795.72184290
0.29300001 85008.37074087  4123.75625984
0.29400001 83667.77405624  4072.52909497
0.29500001 82344.46355135  5118.53209665
0.29600001 81036.67220034  5415.27587613
0.29700001 79744.96008432  3921.05987296
0.29800001 78469.12379814  4575.14247963
0.29900001 77209.65412156  3821.87805994
0.30000001 75965.24978921  3772.81430938
0.30100001 74737.58408508  4401.29653513
0.30200001 73523.77859634  4678.31825356
0.30300001 72326.89233774  4617.34902543
0.30400001 71145.54259974  4231.38134644
0.30500001 69979.13969789  3533.24693062
0.30600001 68827.03584454  3486.43366576
0.30700001 67691.45619545  3127.34542429
0.30800001 66570.42899327  4011.20138889
0.30900001 65464.43351853  3957.32519355
0.31000001 64373.76839271  4204.25101278
0.31100001 63296.97247111  4147.21783266
0.31200001 62235.79980487  3506.36512702
0.31300001 61188.66287008  4034.78062068
0.31400001 60157.34295515  3695.16496597
0.31500001 59139.42408431  3644.17148462
0.31600002 58136.49018320  2764.39023910
0.31700002 57147.71531254  3271.13537937
0.31800002 56173.40801218  3763.05678091
0.31900002 55213.35909878  2650.24136223
0.32000002 54267.55159087  2874.28100611
0.32100002 53335.16796349  2833.69760808
0.32200002 52418.04440140  2793.61980865
0.32300002 51513.05427207  3004.24146740
0.32400002 50622.67538935  2961.42665050
0.32500002 49745.78446976  2675.82587333
0.32600002 48882.90098185  2877.24768804
0.32700002 48033.02291338  3072.19229102
0.32800002 47197.32947006  2795.02598357
0.32900002 46374.23149954  2525.07702472
0.33000002 45565.39763126  4524.64419904
0.33100002 44767.22140343  2229.40773146
0.33200002 43985.31072342  3515.30619948
0.33300002 43214.83806617  3247.59523446
0.33400002 42457.73040845  2560.20126487
0.33500002 41712.42312992  2312.53684784
0.33600002 40980.86173411  3314.53225402
0.33700002 40260.99378178  2857.72547396
0.33800002 39554.46034489  2212.47884417
0.33900002 38859.47986819  2576.38363727
0.34000002 38177.32119492  2148.04707876
0.34100002 37506.95802387  2501.33914907
0.34200002 36849.44889634  2654.26592971
0.34300002 36202.93603937  2615.30022334
0.34400002 35569.47975340  2024.79273086
0.34500002 34946.91112320  1995.11925051
0.34600002 34337.09435390  2680.86876865
0.34700002 33737.10388267  2289.39997791
0.34800002 33150.28554265  2082.50103642
0.34900002 32573.95531894  2223.17255581
0.35000002 32009.00245909  1853.80146522
0.35100002 31455.87295813  2159.13122211
0.35200002 30912.31078839  1636.80693377
0.35300002 30380.33253500  2581.11317442
0.35400002 29859.47020182  3498.03709982
0.35500002 29349.21120864  2507.59672444
0.35600002 28848.68703106  2162.78616916
0.35700002 28359.24560339  1827.46987324
0.35800002 27880.52124972  2552.32243870
0.35900002 27411.79286187  2220.35532698
0.36000002 26953.43256128  1751.43413079
0.36100002 26504.33720450  2590.53404107
0.36200002 26066.42232417  1419.31676278
0.36300002 25637.09956209  1679.74284287
0.36400002 25217.51003845  2070.98811000
0.36500002 24807.28859233  1906.68829152
0.36600002 24406.94364885  1477.96254266
0.36700002 24015.31443328  1458.20996146
0.36800002 23634.33594568  1831.42477918
0.36900002 23261.36270533  1807.40796782
0.37000002 22896.98128495  1656.48218953
0.37100002 22541.41288470  1383.59198840
0.37200002 22195.38461182  1366.01501064
0.37300002 21857.33527601  1471.43588048
0.37400002 21527.74788738  1332.02946363
0.37500002 21207.00125818  1315.68242038
0.37600002 20894.41553519  1654.21095628
0.37700002 20589.56394648  1751.14249660
0.37800002 20292.62909159  1384.36322221
0.37900002 20004.12174656  2052.42298843
0.38000002 19723.32830789  1465.34474605
0.38100002 19449.21513888  1894.54813643
0.38200002 19183.59196628  1102.09741067
0.38300002 18924.80395891  1417.08938758
0.38400002 18674.03996769  1186.26844515
0.38500002 18429.27626921  1173.76066119
0.38600002 18192.76727339  1161.69920928
0.38700002 17962.48915684  1463.58368584
0.38800002 17739.20449069  1138.59089418
0.38900002 17522.05951481  1127.54458320
0.39000002 17312.63916889  1523.07950304
0.39100002 17108.59264203  1609.57647202
0.39200002 16911.59469327  1196.32626528
0.39300002 16720.41041018  1086.99393226
0.39400002 16536.70365364  1273.73965927
0.39500002 16357.72427892  1360.30841548
0.39600002 16184.88887406  963.81017811
0.39700002 16017.75146723  1147.51176948
0.39800002 15856.51457167  1138.81493049
0.39900002 15700.76146916  1318.86402590
0.40000002 15550.29739407  1028.88547583
0.40100002 15405.55097330  1579.22310510
0.40200002 15266.18386296  1384.26128736
0.40300002 15131.35395058  1100.35211142
0.40400002 15002.14511957  1002.51839511
0.40500002 14877.83779197  1177.87847380
0.40600002 14758.48636548  1081.20676236
0.40700002 14643.61462851  1075.42710927
0.40800002 14533.67784139  980.80529560
0.40900002 14427.96249447  1153.51565609
0.41000002 14327.16656324  971.59684652
0.41100002 14230.53677960  967.39193611
0.41200002 14137.73926746  1050.99958694
0.41300002 14049.99059310  872.50445717
0.41400002 13965.67761188  1130.17251429
0.41500002 13885.63392254  1039.75631739
0.41600002 13808.90258285  1036.49627698
0.41700002 13736.36836427  1464.15957333
0.41800002 13668.47210407  1030.87621494
0.41900002 13602.33883373  1114.03160327
0.42000002 13540.82087009  1026.12345416
0.42100002 13483.02421528  853.47547327
0.42200002 13428.61372388  1022.45469739
0.42300002 13376.94628272  935.85120628
0.42400002 13328.33071537  1444.45790972
0.42500002 13283.40588300  1018.57161137
0.42600002 13240.48115098  1272.07928686
0.42700002 13201.91693935  1271.34466150
0.42800002 13165.03803325  931.88726134
0.42900002 13132.27204517  1016.43790446
0.43000002 13101.57532338  1016.42026175
0.43100002 13072.62197141  847.10594389
0.43200002 13047.33648039  1949.07645249
0.43300002 13024.29635447  1102.24625271
0.43400002 13003.68247454  1018.18838601
0.43500002 12985.21945236  934.15673167
0.43600002 12969.46200994  1360.23724006
0.43700002 12955.28161827  1106.51065545
0.43800002 12943.29671338  1278.47419345
0.43900002 12933.99104511  939.00779437
0.44000002 12926.24262304  940.57808904
0.44100002 12920.76793365  1284.97043190
0.44200002 12916.92020366  944.16232703
0.44300002 12915.08849884  946.15942826
0.44400002 12915.31834385  1034.51704837
0.44500002 12916.00736048  1036.89712004
0.44600002 12918.75360400  1299.30370530
0.44700002 12924.07457737  1129.04720859
0.44800002 12929.40094054  1393.27231138
0.44900002 12937.78644865  1397.28100267
0.45000002 12946.99805762  1401.38313617
0.45100002 12957.28083087  1054.20441836
0.45200002 12968.96222169  1057.48922967
0.45300002 12981.75564395  972.46336138
0.45400002 12996.00928740  1419.16428144
0.45500002 13011.45056059  1067.97991263
0.45600002 13027.75598097  893.05271482
0.45700002 13045.23188700  1254.69046236
0.45800002 13063.21401202  1169.22302556
0.45900002 13082.51269720  1083.23210267
0.46000002 13103.27669692  996.70078919
0.46100002 13123.75451035  1091.37147681
0.46200002 13146.02643119  1369.48736838
0.46300002 13168.99918814  1008.21862563
0.46400002 13191.86843533  1380.19930046
0.46500002 13216.12473770  1108.56859554
0.46600002 13240.69679386  1113.01302524
0.46700002 13265.77672133  1303.76059797
0.46800002 13292.17643432  935.10465647
0.46900002 13318.08922959  1032.81786871
0.47000002 13344.89166804  1131.37996924
0.47100002 13372.21939719  1514.80508511
0.47200002 13400.07641756  1045.80901358
0.47300002 13428.41064976  1241.18805519
0.47400002 13456.39156867  1342.27512260
0.47500002 13485.08044586  1444.25218421
0.47600002 13514.62025561  1063.66823763
0.47700002 13543.43064571  1165.27682799
