# SAXS profile: number of points = 501, q_min = 0, q_max = 0.5, delta_q = 0.001
#    q    intensity    error
0.00000000 1664650.74656090 274.66737318
0.00100000 1664564.69131308 599.24330310
0.00200000 1664306.48614752 898.72553098
0.00300000 1663876.35484870 1197.99101817
0.00400000 1663274.16495585 1372.20123823
0.00500000 1662500.56458429 2244.37585102
0.00600000 1661555.43227916 2268.02325740
0.00700000 1660439.45071931 1992.52742367
0.00800000 1659152.42028077 2239.85586195
0.00900000 1657695.81534097 2983.85259517
0.01000000 1656068.93131434 3005.76524012
0.01100000 1654273.31346264 5359.84576898
0.01200000 1652308.99825816 3544.20295666
0.01300000 1650177.17835476 4851.52111834
0.01400000 1647878.14551234 4078.49859095
0.01500000 1645413.34666776 4738.79064942
0.01600000 1642782.48322828 5026.91462340
0.01700000 1639987.69022378 4870.76365846
0.01800000 1637029.53017079 5598.64124511
0.01900000 1633909.02663986 5391.90003121
0.02000000 1630626.76440625 5650.12199425
0.02100000 1627185.61594847 5906.68405369
0.02200000 1623584.15432236 7281.77526296
0.02300000 1619825.50215481 6414.50928051
0.02400000 1615910.10235827 9089.49474022
0.02500000 1611840.57674811 8172.03209733
0.02600000 1607617.22894344 9115.19010502
0.02700000 1603241.90563084 8753.70120567
0.02800000 1598714.97810030 9736.17466313
0.02900000 1594040.09439707 7890.49882955
0.03000000 1589217.60041542 9606.82083609
0.03100000 1584249.11930125 8364.83573480
0.03200000 1579136.07828028 9380.06873701
0.03300000 1573882.42169825 9632.16086484
0.03400000 1568486.67370766 9881.46650029
0.03500000 1562952.83472182 9283.94026696
0.03600000 1557281.62645208 9507.20476885
0.03700000 1551476.02969573 10612.09653390
0.03800000 1545537.43985375 9041.39444158
0.03900000 1539468.70068681 10160.49389507
0.04000000 1533269.53862206 10372.56890943
0.04100000 1526944.18707507 12505.67347199
0.04200000 1520494.18650105 13730.06314108
0.04300000 1513921.07155262 14987.81930407
0.04400000 1507228.17596112 16278.06505637
0.04500000 1500417.41385800 12423.45676400
0.04600000 1493489.33765165 12634.92038389
0.04700000 1486448.23181877 11772.67054353
0.04800000 1479295.52198938 11960.10485177
0.04900000 1472033.79144780 16560.38092463
0.05000000 1464665.13591050 12325.15769262
0.05100000 1457193.15602612 17049.16071972
0.05200000 1449616.82283443 12676.89970645
0.05300000 1441942.04159570 12847.70418955
0.05400000 1434169.57077510 14198.27941279
0.05500000 1426302.87200815 17971.41702566
0.05600000 1418343.16262532 15764.88498824
0.05700000 1410294.91777809 24539.13271479
0.05800000 1402157.72187575 18613.64462702
0.05900000 1393935.47331170 22581.75572235
0.06000000 1385631.81637429 19017.79756823
0.06100000 1377248.14860183 15370.09005666
0.06200000 1368787.23436422 15522.04796325
0.06300000 1360252.38085722 13058.42346678
0.06400000 1351642.85165453 13178.51841995
0.06500000 1342965.54695334 18613.50335147
0.06600000 1334220.75695491 18772.48692869
0.06700000 1325410.52690691 14871.10680785
0.06800000 1316538.72724354 21801.88234368
0.06900000 1307608.89548740 13729.89404544
0.07000000 1298620.40199588 15213.33872180
0.07100000 1289578.04789205 18105.67664043
0.07200000 1280483.51242889 18227.68365333
0.07300000 1271340.36999213 16934.25452176
0.07400000 1262151.46310980 14199.20462542
0.07500000 1252917.09773172 15711.58114200
0.07600000 1243640.86129023 24418.88945621
0.07700000 1234326.47464040 17329.94451653
0.07800000 1224974.83684527 15967.54774710
0.07900000 1215588.34486329 16045.76690480
0.08000000 1206171.97328137 17585.98819542
0.08100000 1196726.35945208 22079.60236783
0.08200000 1187253.21175605 20693.82445197
0.08300000 1177755.36176377 19291.63373109
0.08400000 1168236.43464941 17874.01828912
0.08500000 1158697.98147174 19431.36606149
0.08600000 1149142.76049478 19495.20784712
0.08700000 1139572.37790133 16546.59170412
0.08800000 1129989.32645282 16593.89403827
0.08900000 1120396.45562373 19662.95871976
0.09000000 1110796.27871833 16678.60690844
0.09100000 1101190.35210986 27353.56963151
0.09200000 1091580.44352803 19795.81227352
0.09300000 1081971.18067874 21358.11211026
0.09400000 1072361.05701209 16809.26035866
0.09500000 1062754.20948447 22955.49200383
0.09600000 1053152.66828527 24517.39527019
0.09700000 1043560.64470680 18408.41063806
0.09800000 1033977.55873798 19960.93770995
0.09900000 1024406.74841798 21512.54272835
0.10000000 1014848.21151722 15374.95112753
0.10100000 1005305.63403991 16919.29461664
0.10200000 995780.66160332 16923.29313996
0.10300000 986274.94260273 23078.83474255
0.10400000 976791.22995133 21538.24763370
0.10500000 967332.25342950 16918.64190849
0.10600001 957894.68346077 21523.89455014
0.10700001 948486.88783127 24584.78128949
0.10800001 939105.74863510 26102.44551174
0.10900001 929756.25195888 19943.27254316
0.11000001 920438.42448248 19922.89063568
0.11100001 911153.50980636 16838.11765385
0.11200001 901904.53570638 16816.01085989
0.11300001 892691.44920949 16791.52695019
0.11400001 883516.72059558 21336.92980702
0.11500001 874382.57483778 18257.10902230
0.11600001 865289.29046495 16704.41053906
0.11700001 856238.90565661 18186.51521264
0.11800001 847231.48875199 19660.00762244
0.11900001 838268.91676952 25651.03006135
0.12000001 829352.70226618 18063.30270623
0.12100001 820485.69142745 19519.35551858
0.12200001 811666.89920940 17970.30599510
0.12300001 802898.99233046 16427.31415704
0.12400001 794181.63125895 16379.99691650
0.12500001 785515.78181112 19300.12366853
0.12600001 776905.10417877 16280.04722524
0.12700001 768348.29250719 17702.74549363
0.12800001 759846.53461657 17643.63736533
0.12900001 751401.29627430 16117.55856474
0.13000001 743013.47747284 16060.23707257
0.13100001 734682.92989155 18910.73950682
0.13200001 726411.34788792 15941.09778087
0.13300001 718200.66846042 14435.83411660
0.13400001 710049.23958237 14378.49777943
0.13500001 701959.70492344 20047.97011784
0.13600001 693931.24568201 21390.43165672
0.13700001 685965.97822687 17039.39570262
0.13800001 678062.45853491 24033.92497611
0.13900001 670223.82799894 19704.58147240
0.14000001 662448.91542928 15411.87474430
0.14100001 654738.54841765 23708.08395635
0.14200001 647092.74947451 18044.18217016
0.14300001 639513.80050011 17957.54836506
0.14400001 631998.25929853 16495.15534577
0.14500001 624550.59291557 16413.19035607
0.14600001 617168.96317482 21773.72204797
0.14700001 609855.72417062 13538.79771530
0.14800001 602606.80637894 17508.74158538
0.14900001 595426.32568091 13397.09295991
0.15000001 588312.92597855 13325.28840214
0.15100001 581267.53090204 19879.35049486
0.15200001 574289.97425380 14497.95108415
0.15300001 567381.29127960 24902.36604938
0.15400001 560537.96172254 16942.26069259
0.15500001 553764.37869375 12958.08707296
0.15600001 547056.16433864 18036.44258947
0.15700001 540419.34597860 17931.11474586
0.15800001 533846.72016242 14005.46936450
0.15900001 527344.25730655 13921.88905001
0.16000001 520907.03407423 16353.87710670
0.16100001 514540.33258015 22505.99520943
0.16200001 508239.72081487 19882.33881684
0.16300001 502006.13223078 13584.28657945
0.16400001 495839.73684361 15953.64428611
0.16500001 489739.69216989 13413.97080182
0.16600001 483707.09656467 12116.86334102
0.16700001 477739.21700680 13242.93172069
0.16800001 471837.09706155 13157.17807280
0.16900001 466002.65521364 11883.06826904
0.17000001 460232.06589554 15346.43896194
0.17100001 454526.41783892 11726.78213400
0.17200001 448885.90190856 13978.30764553
0.17300001 443309.74129093 13884.46175292
0.17400001 437797.44993354 13790.62032418
0.17500001 432348.46497820 12555.40001593
0.17600001 426961.03051120 12469.39748500
0.17700001 421638.32204004 18012.38996829
0.17800001 416375.87793036 16769.53927571
0.17900001 411176.11519755 11101.75563471
0.18000001 406037.34886132 12126.30599653
0.18100001 400960.77155392 15324.72141268
0.18200001 395941.68968675 16302.89984297
0.18300001 390983.49009895 11870.25932015
0.18400001 386083.95171026 17142.12826574
0.18500001 381244.60229649 14891.41486920
0.18600001 376461.58999886 10559.74809835
0.18700001 371736.03196727 12579.54791609
0.18800001 367067.23981796 10406.35674050
0.18900001 362456.86936751 12396.02551805
0.19000001 357898.23218232 10253.78483650
0.19100001 353399.23144975 17302.42718932
0.19200001 348951.69949586 12122.58261329
0.19300001 344560.54485326 21056.09589094
0.19400001 340220.87174748 11941.75316263
0.19500001 335935.01934812 10864.13903910
0.19600001 331701.13111609 12742.29955398
0.19700001 327518.31584479 10700.02388431
0.19800001 323387.13132201 9653.10632616
0.19900001 319306.56938937 14368.79630159
0.20000001 315274.65417204 13307.74378154
0.20100001 311293.13364375 9432.18239519
0.20200001 307358.81074225 14038.61434417
0.20300001 303473.90964157 9286.30207395
0.20400001 299635.65792211 11056.55629992
0.20500001 295843.86718530 10055.73352093
0.20600001 292098.24005709 10883.58093897
0.20700001 288398.55864884 12597.24963724
0.20800001 284742.57509198 13390.02022665
0.20900001 281133.49161641 9741.27594499
0.21000001 277565.75840000 11420.44366924
0.21100001 274041.85360289 9585.98449219
0.21200001 270560.28522355 14695.48258664
0.21300001 267119.58060933 9431.99283722
0.21400001 263721.27460104 10206.01380957
0.21500001 260364.68118293 9279.39767607
0.21600001 257046.99887708 9203.56822993
0.21700001 253769.36298223 9957.91027423
0.21800001 250530.67755107 11521.90640534
0.21900001 247329.65215677 10610.44257920
0.22000001 244166.42324170 9712.94077581
0.22100001 241042.07403153 9632.04173374
0.22200001 237954.36524948 11143.40345154
0.22300001 234901.64745225 9471.23487313
0.22400001 231884.51160431 10956.54369140
0.22500001 228904.72436731 13191.77988909
0.22600001 225957.44090371 10002.00659458
0.22700001 223046.52988654 12205.10669256
0.22800001 220168.12763964 7562.77554207
0.22900001 217322.13928241 8997.13699177
0.23000001 214510.14652953 8176.05462163
0.23100001 211730.93954941 7368.23704478
0.23200001 208981.89281082 10225.48449883
0.23300001 206264.79832091 8687.87371617
0.23400001 203579.27427937 10764.25463662
0.23500001 200922.35386111 9246.44716201
0.23600001 198297.08593769 8459.35408620
0.23700001 195700.79359478 7685.17052796
0.23800001 193133.72173287 9000.99752710
0.23900001 190595.10539162 8919.85135423
0.24000001 188084.68556050 6799.26170462
0.24100001 185603.27949322 12127.31885572
0.24200001 183148.90781467 9346.08920787
0.24300001 180721.63656692 6614.41221123
0.24400001 178320.84897662 10485.26641582
0.24500001 175946.63438001 6492.43111574
0.24600001 173598.57647477 8361.37583144
0.24700001 171276.40150069 7008.63068096
0.24800001 168979.78163827 7573.67417131
0.24900001 166707.19287492 10002.43204568
0.25000001 164460.41166235 6191.93479202
0.25100001 162236.59887052 9198.81559114
0.25200001 160038.92018223 7288.17276990
0.25300001 157864.65987371 9021.96573862
0.25400001 155713.30948768 8338.44811757
0.25500001 153585.01731638 7666.96442717
0.25600001 151480.26559407 9343.30322390
0.25700001 149397.65849278 8672.53448583
0.25800001 147337.89702274 5724.07757016
0.25900001 145300.45521925 6233.38982384
0.26000001 143284.80295424 8414.40045162
0.26100001 141290.02871427 7773.77774768
0.26200001 139318.01421059 8244.14388100
0.26300001 137366.16337292 5439.70032696
0.26400001 135435.69234343 6998.63973301
0.26500001 133526.39134647 5327.70326683
0.26600001 131636.69717001 7908.07495670
0.26700001 129768.39161015 7303.36542542
0.26800001 127920.56886659 7226.23327723
0.26900001 126091.43027725 5617.37348467
0.27000001 124283.19069553 6062.53432902
0.27100001 122493.91494386 4997.75196622
0.27200001 120725.55163262 8404.30967463
0.27300001 118975.45217571 7823.82610533
0.27400001 117242.72505535 6770.76769237
0.27500001 115531.82804151 7174.52686091
0.27600001 113837.16162123 5675.92114705
0.27700001 112163.15431144 6080.36488299
0.27800001 110506.39178216 6012.10052944
0.27900001 108869.18184125 6858.75878061
0.28000001 107248.83004827 4972.59224053
0.28100001 105647.29941017 5809.54526953
0.28200001 104064.20594660 6626.28862727
0.28300001 102498.41610207 5239.71927913
0.28400001 100950.17768588 5178.74436040
0.28500001 99419.88475939  4691.62458386
0.28600001 97907.02874171  4636.38756551
0.28700001 96411.32876822  4997.96351991
0.28800001 94932.23791396  6996.03160421
0.28900001 93472.11952649  4472.64113105
0.29000001 92027.37848939  4418.69478732
0.29100001 90600.51218652  4761.96314593
0.29200001 89190.31227483  5879.87161504
0.29300001 87796.86357452  4259.02605360
0.29400001 86419.33879248  3824.05592258
0.29500001 85059.53411291  5664.96524008
0.29600001 83715.45445137  6340.19024300
0.29700001 82387.71993187  5155.82375740
0.29800001 81076.29292022  5818.03505537
0.29900001 79781.59360801  5026.24063524
0.30000001 78502.15256557  4607.68406296
0.30100001 77239.76055707  3498.96131888
0.30200001 75991.72888260  3799.20666534
0.30300001 74760.82213474  4431.82174596
0.30400001 73545.63583253  4374.12689822
0.30500001 72345.83059974  3984.80853808
0.30600001 71160.69190968  5243.12002813
0.30700001 69992.35113087  3233.64677534
0.30800001 68838.81932499  3509.74736945
0.30900001 67700.71556249  3777.70010724
0.31000001 66578.23738161  3105.87492090
0.31100001 65469.99612644  3676.79515654
0.31200001 64377.47708744  3022.52269236
0.31300001 63299.53441517  3279.54903332
0.31400001 62237.58860110  4117.01668089
0.31500001 61189.32621098  3770.48645964
0.31600002 60156.36726410  3146.47893873
0.31700002 59137.88657625  3667.14052023
0.31800002 58134.24146734  3616.24066170
0.31900002 57145.15718536  3291.56120973
0.32000002 56170.49864448  3515.99252913
0.32100002 55209.55121121  3999.93217465
0.32200002 54264.28173010  2629.10457431
0.32300002 53331.29946511  3369.47165975
0.32400002 52413.28776514  3321.69226940
0.32500002 51509.12109923  3022.55536923
0.32600002 50619.18606569  3972.59391055
0.32700002 49742.51542239  2447.33187467
0.32800002 48880.36905405  3618.36949057
0.32900002 48031.10331168  2377.53972651
0.33000002 47196.27466121  2811.95417747
0.33100002 46372.59366742  3002.16185619
0.33200002 45565.24220101  3186.37753801
0.33300002 44769.73408441  2915.85291900
0.33400002 43987.82575733  2210.38834898
0.33500002 43218.04742649  2396.00866279
0.33600002 42462.20425653  2361.11097950
0.33700002 41718.32936726  2538.14327890
0.33800002 40988.29980372  2501.10617247
0.33900002 40269.76787533  2053.75825890
0.34000002 39564.52252042  2428.47050731
0.34100002 38871.23598758  2392.91340072
0.34200002 38191.16029218  2554.41587712
0.34300002 37522.24609672  2129.76278931
0.34400002 36866.76237112  2098.64054737
0.34500002 36222.33454938  3195.89672865
0.34600002 35590.83358005  2037.75327313
0.34700002 34969.60858306  2007.95501994
0.34800002 34361.66232229  3058.01628320
0.34900002 33764.52004624  1772.63738638
0.35000002 33179.08176663  1921.56661152
0.35100002 32605.54730868  2065.88757532
0.35200002 32042.05218761  2035.95209243
0.35300002 31490.25987341  1839.34616632
0.35400002 30949.70945068  1812.87931694
0.35500002 30420.25576610  2111.77425530
0.35600002 29900.64832341  1761.29777291
0.35700002 29392.34959070  2209.71694689
0.35800002 28894.91360014  2178.38763949
0.35900002 28407.92399815  2301.04195284
0.36000002 27931.50513544  1663.74018220
0.36100002 27464.50130774  2236.98373747
0.36200002 27008.87038856  1617.69636855
0.36300002 26562.13791702  1450.29279897
0.36400002 26125.39186580  2574.65749033
0.36500002 25698.15944643  2257.32643270
0.36600002 25281.11385831  1391.72538382
0.36700002 24872.99694287  1784.88634517
0.36800002 24475.73103274  1490.20495452
0.36900002 24086.70009515  1737.85549419
0.37000002 23706.44382352  1583.11639353
0.37100002 23335.23301396  1562.52727663
0.37200002 22973.76017706  1542.45833135
0.37300002 22620.44481784  1649.70911871
0.37400002 22275.90958253  1628.92596539
0.37500002 21940.32547897  1608.66474032
0.37600002 21613.20124319  1833.33988230
0.37700002 21293.92935982  1448.83902228
0.37800002 20982.88556911  1550.74023145
0.37900002 20680.49789809  1296.66727964
0.38000002 20385.92583452  1281.56128830
0.38100002 20098.21187604  1151.62759505
0.38200002 19819.20280794  1935.64253394
0.38300002 19547.22587612  1125.92026380
0.38400002 19283.49433709  1670.43277609
0.38500002 19025.99373350  1542.24712510
0.38600002 18777.03846579  1744.01141532
0.38700002 18534.17783595  1618.03380173
0.38800002 18298.78309392  1174.50744853
0.38900002 18069.57100578  1268.48394470
0.39000002 17848.36140957  1360.84838014
0.39100002 17632.71807188  1244.16464610
0.39200002 17424.19483769  1232.58760121
0.39300002 17221.71998543  1832.04665885
0.39400002 17026.88171559  1614.14846311
0.39500002 16837.01646840  1300.15447329
0.39600002 16653.42618857  991.71157651
0.39700002 16475.71259243  1180.32010604
0.39800002 16304.12353133  1170.96220750
0.39900002 16138.01079771  1452.42104061
0.40000002 15977.52862687  1441.57258866
0.40100002 15822.91232657  954.12165850
0.40200002 15673.79616151  1136.97722743
0.40300002 15529.41159905  941.08238749
0.40400002 15390.73774357  1402.48104333
0.40500002 15257.20369479  1022.08012394
0.40600002 15128.69097909  1015.96729084
0.40700002 15004.99319931  1101.96675277
0.40800002 14886.17448765  1095.92021771
0.40900002 14771.89838959  999.31897341
0.41000002 14662.70260659  1355.93348779
0.41100002 14557.64978927  989.62907957
0.41200002 14456.73389206  985.15417775
0.41300002 14360.95176197  1159.35969068
0.41400002 14268.80041190  977.05615450
0.41500002 14181.02281793  1150.36462550
0.41600002 14096.65868389  881.74604246
0.41700002 14016.68059472  878.84591493
0.41800002 13941.42899960  876.21885414
0.41900002 13868.11144260  1397.90569965
0.42000002 13799.61811337  1220.02429521
0.42100002 13734.89887118  1217.18679564
0.42200002 13673.73260943  1127.87788773
0.42300002 13615.34272225  1212.31017343
0.42400002 13560.28776192  1296.70257868
0.42500002 13508.92541444  1035.86444986
0.42600002 13459.77505368  1034.51835965
0.42700002 13415.03205655  1205.74313838
0.42800002 13372.33980748  946.56111813
0.42900002 13333.59932148  860.01719699
0.43000002 13297.12196387  1117.55666841
0.43100002 13262.55712648  1031.29649103
0.43200002 13231.75293661  1289.10359094
0.43300002 13203.33960451  1461.21366328
0.43400002 13177.41807018  1031.79188379
0.43500002 13153.76717590  860.25641407
0.43600002 13133.00487379  1033.04221233
0.43700002 13113.89657381  947.74135030
0.43800002 13097.00058451  1034.92503523
0.43900002 13082.99626162  949.82557361
0.44000002 13070.61975002  1037.54584493
0.44100002 13060.63114469  952.51187452
0.44200002 13052.34055905  1040.79368550
0.44300002 13046.17961459  1042.65072421
0.44400002 13042.18256666  1218.79201861
0.44500002 13038.70499341  1482.89198918
0.44600002 13037.46744530  1223.82712709
0.44700002 13038.84199375  1139.07329056
0.44800002 13040.39968130  1053.92515219
0.44900002 13045.06755770  1232.75894263
0.45000002 13050.63998371  1324.31375511
0.45100002 13057.36352476  1239.40500451
0.45200002 13065.66134445  1154.15524956
0.45300002 13075.04731669  1246.57507025
0.45400002 13086.02355932  1428.99384040
0.45500002 13098.27057755  1164.69827495
0.45600002 13111.54400733  898.79638430
0.45700002 13126.00334502  1082.10776705
0.45800002 13141.06700419  904.76250612
0.45900002 13157.42841159  1906.51146720
0.46000002 13175.42404909  1548.83704750
0.46100002 13193.18637721  1097.14543113
0.46200002 13212.87361333  1009.39752753
0.46300002 13233.26819040  1105.24261165
0.46400002 13253.71077251  1109.33564424
0.46500002 13275.57211582  1206.35129534
0.46600002 13297.79462639  931.51055773
0.46700002 13320.53361498  1028.61165450
0.46800002 13344.79052197  1314.32848080
0.46900002 13368.61034439  942.48707395
0.47000002 13393.37016987  1230.11414155
0.47100002 13418.65144027  1235.05273710
0.47200002 13444.65299569  953.89817526
0.47300002 13471.17496339  1149.36070235
0.47400002 13497.35901385  1154.02425038
0.47500002 13524.35401047  1834.71395202
0.47600002 13552.21829953  969.66126529
0.47700002 13579.44626388  973.64634327
