# SAXS profile: number of points = 501, q_min = 0, q_max = 0.5, delta_q = 0.001
#    q    intensity    error
0.00000000 1682732.95097188 403.85590823
0.00100000 1682646.36755057 504.79392225
0.00200000 1682386.58005286 1211.31837599
0.00300000 1681953.80816016 1311.92401710
0.00400000 1681347.92350280 1387.11208960
0.00500000 1680569.58693443 2117.51776335
0.00600000 1679618.63898554 1939.95960701
0.00700000 1678495.81090166 2215.61456247
0.00800000 1677200.87917388 2943.48766722
0.00900000 1675735.30390447 2764.96336964
0.01000000 1674098.40417536 4419.61997786
0.01100000 1672291.76769021 3913.16290677
0.01200000 1670315.35848313 4559.96112858
0.01300000 1668170.40778224 7706.94762387
0.01400000 1665857.20688325 5997.08621064
0.01500000 1663377.18990048 5189.73706358
0.01600000 1660730.06995727 5081.83424124
0.01700000 1657918.02734257 4924.01676209
0.01800000 1654941.60145702 7074.87566458
0.01900000 1651801.75116108 6937.56766792
0.02000000 1648499.15971057 5192.77258799
0.02100000 1645036.62073834 5971.48320402
0.02200000 1641412.82710215 5662.87451078
0.02300000 1637630.79192883 11790.94223859
0.02400000 1633691.03861361 7964.24417639
0.02500000 1629596.13796184 7626.51027397
0.02600000 1625346.43698363 6582.65337086
0.02700000 1620943.71597326 7488.76031079
0.02800000 1616388.49160263 9140.67733920
0.02900000 1611684.27550504 7252.57957277
0.03000000 1606831.44288283 11954.82648456
0.03100000 1601831.76600565 9995.43067980
0.03200000 1596686.47250107 11065.03776407
0.03300000 1591399.65159062 10550.98017645
0.03400000 1585969.87728020 9991.61068788
0.03500000 1580400.92962564 13654.66466251
0.03600000 1574693.69121756 9613.50542916
0.03700000 1568851.18478307 12519.43303356
0.03800000 1562874.79648397 9142.81798256
0.03900000 1556767.30907560 13076.84600182
0.04000000 1550528.52416493 10489.32595204
0.04100000 1544162.54396627 11673.86937366
0.04200000 1537671.16100524 9917.97944861
0.04300000 1531055.81700144 12125.96263351
0.04400000 1524319.53825551 10289.15736107
0.04500000 1517464.77126110 13611.65963068
0.04600000 1510491.83463282 12778.76151504
0.04700000 1503404.88372607 16236.77349938
0.04800000 1496205.52848897 14296.24448989
0.04900000 1488896.35829970 16750.08481055
0.05000000 1481479.33509272 16999.97616181
0.05100000 1473958.31067184 14945.93796645
0.05200000 1466332.04322125 17486.01043028
0.05300000 1458606.74039288 14177.65817755
0.05400000 1450782.64491338 11968.95737869
0.05500000 1442863.73799551 13332.06156101
0.05600000 1434850.81426154 15948.36754473
0.05700000 1426748.86557060 12412.71570987
0.05800000 1418557.18403202 16320.50116433
0.05900000 1410279.49942043 16500.27091388
0.06000000 1401919.78878944 21806.86333341
0.06100000 1393479.44038475 15551.23128142
0.06200000 1384961.00829177 15705.45856816
0.06300000 1376368.04285892 14534.44721215
0.06400000 1367699.75572387 16002.08789033
0.06500000 1358962.76047668 14799.10515386
0.06600000 1350157.86355350 14925.99587995
0.06700000 1341286.78990378 16417.35107674
0.06800000 1332353.34533531 16547.82932365
0.06900000 1323361.49443186 20842.94451315
0.07000000 1314310.32419779 15397.14616900
0.07100000 1305204.41398043 15505.82916435
0.07200000 1296046.00275555 18449.21571351
0.07300000 1286838.24066343 22854.24822503
0.07400000 1277584.14247601 21559.23341464
0.07500000 1268284.05466613 18795.97057117
0.07600000 1258941.45503272 21811.16173096
0.07700000 1249560.17337624 17543.82565681
0.07800000 1240141.28282134 20573.94484685
0.07900000 1230686.84702722 20675.53999982
0.08000000 1221201.88634781 14837.60361517
0.08100000 1211687.45395971 16394.13202126
0.08200000 1202144.87549311 19456.71572287
0.08300000 1192577.06278118 18031.76603552
0.08400000 1182987.86176546 16591.40554004
0.08500000 1173378.60430749 18163.90164739
0.08600000 1163752.00500424 18224.35725403
0.08700000 1154110.00840671 16757.67810897
0.08800000 1144454.73979007 21389.86009122
0.08900000 1134789.28358972 19915.55286243
0.09000000 1125116.15681257 15357.83626193
0.09100000 1115436.98173008 18471.63728527
0.09200000 1105753.29690832 15425.25921665
0.09300000 1096069.98484942 17000.04626388
0.09400000 1086385.41569487 17029.09219134
0.09500000 1076703.83125272 20155.89666843
0.09600000 1067027.23729377 15525.24703243
0.09700000 1057359.77222708 17097.50832071
0.09800000 1047700.90965942 20225.86701195
0.09900000 1038054.15129772 18684.97560197
0.10000000 1028419.23895904 18696.66264353
0.10100000 1018799.98103558 15587.64044296
0.10200000 1009198.39890992 23388.17399483
0.10300000 999615.61186179 17153.40470646
0.10400000 990054.49879981 18712.03090763
0.10500000 980517.85457995 20267.30500773
0.10600001 971002.62488282 20259.97072148
0.10700001 961517.03430962 24922.52270210
0.10800001 952057.56593393 15566.14193559
0.10900001 942629.67467864 21774.74650992
0.11000001 933233.49187582 18646.00604534
0.11100001 923869.83849797 18625.21682087
0.11200001 914542.05876468 21702.08407616
0.11300001 905249.98470153 23219.66320079
0.11400001 895996.28894727 15455.93671207
0.11500001 886782.93806933 18516.02861877
0.11600001 877610.40800251 15402.06338575
0.11700001 868480.72099014 21520.95327966
0.11800001 859393.78094391 16874.19768358
0.11900001 850351.77333779 16836.96590514
0.12000001 841355.94088902 21378.85546504
0.12100001 832409.22448597 16756.39847827
0.12200001 823510.79632780 19751.90738046
0.12300001 814663.16003994 16668.00903972
0.12400001 805865.90531086 16620.98508018
0.12500001 797120.45543300 18078.69278110
0.12600001 788430.07462087 19525.47171809
0.12700001 779793.48305691 20960.84981238
0.12800001 771211.97583491 16415.24767928
0.12900001 762687.29189981 16359.64318232
0.13000001 754219.75089274 16302.46068396
0.13100001 745809.56058481 17720.43599479
0.13200001 737458.46502999 14712.29707089
0.13300001 729168.25056152 19053.16728540
0.13400001 720937.43546371 18978.67888334
0.13500001 712768.83977436 21810.72752543
0.13600001 704660.95432003 21721.17494108
0.13700001 696616.78127880 18745.95846815
0.13800001 688634.17302948 17229.62782167
0.13900001 680716.65461030 15724.55546304
0.14000001 672863.15265054 17077.26761964
0.14100001 665074.14893625 15582.68804450
0.14200001 657349.99362928 19740.22123974
0.14300001 649692.78834916 18243.37435734
0.14400001 642098.99683198 19551.91537580
0.14500001 634573.41885446 18066.30608701
0.14600001 627114.02820745 16593.43796915
0.14700001 619723.41858516 16509.43264997
0.14800001 612396.99991839 17793.19567209
0.14900001 605139.37611512 17700.32758648
0.15000001 597948.98853240 14897.89975221
0.15100001 590826.78003576 16165.02146452
0.15200001 583772.88748589 14737.34723999
0.15300001 576788.00973008 13323.80365350
0.15400001 569868.63558507 14574.39104287
0.15500001 563019.24974592 13174.65106581
0.15600001 556235.44894465 18339.08361722
0.15700001 549523.51053339 13023.70781432
0.15800001 542875.80329799 15537.10622372
0.15900001 536298.67635854 16732.51949217
0.16000001 529787.03264238 14073.79318646
0.16100001 523346.17161112 15260.77508455
0.16200001 516971.71329726 13903.95488548
0.16300001 510664.40075256 20099.75176249
0.16400001 504424.76304366 13732.96482219
0.16500001 498251.68796631 14887.76113930
0.16600001 492146.55634800 14793.92618229
0.16700001 486106.29365426 12249.87917846
0.16800001 480132.12555395 13388.48495323
0.16900001 474226.09910590 13302.04270802
0.17000001 468384.09270888 13215.45779981
0.17100001 462607.47583634 13128.80078419
0.17200001 456896.24131342 13042.10382418
0.17300001 451249.81006556 16488.66883846
0.17400001 445667.65543345 11698.77650762
0.17500001 440148.98291971 12781.92706765
0.17600001 434692.38247572 12695.19162979
0.17700001 429300.78515140 11462.33150492
0.17800001 423969.71664082 12521.94617242
0.17900001 418701.82815175 12435.44488348
0.18000001 413495.19204946 14594.31349275
0.18100001 408351.31672526 14492.38891515
0.18200001 403265.16827466 12176.59233125
0.18300001 398240.48488478 17586.30064328
0.18400001 393274.62753868 15278.72000166
0.18500001 388369.36161053 19503.91026149
0.18600001 383521.00011479 11833.54101760
0.18700001 378730.40310691 11748.21765942
0.18800001 373996.99058596 16964.50429449
0.18900001 369322.30060656 14735.96049044
0.19000001 364699.80145097 12538.37976631
0.19100001 360137.41947194 11409.15398795
0.19200001 355626.72105728 11324.93346719
0.19300001 351173.08138862 18394.44687232
0.19400001 346771.01271963 10143.05260135
0.19500001 342423.51998088 11073.97715948
0.19600001 338128.08608992 14987.52812419
0.19700001 333884.42222376 11899.64137040
0.19800001 329692.71780075 10825.46090059
0.19900001 325551.93052871 11719.87005291
0.20000001 321460.30158803 13568.83997131
0.20100001 317419.51034456 10579.59277980
0.20200001 313426.27470464 11452.59661900
0.20300001 309482.84380964 15152.28074909
0.20400001 305586.59913451 11276.14604104
0.20500001 301737.26733130 11188.41840149
0.20600001 297934.48556690 9250.86621412
0.20700001 294178.04554372 10096.19100030
0.20800001 290465.72073241 15480.37131819
0.20900001 286800.64680616 10841.06496174
0.21000001 283177.47943861 15236.36500145
0.21100001 279598.54484818 9780.35756114
0.21200001 276062.23398485 11466.24543062
0.21300001 272567.40746415 8749.41419323
0.21400001 269115.33448909 13018.45492138
0.21500001 265705.36820249 9469.73977044
0.21600001 262334.76396217 8538.99697068
0.21700001 259004.59890783 13551.12125555
0.21800001 255713.89323195 13440.32286374
0.21900001 252461.19687405 10830.58585798
0.22000001 249246.60029396 11567.53526659
0.22100001 246071.46772097 12291.27039384
0.22200001 242933.46332367 8938.73720566
0.22300001 239830.74372427 10475.80738123
0.22400001 236763.87332119 13584.32787416
0.22500001 233735.02621318 7923.61776331
0.22600001 230739.08397926 10213.66603533
0.22700001 227779.94612721 10906.10433631
0.22800001 224853.44901370 13902.68940998
0.22900001 221959.99646407 9189.14428818
0.23000001 219100.86904484 12906.13730144
0.23100001 216274.98918295 8279.00697746
0.23200001 213479.53847897 8953.33226724
0.23300001 210716.70323437 12573.46627665
0.23400001 207985.75514979 8797.79785893
0.23500001 205283.73080469 7993.74885561
0.23600001 202613.79703627 7202.92082532
0.23700001 199973.18797529 7852.94746322
0.23800001 197362.29610364 7782.98251497
0.23900001 194780.17211440 7713.29518057
0.24000001 192226.59829304 9033.68941408
0.24100001 189702.57432189 8952.06490569
0.24200001 187205.68032857 10235.47105612
0.24300001 184736.61723615 10142.04076601
0.24400001 182294.35308912 8709.11313081
0.24500001 179878.86868711 7965.03668225
0.24600001 177490.11472314 9864.01359236
0.24700001 175127.52549813 7817.69310806
0.24800001 172790.73400288 10325.97475250
0.24900001 170478.47891555 6392.94326177
0.25000001 168192.43659759 6332.44553748
0.25100001 165929.65689261 6272.14132727
0.25200001 163693.40069650 8075.81430543
0.25300001 161480.81670379 7998.14522973
0.25400001 159291.70086115 8530.07098468
0.25500001 157125.86670345 8447.08699363
0.25600001 154983.91556248 5974.63022761
0.25700001 152864.44879260 6507.43989299
0.25800001 150768.35877931 5857.35101571
0.25900001 148694.77755118 6379.00625877
0.26000001 146643.21363128 8037.51491943
0.26100001 144613.16263831 6251.62731666
0.26200001 142605.88491758 6750.96291143
0.26300001 140619.29170130 6682.22905783
0.26400001 138654.43249074 7164.96813799
0.26500001 136711.06228079 5454.77164312
0.26600001 134787.49225874 6477.88718449
0.26700001 132885.74921162 6944.60958242
0.26800001 131004.75826301 5814.64647066
0.26900001 129142.82161823 6799.36987996
0.27000001 127301.95732170 7244.75473402
0.27100001 125480.52428905 7679.40844990
0.27200001 123680.27558858 6584.11978254
0.27300001 121898.54383304 7014.04254409
0.27400001 120134.40533594 6442.20779102
0.27500001 118392.50443903 5881.73989889
0.27600001 116667.18528322 6301.77831131
0.27700001 114962.72747490 6232.12975136
0.27800001 113275.88247850 6162.77467791
0.27900001 111608.76580865 4687.56838582
0.28000001 109958.82792448 5561.71777965
0.28100001 108327.98845278 6873.41119264
0.28200001 106715.93399808 4983.10077389
0.28300001 105121.37693074 4925.98795612
0.28400001 103544.75804494 4869.19247753
0.28500001 101986.27419701 4375.21137014
0.28600001 100445.45027167 5621.42989053
0.28700001 98922.11529968  4700.77914154
0.28800001 97415.61425669  4222.96707791
0.28900001 95928.35944219  5007.46059990
0.29000001 94456.74769508  5359.94840167
0.29100001 93003.28991228  6110.31643647
0.29200001 91566.68254981  6036.53383284
0.29300001 90147.05451599  6360.77646774
0.29400001 88743.65428752  6283.05102097
0.29500001 87358.23908026  4266.57659865
0.29600001 85988.71359513  4596.95684640
0.29700001 84635.88183138  6053.15855512
0.29800001 83299.35047971  4483.17125505
0.29900001 81980.02402983  4058.01138158
0.30000001 80676.15235421  4735.28698660
0.30100001 79389.47387279  5034.88067136
0.30200001 78117.52951610  4260.53026150
0.30300001 76862.79301249  5607.90964368
0.30400001 75623.97021358  3805.77648117
0.30500001 74400.76903416  4097.99455241
0.30600001 73192.52002951  4718.72198970
0.30700001 72001.17221264  4657.03603919
0.30800001 70825.00854788  3611.01323177
0.30900001 69664.34810062  4211.21004206
0.31000001 68519.52588009  3835.72324037
0.31100001 67389.10886686  4415.33462200
0.31200001 66274.64367581  3733.91360148
0.31300001 65174.93685817  5525.53140845
0.31400001 64091.59273051  4239.65905986
0.31500001 63021.96025579  3584.68926907
0.31600002 61967.81868858  3535.88390179
0.31700002 60928.34428994  3487.53859228
0.31800002 59903.85843231  3153.03973788
0.31900002 58894.11148681  3109.60923374
0.32000002 57899.19364971  3066.63093686
0.32100002 56918.02590204  3573.88301561
0.32200002 55952.64249738  3253.08678883
0.32300002 54999.70483064  2672.98578134
0.32400002 54061.98678841  3162.62637688
0.32500002 53138.22334071  2858.30516884
0.32600002 52228.93287726  3074.19513473
0.32700002 51333.12384594  4293.50268178
0.32800002 50451.82937794  3236.73726701
0.32900002 49583.66160612  3190.70877545
0.33000002 48730.21665067  3871.12859404
0.33100002 47887.97654011  2861.78561356
0.33200002 47062.17263419  2585.83119784
0.33300002 46248.35754446  3707.26851632
0.33400002 45448.44104591  2740.54112485
0.33500002 44660.58126642  2475.98274266
0.33600002 43887.06210570  2662.18931340
0.33700002 43125.46138868  2623.75319514
0.33800002 42377.97248413  2585.90400344
0.33900002 41642.02159230  2760.86616232
0.34000002 40919.58768635  2930.25181299
0.34100002 40209.22678779  2062.73343190
0.34200002 39512.29533389  2439.48922945
0.34300002 38826.45491620  2203.78968541
0.34400002 38154.38681038  1974.48961095
0.34500002 37493.41089090  2140.49892914
0.34600002 36845.57536614  1917.81228864
0.34700002 36208.02176443  1890.05882562
0.34800002 35583.99667831  2049.10454577
0.34900002 34970.87275429  2386.76217852
0.35000002 34369.54597852  2352.42368592
0.35100002 33780.26138273  1961.95767403
0.35200002 33201.09931831  1757.99829217
0.35300002 32633.83020359  2599.28469883
0.35400002 32077.96558824  2733.04279756
0.35500002 31533.31973305  2020.65522420
0.35600002 30998.59073609  1991.96953505
0.35700002 30475.13636802  1800.16639052
0.35800002 29962.97383460  1774.85683916
0.35900002 29461.13265611  1909.08148654
0.36000002 28970.04812840  1882.47381655
0.36100002 28488.49033644  1701.61760840
0.36200002 28018.48032066  2135.84885601
0.36300002 27557.34366668  1655.09413902
0.36400002 27106.37360750  2226.11103796
0.36500002 26665.09199366  1463.91361979
0.36600002 26234.07726006  1733.02322589
0.36700002 25811.98896039  1567.30404392
0.36800002 25401.01948874  1405.94649530
0.36900002 24998.24669943  1526.14303329
0.37000002 24604.46557402  1506.16243146
0.37100002 24219.77558771  1621.75625018
0.37200002 23845.01029508  1467.54122813
0.37300002 23478.40195122  2239.13530016
0.37400002 23120.70331540  1560.64754772
0.37500002 22772.06137134  2568.68864437
0.37600002 22431.96153042  1902.79122696
0.37700002 22099.85166641  1378.36781373
0.37800002 21776.05973056  2104.54739236
0.37900002 21461.01154371  1834.91657391
0.38000002 21153.87368173  1329.83833200
0.38100002 20853.63645018  1433.89611024
0.38200002 20562.32284990  1535.69715480
0.38300002 20277.99669442  1168.01266493
0.38400002 20002.18087116  1501.66380004
0.38500002 19732.46234518  1599.51347348
0.38600002 19471.54738206  1130.32337908
0.38700002 19216.73531146  1342.09685773
0.38800002 18969.48598418  1217.55651558
0.38900002 18728.54802287  1205.18212237
0.39000002 18495.76314900  1301.73187210
0.39100002 18268.44073123  1074.18436589
0.39200002 18048.46722180  1276.74863176
0.39300002 17834.55018033  1370.22855527
0.39400002 17628.43816964  1148.93351214
0.39500002 17427.38725269  1345.74290741
0.39600002 17232.64282446  1334.06510746
0.39700002 17043.88950625  1119.27227690
0.39800002 16861.24683949  1110.06023827
0.39900002 16684.25504979  1101.16088546
0.40000002 16512.97237410  1589.20853658
0.40100002 16347.57686717  1380.06250451
0.40200002 16187.91325218  978.55940246
0.40300002 16032.90260400  971.59394384
0.40400002 15883.75864896  1254.41989874
0.40500002 15739.83803499  1725.40112715
0.40600002 15600.93817696  1428.65598125
0.40700002 15466.95752956  1135.89341479
0.40800002 15338.04389060  940.98903727
0.40900002 15213.65243194  1309.89553646
0.41000002 15094.41825152  1116.68511516
0.41100002 14979.42152078  1203.44678200
0.41200002 14868.66068669  1842.22714637
0.41300002 14763.00081189  1100.13887263
0.41400002 14661.17087645  1003.92372333
0.41500002 14563.76865281  1181.41296910
0.41600002 14469.79297507  1176.61127152
0.41700002 14380.37582198  1172.14448879
0.41800002 14295.63715255  988.32892137
0.41900002 14212.94509668  1253.58181693
0.42000002 14135.27584073  981.90698280
0.42100002 14061.27475889  1246.11022818
0.42200002 13991.02852359  1154.05004245
0.42300002 13923.53421024  1328.30522660
0.42400002 13859.52653220  1148.60831578
0.42500002 13799.17505783  1322.65099197
0.42600002 13741.21684633  1144.16247493
0.42700002 13687.62273342  878.74542113
0.42800002 13636.19071661  1140.73558845
0.42900002 13588.82263144  1051.77492151
0.43000002 13543.73678945  963.16288742
0.43100002 13500.65393694  874.84241657
0.43200002 13461.40038676  961.74979621
0.43300002 13424.59455285  961.33526149
0.43400002 13390.42459971  1223.21534515
0.43500002 13358.52329548  1223.10645090
0.43600002 13329.53172963  1135.87610017
0.43700002 13302.33540084  961.35982498
0.43800002 13277.33928898  1398.90053378
0.43900002 13255.43817185  1049.83075296
0.44000002 13235.09970824  1050.60226463
0.44100002 13217.28630437  1402.08979761
0.44200002 13201.25334323  1052.66799147
0.44300002 13187.32279312  1053.93088757
0.44400002 13175.71537643  967.42694736
0.44500002 13164.67879406  1056.86046367
0.44600002 13155.87595516  1323.15228690
0.44700002 13149.82795597  1237.13587273
0.44800002 13143.90945919  885.24234403
0.44900002 13141.24160971  975.73723576
0.45000002 13139.56904348  977.78107671
0.45100002 13139.08571412  979.91305900
0.45200002 13140.25030882  1160.74406604
0.45300002 13142.47809723  1163.50364109
0.45400002 13146.43162709  986.96840118
0.45500002 13151.72232472  989.53563461
0.45600002 13158.07634839  1082.38341172
0.45700002 13165.73106860  1537.62580438
0.45800002 13173.99910719  907.02988152
0.45900002 13183.61160988  1000.63616861
0.46000002 13195.05838401  1277.41366270
0.46100002 13206.15247940  1098.22369224
0.46200002 13219.35228264  1009.89246550
0.46300002 13233.25938781  1381.55234557
0.46400002 13247.29056688  1016.39841692
0.46500002 13262.80508631  1390.60517921
0.46600002 13278.79504813  1023.19760093
0.46700002 13295.25943262  1119.99270769
0.46800002 13313.41068208  1311.23788023
0.46900002 13331.09118202  1033.82617017
0.47000002 13349.82317430  1603.38058834
0.47100002 13369.12524854  1419.80116869
0.47200002 13389.20603883  1234.95347752
0.47300002 13409.85232397  1048.78459997
0.47400002 13430.22461209  956.90354897
0.47500002 13451.45787530  960.43413782
0.47600002 13473.71985677  1253.25811188
0.47700002 13495.28188992  1161.13410884
