# SAXS profile: number of points = 501, q_min = 0, q_max = 0.5, delta_q = 0.001
#    q    intensity    error
0.00000000 1682732.95097188 302.89193117
0.00100000 1682646.25817119 555.27327838
0.00200000 1682386.14607296 832.78116868
0.00300000 1681952.82854061 1110.08890638
0.00400000 1681346.18040935 1387.11065155
0.00500000 1680566.86814392 2268.76536179
0.00600000 1679614.72162966 1939.95508246
0.00700000 1678490.48477014 3021.28299815
0.00800000 1677193.92445382 2490.63308297
0.00900000 1675726.48116395 3267.66677795
0.01000000 1674087.53170972 3038.46900125
0.01100000 1672278.62040193 3913.13214212
0.01200000 1670299.71492007 4234.20996297
0.01300000 1668152.07497443 4203.74341434
0.01400000 1665835.97564439 5997.00977817
0.01500000 1663352.78129477 5189.66090873
0.01600000 1660702.33252467 4658.27025097
0.01700000 1657886.75681650 5371.55333305
0.01800000 1654906.55291974 7074.72583208
0.01900000 1651762.74905043 4955.28847075
0.02000000 1648455.96812853 7788.95480175
0.02100000 1644989.03282395 5971.31045988
0.02200000 1641360.64064179 6228.96391423
0.02300000 1637573.81400372 6484.79259863
0.02400000 1633629.11729308 7351.33136302
0.02500000 1629528.89854665 8261.71189295
0.02600000 1625273.88699993 7240.59549776
0.02700000 1620865.51031912 8169.16254617
0.02800000 1616304.49667499 10546.38732446
0.02900000 1611594.34536028 10153.04484194
0.03000000 1606735.30719868 8965.58342627
0.03100000 1601729.31278745 8457.13116066
0.03200000 1596577.37726697 8693.36421962
0.03300000 1591283.71980431 8115.54734513
0.03400000 1585846.95407278 9990.83627164
0.03500000 1580270.92449228 8533.46338632
0.03600000 1574556.35582660 9612.66699656
0.03700000 1568706.33796429 11624.11450190
0.03800000 1562722.31184521 11884.50373159
0.03900000 1556606.88501313 13075.49843964
0.04000000 1550360.06462217 12395.12929103
0.04100000 1543985.87924401 12645.24493732
0.04200000 1537486.10314485 9916.78582535
0.04300000 1530862.25875329 11114.06051444
0.04400000 1524117.20692671 15431.68743681
0.04500000 1517253.54427731 14656.66991874
0.04600000 1510271.50636194 10647.41461482
0.04700000 1503175.45533731 14069.72291631
0.04800000 1495966.55688688 10995.35470471
0.04900000 1488647.90025656 18980.26161175
0.05000000 1481221.17506720 18130.14802707
0.05100000 1473690.34162434 12644.26372016
0.05200000 1466054.09149964 16317.18279879
0.05300000 1458318.63803683 17718.57227815
0.05400000 1450484.13066058 11966.49463599
0.05500000 1442554.85617173 13329.20749282
0.05600000 1434531.31081329 15944.81626374
0.05700000 1426418.69317602 14891.81185189
0.05800000 1418216.13828286 13806.33475083
0.05900000 1409927.46642535 13958.28256954
0.06000000 1401556.70905024 16671.51783303
0.06100000 1393105.10178037 19433.81707800
0.06200000 1384575.30176924 19626.35581998
0.06300000 1375970.79227494 15851.18426813
0.06400000 1367290.92254609 14664.19583010
0.06500000 1358542.25521312 22864.26722478
0.06600000 1349725.56351491 13564.74254800
0.06700000 1340842.54458388 16411.91351377
0.06800000 1331897.01514230 15163.64822719
0.06900000 1322893.01404183 20835.56594666
0.07000000 1313829.65568373 20988.42973240
0.07100000 1304711.49185550 14090.88477202
0.07200000 1295540.68429600 15604.78827338
0.07300000 1286320.26019924 19989.41778011
0.07400000 1277053.63896588 15803.53952282
0.07500000 1267740.65236936 18787.91734875
0.07600000 1258385.45451978 18894.65848541
0.07700000 1248991.30961595 16074.51890847
0.07800000 1239559.52272784 17626.53723981
0.07900000 1230092.09147971 14761.10579011
0.08000000 1220594.08188690 14830.21879063
0.08100000 1211066.44831320 14896.11801315
0.08200000 1201510.64116963 14958.80818451
0.08300000 1191929.64564197 24029.30278389
0.08400000 1182327.15466316 16582.13912249
0.08500000 1172704.59918746 16640.67904367
0.08600000 1163064.49861407 19731.39014541
0.08700000 1153409.19113995 18270.00244557
0.08800000 1143740.21949516 15268.93264735
0.08900000 1134061.29790775 16840.81106494
0.09000000 1124374.68151907 18417.25814844
0.09100000 1114681.85470523 18459.13238115
0.09200000 1104984.61323573 16955.98968681
0.09300000 1095287.65703762 18532.26802795
0.09400000 1085589.42221392 18563.57999230
0.09500000 1075894.13531774 21690.02678750
0.09600000 1066203.85836928 18615.92024222
0.09700000 1056522.69446439 18637.06120653
0.09800000 1046850.00610180 23318.58498230
0.09900000 1037189.52652338 18669.41235530
0.10000000 1027541.00490019 20237.42104322
0.10100000 1017907.89896595 20246.18906265
0.10200000 1008292.47625230 15578.11949084
0.10300000 998696.17660892 21811.52552317
0.10400000 989121.10594272 18694.38978180
0.10500000 979570.87612704 24920.28426116
0.10600001 970042.09145675 18683.01156056
0.10700001 960542.82125965 20229.03276766
0.10800001 951069.71650934 18659.98871608
0.10900001 941628.11895223 21751.61057155
0.11000001 932218.41474563 17073.58106971
0.11100001 922841.22025536 24805.97316816
0.11200001 913500.03785019 17032.20900754
0.11300001 904194.43936226 18554.07076925
0.11400001 894927.49314430 15437.49998360
0.11500001 885700.47265881 21575.66452992
0.11600001 876514.79511747 16921.11891658
0.11700001 867371.88312211 19958.22797057
0.11800001 858271.90204828 18384.18500774
0.11900001 849216.67067796 19871.67102985
0.12000001 840207.68193639 16774.74716003
0.12100001 831247.91346661 21296.57254626
0.12200001 822336.59561732 22758.16635588
0.12300001 813476.14198558 24209.05112609
0.12400001 804665.98054334 21122.48298450
0.12500001 795907.90804479 15042.66017086
0.12600001 787204.98176261 17995.50673110
0.12700001 778555.85400595 22422.40965206
0.12800001 769961.87627172 16388.63930883
0.12900001 761424.85209675 16332.56384726
0.13000001 752945.00190124 14795.36998474
0.13100001 744522.66645551 19164.01433791
0.13200001 736159.52182758 19092.29809862
0.13300001 727857.21910376 17555.91695242
0.13400001 719614.55948946 21858.29327501
0.13500001 711434.31143571 18867.23882883
0.13600001 703314.80644516 17343.74394471
0.13700001 695259.09332873 17270.23669263
0.13800001 687265.02327208 21494.21461641
0.13900001 679336.30233612 15692.66932400
0.14000001 671471.44940987 21302.43273716
0.14100001 663671.39583460 15549.82153778
0.14200001 655936.33193740 14069.83498367
0.14300001 648268.54399592 16803.12145294
0.14400001 640663.70737771 20901.65443913
0.14500001 633127.83561769 18025.15033032
0.14600001 625658.02909360 13795.76019232
0.14700001 618257.16846468 13725.30978743
0.14800001 610920.57584597 16384.89061721
0.14900001 603653.08373527 21731.51203978
0.15000001 596452.95252985 13509.66001223
0.15100001 589320.95986952 16123.82222283
0.15200001 582257.57867333 14699.09326721
0.15300001 575263.38070311 19932.87708198
0.15400001 568334.81239169 15856.54201401
0.15500001 561476.29154604 17080.10959489
0.15600001 554683.56825673 14369.07851384
0.15700001 547962.94393409 15584.06686100
0.15800001 541306.74036531 16783.21627717
0.15900001 534721.08886648 21816.62145551
0.16000001 528201.19445735 15307.27133791
0.16100001 521752.23899829 12678.58000614
0.16200001 515369.82825489 21421.34792263
0.16300001 509054.70658224 16279.57028502
0.16400001 502807.52975917 13688.93564394
0.16500001 496627.08220917 13602.61642391
0.16600001 490514.84609671 13516.13722233
0.16700001 484467.43146851 13429.43783437
0.16800001 478486.39602050 16981.48299657
0.16900001 472573.55874997 19281.00210741
0.17000001 466725.08692130 14365.79885379
0.17100001 460942.13648901 15459.99998788
0.17200001 455224.82630932 14175.70176069
0.17300001 449572.45948638 16427.37844541
0.17400001 443984.41438234 12820.05057073
0.17500001 438460.16426561 12732.88377162
0.17600001 432998.16502592 14944.93237171
0.17700001 427601.44641916 13700.35099035
0.17800001 422265.39544055 15872.95696432
0.17900001 416992.63349169 11258.80163607
0.18000001 411781.47683959 13415.84114913
0.18100001 406633.07640284 12211.19186119
0.18200001 401542.71670716 17635.75695085
0.18300001 396514.01563497 10943.78734850
0.18400001 391544.18477006 14124.95713285
0.18500001 386635.13052806 14023.25684674
0.18600001 381783.44875725 10709.02624357
0.18700001 376989.56647602 12757.32753227
0.18800001 372253.16408255 13719.39101045
0.18900001 367575.47287205 13618.67191336
0.19000001 362950.34102380 16637.64441864
0.19100001 358385.52019883 10321.50346942
0.19200001 353872.47554829 12293.53038143
0.19300001 349416.86602005 11184.83440981
0.19400001 345012.80355616 10091.62498089
0.19500001 340663.63536451 12018.61362360
0.19600001 336366.73866603 14909.45639594
0.19700001 332121.82142389 11836.82227493
0.19800001 327928.99839599 14683.02159708
0.19900001 323787.34228431 9713.62072759
0.20000001 319694.98015579 14458.20616086
0.20100001 315653.75480156 10520.74014477
0.20200001 311660.26477886 13286.07771547
0.20300001 307716.86569117 11299.36384224
0.20400001 303820.54068775 12145.22668805
0.20500001 299971.49330264 13903.67937176
0.20600001 296169.29225654 11035.26835109
0.20700001 292413.55589121 12772.62472508
0.20800001 288702.16982698 10860.97614229
0.20900001 285037.97274410 9876.56622246
0.21000001 281416.14497286 12469.54997321
0.21100001 277838.77150269 8835.27335146
0.21200001 274304.10874347 13146.02503300
0.21300001 270811.13931798 10431.64557969
0.21400001 267361.24619511 13795.84095589
0.21500001 263953.42417024 10262.50961693
0.21600001 260585.32606577 9330.25804091
0.21700001 257257.70735050 11777.25839933
0.21800001 253969.97936316 9177.20563819
0.21900001 250720.17196610 11583.27249251
0.22000001 247508.72436065 8204.91460050
0.22100001 244337.03956644 9763.70856274
0.22200001 241202.60322200 10488.69569706
0.22300001 238103.55739895 12800.44785104
0.22400001 235040.54965904 11105.66649654
0.22500001 232015.91749395 8651.87397247
0.22600001 229024.36150004 9357.93585341
0.22700001 226069.63915340 10051.05663207
0.22800001 223147.66011597 7665.12248747
0.22900001 220259.09282389 8358.83296796
0.23000001 217404.91064770 8286.38856122
0.23100001 214584.14588317 7467.52862989
0.23200001 211794.06171368 10363.08392976
0.23300001 209036.86323519 7337.19424656
0.23400001 206311.56055609 10181.47599498
0.23500001 203615.32049070 9370.37749217
0.23600001 200951.41021486 8572.58756522
0.23700001 198316.96465663 11327.86555697
0.23800001 195712.43183228 7016.29101305
0.23900001 193136.68560254 8343.50521267
0.24000001 190589.82214145 8267.78687557
0.24100001 188072.56811064 8192.44145441
0.24200001 185582.56222636 7440.93318444
0.24300001 183120.71053255 7372.44015478
0.24400001 180685.72462506 8632.26090230
0.24500001 178277.50962598 7236.28445803
0.24600001 175896.55791092 10427.14844622
0.24700001 173541.60048378 7746.89741207
0.24800001 171212.51868393 7673.74545043
0.24900001 168908.20365036 7600.86952384
0.25000001 166630.30540803 6273.63129541
0.25100001 164375.85566218 6834.74840178
0.25200001 162147.83326455 6768.86161986
0.25300001 159943.78995040 6703.24455395
0.25400001 157763.35484376 6034.44860827
0.25500001 155606.29058833 7170.33820955
0.25600001 153473.30773991 7099.67555195
0.25700001 151362.71310563 9372.37963894
0.25800001 149275.81139497 8699.04832063
0.25900001 147211.59494347 9186.00395911
0.26000001 145169.29372143 6251.71592992
0.26100001 143148.85237267 6188.32518088
0.26200001 141151.11127606 8909.45856531
0.26300001 139174.25345496 6062.43076736
0.26400001 137219.13720279 5999.90705810
0.26500001 135285.62020750 8096.84475255
0.26600001 133372.05189802 6409.86111753
0.26700001 131480.44967650 6342.61719253
0.26800001 129609.73635004 7321.65435288
0.26900001 127758.13393158 5691.62513599
0.27000001 125927.57768327 5630.85190257
0.27100001 124116.62058245 7089.54170317
0.27200001 122326.94687128 6512.07532487
0.27300001 120555.77795171 4954.84270830
0.27400001 118802.42329004 7840.96030821
0.27500001 117071.30306891 4846.75217643
0.27600001 115356.96029662 6710.31469803
0.27700001 113663.31184285 5213.73636098
0.27800001 111987.47743115 5624.01138276
0.27900001 110331.57992634 4633.92657622
0.28000001 108692.78552165 6413.96157719
0.28100001 107073.17257288 5435.03449703
0.28200001 105472.35010039 4925.03162104
0.28300001 103889.24764083 5753.38680666
0.28400001 102323.99330981 6124.09128945
0.28500001 100776.94798859 6052.66378268
0.28600001 99247.56310764  5554.39013222
0.28700001 97735.91887916  5488.84946405
0.28800001 96241.04791142  5423.66451177
0.28900001 94765.40645435  4534.52491348
0.29000001 93305.40551983  4072.78114372
0.29100001 91863.66405151  4828.35441110
0.29200001 90438.81767525  4769.74346997
0.29300001 89030.95034962  5496.77113478
0.29400001 87639.41922758  4265.84893283
0.29500001 86265.76900615  7277.38061785
0.29600001 84908.18640892  4160.92587194
0.29700001 83567.15139843  3735.45184434
0.29800001 82242.59223131  4057.43847981
0.29900001 80935.14356092  4734.70612245
0.30000001 79643.26732582  4674.66179699
0.30100001 78368.60502465  3905.10777325
0.30200001 77108.58986795  4906.41980557
0.30300001 75865.82851055  5189.22291579
0.30400001 74638.99739298  5805.04829706
0.30500001 73427.76510266  4044.40149333
0.30600001 72231.54280469  4324.14151472
0.30700001 71052.13308062  3282.60870373
0.30800001 69887.94841233  3563.23721850
0.30900001 68739.28915470  5114.20335524
0.31000001 67606.43166410  4730.76027967
0.31100001 66487.97272800  3422.80099809
0.31200001 65385.45176276  4911.75536897
0.31300001 64297.62413214  3331.26006401
0.31400001 63226.13343380  3286.17844081
0.31500001 62168.41150476  3536.13941382
0.31600002 61126.15121761  3778.51321642
0.31700002 60098.53679193  3726.71044292
0.31800002 59085.86211663  3392.71036338
0.31900002 58087.77500285  3345.85599859
0.32000002 57104.69260776  4949.26394266
0.32100002 56135.26748648  3253.60025757
0.32200002 55181.52504459  2673.54501500
0.32300002 54240.31961519  3163.29558974
0.32400002 53314.02258973  3378.77634161
0.32500002 52401.81876004  3074.93887044
0.32600002 51504.11636387  4042.04324364
0.32700002 50619.67213311  2739.53678557
0.32800002 49749.79779562  2700.66790122
0.32900002 48893.01717006  4356.36803614
0.33000002 48050.97344421  3817.16951117
0.33100002 47219.89379324  3057.01606894
0.33200002 46405.30721340  3476.91780761
0.33300002 45602.66920453  2513.16321887
0.33400002 44813.87444687  2251.89729760
0.33500002 44037.01011423  2219.46541486
0.33600002 43274.49414317  2406.27836078
0.33700002 42523.75592635  3880.71814962
0.33800002 41786.98800772  2549.84212898
0.33900002 41061.86567303  2931.81734790
0.34000002 40350.04170487  2683.07615023
0.34100002 39650.43545605  2440.88092227
0.34200002 38963.98493456  2405.63654379
0.34300002 38288.57264014  2568.39757434
0.34400002 37626.85872076  1947.19003102
0.34500002 36976.23988030  1919.06694067
0.34600002 36338.71714430  1891.43031694
0.34700002 35711.28886395  2609.78111378
0.34800002 35097.28985461  1837.34321091
0.34900002 34494.18849401  2173.13397805
0.35000002 33902.73787911  2498.97092743
0.35100002 33323.34027251  1935.41969469
0.35200002 32753.84558134  2428.04268794
0.35300002 32196.17907128  1709.61718966
0.35400002 31649.92004495  2022.42998666
0.35500002 31114.70626821  1993.83047210
0.35600002 30589.29013377  1965.66787710
0.35700002 30075.14188355  2261.04927390
0.35800002 29572.28351849  1910.96105148
0.35900002 29079.44451841  1727.31908621
0.36000002 28597.29244005  2013.10649667
0.36100002 28124.65422436  1985.31943573
0.36200002 27663.45665029  2259.41292893
0.36300002 27211.03689290  1485.72268473
0.36400002 26768.66439361  1758.70133397
0.36500002 26335.83566742  1445.83744663
0.36600002 25913.18090770  1426.52067654
0.36700002 25499.33200174  1548.31951249
0.36800002 25096.56685859  1389.09504142
0.36900002 24701.89610058  1370.95529852
0.37000002 24316.09075058  1759.14766868
0.37100002 23939.16766485  1602.96674277
0.37200002 23572.23876198  2242.07359605
0.37300002 23213.31781397  1692.94734837
0.37400002 22863.14554637  1543.26239749
0.37500002 22521.93842728  1270.23738747
0.37600002 22189.20858610  1505.75976598
0.37700002 21864.33034826  1611.61986632
0.37800002 21547.58958290  1469.97663098
0.37900002 21239.50393851  2058.10802914
0.38000002 20939.28675601  1316.34832428
0.38100002 20645.91747067  1537.91446525
0.38200002 20361.34413312  1637.66298621
0.38300002 20083.49787256  1850.89525162
0.38400002 19814.16322874  1601.97517294
0.38500002 19550.71338698  1811.17817397
0.38600002 19296.02806737  1568.18827533
0.38700002 19047.43188664  1662.84088248
0.38800002 18806.10174849  1646.00413352
0.38900002 18571.15902107  1303.69542504
0.39000002 18344.10137099  1398.64607529
0.39100002 18122.47098175  1385.28174747
0.39200002 17908.06907639  1055.68072207
0.39300002 17699.67732418  1046.05097942
0.39400002 17498.85021233  1244.16830904
0.39500002 17303.06364396  1233.36243497
0.39600002 17113.34862175  1222.91995045
0.39700002 16929.62461671  1718.18768375
0.39800002 16751.96145194  1102.86543444
0.39900002 16579.74944543  994.78501386
0.40000002 16413.09027636  1480.87114035
0.40100002 16252.20283216  1078.00866493
0.40200002 16097.11695159  973.07076583
0.40300002 15946.42006098  1062.98841163
0.40400002 15801.56751107  1343.92338049
0.40500002 15661.79707760  1049.18383594
0.40600002 15526.90949561  1327.08501747
0.40700002 15396.80209029  1130.74119909
0.40800002 15271.81185135  1311.69598206
0.40900002 15151.11923848  1118.15265278
0.41000002 15035.44271056  1019.62859573
0.41100002 14923.98288601  1383.45327908
0.41200002 14816.62082668  917.88970370
0.41300002 14714.23278023  1005.12928884
0.41400002 14615.58224540  1000.80204167
0.41500002 14521.34532895  1177.97158890
0.41600002 14430.32716848  1173.40210931
0.41700002 14343.75246579  899.35332222
0.41800002 14261.89296974  1075.63201875
0.41900002 14181.83016855  982.80087725
0.42000002 14106.72489546  890.83971936
0.42100002 14035.27192146  977.27603020
0.42200002 13967.40866415  974.85533391
0.42300002 13902.26101683  1149.43899534
0.42400002 13840.45048724  882.32876037
0.42500002 13782.21511301  968.75194620
0.42600002 13726.27158984  1670.41870028
0.42700002 13674.63303757  1316.86722392
0.42800002 13624.92094598  1052.11644531
0.42900002 13579.37523966  1226.21764225
0.43000002 13535.97458975  1487.67135778
0.43100002 13494.40692281  961.88137104
0.43200002 13456.63738614  1048.81036758
0.43300002 13421.25173747  961.09588246
0.43400002 13388.40365618  960.95271796
0.43500002 13357.70970594  873.59425617
0.43600002 13329.81381452  961.14627064
0.43700002 13303.74910899  961.46199367
0.43800002 13279.70422674  1486.59656011
0.43900002 13258.69388482  962.58122165
0.44000002 13239.18580417  1138.50383718
0.44100002 13222.10372798  876.62551871
0.44200002 13206.78494696  877.59090131
0.44300002 13193.44374873  1054.42007437
0.44400002 13182.32476254  967.91224156
0.44500002 13171.79828910  881.19334730
0.44600002 13163.33244655  1147.38192708
0.44700002 13157.61763486  1149.44953106
0.44800002 13151.85629194  1240.08858854
0.44900002 13149.36110033  1065.09829960
0.45000002 13147.78967403  1334.17202040
0.45100002 13147.27452214  1247.93935678
0.45200002 13148.42912544  1250.81012198
0.45300002 13150.56165828  1164.21927878
0.45400002 13154.37151287  897.78589830
0.45500002 13159.43494210  1350.15808905
0.45600002 13165.46222863  1082.99097425
0.45700002 13172.72485044  1176.45611215
0.45800002 13180.65806280  1179.73485582
0.45900002 13189.81471616  1092.11671026
0.46000002 13200.78013580  1460.53438345
0.46100002 13211.34065744  1281.76433133
0.46200002 13223.89334108  1285.75921049
0.46300002 13237.12073953  1197.69474128
0.46400002 13250.44754269  1293.90626387
0.46500002 13265.15412328  1019.95774888
0.46600002 13280.41714578  1116.35191818
0.46700002 13295.96701972  1213.39000773
0.46800002 13313.20556438  1217.55927260
0.46900002 13329.93947805  1033.73685552
0.47000002 13347.66767052  943.01276562
0.47100002 13365.95421601  1040.94056368
0.47200002 13384.97610629  1044.63050973
0.47300002 13404.46073398  1048.36292369
0.47400002 13423.62423208  1243.36325343
0.47500002 13443.71836510  1247.84599779
0.47600002 13464.75908648  1348.76498162
0.47700002 13485.03570911  1353.62794864
