# SAXS profile: number of points = 501, q_min = 0, q_max = 0.5, delta_q = 0.001
#    q    intensity    error
0.00000000 1664650.74656090 274.66737318
0.00100000 1664564.64475490 798.99104846
0.00200000 1664306.30939013 1048.51300812
0.00300000 1663875.95190079 1297.82328872
0.00400000 1663273.45295199 1496.94616454
0.00500000 1662499.45622716 1795.49948379
0.00600000 1661553.82736830 1919.09474874
0.00700000 1660437.26222869 2391.02975698
0.00800000 1659149.58893870 2239.85203963
0.00900000 1657692.21574367 3232.49995888
0.01000000 1656064.47843700 3552.25845963
0.01100000 1654267.93403612 4466.52361637
0.01200000 1652302.61032953 4188.58730083
0.01300000 1650169.69007325 3465.35650199
0.01400000 1647869.47285839 4078.47712613
0.01500000 1645403.38989452 5528.55563623
0.01600000 1642771.15599442 6283.59995258
0.01700000 1639974.89964663 4870.72567044
0.01800000 1637015.21997434 6531.69102161
0.01900000 1633893.11357453 7352.51934285
0.02000000 1630609.16852140 6677.34484715
0.02100000 1627166.20005298 5906.61357399
0.02200000 1623562.87867158 6721.55062308
0.02300000 1619802.24605719 7580.67485661
0.02400000 1615884.86086932 7877.43905593
0.02500000 1611813.22888538 6286.07187974
0.02600000 1607587.67158824 9766.09555158
0.02700000 1603210.11224060 6733.48277981
0.02800000 1598680.79478249 8345.11413147
0.02900000 1594003.47402535 9324.92075119
0.03000000 1589178.49364159 9606.58443563
0.03100000 1584207.41320513 9885.45471326
0.03200000 1579091.67763124 8598.15458072
0.03300000 1573835.32977945 8829.21660709
0.03400000 1568436.77537256 9881.15214077
0.03500000 1562900.09647711 9283.62700177
0.03600000 1557225.92422753 9506.86470676
0.03700000 1551417.35831394 9727.38728650
0.03800000 1545475.63960268 11753.34278312
0.03900000 1539403.79018149 10160.06548571
0.04000000 1533201.36399310 10372.10770805
0.04100000 1526872.75390784 11543.15855476
0.04200000 1520419.36458495 9806.70535653
0.04300000 1513842.93344666 11989.63658943
0.04400000 1507146.50974084 13225.21123718
0.04500000 1500332.29767168 14493.21066893
0.04600000 1493400.51641488 10528.47413016
0.04700000 1486355.77401562 13912.29069182
0.04800000 1479199.35323673 11959.32732736
0.04900000 1471933.84839198 11039.50437680
0.05000000 1464561.39550919 12324.28471710
0.05100000 1457085.44980636 17047.90055689
0.05200000 1449505.33006391 16132.99507543
0.05300000 1441826.57490727 15182.43454155
0.05400000 1434049.95156052 16563.27771293
0.05500000 1426179.21677570 11979.90597977
0.05600000 1418215.40965862 13338.31655026
0.05700000 1410162.98548561 14722.10225568
0.05800000 1402021.62092556 16130.25950191
0.05900000 1393794.95123915 12544.15514704
0.06000000 1385487.11257832 16480.36997406
0.06100000 1377099.07700107 15368.42641752
0.06200000 1368633.77665546 15520.30775275
0.06300000 1360094.65125320 15668.29111501
0.06400000 1351480.67174949 19765.40574870
0.06500000 1342798.82857550 13293.70902475
0.06600000 1334049.62215900 20110.79899500
0.06700000 1325234.75318682 13517.39511511
0.06800000 1316358.43795830 14986.74151767
0.06900000 1307423.99622562 15100.74786341
0.07000000 1298430.87301737 16593.94733423
0.07100000 1289383.95322216 18102.95155114
0.07200000 1280284.76811744 15421.03075440
0.07300000 1271136.92328481 14109.62050958
0.07400000 1261943.20033519 17036.23400291
0.07500000 1252704.23536504 17136.99474305
0.07600000 1243423.24144462 18670.00084555
0.07700000 1234104.20153680 15882.92181851
0.07800000 1224747.79610155 20318.56689019
0.07900000 1215356.56038434 16042.70734954
0.08000000 1205935.46689487 16117.32827113
0.08100000 1196485.07715988 22075.15070933
0.08200000 1187007.05848851 19211.71014315
0.08300000 1177504.52087395 20771.18072305
0.08400000 1167980.86827033 14891.75676945
0.08500000 1158437.56515629 16438.22982126
0.08600000 1148877.53627879 20989.99357333
0.08700000 1139302.53147099 18046.55294593
0.08800000 1129714.63335164 21114.36748895
0.08900000 1120117.13140971 22682.37297643
0.09000000 1110512.15442619 16674.34078199
0.09100000 1100901.48370082 21269.41766436
0.09200000 1091286.99605125 16745.79974124
0.09300000 1081672.98472343 19827.06674170
0.09400000 1072058.32607823 24442.93098334
0.09500000 1062446.84690751 19889.00590895
0.09600000 1052840.61232117 15318.83162938
0.09700000 1043244.20499395 16869.25958782
0.09800000 1033656.34426000 21489.71640756
0.09900000 1024081.10127837 15361.21724150
0.10000000 1014517.93769436 18443.93697465
0.10100000 1004970.84978756 21526.47661488
0.10200000 995441.49380774 19993.44334355
0.10300000 985931.44133456 18456.63745000
0.10400000 976443.27864678 15378.98236219
0.10500000 966980.12782730 18449.98170700
0.10600001 957538.22885749 16905.33822594
0.10700001 948126.19739131 29183.32572900
0.10800001 938740.90011894 21487.78021497
0.10900001 929387.22560952 21468.84592203
0.11000001 920065.37657999 18382.90708934
0.11100001 910776.41557934 21421.46230281
0.11200001 901523.31903139 15280.82097696
0.11300001 892306.45331163 19835.97339101
0.11400001 883127.84879382 27421.12099616
0.11500001 873989.76430301 16728.16487646
0.11600001 864892.78108224 19732.52972963
0.11700001 855838.79285233 15148.34734690
0.11800001 846827.68943410 16627.46246516
0.11900001 837861.61733843 19605.96276919
0.12000001 828941.74192353 21063.41065447
0.12100001 820071.40528572 22510.96113554
0.12200001 811249.22543306 16464.30380582
0.12300001 802477.98043752 22389.13670906
0.12400001 793757.37259299 19347.83686858
0.12500001 785088.50902970 22257.26027976
0.12600001 776474.61305773 17750.21049095
0.12700001 767914.93868258 19167.15777280
0.12800001 759410.21464057 14694.58834584
0.12900001 750962.13420295 16108.13853786
0.13000001 742571.55013754 23346.45063676
0.13100001 734238.31419596 17445.50316764
0.13200001 725964.15275247 18827.88118919
0.13300001 717750.92321265 17312.15308404
0.13400001 709597.23778407 14369.34474258
0.13500001 701505.42126433 14310.71126852
0.13600001 693474.69851869 21376.35858975
0.13700001 685507.22576849 19866.00033952
0.13800001 677601.68909950 14127.99588394
0.13900001 669761.04386321 21097.47387661
0.14000001 661984.36169409 23801.64884721
0.14100001 654272.10607240 20903.99477491
0.14200001 646624.81523502 19418.14411737
0.14300001 639044.19932998 23465.70410622
0.14400001 631527.17728856 17856.43178012
0.14500001 624078.18767906 17767.50684135
0.14600001 616695.32392668 14957.94578747
0.14700001 609381.02162087 16233.91118184
0.14800001 602131.04552002 16149.15540274
0.14900001 594949.65633737 17402.27826892
0.15000001 587835.27991502 18640.25760561
0.15100001 580789.14039800 15890.39163108
0.15200001 573810.93571136 21070.33855357
0.15300001 566901.82168354 20952.69231816
0.15400001 560057.97533991 18229.88795760
0.15500001 553284.13292219 15536.21918566
0.15600001 546575.89291668 15446.23546281
0.15700001 539938.89673536 12796.55245658
0.15800001 533366.24207038 17809.09966330
0.15900001 526864.06081388 18967.10708456
0.16000001 520427.01838083 18852.46963073
0.16100001 514060.78332539 14990.01314936
0.16200001 507760.53815085 21105.06776453
0.16300001 501527.50088528 13571.33481463
0.16400001 495361.80502890 13486.22577859
0.16500001 489262.58787582 15837.43071725
0.16600001 483230.98505399 14525.92409654
0.16700001 477264.13872676 18040.58529565
0.16800001 471363.16597773 15533.77386825
0.16900001 465530.06388555 15432.32234649
0.17000001 459760.89208422 12972.15418270
0.17100001 454056.76672339 12886.13164811
0.17200001 448417.96909392 12800.09153224
0.17300001 442843.51762327 15025.68126254
0.17400001 437333.04374475 17219.98941068
0.17500001 431886.04993715 14822.32993387
0.17600001 426500.81106420 13588.31648227
0.17700001 421180.23167339 12370.06398849
0.17800001 415920.24158123 14517.69671809
0.17900001 410722.83597136 14416.37222353
0.18000001 405586.64469745 13214.01350841
0.18100001 400512.78338053 14214.19935360
0.18200001 395496.49400801 14113.29305536
0.18300001 390541.18138972 16168.40567332
0.18400001 385644.59134327 12841.96549839
0.18500001 380808.41849115 13811.92199118
0.18600001 376028.66925935 12657.12560524
0.18700001 371306.45001248 14659.17933906
0.18800001 366641.01530043 11433.70060234
0.18900001 362034.33645595 13413.37279944
0.19000001 357479.37314616 13314.31988191
0.19100001 352984.22720051 12199.13546846
0.19200001 348540.43889822 10090.24618288
0.19300001 344153.36385762 13019.32236993
0.19400001 339817.64975134 18885.36677734
0.19500001 335536.21799248 10851.24180265
0.19600001 331306.59611082 9790.11037772
0.19700001 327128.20936256 11658.84993265
0.19800001 323001.54598671 9641.59660335
0.19900001 318925.55047420 11481.32035968
0.20000001 314898.36359563 15190.69777778
0.20100001 310921.72455242 11305.11443903
0.20200001 306992.38112528 13087.08582591
0.20300001 303112.45124512 9275.24144649
0.20400001 299279.30771789 10123.12306203
0.20500001 295492.70743355 9130.72509128
0.20600001 291752.32273368 10870.69205889
0.20700001 288058.15614212 12582.38085505
0.20800001 284407.61507771 8916.17915416
0.20900001 280804.09318110 11498.92815933
0.21000001 277241.97524906 8774.70893143
0.21100001 273723.79714590 9574.85887680
0.21200001 270248.06227309 12088.19639694
0.21300001 266813.23170532 12847.05771396
0.21400001 263420.97530672 8495.32685527
0.21500001 260070.38977482 10954.16533520
0.21600001 256758.79535208 10864.74893899
0.21700001 253487.42783070 12433.55892295
0.21800001 250255.04256218 11509.22995160
0.21900001 247060.37379617 8152.99272076
0.22000001 243903.48108838 10511.02101449
0.22100001 240785.67075612 11225.42850143
0.22200001 237704.55594852 12721.94843592
0.22300001 234658.42191958 12615.23735891
0.22400001 231647.98599165 9381.74387629
0.22500001 228674.93987832 11628.12124267
0.22600001 225734.39753928 9992.13357959
0.22700001 222830.38737518 9907.03949120
0.22800001 219958.82985042 8311.14477893
0.22900001 217119.80155071 8239.69685851
0.23000001 214314.85649431 7426.01012872
0.23100001 211542.69441945 7361.68611395
0.23200001 208800.77248510 9486.86354653
0.23300001 206090.79320003 10850.68077516
0.23400001 203412.43213014 7887.31742888
0.23500001 200762.74927853 9949.80232483
0.23600001 198144.79094515 8452.85718152
0.23700001 195555.76658682 8377.60943682
0.23800001 192996.00217292 12454.03260928
0.23900001 190464.73648783 9599.42317303
0.24000001 187961.63912256 10192.22036352
0.24100001 185487.63857323 8079.84191844
0.24200001 183040.65856633 6671.83232033
0.24300001 180620.96129980 10577.16399405
0.24400001 178227.55696460 7204.84933111
0.24500001 175860.79300957 9084.96899663
0.24600001 173520.26634642 9000.49664116
0.24700001 171205.59481298 7005.73327116
0.24800001 168916.41320288 10725.34816370
0.24900001 166651.39184137 9374.14123454
0.25000001 164412.05773145 8666.15997301
0.25100001 162195.85456234 6131.00359251
0.25200001 160005.67970411 7893.88058166
0.25300001 157838.89572473 8419.12709627
0.25400001 155695.10228793 7146.40553312
0.25500001 153574.25711558 10025.32797882
0.25600001 151477.03745686 7007.32808429
0.25700001 149401.91294469 9829.15231768
0.25800001 147349.59774488 5724.53214324
0.25900001 145319.65882689 6234.21365864
0.26000001 143311.40130279 5610.64162647
0.26100001 141324.02423704 6109.43785684
0.26200001 139359.38325750 6047.50072261
0.26300001 137414.86415147 7618.28042904
0.26400001 135491.71726679 5385.79601620
0.26500001 133589.70879601 5863.25259650
0.26600001 131707.27261084 6329.85182120
0.26700001 129846.17316500 5741.79804906
0.26800001 128005.52404211 5681.52545346
0.26900001 126183.51114781 7154.60542065
0.27000001 124382.38431382 7078.60182627
0.27100001 122600.22644913 5002.08947584
0.27200001 120838.82542160 5443.18514871
0.27300001 119095.66206891 6363.28152548
0.27400001 117369.77338508 5325.65371938
0.27500001 115665.76013011 7182.84404401
0.27600001 113977.85671095 6630.09223865
0.27700001 112310.64252893 7025.03102266
0.27800001 110660.54701715 7872.94499014
0.27900001 109029.90385139 5953.03303203
0.28000001 107416.10583122 5433.10689008
0.28100001 105821.06292350 7609.59299498
0.28200001 104244.37361898 4867.69125652
0.28300001 102684.93043892 4374.37824374
0.28400001 101142.91341927 5188.63170399
0.28500001 99618.87812333  5128.38008852
0.28600001 98112.06773939  4646.09718771
0.28700001 96622.36584524  4174.08640208
0.28800001 95149.27514138  8249.44254523
0.28900001 93695.08714476  4483.31013209
0.29000001 92256.07114382  5637.76877446
0.29100001 90834.91205087  6365.71093784
0.29200001 89430.32598572  4323.50931443
0.29300001 88042.43036817  5047.47277193
0.29400001 86670.31754907  4218.67790640
0.29500001 85315.83279904  5682.03473339
0.29600001 83976.94834364  4863.52519355
0.29700001 82654.45426964  3694.65428075
0.29800001 81348.04179554  4013.30583197
0.29900001 80058.29347131  3962.88571443
0.30000001 78783.64744346  4979.91459065
0.30100001 77526.07674403  4214.31773131
0.30200001 76282.66032871  4853.86590650
0.30300001 75056.26816508  4107.07918843
0.30400001 73845.57264929  4391.96564124
0.30500001 72650.10316980  3668.10388270
0.30600001 71469.13406581  3620.26915750
0.30700001 70304.92825814  3572.89662323
0.30800001 69155.44845349  3846.42622509
0.30900001 68021.22032606  3795.58427389
0.31000001 66902.53238274  4369.40459679
0.31100001 65797.93363147  3079.34343974
0.31200001 64709.02740493  3645.70677660
0.31300001 63634.52127641  3596.62331283
0.31400001 62575.86649663  2956.70983196
0.31500001 61530.79352727  3499.87170154
0.31600002 60500.96796672  3739.86751194
0.31700002 59485.49941743  3121.20430222
0.31800002 58484.64462816  3638.03749135
0.31900002 57498.27158900  4139.87575043
0.32000002 56526.25373649  3266.08709554
0.32100002 55567.83166254  2683.92639638
0.32200002 54624.98280311  3440.55470477
0.32300002 53694.16890138  2609.53673217
0.32400002 52778.28972445  3344.82426967
0.32500002 51876.09631996  3044.08947620
0.32600002 50988.02764910  3501.34802446
0.32700002 50113.12086413  3205.23536225
0.32800002 49252.61816714  3402.86355030
0.32900002 48404.87205750  3114.85366440
0.33000002 47571.49247028  2834.30965560
0.33100002 46749.01455654  3026.53134571
0.33200002 45942.80507392  3212.78051096
0.33300002 45148.34995121  3166.70541554
0.33400002 44367.31647649  2452.40353437
0.33500002 43598.26042915  2856.55815859
0.33600002 42843.14177751  2598.86510330
0.33700002 42099.77226113  2774.79612114
0.33800002 41370.08620899  2524.40278002
0.33900002 40651.87522760  2902.54402871
0.34000002 39946.78228200  2656.26141364
0.34100002 39253.52322280  2215.07642037
0.34200002 38573.36752620  2976.89977982
0.34300002 37904.20808381  2151.44295273
0.34400002 37248.44315328  1927.60702447
0.34500002 36603.54569252  2279.66893370
0.34600002 35971.48969183  2246.77935256
0.34700002 35349.59430953  2029.77380139
0.34800002 34740.80569914  2546.15377028
0.34900002 34142.74161760  2688.74102973
0.35000002 33556.29099022  1766.73880431
0.35100002 32981.59636052  2263.85688141
0.35200002 32416.75951218  1888.11424721
0.35300002 31863.61346170  2199.54534144
0.35400002 31321.59713543  2168.23766440
0.35500002 30790.49953017  1973.05530335
0.35600002 30269.17974780  2107.18904795
0.35700002 29759.03142759  1917.67207602
0.35800002 29259.70776996  1733.19887185
0.35900002 28770.58268629  1708.97269251
0.36000002 28292.02642013  1991.61729418
0.36100002 27822.73660116  1964.00706970
0.36200002 27364.77634320  2235.01821370
0.36300002 26915.55647419  2351.34312496
0.36400002 26476.20785480  1739.48693846
0.36500002 26046.32507459  1715.93197719
0.36600002 25626.44497535  1975.03020780
0.36700002 25215.45432715  1670.27177375
0.36800002 24815.19250113  1648.22516400
0.36900002 24423.10165360  1491.03042658
0.37000002 24039.66177156  2140.49158553
0.37100002 23665.22272022  1848.72728648
0.37200002 23300.35370305  1434.02033658
0.37300002 22943.62844660  2316.84771029
0.37400002 22595.55698487  1271.00014061
0.37500002 22256.37130776  1255.25940122
0.37600002 21925.49005324  1363.87517337
0.37700002 21602.49066173  1714.80578996
0.37800002 21287.57157164  1210.19850118
0.37900002 20981.18770695  1674.29885833
0.38000002 20682.63060126  1654.81735280
0.38100002 20390.80456154  1285.23247240
0.38200002 20107.59540906  1386.21769317
0.38300002 19831.37880562  1142.28747332
0.38400002 19563.35272802  1242.76204092
0.38500002 19301.45283037  1341.06500619
0.38600002 19047.98796949  1105.73575401
0.38700002 18800.62466829  1531.87497055
0.38800002 18560.58474031  1299.61220509
0.38900002 18326.76610048  1500.96221474
0.39000002 18100.84029118  1273.93720005
0.39100002 17880.42295778  1261.64270367
0.39200002 17667.08038975  1145.62188215
0.39300002 17459.68786208  1135.05436169
0.39400002 17259.86372039  1431.70576344
0.39500002 17065.06869639  1317.76466717
0.39600002 16876.41840894  1507.48614580
0.39700002 16693.59650555  1694.23318962
0.39800002 16516.90610433  988.53687718
0.39900002 16345.61972502  1078.81095296
0.40000002 16179.89583876  1167.86493697
0.40100002 16019.99263408  1062.60616176
0.40200002 15865.63501665  1726.33982796
0.40300002 15715.87129280  1142.85821456
0.40400002 15571.88940194  1608.18695418
0.40500002 15432.95306435  1221.82695200
0.40600002 15299.02968413  1027.40638712
0.40700002 15169.87381994  1206.91521830
0.40800002 15045.56433224  1107.65449862
0.40900002 14925.76145466  917.93437295
0.41000002 14811.06869148  913.10242809
0.41100002 14700.47227722  1271.88492169
0.41200002 14594.01525887  1084.91914575
0.41300002 14492.66867581  989.99424415
0.41400002 14394.89568944  985.69052904
0.41500002 14301.52988111  981.65705755
0.41600002 14211.58148969  1155.61480359
0.41700002 14125.97967437  974.26886431
0.41800002 14045.10594688  882.73495059
0.41900002 13966.15204267  1495.77495465
0.42000002 13892.01438448  1140.46497493
0.42100002 13821.67880781  1399.85969599
0.42200002 13754.88482713  960.02223200
0.42300002 13690.88341988  1044.88827212
0.42400002 13630.23927869  955.82057471
0.42500002 13573.22759264  954.06221270
0.42600002 13518.51219987  1212.20504640
0.42700002 13468.16143425  1210.51840707
0.42800002 13419.84070536  949.92346934
0.42900002 13375.60547288  948.99925327
0.43000002 13333.58510779  948.21794987
0.43100002 13293.50047809  947.56075898
0.43200002 13257.16017508  1291.57889126
0.43300002 13223.27550338  1119.08585888
0.43400002 13191.89460048  1205.07962886
0.43500002 13162.79011117  946.93116547
0.43600002 13136.61186187  1205.54692769
0.43700002 13112.14335536  947.61464520
0.43800002 13089.86976814  1034.36155810
0.43900002 13070.58849819  948.92476994
0.44000002 13052.89720605  949.79411021
0.44100002 13037.67924163  1037.27780962
0.44200002 13024.20982002  1038.55054027
0.44300002 13012.85815278  1039.98767286
0.44400002 13003.74637074  954.80012252
0.44500002 12995.16237500  1043.25168491
0.44600002 12988.89729844  1219.26784719
0.44700002 12985.26679660  1134.39296111
0.44800002 12981.86990877  1398.92636767
0.44900002 12981.61382403  1314.38846197
0.45000002 12982.30707983  1053.90373869
0.45100002 12984.24343485  880.33174660
0.45200002 12987.73948517  1059.02032781
0.45300002 12992.40390135  1504.13067094
0.45400002 12998.77783305  1153.31661790
0.45500002 13006.40896310  1067.56609829
0.45600002 13015.12858924  892.18710708
0.45700002 13025.07089913  894.82241318
0.45800002 13035.73463818  987.26140961
0.45900002 13047.68116387  1260.40606017
0.46000002 13061.39084266  1264.47330741
0.46100002 13074.94149127  1268.53088360
0.46200002 13090.40227817  1000.04132944
0.46300002 13106.67633124  1368.33707383
0.46400002 13123.04173590  1006.86542491
0.46500002 13140.91675826  1010.40513743
0.46600002 13159.21348102  1106.16353764
0.46700002 13178.12493062  1110.12529677
0.46800002 13198.60742013  1299.93090642
0.46900002 13218.66399386  1397.87378361
0.47000002 13239.79335847  935.39144511
0.47100002 13261.46644930  1220.58542985
0.47200002 13283.99865610  1225.24967412
0.47300002 13307.07781759  946.13327767
0.47400002 13329.86361295  1139.70339293
0.47500002 13353.57935217  953.44561094
0.47600002 13378.19769800  1627.25715412
0.47700002 13402.31939732  1249.23025024
