# SAXS profile: number of points = 501, q_min = 0, q_max = 0.5, delta_q = 0.001
#    q    intensity    error
0.00000000 1664650.74656090 299.63713438
0.00100000 1664564.60979539 549.30633428
0.00200000 1664306.16442146 898.72535725
0.00300000 1663875.63069439 1397.65557957
0.00400000 1663272.87768850 1621.69111737
0.00500000 1662498.55510881 1945.12338647
0.00600000 1661552.52447394 2268.01928824
0.00700000 1660435.50020812 2391.02721967
0.00800000 1659147.27644107 2687.81870131
0.00900000 1657689.25248093 4227.10777453
0.01000000 1656060.83770140 3552.25065025
0.01100000 1654263.57394801 3870.97693158
0.01200000 1652297.39205098 3544.17806134
0.01300000 1650163.57872734 4851.48113543
0.01400000 1647862.38827395 3707.69053798
0.01500000 1645395.24306862 3948.94875921
0.01600000 1642761.88583119 5864.66019459
0.01700000 1639964.47617325 4870.69471273
0.01800000 1637003.55007168 4665.46032764
0.01900000 1633880.05889871 7352.46059681
0.02000000 1630594.72819773 7704.56043926
0.02100000 1627150.26438099 5369.59611591
0.02200000 1623545.41842731 7281.60153247
0.02300000 1619783.16425675 7580.58555378
0.02400000 1615864.15546142 6059.49085928
0.02500000 1611790.59341270 6914.58196153
0.02600000 1607563.35851205 10417.01103961
0.02700000 1603183.76603944 9426.72097607
0.02800000 1598652.57605489 10431.20853713
0.02900000 1593973.23866148 7890.16789365
0.03000000 1589146.06794571 7389.52955561
0.03100000 1584172.91230284 8364.43336183
0.03200000 1579054.88585504 10161.21865848
0.03300000 1573796.09332066 9631.63253515
0.03400000 1568395.18467619 8234.07509947
0.03500000 1562856.04738647 9283.36535016
0.03600000 1557179.30775331 8642.34555743
0.03700000 1551368.08353514 8842.79848511
0.03800000 1545423.84784489 10848.87591395
0.03900000 1539349.12518554 10159.70469672
0.04000000 1533143.98981662 9428.83597429
0.04100000 1526812.48028782 13466.48670053
0.04200000 1520356.18236314 11767.55739742
0.04300000 1513776.78351708 11989.11268197
0.04400000 1507077.09569787 10172.77086840
0.04500000 1500259.73074659 12422.15114778
0.04600000 1493324.84120730 13686.32280590
0.04700000 1486276.96512692 16051.79196991
0.04800000 1479116.99676610 15220.11460489
0.04900000 1471848.11251131 13246.63362920
0.05000000 1464472.09363806 13443.85444563
0.05100000 1456992.80083617 13637.45325111
0.05200000 1449408.86732536 21893.32196121
0.05300000 1441726.62764368 11677.98622832
0.05400000 1433946.14006107 13013.06182790
0.05500000 1426071.63352345 17968.50342061
0.05600000 1418103.78541224 14549.74551728
0.05700000 1410047.53648596 18401.12121008
0.05800000 1401902.13420053 13647.51791368
0.05900000 1393671.51536413 16305.95749134
0.06000000 1385359.46785237 12676.03972306
0.06100000 1376967.20541855 14086.37516971
0.06200000 1368497.63637806 18105.22457558
0.06300000 1359954.12197892 15666.67221770
0.06400000 1351335.70022851 18445.73317077
0.06500000 1342649.46225180 17279.89938750
0.06600000 1333895.81470701 16086.78427804
0.06700000 1325076.44342597 14867.35839102
0.06800000 1316195.27352838 13622.62171868
0.06900000 1307256.14807628 24707.14235540
0.07000000 1298258.45222394 16591.74379639
0.07100000 1289206.71187687 16708.11976850
0.07200000 1280102.79046068 16820.55145464
0.07300000 1270949.90733466 19750.56248540
0.07400000 1261751.39241264 21292.05574480
0.07500000 1252507.07869574 15706.43950304
0.07600000 1243221.13817424 20102.88674671
0.07700000 1233896.74489597 14436.59259219
0.07800000 1224535.29734773 15961.81834948
0.07900000 1215138.69300037 18956.16449992
0.08000000 1205712.28708486 17579.28597036
0.08100000 1196256.40550100 14713.95447801
0.08200000 1186773.10588965 20685.45620633
0.08300000 1177264.94601102 19283.60072068
0.08400000 1167735.84609523 20844.08583119
0.08500000 1158187.12276527 17928.73750207
0.08600000 1148621.33533235 16488.46004285
0.08700000 1139040.59610837 22553.00486198
0.08800000 1129446.82822028 16585.92745135
0.08900000 1119843.51724208 16629.67701214
0.09000000 1110232.78873569 21216.54958940
0.09100000 1100616.18067418 16707.35440757
0.09200000 1090995.71569840 19785.20823383
0.09300000 1081375.73241633 22871.09781537
0.09400000 1071754.92236622 21381.51170608
0.09500000 1062137.37074843 21412.69040074
0.09600000 1052525.16385938 18377.09022485
0.09700000 1042922.29096764 24529.53343676
0.09800000 1033328.39647781 23017.39111377
0.09900000 1023746.72271542 15356.20156282
0.10000000 1014177.57984355 15364.79105719
0.10100000 1004623.91986483 16907.82136653
0.10200000 995087.97278048 18448.93188312
0.10300000 985571.67608889 19987.39453130
0.10400000 976076.93645979 23059.81870871
0.10500000 966607.14871479 16905.95982644
0.10600001 957158.77178389 23043.59851498
0.10700001 947740.26060879 15353.39294436
0.10800001 938348.18927018 24547.18978654
0.10900001 928987.68521840 19926.78678580
0.11000001 919659.19402934 26030.95471227
0.11100001 910363.27484939 18352.92448490
0.11200001 901103.65412852 21383.19071913
0.11300001 891879.74609312 21351.60212672
0.11400001 882694.50142205 18271.77703975
0.11500001 873549.30679126 19759.68625006
0.11600001 864445.60621442 19722.32743454
0.11700001 855384.55199987 15140.30728343
0.11800001 846366.56261626 18129.17262509
0.11900001 837393.44505436 21102.31580932
0.12000001 828466.48945573 21051.33448869
0.12100001 819588.85025174 16498.32433277
0.12200001 810759.78680742 17950.22252557
0.12300001 801981.42130638 20883.59719474
0.12400001 793253.42675860 16360.85269778
0.12500001 784577.46986601 22242.77231879
0.12600001 775956.55124722 20694.76219697
0.12700001 767389.52379538 16207.26750635
0.12800001 758877.57298049 16152.70990215
0.12900001 750422.34307077 17559.88365549
0.13000001 742024.41066667 16038.85839255
0.13100001 733683.86570166 20337.71771592
0.13200001 725402.41960246 18813.31263926
0.13300001 717181.79149211 15856.89015743
0.13400001 709020.59550272 17229.20128300
0.13500001 700921.50299591 15728.67926881
0.13600001 692883.34872445 15662.62883642
0.13700001 684908.72107872 17013.13343382
0.13800001 676995.73932744 15526.89801366
0.13900001 669147.61702066 14052.10062011
0.14000001 661363.39068241 18184.18728439
0.14100001 653643.79883215 16707.13628611
0.14200001 645988.90241895 19399.04765460
0.14300001 638401.01583352 15168.40885166
0.14400001 630876.30442327 13721.56026845
0.14500001 623419.95951593 13652.89775744
0.14600001 616029.72562704 13583.45609087
0.14700001 608708.05187508 20269.97908371
0.14800001 601450.44611918 17475.14353645
0.14900001 594261.54713763 16045.06252973
0.15000001 587140.02863952 14628.59450377
0.15100001 580086.28552264 14548.56472738
0.15200001 573100.72022409 14467.92836476
0.15300001 566184.18652156 17002.51192357
0.15400001 559333.08671185 15605.39385570
0.15500001 552551.65783273 14222.68034383
0.15600001 545835.89006763 15425.32298131
0.15700001 539191.73038946 19168.26692003
0.15800001 532611.73777197 13973.06959996
0.15900001 526102.02404864 15151.73900777
0.16000001 519657.75505438 13804.70891464
0.16100001 513284.28513760 14967.37046114
0.16200001 506976.66922441 14874.69617722
0.16300001 500736.33181233 13549.92577850
0.16400001 494563.33611991 15912.57609088
0.16500001 488456.94503240 15811.35205717
0.16600001 482418.15023231 16918.40532742
0.16700001 476444.06929442 15608.30844703
0.16800001 470535.93825231 22663.36453601
0.16900001 464695.61738699 16589.63432405
0.17000001 458919.28343499 14125.53621113
0.17100001 453208.07260120 18708.43012041
0.17200001 447562.20212025 11614.23969348
0.17300001 441980.84383446 18457.12091015
0.17400001 436463.36030211 12602.88012391
0.17500001 431009.38811490 17067.97257543
0.17600001 425617.34454750 13560.16923772
0.17700001 420290.01187952 15710.44138607
0.17800001 415022.95176540 12257.70345935
0.17900001 409818.86039173 11065.10975322
0.18000001 404675.93711824 13184.34265408
0.18100001 399595.39933517 14181.64139230
0.18200001 394572.44076164 12997.21681265
0.18300001 389610.59460449 18280.52996240
0.18400001 384707.42780243 13878.32111359
0.18500001 379864.63381472 14837.51329776
0.18600001 375078.48676069 12625.14246082
0.18700001 370349.97676423 11488.25682199
0.18800001 365678.40527226 11403.68160720
0.18900001 361065.10739609 13377.46286108
0.19000001 356504.03289069 12256.60922989
0.19100001 352002.75334870 13178.98370808
0.19200001 347552.77200343 11067.81854742
0.19300001 343159.91906669 11983.14494004
0.19400001 338818.10775122 10901.47313203
0.19500001 334530.77458683 10818.72576138
0.19600001 330295.19891247 10736.24594801
0.19700001 326111.12070593 9685.50074268
0.19800001 321978.74370946 10572.17254933
0.19900001 317897.12458208 13351.67986345
0.20000001 313864.41443324 11355.61505087
0.20100001 309882.25387220 12206.26255692
0.20200001 305947.42237518 9316.09945164
0.20300001 302062.16891943 12940.34392813
0.20400001 298223.74328498 10087.41859340
0.20500001 294431.97472546 10007.74329395
0.20600001 290686.68396357 10830.98635644
0.20700001 286987.29675760 12535.60571492
0.20800001 283332.03951345 9770.70584448
0.20900001 279723.32492217 10573.54218188
0.21000001 276156.60015971 8740.35680823
0.21100001 272633.80070731 16472.53501745
0.21200001 269153.43959701 8599.45280166
0.21300001 265714.16390133 12794.13759670
0.21400001 262317.48051127 13535.58263430
0.21500001 258962.59670623 13424.62164793
0.21600001 255646.90783926 11649.83014102
0.21700001 252371.28700656 9077.79562282
0.21800001 249134.95750606 15549.75910794
0.21900001 245936.25958043 9739.07633986
0.22000001 242775.55389785 12072.01498837
0.22100001 239653.90099249 9576.57033647
0.22200001 236569.34638323 13452.51651818
0.22300001 233519.55938986 10984.76059312
0.22400001 230505.63678493 9335.47873123
0.22500001 227529.30290105 10798.54122632
0.22600001 224585.79649308 8411.86140543
0.22700001 221678.53465786 10613.96874134
0.22800001 218803.93502328 9019.09862817
0.22900001 215962.01896037 8195.75900713
0.23000001 213154.26468742 11078.69343106
0.23100001 210379.32403144 10981.80123380
0.23200001 207634.76310116 10885.25297038
0.23300001 204922.51254978 8631.33663681
0.23400001 202241.91537202 9980.63899565
0.23500001 199589.90033103 8478.57936707
0.23600001 196969.79476393 8402.73184205
0.23700001 194378.82910997 11796.85169665
0.23800001 191817.21868320 7564.31237655
0.23900001 189284.14449558 10221.34428623
0.24000001 186779.51256459 6752.07969859
0.24100001 184304.01514094 8697.30688589
0.24200001 181855.41928752 9942.94551987
0.24300001 179434.64091738 8537.50061870
0.24400001 177040.14732936 10409.96115539
0.24500001 174672.20883829 8379.02625434
0.24600001 172331.12477492 8300.32901743
0.24700001 170015.69034059 6324.58397986
0.24800001 167725.70156926 7517.46629996
0.24900001 165460.02020161 6204.75105109
0.25000001 163220.38573440 9217.87172043
0.25100001 161003.88325861 7303.13649011
0.25200001 158813.61866049 7835.07024729
0.25300001 156646.75270616 8952.36234070
0.25400001 154503.13610518 6500.71975918
0.25500001 152382.64012994 7021.79238940
0.25600001 150285.78343972 7531.57239342
0.25700001 148210.93305174 6309.33971853
0.25800001 146159.50166455 5678.29690833
0.25900001 144130.22962023 7869.51090961
0.26000001 142122.78752927 7233.33961355
0.26100001 140136.61530488 8261.05386310
0.26200001 138173.00461419 7631.29540593
0.26300001 136229.85024395 6473.64278991
0.26400001 134308.17506494 8008.12531718
0.26500001 132407.68058873 6339.68004658
0.26600001 130526.85281994 6273.12084337
0.26700001 128667.76044999 5172.44421485
0.26800001 126828.99848300 5117.55033096
0.26900001 125009.17584157 7088.02060563
0.27000001 123210.12925163 10517.83318129
0.27100001 121430.28862546 7926.96961660
0.27200001 119671.41638171 6370.70815256
0.27300001 117930.76856049 6785.73674410
0.27400001 116207.67085594 5272.92331463
0.27500001 114506.46199757 6636.79485147
0.27600001 112821.65379225 5625.28792430
0.27700001 111157.44264953 6025.84525121
0.27800001 109510.63241703 7791.13431204
0.27900001 107883.51676087 7249.77266945
0.28000001 106273.11732733 4479.41210735
0.28100001 104681.63736596 5756.44351120
0.28200001 103108.77909999 5252.36145595
0.28300001 101553.25869895 6921.87044053
0.28400001 100015.40900195 4703.22483092
0.28500001 98495.34655037  5070.54068041
0.28600001 96992.89724583  5010.65330888
0.28700001 95507.67181079  4125.93161752
0.28800001 94039.20052035  5707.23934972
0.28900001 92589.44717728  4833.16937143
0.29000001 91155.30392934  5172.60796631
0.29100001 89739.09490939  4716.68705170
0.29200001 88339.47072922  4270.77191456
0.29300001 86956.70371711  4985.22806008
0.29400001 85589.91798967  4166.08945536
0.29500001 84240.78470297  4488.34922144
0.29600001 82907.44334313  4062.87945336
0.29700001 81590.56062439  4741.22770232
0.29800001 80289.85189817  4321.20003372
0.29900001 79005.94561493  4977.37480937
0.30000001 77737.43850780  4211.81461774
0.30100001 76485.89731649  4850.73583745
0.30200001 75248.72187569  4788.07639962
0.30300001 74028.60686276  4725.98648585
0.30400001 72824.34370232  3998.05665853
0.30500001 71635.44241610  3616.87365882
0.30600001 70461.17468780  4542.63214718
0.30700001 69303.62109650  4482.55842474
0.30800001 68161.00746803  3475.18913029
0.30900001 67033.72274269  3117.06825511
0.31000001 65922.03549735  3382.78941170
0.31100001 64824.54718896  5157.44121853
0.31200001 63742.93009660  3591.27685167
0.31300001 62675.70662870  2952.02592198
0.31400001 61624.65228926  3785.29444609
0.31500001 60587.13308443  4307.74536626
0.31600002 59564.83938336  3682.00072082
0.31700002 58557.10383140  3351.80878201
0.31800002 57564.06356999  3580.77274392
0.31900002 56585.45294255  3259.32224382
0.32000002 55621.64260184  3213.81866171
0.32100002 54671.26704605  3960.93348504
0.32200002 53736.48948719  3124.23964672
0.32300002 52813.96418960  3850.13817173
0.32400002 51906.38744327  4048.69841229
0.32500002 51012.54063066  2743.96469045
0.32600002 50133.01715613  2950.82952954
0.32700002 49266.71774828  3393.49167919
0.32800002 48414.69897469  3344.97171056
0.32900002 47575.64691953  2590.49409744
0.33000002 46751.15976519  3946.03182684
0.33100002 45937.43936999  2516.45304785
0.33200002 45140.11870267  2480.22393957
0.33300002 44354.60892436  3555.46561975
0.33400002 43582.69187882  3066.04251887
0.33500002 42822.56997043  2589.90915446
0.33600002 42076.68764983  2765.06965985
0.33700002 41342.45409295  2724.88127831
0.33800002 40621.92876259  2065.62517540
0.33900002 39913.02165472  2442.67704095
0.34000002 39217.13662302  2407.14795992
0.34100002 38533.40626853  3360.49851983
0.34200002 37862.70984697  2142.84016527
0.34300002 37202.89527080  2111.63643558
0.34400002 36556.59364388  2837.70571600
0.34500002 35921.25903702  2237.17611878
0.34600002 35298.89941648  2204.76936197
0.34700002 34686.46760064  2172.76043341
0.34800002 34087.45216100  1962.92602566
0.34900002 33499.05470234  1934.57050068
0.35000002 32922.18138548  2080.02351845
0.35100002 32357.31684225  2391.85297426
0.35200002 31802.15679027  2020.70913816
0.35300002 31258.71548188  2987.70816727
0.35400002 30726.60194058  2290.66828316
0.35500002 30205.27273955  1774.25780476
0.35600002 29693.72609960  1908.11892954
0.35700002 29193.33920933  2194.75534571
0.35800002 28704.05251225  1545.71330100
0.35900002 28224.63958378  2591.02203652
0.36000002 27755.86756848  1803.57636003
0.36100002 27296.41382191  1482.19534074
0.36200002 26848.33870614  1900.45974533
0.36300002 26408.86552845  2307.07860184
0.36400002 25979.33294382  1706.84225526
0.36500002 25559.28848637  1543.52550481
0.36600002 25149.28699145  1661.36197735
0.36700002 24747.98832148  1502.69792206
0.36800002 24357.57775745  1887.46878983
0.36900002 23975.18307494  1995.93408553
0.37000002 23601.55747236  1970.14010333
0.37100002 23236.78049638  1426.27365443
0.37200002 22881.73735006  1408.25659192
0.37300002 22534.66308722  1390.61412499
0.37400002 22196.24520945  1248.53885218
0.37500002 21866.68542220  1479.93733948
0.37600002 21545.39467563  1462.07055195
0.37700002 21231.94734578  1203.85147153
0.37800002 20926.58357302  1427.61159898
0.37900002 20629.66684245  1411.06927887
0.38000002 20340.50798636  1511.19811244
0.38100002 20058.11472162  1264.26303080
0.38200002 19784.36861594  1591.25684316
0.38300002 19517.38309491  1236.62145148
0.38400002 19258.69807856  1334.62784007
0.38500002 19005.88803974  1210.48506660
0.38600002 18761.61755715  1306.93434095
0.38700002 18523.51264297  1078.06848689
0.38800002 18292.36291642  1601.03914011
0.38900002 18067.65530837  1374.04525130
0.39000002 17850.64815013  1884.49301449
0.39100002 17638.99206751  1244.60733925
0.39200002 17434.51997092  1130.54150108
0.39300002 17235.87877973  1426.09667780
0.39400002 17044.80195494  1110.89502004
0.39500002 16858.58247704  1201.67981590
0.39600002 16678.42974588  1092.52059227
0.39700002 16504.13873368  1083.82684199
0.39800002 16335.72277055  1368.77027579
0.39900002 16172.84112197  1164.44461595
0.40000002 16015.29307397  1348.64789366
0.40100002 15863.52543679  1052.22769208
0.40200002 15717.29156259  1045.12135197
0.40300002 15575.53545586  1038.26524268
0.40400002 15439.46072804  937.94728367
0.40500002 15308.31129021  1118.73144209
0.40600002 15182.15414064  1019.55760962
0.40700002 15060.49174224  1013.87235213
0.40800002 14943.93239604  1008.49132553
0.40900002 14831.58319109  1368.21361421
0.41000002 14724.12357055  998.51648725
0.41100002 14620.88358569  993.92771325
0.41200002 14521.54400064  1169.49260151
0.41300002 14427.18589250  1343.89242956
0.41400002 14336.47123078  1070.93445168
0.41500002 14249.99605211  1067.03975494
0.41600002 14166.84239226  974.74963699
0.41700002 14087.90095965  1766.62286405
0.41800002 14013.65806520  1585.36521204
0.41900002 13941.07363836  966.11644892
0.42000002 13873.41001182  1314.15882564
0.42100002 13809.24742049  1136.36302408
0.42200002 13748.65235387  959.58723651
0.42300002 13690.72717163  1044.87634725
0.42400002 13635.92319059  1043.14817351
0.42500002 13584.78439908  868.06776424
0.42600002 13535.75677515  866.96526253
0.42700002 13491.00757509  1039.34727284
0.42800002 13448.06379344  1124.99782995
0.42900002 13409.22594476  864.89511442
0.43000002 13372.47247597  1123.88950250
0.43100002 13337.46483213  1209.97486691
0.43200002 13306.19886062  1296.35648543
0.43300002 13277.17637973  1037.21306794
0.43400002 13250.63798134  864.60416925
0.43500002 13226.19416269  1124.49108100
0.43600002 13204.48373433  1125.22013474
0.43700002 13184.46328708  952.84120691
0.43800002 13166.56663516  953.72029941
0.43900002 13151.47243527  1041.59666623
0.44000002 13137.83114700  1303.60135734
0.44100002 13126.56880353  870.29155292
0.44200002 13116.99123227  2004.73544999
0.44300002 13109.30243578  1484.23529212
0.44400002 13103.82833885  1224.55281630
0.44500002 13098.80416758  963.94104437
0.44600002 13095.76952717  1053.68566609
0.44700002 13095.47147840  880.01572505
0.44800002 13095.04678909  970.14658735
0.44900002 13097.75531489  1149.32808335
0.45000002 13101.38704078  974.93976284
0.45100002 13105.97586199  977.44372611
0.45200002 13112.15040265  980.06772829
0.45300002 13119.28573780  1072.10808130
0.45400002 13127.97039883  1164.77922884
0.45500002 13137.88080310  898.63108952
0.45600002 13148.68583823  991.47670262
0.45700002 13160.64853466  994.55025690
0.45800002 13173.17661250  1360.45987913
0.45900002 13186.98821436  1819.80445983
0.46000002 13202.38027604  912.94463936
0.46100002 13217.38614543  1373.94735494
0.46200002 13234.33325200  1378.68673187
0.46300002 13251.85149747  1383.49336191
0.46400002 13269.39731799  1110.64860816
0.46500002 13288.31644650  1021.73870000
0.46600002 13307.64994734  1491.52147679
0.46700002 13327.35086288  935.58007492
0.46800002 13348.55663284  1126.88520435
0.46900002 13369.22391353  1036.78336363
0.47000002 13390.78008869  946.05865811
0.47100002 13412.91552896  1139.56135735
0.47200002 13435.62854785  1334.56104691
0.47300002 13458.80388313  1435.38150217
0.47400002 13481.62315113  1536.90511207
0.47500002 13505.25937535  1253.55823464
0.47600002 13529.79829048  1161.66853628
0.47700002 13553.48407158  1457.67728099
