# SAXS profile: number of points = 501, q_min = 0, q_max = 0.5, delta_q = 0.001
#    q    intensity    error
0.00000000 1646666.22097350 296.39991978
0.00100000 1646580.55842428 592.76901511
0.00200000 1646323.53783550 1037.18386168
0.00300000 1645895.37787663 1185.04471429
0.00400000 1645295.94284245 1233.97200402
0.00500000 1644525.89508529 1776.08803699
0.00600000 1643585.07632137 1898.34084044
0.00700000 1642474.20938853 2168.06604650
0.00800000 1641193.10856159 2215.61079010
0.00900000 1639743.15249575 2459.61483389
0.01000000 1638123.73135514 3513.77555548
0.01100000 1636336.38570482 3829.02730926
0.01200000 1634381.10296081 3824.45194861
0.01300000 1632259.09631479 4456.06752947
0.01400000 1629970.67008432 4034.17758730
0.01500000 1627517.22855566 3906.04152247
0.01600000 1624898.50581814 4557.84051257
0.01700000 1622116.62492853 4817.68659215
0.01800000 1619172.19158343 5537.56914439
0.01900000 1616066.10679905 6787.47795482
0.02000000 1612799.12139410 6096.38095464
0.02100000 1609373.89523771 9559.68137113
0.02200000 1605789.23170247 7201.96503139
0.02300000 1602048.06386482 6344.11062168
0.02400000 1598151.01205507 7191.67988217
0.02500000 1594100.45373847 6216.99205351
0.02600000 1589896.95295757 7726.89954479
0.02700000 1585542.13662276 9988.91591823
0.02800000 1581036.49589035 6877.50907252
0.02900000 1576383.64669647 10640.59010376
0.03000000 1571583.87082029 9500.22493579
0.03100000 1566638.94649505 10527.81420486
0.03200000 1561550.10130850 11594.51003624
0.03300000 1556321.37089304 8730.96329321
0.03400000 1550951.36570697 9770.99405479
0.03500000 1545444.00323411 10014.47760341
0.03600000 1539799.86900014 9400.47863468
0.03700000 1534022.22075917 12241.49788780
0.03800000 1528112.21577386 10727.34825119
0.03900000 1522072.73530422 12785.41156865
0.04000000 1515903.58089109 10255.08819994
0.04100000 1509608.98879562 14265.80560557
0.04200000 1503190.36224697 10665.13611493
0.04300000 1496649.41462673 14816.82989257
0.04400000 1489989.17306989 16091.88381649
0.04500000 1483211.93475703 13304.41167296
0.04600000 1476317.93855367 10408.04195064
0.04700000 1469311.77352393 10579.04526138
0.04800000 1462194.49897913 13971.26908780
0.04900000 1454968.91132608 17459.62774862
0.05000000 1447637.04301162 11074.42389473
0.05100000 1440202.60552531 15727.01318496
0.05200000 1432664.37171909 14806.58697172
0.05300000 1425028.53165153 16159.82430226
0.05400000 1417295.27121538 12861.95518608
0.05500000 1409468.68041992 11839.53746783
0.05600000 1401549.53456830 16776.54871165
0.05700000 1393542.64457770 19398.11451800
0.05800000 1385447.39615776 15939.57303705
0.05900000 1377267.61813311 13634.95005635
0.06000000 1369007.19578484 13779.05806932
0.06100000 1360667.19356720 20246.72878644
0.06200000 1352250.57974959 12778.76857596
0.06300000 1343760.75964930 15480.12467494
0.06400000 1335196.68364278 15621.80192920
0.06500000 1326565.47407279 15759.59856918
0.06600000 1317867.49611730 14569.02585124
0.06700000 1309104.39047174 16023.43848925
0.06800000 1300280.28866305 13457.90161761
0.06900000 1291398.73871131 13559.68739132
0.07000000 1282459.32188148 15024.01165939
0.07100000 1273466.48078279 19254.81409129
0.07200000 1264421.94647949 13845.42096256
0.07300000 1255329.26654461 15327.57106269
0.07400000 1246191.28948718 18225.54846287
0.07500000 1237008.52357304 18332.46717864
0.07600000 1227784.34499637 17017.09181942
0.07700000 1218522.50171227 18533.72812006
0.07800000 1209224.03181730 18628.09708373
0.07900000 1199890.90410366 23037.90643935
0.08000000 1190528.71139873 15911.41697427
0.08100000 1181137.51342807 17433.59051615
0.08200000 1171719.30453209 21881.85903895
0.08300000 1162276.93222715 17573.62804004
0.08400000 1152813.97251730 16168.21672347
0.08500000 1143331.85846832 16223.87983330
0.08600000 1133833.31817527 23674.44079505
0.08700000 1124320.29899251 17809.23437232
0.08800000 1114794.74645123 17859.01267688
0.08900000 1105260.11655399 17905.21472918
0.09000000 1095718.32831595 16452.21147251
0.09100000 1086171.22432690 23982.66175987
0.09200000 1076620.68304509 21026.40292783
0.09300000 1067071.12022340 15045.70350218
0.09400000 1057521.18964535 16576.64542675
0.09500000 1047974.84735594 22636.25776685
0.09600000 1038434.07741782 18131.05984402
0.09700000 1028903.40800405 16637.36888959
0.09800000 1019381.78931704 15137.82028310
0.09900000 1009872.89429419 18177.71295206
0.10000000 1000376.70748506 19702.42018047
0.10100000 990896.68706658 24257.15204025
0.10200000 981434.48378042 15163.16348763
0.10300000 971992.22142563 16679.38730427
0.10400000 962572.04745608 25772.86778312
0.10500000 953177.10697250 16671.06838531
0.10600001 943803.58868083 18177.65797332
0.10700001 934460.34168026 18165.90989711
0.10800001 925143.91385701 19663.93481445
0.10900001 915859.46676053 19645.18648663
0.11000001 906607.06129089 16604.50910911
0.11100001 897387.62096688 18091.33529031
0.11200001 888204.59072313 16560.57537366
0.11300001 879057.70358719 27057.39739030
0.11400001 869949.39572612 16507.29056114
0.11500001 860881.60033771 23966.94488196
0.11600001 851855.40103066 17940.07559053
0.11700001 842872.02234400 16410.71904790
0.11800001 833931.93096161 16374.25423563
0.11900001 825036.85761867 17820.79696395
0.12000001 816188.18950194 14813.81633726
0.12100001 807389.11859639 25117.87666279
0.12200001 798638.50040021 22102.32153984
0.12300001 789938.73161116 17631.43332026
0.12400001 781289.78432188 16114.10256089
0.12500001 772692.77347754 14603.89410687
0.12600001 764150.74746796 18924.19415282
0.12700001 755662.87719418 20312.21909622
0.12800001 747230.15014500 14458.90408674
0.12900001 738854.22054269 17289.18957557
0.13000001 730535.67963266 14355.02678140
0.13100001 722274.64613720 17161.24640116
0.13200001 714072.76021843 17094.90268549
0.13300001 705931.71780219 17027.07383610
0.13400001 697850.25447405 18370.90881514
0.13500001 689830.58332524 14072.54456333
0.13600001 681872.22182194 16814.96978297
0.13700001 673977.16492902 16741.59356626
0.13800001 666144.00382075 16666.92376154
0.13900001 658375.35261264 16591.05966824
0.14000001 650670.85950247 22018.70292398
0.14100001 643030.86556768 15066.21389082
0.14200001 635455.64385725 14993.57662399
0.14300001 627947.11456606 16276.38997727
0.14400001 620502.14194296 16195.10666863
0.14500001 613125.11619864 20141.16101723
0.14600001 605814.23084876 16029.84530446
0.14700001 598571.84515232 22590.10250177
0.14800001 591393.46233193 14539.40895738
0.14900001 584283.72344985 13146.38439788
0.15000001 577241.02358820 19611.76470175
0.15100001 570266.32416290 15602.48736530
0.15200001 563359.47316021 15514.92062293
0.15300001 556521.54232166 14141.21305770
0.15400001 549748.91293389 16616.16167756
0.15500001 543046.06795305 13978.00644878
0.15600001 536408.54080933 13895.66390547
0.15700001 529842.40373481 15068.71867341
0.15800001 523340.28447875 12481.66637394
0.15900001 516908.51646922 14886.96597699
0.16000001 510541.74650070 16028.45888797
0.16100001 504245.70684050 13478.48838009
0.16200001 498015.28850058 13394.12181651
0.16300001 491852.10113695 12099.56225916
0.16400001 485755.81845076 13224.70278165
0.16500001 479726.04375653 14334.21486418
0.16600001 473763.58390522 15428.11183828
0.16700001 467865.70750189 15327.28130144
0.16800001 462033.43270949 12883.80287943
0.16900001 456268.94036748 11634.85852875
0.17000001 450568.05173878 13868.48528739
0.17100001 444932.11513986 11479.24911267
0.17200001 439361.26643613 18242.28064388
0.17300001 433854.44057107 13588.32172039
0.17400001 428411.33499588 19117.85672705
0.17500001 423031.59507333 16752.05195606
0.17600001 417713.42770367 14417.37963811
0.17700001 412459.60405303 14316.47353286
0.17800001 407265.91376956 10935.09030120
0.17900001 402134.83554267 13029.16928700
0.18000001 397064.61453535 17248.48767015
0.18100001 392056.45441226 11773.45588214
0.18200001 387105.59542499 14876.46873492
0.18300001 382215.32888825 12658.97229078
0.18400001 377383.76122522 11519.63985560
0.18500001 372612.12580138 18712.58184177
0.18600001 367896.68777214 14447.30361135
0.18700001 363238.52368768 11267.65953713
0.18800001 358636.97928935 11184.09472754
0.18900001 354093.57396556 14128.33426875
0.19000001 349601.92756039 13020.92440721
0.19100001 345169.68176955 15905.41968747
0.19200001 340788.44702332 11838.99120900
0.19300001 336463.76975555 10770.20577880
0.19400001 332189.95194297 13603.17917487
0.19500001 327970.26581755 15427.72203310
0.19600001 323801.90909111 10525.18155239
0.19700001 319684.57676905 10444.09561661
0.19800001 315618.61675840 9421.21615547
0.19900001 311603.12047434 11217.71286722
0.20000001 307636.03373449 9275.22685545
0.20100001 303719.22161874 11043.23141999
0.20200001 299849.20344365 12782.57214695
0.20300001 296028.49402654 14493.55575257
0.20400001 292254.17449556 8986.81629051
0.20500001 288526.07799689 13373.18434726
0.20600001 284843.90908946 9728.84417481
0.20700001 281207.43256921 14915.24292850
0.20800001 277614.54334770 10443.85961442
0.20900001 274068.00468152 11223.08532224
0.21000001 270562.87694539 10275.97855216
0.21100001 267101.17775334 12740.72678113
0.21200001 263681.61334192 12636.94191682
0.21300001 260302.70114477 14204.71907301
0.21400001 256965.94982303 9115.86750094
0.21500001 253670.48501867 10684.60133413
0.21600001 250413.82085752 8966.06727971
0.21700001 247196.90314546 9700.00693804
0.21800001 244018.64307801 8817.61408453
0.21900001 240877.78483166 8743.86400281
0.22000001 237774.44454268 8670.44553021
0.22100001 234709.66761026 12505.33168157
0.22200001 231681.45494192 8524.71953767
0.22300001 228687.67770498 10757.46886791
0.22400001 225729.51615201 8380.20868341
0.22500001 222808.15682127 12085.11499746
0.22600001 219919.10950069 8985.89523912
0.22700001 217066.14141352 7423.66238740
0.22800001 214245.45934387 10303.06462708
0.22900001 211456.82870945 12401.94359031
0.23000001 208701.92443883 7954.67422618
0.23100001 205979.45275919 8601.70235402
0.23200001 203286.94648876 9236.34285054
0.23300001 200626.10631413 8450.37199761
0.23400001 197996.58573185 7677.31797485
0.23500001 195395.33810216 7608.69482556
0.23600001 192825.36854876 8225.93061135
0.23700001 190284.17222299 8831.08885056
0.23800001 187771.88554767 8077.94689834
0.23900001 185287.73938043 11339.61018644
0.24000001 182831.44864534 9253.10005362
0.24100001 180403.85460444 11787.58841742
0.24200001 178002.94785258 6488.20775613
0.24300001 175629.15730932 8999.23844622
0.24400001 173281.19360602 7641.70099951
0.24500001 170959.57763405 10093.45394098
0.24600001 168664.00495111 7498.80201486
0.24700001 166393.90787288 6808.83903226
0.24800001 164148.80972101 7357.14999974
0.24900001 161927.60176291 11537.34217141
0.25000001 159731.92413105 6013.90722804
0.25100001 157558.95899062 5955.72893160
0.25200001 155411.81793952 6487.66664682
0.25300001 153287.68185338 7008.31314590
0.25400001 151186.24808029 7517.73654147
0.25500001 149107.52747812 6870.87519127
0.25600001 147052.01945586 7936.39786552
0.25700001 145018.14935986 5612.20264576
0.25800001 143007.10319427 8889.32195515
0.25900001 141017.91442164 6599.63870719
0.26000001 139050.25623230 6532.58134689
0.26100001 137103.16574315 5388.15466865
0.26200001 135178.44988670 7999.18515054
0.26300001 133273.69380113 6860.93008152
0.26400001 131389.92223263 5745.02462147
0.26500001 129526.96034838 5684.93855870
0.26600001 127683.30954676 6136.46014719
0.26700001 125860.90393418 5565.56943533
0.26800001 124058.50836690 7008.06546927
0.26900001 122274.49603817 7428.17598583
0.27000001 120511.06274494 7838.03989184
0.27100001 118766.29000816 6783.93080630
0.27200001 117042.10228033 4792.87431519
0.27300001 115335.77014267 5214.33041491
0.27400001 113646.58146984 5625.50604898
0.27500001 111978.93471094 5099.52092807
0.27600001 110327.18750738 5500.91382945
0.27700001 108695.75006307 4532.61299214
0.27800001 107081.29781818 7170.16404125
0.27900001 105486.12368554 6202.58436626
0.28000001 103907.36709726 5693.60444956
0.28100001 102347.14348000 4762.21281152
0.28200001 100805.08950994 4707.09387745
0.28300001 99280.01524486  4229.32884961
0.28400001 97772.17349628  5015.71273776
0.28500001 96281.96385159  4956.59573368
0.28600001 94808.85480843  4081.52139269
0.28700001 93352.55435186  4436.11359277
0.28800001 91912.69137138  5179.73996741
0.28900001 90491.31079301  5904.55830873
0.29000001 89085.15157810  4277.42375549
0.29100001 87696.45990371  5377.54717584
0.29200001 86324.18727156  4552.73785221
0.29300001 84968.29727854  4871.23271356
0.29400001 83627.97875475  4810.69970559
0.29500001 82305.13241616  6212.39168885
0.29600001 80997.69665307  4330.13706805
0.29700001 79706.36366746  5344.31193689
0.29800001 78430.95009050  4221.15393369
0.29900001 77171.92294551  5556.37871511
0.30000001 75927.97233604  3770.96292459
0.30100001 74700.73887318  3722.33799427
0.30200001 73487.40636744  3674.00305527
0.30300001 72291.04230042  3296.47168496
0.30400001 71110.13190663  3253.28868874
0.30500001 69944.30023280  4494.62094575
0.30600001 68792.66586831  3484.69265453
0.30700001 67657.63174313  3438.36100797
0.30800001 66537.13292128  4317.59475967
0.30900001 65431.69926746  3651.08899198
0.31000001 64341.64705202  3301.69177479
0.31100001 63265.39747534  3256.90281623
0.31200001 62204.85392843  4380.77704532
0.31300001 61158.30877301  2880.55647959
0.31400001 60127.61945412  3125.13316909
0.31500001 59110.30880678  3362.19452412
0.31600002 58107.98046039  2763.03460171
0.31700002 57119.88715867  2997.08062112
0.31800002 56146.19809263  2955.25527653
0.31900002 55186.78852530  2913.86257210
0.32000002 54241.71531103  2872.91258748
0.32100002 53309.99238486  3089.84730493
0.32200002 52393.57355906  4061.55001461
0.32300002 51489.19600350  2752.61254869
0.32400002 50599.53045262  2960.07267164
0.32500002 49723.35150178  2917.76640429
0.32600002 48861.15743649  3355.29584004
0.32700002 48012.01719653  3307.06790110
0.32800002 47177.05425305  2561.00651140
0.32900002 46354.71002208  3212.38155665
0.33000002 45546.65703026  2713.66995437
0.33100002 44749.15283938  2897.06029201
0.33200002 43967.98201260  2196.20080553
0.33300002 43198.27220698  2164.23354006
0.33400002 42441.91821082  2132.70649109
0.33500002 41697.34079276  2521.85529057
0.33600002 40966.57842409  2277.94670115
0.33700002 40247.46285139  2652.71040216
0.33800002 39541.72067948  2814.97522848
0.33900002 38847.47425592  2179.34340897
0.34000002 38166.07619611  2928.29233482
0.34100002 37496.53085376  2308.28654867
0.34200002 36839.84507941  3032.65619056
0.34300002 36194.02823282  2614.65672337
0.34400002 35561.36522972  2024.33081157
0.34500002 34939.58419043  1994.70095590
0.34600002 34330.57287327  3573.81280537
0.34700002 33731.34591563  1936.85397421
0.34800002 33145.29311080  1908.67179418
0.34900002 32569.73656186  1709.91125048
0.35000002 32005.54535815  1685.09204292
0.35100002 31453.25145879  1826.80493125
0.35200002 30910.40413071  1800.37657386
0.35300002 30379.23013136  2419.70579457
0.35400002 29859.15525622  1590.00009270
0.35500002 29349.67124420  1723.99977054
0.35600002 28849.89388039  1699.40307952
0.35700002 28361.20986902  1675.29674631
0.35800002 27883.31684321  2252.27502469
0.35900002 27415.27926707  2220.63772581
0.36000002 26957.71866837  1605.73658854
0.36100002 26509.37098723  2303.13426046
0.36200002 26072.15369747  1561.59171968
0.36300002 25643.52294790  1400.13641928
0.36400002 25224.69325410  1933.47282951
0.36500002 24815.27887484  1771.06653719
0.36600002 24415.67280207  1344.08285142
0.36700002 24024.75983844  1989.25020885
0.36800002 23644.45354719  1570.46467900
0.36900002 23272.19441945  2066.57096234
0.37000002 22908.55330356  1784.80547243
0.37100002 22553.68895928  2139.44303602
0.37200002 22208.30566814  1615.32118929
0.37300002 21870.93798584  1472.35161495
0.37400002 21542.04988567  1454.08843616
0.37500002 21221.95172158  1196.91813380
0.37600002 20910.03072259  1418.95475205
0.37700002 20605.85215848  1285.18706001
0.37800002 20309.58565499  1154.59999918
0.37900002 20021.68899138  1483.60722454
0.38000002 19741.56867563  1353.87684391
0.38100002 19468.02657168  1561.72516556
0.38200002 19203.03063842  1544.49982742
0.38300002 18944.81014966  1309.46533958
0.38400002 18694.66391553  1511.46364918
0.38500002 18450.53096931  1281.94295248
0.38600002 18214.58541756  1374.56375366
0.38700002 17984.88030455  1046.72008331
0.38800002 17762.10633346  1140.06084902
0.38900002 17545.52626365  1642.26133608
0.39000002 17336.68043803  1525.19453379
0.39100002 17133.15607491  1108.17258743
0.39200002 16936.66267500  1198.09957439
0.39300002 16745.97352103  1088.65579018
0.39400002 16562.73123828  1570.14699578
0.39500002 16384.29735734  1167.87277096
0.39600002 16211.95620254  1351.59085264
0.39700002 16045.30696294  1245.27633239
0.39800002 15884.51308061  1235.89459879
0.39900002 15729.19001449  1321.25202382
0.40000002 15579.13633414  937.08509490
0.40100002 15434.85616003  1116.86624466
0.40200002 15295.89183540  924.63670526
0.40300002 15161.42789349  1286.29560343
0.40400002 15032.63550591  1004.55591528
0.40500002 14908.68333028  1271.11440097
0.40600002 14789.74221423  993.20518546
0.40700002 14675.16987497  1167.55657057
0.40800002 14565.55864527  1251.03589132
0.40900002 14460.22633637  889.30396182
0.41000002 14359.74920211  973.80643828
0.41100002 14263.39358115  881.47776508
0.41200002 14170.92805256  1053.46684134
0.41300002 14083.45324077  962.04073646
0.41400002 13999.39776340  871.46255206
0.41500002 13919.61648402  868.58410976
0.41600002 13843.19438464  952.48103477
0.41700002 13770.86616212  1208.80668899
0.41800002 13703.23286410  1033.49787158
0.41900002 13637.21185764  945.05882652
0.42000002 13575.94400416  1028.78508538
0.42100002 13518.32924558  1026.85233815
0.42200002 13464.11547109  1025.15780055
0.42300002 13412.58797149  938.34469895
0.42400002 13364.13779526  1277.94573723
0.42500002 13319.33715693  936.21625312
0.42600002 13276.57114145  1275.54663286
0.42700002 13238.08719219  934.87376181
0.42800002 13201.33429818  849.50590234
0.42900002 13168.67832688  1274.06968850
0.43000002 13138.05685485  1104.18804069
0.43100002 13109.15485247  934.42060216
0.43200002 13083.93011745  934.78143154
0.43300002 13060.96206574  935.29553785
0.43400002 13040.35169933  1276.32448305
0.43500002 13021.92335086  1192.28735851
0.43600002 13006.14292858  1108.31852218
0.43700002 12991.98045890  1024.28778792
0.43800002 12979.99735550  1025.67943964
0.43900002 12970.70243063  1198.49296139
0.44000002 12962.86782874  1028.99249701
0.44100002 12957.35695892  1030.88736851
0.44200002 12953.47097182  1205.06146162
0.44300002 12951.54579254  948.83028973
0.44400002 12951.72292000  1383.24407341
0.44500002 12952.29756106  1299.76312185
0.44600002 12954.96581706  1042.35659904
0.44700002 12960.19479839  870.92513173
0.44800002 12965.38576483  1135.18440444
0.44900002 12973.64946348  875.72138029
0.45000002 12982.70740443  1317.42029630
0.45100002 12992.82120067  1145.18731490
0.45200002 13004.34668848  1325.46809904
0.45300002 13016.93720020  975.09881188
0.45400002 13031.03735377  1067.24200985
0.45500002 13046.25649253  1160.07318230
0.45600002 13062.39904259  984.97024649
0.45700002 13079.63479055  1347.85642905
0.45800002 13097.40704316  1172.28347296
0.45900002 13116.46568915  1448.05788071
0.46000002 13136.98428935  908.42250666
0.46100002 13157.22514491  1002.97532033
0.46200002 13179.22500748  1006.82694216
0.46300002 13201.91514621  1010.73867150
0.46400002 13224.50443378  1014.65015077
0.46500002 13248.47060949  1111.28176739
0.46600002 13272.78151979  1022.73422848
0.46700002 13297.53344376  933.48689200
0.46800002 13323.64939069  1031.05065697
0.46900002 13349.23153286  1035.23295444
0.47000002 13375.69027020  1039.49181862
0.47100002 13402.70867765  1328.47654709
0.47200002 13430.22622291  1143.44951481
0.47300002 13458.20751307  1148.25431944
0.47400002 13485.81039103  1345.20965027
0.47500002 13514.17511553  1543.85943837
0.47600002 13543.33434064  1259.73330340
0.47700002 13571.75627357  973.09497094
