# SAXS profile: number of points = 501, q_min = 0, q_max = 0.5, delta_q = 0.001
#    q    intensity    error
0.00000000 1664650.74656090 399.51617917
0.00100000 1664564.43550654 798.99094802
0.00200000 1664305.46778431 748.93748422
0.00300000 1663874.06130475 1197.98936682
0.00400000 1663270.09037873 1372.19787670
0.00500000 1662494.20272534 1795.49381001
0.00600000 1661546.26698560 2616.93547704
0.00700000 1660426.98575341 2789.51745200
0.00800000 1659136.14736785 2239.83389351
0.00900000 1657675.21355158 2735.16421928
0.01000000 1656043.51877131 4918.44946313
0.01100000 1654242.61356059 3275.40051746
0.01200000 1652272.47387567 3544.12461185
0.01300000 1650134.36775624 4504.86702266
0.01400000 1647828.54573864 4078.37583150
0.01500000 1645356.49673491 5528.39807520
0.01600000 1642717.86078399 4607.82380548
0.01700000 1639914.85654475 5313.32437355
0.01800000 1636947.99998781 6531.42281385
0.01900000 1633818.25822832 5881.74599502
0.02000000 1630526.39428875 7704.23756152
0.02100000 1627075.08386517 5906.28282221
0.02200000 1623463.07013450 6721.13741571
0.02300000 1619693.42570939 6997.07591756
0.02400000 1615766.61789334 9088.68764007
0.02500000 1611685.13697712 11314.03017830
0.02600000 1607449.43349326 6510.17050341
0.02700000 1603061.36203253 8079.42963469
0.02800000 1598521.28591333 6953.56791261
0.02900000 1593832.79255476 10758.37184371
0.03000000 1588996.25888604 9605.48282648
0.03100000 1584013.40117813 8363.59114306
0.03200000 1578885.49703613 11723.22535544
0.03300000 1573616.66973119 9630.53446273
0.03400000 1568205.29838433 10703.00165531
0.03500000 1562655.59649036 8438.34061071
0.03600000 1556967.98741008 10369.40727536
0.03700000 1551145.73413641 11493.99042152
0.03800000 1545190.18595190 9943.29930677
0.03900000 1539103.96093185 12005.01145122
0.04000000 1532887.12803971 11312.70752915
0.04100000 1526543.77133626 11540.67144640
0.04200000 1520075.41994508 9804.48691350
0.04300000 1513483.66976929 10987.89195256
0.04400000 1506771.80269376 12204.85216864
0.04500000 1499941.73073764 12419.51810758
0.04600000 1492994.12539392 13683.29179533
0.04700000 1485933.18740456 19257.69500440
0.04800000 1478760.45501540 13042.66782009
0.04900000 1471478.47298188 11036.08906107
0.05000000 1464089.17778634 12320.31100478
0.05100000 1456596.39802139 15906.03340736
0.05200000 1448999.09344685 17279.31499459
0.05300000 1441303.12525658 16344.37820235
0.05400000 1433509.22313997 11826.45164242
0.05500000 1425620.93601972 16765.30298968
0.05600000 1417639.28942239 12120.81649017
0.05700000 1409569.07886838 15942.22702616
0.05800000 1401409.78826455 14882.97264629
0.05900000 1393165.29392773 17553.88352336
0.06000000 1384839.22476991 15205.53539836
0.06100000 1376432.98802820 14080.91012555
0.06200000 1367949.38314001 18097.97118491
0.06300000 1359391.73104437 14355.17735101
0.06400000 1350759.36625692 17120.87576799
0.06500000 1342058.95057439 17272.29950185
0.06600000 1333291.25148933 13399.57770441
0.06700000 1324457.94557289 13509.47167707
0.06800000 1315562.95915491 16339.29271753
0.06900000 1306609.83621701 17835.22509939
0.07000000 1297598.14166735 19347.18919826
0.07100000 1288532.67303089 15307.76887259
0.07200000 1279414.82303601 14009.59296855
0.07300000 1270248.42241191 19739.66140919
0.07400000 1261036.16098099 15605.32322347
0.07500000 1251778.59116177 15697.30426894
0.07600000 1242479.15032351 15785.69834490
0.07700000 1233141.64270951 17313.30947544
0.07800000 1223767.08684677 20302.29692289
0.07900000 1214357.46512182 23315.66442393
0.08000000 1204918.23254674 20495.66009709
0.08100000 1195449.76462899 16174.43607431
0.08200000 1185953.66407756 16241.63619168
0.08300000 1176433.24762318 20752.28346202
0.08400000 1166891.85984633 16365.65910253
0.08500000 1157331.04082010 19408.44246569
0.08600000 1147753.57466390 17973.82182313
0.08700000 1138161.13896313 19530.84606173
0.08800000 1128556.13535537 21092.71516039
0.08900000 1118941.60884599 16616.28367182
0.09000000 1109319.81301759 16656.43777490
0.09100000 1099692.37468526 18210.90658036
0.09200000 1090061.37465170 24330.17102542
0.09300000 1080431.04683497 16757.48632388
0.09400000 1070800.27509458 18310.68556467
0.09500000 1061172.93842164 18337.06923782
0.09600000 1051551.14665524 22950.10485458
0.09700000 1041939.12359383 26038.05992273
0.09800000 1032336.34230564 22995.29310604
0.09900000 1022745.91932475 15341.18951125
0.10000000 1013168.22878613 19954.34920434
0.10100000 1003606.79064488 18426.22154286
0.10200000 994063.06907137 23037.41270932
0.10300000 984539.07568496 19966.45339413
0.10400000 975037.40619696 15356.83987007
0.10500000 965560.66094436 23028.62284700
0.10600001 956105.82292903 15345.49918007
0.10700001 946680.99544167 16869.85613263
0.10800001 937283.23331012 19921.95606157
0.10900001 927917.30209827 18372.76344627
0.11000001 918583.54658406 18353.30012463
0.11100001 909283.13579226 19858.74462052
0.11200001 900018.90458126 18306.38538099
0.11300001 890790.96215543 19802.28402102
0.11400001 881601.98856271 18249.16202250
0.11500001 872453.73827450 19734.90448905
0.11600001 863346.77967714 15151.73669685
0.11700001 854283.17571719 18144.97550677
0.11800001 845262.96211742 16596.73904285
0.11900001 836287.92448812 16558.50168480
0.12000001 827359.78231364 16518.23883198
0.12100001 818481.28634223 19471.67071936
0.12200001 809651.47629396 19419.49157379
0.12300001 800872.76471814 16385.85753814
0.12400001 792145.21317390 22279.08517025
0.12500001 783469.68134950 19249.85097782
0.12600001 774849.68988336 25093.50838937
0.12700001 766284.08595136 19126.45168671
0.12800001 757773.88448642 20528.09549821
0.12900001 749320.76363301 16072.93113748
0.13000001 740925.48137748 17471.02367438
0.13100001 732588.00057742 14505.24309518
0.13200001 724310.01774012 15894.98408860
0.13300001 716093.25805918 18711.51771520
0.13400001 707936.21872868 17202.85092615
0.13500001 699841.77461601 17132.12745035
0.13600001 691808.83257058 17060.00661558
0.13700001 683839.48310689 18402.12135813
0.13800001 675932.49839881 19730.47055867
0.13900001 668090.63739671 15432.89445165
0.14000001 660313.11282555 19551.87219284
0.14100001 652600.64430537 20850.59156893
0.14200001 644953.38763825 16601.10098080
0.14300001 637373.47027236 13767.26760725
0.14400001 629857.29211663 17809.21577466
0.14500001 622409.51755231 13630.76907739
0.14600001 615028.30918886 14917.51234310
0.14700001 607716.06050190 13491.29717961
0.14800001 600468.56637560 16104.56770999
0.14900001 593290.04920777 14683.92941069
0.15000001 586179.11446610 21243.13211056
0.15100001 579136.63996454 19806.47402135
0.15200001 572162.39199721 17070.46577074
0.15300001 565257.70927416 13057.45370040
0.15400001 558418.73398756 15579.88341348
0.15500001 551650.02710556 15490.33349216
0.15600001 544947.26193458 17966.91207393
0.15700001 538316.37033419 15309.71829487
0.15800001 531750.04684697 13950.46313747
0.15900001 525254.53238590 16387.94218396
0.16000001 518824.59694428 15035.53752916
0.16100001 512465.79858932 13698.21144291
0.16200001 506173.38561326 13613.53384871
0.16300001 499948.54479061 14758.48173893
0.16400001 493791.41764198 14665.60579632
0.16500001 487701.10226670 13358.13382174
0.16600001 481678.70059628 12066.05201961
0.16700001 475721.42242284 15584.63453440
0.16800001 469830.34480897 13101.21978359
0.16900001 464007.42379965 13015.40885214
0.17000001 458248.76331008 14104.89760071
0.17100001 452555.60828021 12843.52876948
0.17200001 446927.98826822 12757.56002757
0.17300001 441364.99175014 13823.55219442
0.17400001 435866.38006230 11441.49301697
0.17500001 430431.52470242 15908.74990433
0.17600001 425058.73540935 13542.37194974
0.17700001 419750.87012194 22414.69752317
0.17800001 414503.82411697 14468.25666417
0.17900001 409319.72335569 11051.63305261
0.18000001 404197.08181850 10973.95128973
0.18100001 399137.02594595 15255.01785225
0.18200001 394134.90842429 15146.60524624
0.18300001 389193.92784847 11815.92820766
0.18400001 384312.10094806 13864.05969665
0.18500001 379490.70220319 13764.12841916
0.18600001 374726.08213786 10511.06710055
0.18700001 370019.16836940 10434.54104099
0.18800001 365369.34196643 10358.22133413
0.18900001 360778.45280677 10282.18639080
0.19000001 356239.46929616 10206.26127757
0.19100001 351760.42445218 14182.98098406
0.19200001 347333.18823778 12066.35552953
0.19300001 342962.67801638 15968.34304299
0.19400001 338643.78893526 9905.33129442
0.19500001 334379.24711777 9830.75032982
0.19600001 330166.71981904 10732.06973488
0.19700001 326005.74168910 11618.84518288
0.19800001 321896.52331330 11530.33400999
0.19900001 317838.21897289 10488.66172180
0.20000001 313828.89182476 12300.52399641
0.20100001 309870.06943748 14083.59532156
0.20200001 305958.75354782 12111.37783162
0.20300001 302096.97172148 11093.00132592
0.20400001 298282.19057387 11923.83113178
0.20500001 294514.02821857 11830.62907274
0.20600001 290792.26187046 9029.10015787
0.20700001 287116.61023726 9853.84252912
0.20800001 283484.80199378 8887.24896261
0.20900001 279900.06833418 10580.22308317
0.21000001 276356.80784413 10496.03205809
0.21100001 272857.54249856 11279.93134013
0.21200001 269400.81424056 8607.35642189
0.21300001 265985.17105763 10245.74927351
0.21400001 262611.99603573 10163.08472706
0.21500001 259280.53649645 10080.82773558
0.21600001 255988.26156119 9165.66013854
0.21700001 252736.08782498 10743.81160140
0.21800001 249522.81769718 9836.18993868
0.21900001 246347.55437232 11381.25755012
0.22000001 243209.96372966 14512.33922193
0.22100001 240111.27489935 10394.41758188
0.22200001 237049.53357558 11893.96090955
0.22300001 234022.72765903 7863.16402116
0.22400001 231031.47236372 10136.50632928
0.22500001 228077.65587695 13144.11592974
0.22600001 225156.44096554 10733.20804838
0.22700001 222271.56342547 9122.02539435
0.22800001 219419.15038744 8290.75298946
0.22900001 216599.25920894 8219.94227571
0.23000001 213813.25648910 8149.49265649
0.23100001 211060.05078979 8079.37912633
0.23200001 208337.12765750 7281.38295599
0.23300001 205645.93221335 7939.98981828
0.23400001 202986.36552417 7155.26972314
0.23500001 200355.39884603 7801.83960006
0.23600001 197755.92373518 7733.24576342
0.23700001 195185.49634162 7664.93480387
0.23800001 192644.13323075 8287.55100358
0.23900001 190131.23129585 8213.66958048
0.24000001 187646.31051812 8140.09733531
0.24100001 185190.38770038 7394.65253065
0.24200001 182761.42563831 7327.81970759
0.24300001 180359.44503624 7921.38720070
0.24400001 177983.77444702 9811.35603050
0.24500001 175634.73376961 11665.65956881
0.24600001 173311.55565993 6421.19344096
0.24700001 171014.24157583 8270.24911384
0.24800001 168742.16125282 8193.27602723
0.24900001 166494.23495617 6867.88751684
0.25000001 164271.70140694 6184.82985056
0.25100001 162072.17577034 6738.96138734
0.25200001 159898.58087993 7281.78171777
0.25300001 157748.17840011 9015.30882208
0.25400001 155620.59421989 9523.98081685
0.25500001 153515.80045030 6484.50771782
0.25600001 151434.35544280 7005.35361423
0.25700001 149374.95964800 6936.97345426
0.25800001 147338.05834668 6296.49222136
0.25900001 145323.36224277 6234.37253519
0.26000001 143330.24457629 6172.51727473
0.26100001 141357.82017968 5555.36259592
0.26200001 139407.86319880 7149.53260244
0.26300001 137477.85607232 5444.12335807
0.26400001 135569.02945932 10238.85143440
0.26500001 133681.11342448 5333.87667803
0.26600001 131812.54634360 7390.72982321
0.26700001 129965.20170825 6791.98176267
0.26800001 128138.13324070 5687.41131302
0.26900001 126329.31268255 6139.60488691
0.27000001 124541.20031733 7087.64004546
0.27100001 122771.86594584 6010.91084116
0.27200001 121023.09231706 6442.66462439
0.27300001 119292.36700572 6373.79147075
0.27400001 117578.67587155 8730.21709662
0.27500001 115886.59465088 6237.01681928
0.27600001 114210.47026369 5694.53431685
0.27700001 112554.67960553 4693.53036168
0.27800001 110915.92969468 6498.56462837
0.27900001 109296.34703333 6426.62550972
0.28000001 107693.36229540 7716.76824050
0.28100001 106108.88119825 5386.08706454
0.28200001 104542.54624766 4437.83129825
0.28300001 102993.25774283 5703.76688376
0.28400001 101461.16502036 4771.21151091
0.28500001 99946.85224604  4716.49218073
0.28600001 98449.47414060  6357.37509354
0.28700001 96968.97272612  4189.05982005
0.28800001 95504.85422875  6624.21700285
0.28900001 94059.37413691  4500.74126549
0.29000001 92628.98831548  7682.18550957
0.29100001 91216.10603869  5992.89845041
0.29200001 89819.56108144  4342.32688603
0.29300001 88439.57777002  4290.20412070
0.29400001 87075.13034753  4238.38217030
0.29500001 85728.01227290  4567.58871012
0.29600001 84396.27861063  4135.83982909
0.29700001 83080.69967801  4827.81968683
0.29800001 81780.96008000  4034.66385654
0.29900001 80497.74717627  3622.39879441
0.30000001 79229.37125424  6081.25067850
0.30100001 77977.90754296  3885.63931681
0.30200001 76740.25860776  3487.84491884
0.30300001 75519.60078705  4132.43275070
0.30400001 74314.27449658  4079.85386301
0.30500001 73123.96613341  4363.30726575
0.30600001 71948.00456811  4307.16749738
0.30700001 70788.50958860  4905.64394674
0.30800001 69643.64615560  3227.98315214
0.30900001 68513.65463310  3504.47360040
0.31000001 67399.14219832  3144.17013241
0.31100001 66298.41905667  3102.76615875
0.31200001 65213.33860400  3061.76639242
0.31300001 64142.23361248  3323.20928080
0.31400001 63086.94936496  4471.28774794
0.31500001 62045.03851607  3235.02846140
0.31600002 61018.16499976  3191.55527142
0.31700002 60005.40933058  4007.16142483
0.31800002 59007.11214641  3670.53758486
0.31900002 58023.12330349  3342.13206053
0.32000002 57053.34787510  4395.39012842
0.32100002 56096.88691333  4064.21964931
0.32200002 55155.83566097  3206.76043717
0.32300002 54226.75716450  3162.50462758
0.32400002 53312.37605880  3118.77414712
0.32500002 52411.52939292  3331.80108127
0.32600002 51524.56818817  3285.46424609
0.32700002 50650.65077723  2990.41456349
0.32800002 49791.01604199  2457.18675803
0.32900002 48943.89116347  3391.81181824
0.33000002 48110.98014554  3105.32336054
0.33100002 47288.86915484  2590.48437497
0.33200002 46482.89006472  2321.82046868
0.33300002 45688.44287822  2288.99109659
0.33400002 44907.33713785  2933.57193745
0.33500002 44138.08538780  2669.47153067
0.33600002 43382.48169845  3289.47683056
0.33700002 42638.64033316  2161.77916727
0.33800002 41908.25156487  2770.34510089
0.33900002 41189.26080455  2310.71764057
0.34000002 40483.28415691  2277.79209096
0.34100002 39789.09645966  2449.41689406
0.34200002 39107.72993901  3018.13920098
0.34300002 38437.31586501  2380.03871108
0.34400002 37780.15284489  2932.68450348
0.34500002 37133.73858437  1927.24112380
0.34600002 36500.13516138  2659.76497518
0.34700002 35876.49051812  2060.02818312
0.34800002 35265.93740922  2953.87505730
0.34900002 34665.88604390  2729.93865525
0.35000002 34077.41649979  1973.59367006
0.35100002 33500.64571745  1945.71759542
0.35200002 32933.68588036  1918.22262495
0.35300002 32378.20169190  1719.28259127
0.35400002 31833.77704434  2203.69332027
0.35500002 31300.26088517  1671.43401043
0.35600002 30776.39986225  2636.92206509
0.35700002 30263.62616741  1787.67248238
0.35800002 29761.63181404  1602.66394910
0.35900002 29269.79027313  1896.68249954
0.36000002 28788.41498089  1714.78201956
0.36100002 28316.24412388  1998.84376738
0.36200002 27855.28041690  2730.09616298
0.36300002 27403.07058168  2094.69081448
0.36400002 26960.64649919  1771.31455890
0.36500002 26527.65158896  2184.55221183
0.36600002 26104.64318362  1437.06067533
0.36700002 25690.39327876  1843.54270901
0.36800002 25286.83008867  1679.55133405
0.36900002 24891.49486861  2072.21704597
0.37000002 24504.70984874  1363.68716768
0.37100002 24126.84959880  1480.90609852
0.37200002 23758.60777064  1462.22358451
0.37300002 23398.41948974  1443.91653511
0.37400002 23046.88049844  2203.85805206
0.37500002 22704.17086454  1280.51529742
0.37600002 22369.81153128  1265.01290202
0.37700002 22043.20953400  1624.80505172
0.37800002 21724.68538847  1482.05810741
0.37900002 21414.66910278  1953.01791469
0.38000002 21112.54529788  1447.89842512
0.38100002 20817.10938796  1789.23063666
0.38200002 20530.24369214  1415.35506719
0.38300002 20250.39913766  1399.70765470
0.38400002 19978.67576874  1269.14543833
0.38500002 19713.10737617  1255.52786827
0.38600002 19455.98977551  1355.30431197
0.38700002 19204.98630612  1229.50328157
0.38800002 18961.27180233  1106.39026208
0.38900002 18723.70090488  1095.33655483
0.39000002 18494.12983504  1193.14884283
0.39100002 18269.99786867  1289.13111069
0.39200002 18053.04812144  1170.64996090
0.39300002 17841.96416520  1054.46013212
0.39400002 17638.61075726  1045.08773688
0.39500002 17440.09430268  1243.12998079
0.39600002 17247.84798091  1027.10939593
0.39700002 17061.44099656  1324.13849848
0.39800002 16881.11678771  1111.36837637
0.39900002 16706.29231145  1102.61534480
0.40000002 16537.00602339  1193.64115132
0.40100002 16373.59955954  1283.52653028
0.40200002 16215.63475908  1470.35275144
0.40300002 16062.46318579  1362.73944125
0.40400002 15914.97946327  1643.61958194
0.40500002 15772.61894450  960.55253923
0.40600002 15635.21272131  1049.98276005
0.40700002 15502.68302517  1518.02279375
0.40800002 15375.01654050  943.25730945
0.40900002 15251.92141140  1500.78913799
0.41000002 15133.89494822  1026.30513454
0.41100002 15020.03199170  1021.06182318
0.41200002 14910.31199767  1385.54080803
0.41300002 14805.73945545  1287.21104925
0.41400002 14704.74849038  1006.90770059
0.41500002 14608.21514752  1093.86320208
0.41600002 14515.18007260  1271.09437919
0.41700002 14426.50344467  994.99598973
0.41800002 14342.58936605  991.57496281
0.41900002 14260.59742759  1167.94298466
0.42000002 14183.52888741  1164.39685919
0.42100002 14110.23406884  1161.13121655
0.42200002 14040.48408290  979.95563300
0.42300002 13973.71445384  977.60110952
0.42400002 13910.10327317  1064.12295082
0.42500002 13850.35246371  885.03756437
0.42600002 13792.80080189  883.42893322
0.42700002 13739.77800607  1146.72192673
0.42800002 13688.74614443  1057.04502736
0.42900002 13641.84758765  1055.87905332
0.43000002 13597.24047148  1142.78012958
0.43100002 13554.59400974  1054.00528014
0.43200002 13515.71103028  965.63002032
0.43300002 13479.23853474  965.24831721
0.43400002 13445.47373303  1140.51236345
0.43500002 13413.92982659  1315.90657835
0.43600002 13385.39168234  1140.63620626
0.43700002 13358.53973152  965.42171215
0.43800002 13333.96148079  965.84554563
0.43900002 13312.33991426  1054.33737117
0.44000002 13292.43496105  1231.01246008
0.44100002 13274.97030767  1496.22197428
0.44200002 13259.36760831  1057.30202319
0.44300002 13245.85834048  970.39162801
0.44400002 13234.63614743  971.75320518
0.44500002 13224.01731145  1680.90492012
0.44600002 13215.64107021  1063.33053090
0.44700002 13210.04698466  976.48671938
0.44800002 13204.67923197  1067.20222610
0.44900002 13202.48395586  891.16770925
0.45000002 13201.26648573  982.37229209
0.45100002 13201.28838690  984.55213456
0.45200002 13202.96988734  1255.99858491
0.45300002 13205.79963187  989.24649731
0.45400002 13210.35299680  1172.08862519
0.45500002 13216.23014427  994.38920318
0.45600002 13223.19530518  997.09508924
0.45700002 13231.42007036  1181.69818249
0.45800002 13240.40770608  1002.76232515
0.45900002 13250.72587359  914.30012861
0.46000002 13262.75189652  1192.25513824
0.46100002 13274.68318727  1011.92914733
0.46200002 13288.58383817  1015.18141043
0.46300002 13303.31580823  1296.27515379
0.46400002 13318.13758158  1021.83415438
0.46500002 13334.49551014  1118.49753640
0.46600002 13351.30456633  1215.83660796
0.46700002 13368.69610516  938.48251106
0.46800002 13387.67957491  1036.00563301
0.46900002 13406.32885077  945.14622878
0.47000002 13426.07127505  1043.40717859
0.47100002 13446.32008724  951.99950730
0.47200002 13467.41444476  1051.06441016
0.47300002 13489.13491990  959.07753826
0.47400002 13510.56484544  1251.41612812
0.47500002 13532.89121330  966.24847843
0.47600002 13556.16436414  1066.93796685
0.47700002 13578.93057818  1168.33124232
