# SAXS profile: number of points = 501, q_min = 0, q_max = 0.5, delta_q = 0.001
#    q    intensity    error
0.00000000 1682732.95097188 353.37391970
0.00100000 1682646.11004731 656.23199850
0.00200000 1682385.55442351 832.78087581
0.00300000 1681951.49959826 1211.00512285
0.00400000 1681343.82229332 1513.20949756
0.00500000 1680563.17909326 1815.00830526
0.00600000 1679609.41145883 2116.30794460
0.00700000 1678483.25984987 2014.17999553
0.00800000 1677184.49291293 2943.45890933
0.00900000 1675714.56192715 2764.92914537
0.01000000 1674072.81547765 3038.44229129
0.01100000 1672260.85840162 3913.09057903
0.01200000 1670278.57952888 3582.74771017
0.01300000 1668127.29257407 5254.60120336
0.01400000 1665807.25916227 4122.87314920
0.01500000 1663319.94625513 4790.36165852
0.01600000 1660665.00818287 5928.57434424
0.01700000 1657844.68710852 4476.18085599
0.01800000 1654859.51413235 5659.61979300
0.01900000 1651710.35329339 7928.21005355
0.02000000 1648398.10656900 6230.94512469
0.02100000 1644925.33330855 8142.38076904
0.02200000 1641290.91235869 8493.68085734
0.02300000 1637497.79488565 6484.49156291
0.02400000 1633546.53850688 6125.79979872
0.02500000 1629439.60605404 7625.77770461
0.02600000 1625177.48263956 10531.15056918
0.02700000 1620761.92231284 7487.92042404
0.02800000 1616193.45026527 9842.61856349
0.02900000 1611475.50812912 7976.80413149
0.03000000 1606608.57918993 8217.80326029
0.03100000 1601594.38103242 8456.41872096
0.03200000 1596434.13013453 9482.81916976
0.03300000 1591132.01636656 9737.72838908
0.03400000 1585686.51895412 13319.76737379
0.03500000 1580101.54957980 10239.05851410
0.03600000 1574377.80636072 8737.79722911
0.03700000 1568518.51731644 12516.77834706
0.03800000 1562525.05886193 11883.00362259
0.03900000 1556399.93279570 14941.44004678
0.04000000 1550143.35373362 10486.72027395
0.04100000 1543759.22048582 11670.82024801
0.04200000 1537249.35298101 10906.78466540
0.04300000 1530615.22329186 11112.26703691
0.04400000 1523859.81331725 19543.50301343
0.04500000 1516985.59220574 11513.92117983
0.04600000 1509992.99218389 10645.45108977
0.04700000 1502886.03963988 14067.01398526
0.04800000 1495666.51365706 12092.46432556
0.04900000 1488336.89013603 16743.79079341
0.05000000 1480899.11766015 12461.76665541
0.05100000 1473357.09938056 13790.62309262
0.05200000 1465709.69552525 17478.58893366
0.05300000 1457962.96079490 15352.35069286
0.05400000 1450117.31421667 11963.46840019
0.05500000 1442176.61439938 16959.99777651
0.05600000 1434141.62494383 14714.29375855
0.05700000 1426017.47017376 13646.98782658
0.05800000 1417803.48035789 12547.56138704
0.05900000 1409503.39613953 19028.29673662
0.06000000 1401121.06306024 14102.28415854
0.06100000 1392657.94673981 15542.06341192
0.06200000 1384116.63358519 15695.88335854
0.06300000 1375500.61510871 17166.24847917
0.06400000 1366809.30162750 13326.39131410
0.06500000 1358049.04136239 14789.15475224
0.06600000 1349220.97210971 17627.57282538
0.06700000 1340326.53863906 17772.73073410
0.06800000 1331369.75165677 15157.64533213
0.06900000 1322354.35214290 18050.13775184
0.07000000 1313279.75602725 13986.43005665
0.07100000 1304150.46118371 21127.23846073
0.07200000 1294968.52890833 19851.86847816
0.07300000 1285737.25485328 28543.36839516
0.07400000 1276459.58820947 15796.18814437
0.07500000 1267136.03414613 20223.49205290
0.07600000 1257770.00819979 14527.24427575
0.07700000 1248365.35041271 18987.63787008
0.07800000 1238923.29442544 16149.36590018
0.07900000 1229445.42812707 17704.01499541
0.08000000 1219937.40088281 14822.24011605
0.08100000 1210399.82430772 17865.50224500
0.08200000 1200834.03559828 19435.49977817
0.08300000 1191243.38938330 16510.63415173
0.08400000 1181631.45320857 21092.12242981
0.08500000 1171999.54554706 16630.67433204
0.08600000 1162350.50386582 18202.40974517
0.08700000 1152686.12726200 21301.64063208
0.08800000 1143008.59901815 18310.99861622
0.08900000 1133321.21197473 19889.78820437
0.09000000 1123626.17623253 16871.24782867
0.09100000 1113925.18315323 23058.25237458
0.09200000 1104220.13744528 18484.64596937
0.09300000 1094515.49357351 16975.93610306
0.09400000 1084809.94524801 17004.39669093
0.09500000 1075107.53390622 17029.70413752
0.09600000 1065410.41695024 17051.89452486
0.09700000 1055722.69386590 20174.86162825
0.09800000 1046043.84309115 18640.50216032
0.09900000 1036377.11788670 24873.05199887
0.10000000 1026722.73946460 17110.33525783
0.10100000 1017084.34396063 21785.94767227
0.10200000 1007463.69753375 23347.97228855
0.10300000 997862.31496482 15566.65284572
0.10400000 988282.89367764 18678.54756924
0.10500000 978728.16020349 20230.31202323
0.10600001 969195.38917817 28000.05611086
0.10700001 959692.37694358 17101.71896190
0.10800001 950215.96904173 21750.44455498
0.10900001 940771.35951724 17075.00097888
0.11000001 931358.88348536 17057.83875394
0.11100001 921979.37090283 18587.10499236
0.11200001 912636.02166975 15469.18129555
0.11300001 903328.78229234 16991.61519490
0.11400001 894060.48102468 21591.56163337
0.11500001 884832.65006590 23094.13325418
0.11600001 875646.13530941 15367.59039836
0.11700001 866502.81987157 16870.81069743
0.11800001 857402.72923205 22956.95915642
0.11900001 848347.92996890 21378.36884217
0.12000001 839339.83445363 18280.82245552
0.12100001 830381.29640439 19754.77197207
0.12200001 821471.49348489 15156.14976882
0.12300001 812612.72913628 18137.51696886
0.12400001 803804.93481748 19592.74620934
0.12500001 795049.37128290 21037.00735542
0.12600001 786349.34734669 23967.92923658
0.12700001 777703.59283951 14931.90968621
0.12800001 769113.28375461 20835.27983886
0.12900001 760580.27112066 19280.71078165
0.13000001 752104.93817918 19212.52155137
0.13100001 743687.47649676 16197.51400161
0.13200001 735329.57422871 16136.80826714
0.13300001 727032.94861486 20458.70813851
0.13400001 718796.15750623 18922.30973846
0.13500001 710622.18572116 20295.37058109
0.13600001 702509.40668825 15880.22588695
0.13700001 694460.84832192 18687.94230954
0.13800001 686474.43764016 15744.29196971
0.13900001 678553.33942659 17099.54495993
0.14000001 670696.83394154 17022.28644822
0.14100001 662905.29422036 24003.80183581
0.14200001 655179.22883870 16864.31414572
0.14300001 647520.69528530 15385.09244566
0.14400001 639925.89638122 16702.06668338
0.14500001 632399.83535039 16619.46845698
0.14600001 624940.47562408 16535.92576508
0.14700001 617550.45729878 19193.46911833
0.14800001 610225.11493363 16366.23835466
0.14900001 602969.04521656 17636.84540470
0.15000001 595780.78255979 14843.87889785
0.15100001 588661.13141841 18790.06420148
0.15200001 581610.11593473 26695.90558110
0.15300001 574628.82811885 17256.10452271
0.15400001 567713.42171754 15839.20521339
0.15500001 560868.46397868 15749.18721177
0.15600001 554089.76345371 13048.81454517
0.15700001 547383.31463966 15567.58220309
0.15800001 540741.56175768 16765.69291362
0.15900001 534170.84397595 17948.14120475
0.16000001 527666.10888033 16566.07827026
0.16100001 521232.78354894 13932.55296194
0.16200001 514866.23577222 18882.72008832
0.16300001 508567.22525549 15012.90519827
0.16400001 502336.47880579 18649.24265609
0.16500001 496172.72147934 14825.64161774
0.16600001 490077.42101320 15959.37196879
0.16700001 484047.32345545 14637.59175240
0.16800001 478083.87664235 13331.36952963
0.16900001 472188.91368810 14448.98144111
0.17000001 466358.47563708 11962.09546494
0.17100001 460593.88379456 17824.98414457
0.17200001 454895.10096684 15345.88695579
0.17300001 449261.57988669 15243.44612542
0.17400001 443692.68047820 13976.32009511
0.17500001 438187.74748702 15038.60420399
0.17600001 432745.37725106 12638.32933951
0.17700001 427368.26832283 13692.87996379
0.17800001 422052.15478215 15864.94124760
0.17900001 416799.53896258 12378.94689189
0.18000001 411608.71909863 12292.69497653
0.18100001 406480.96688138 13316.31710405
0.18200001 401411.36412461 12120.61671230
0.18300001 396403.50268690 12034.81091009
0.18400001 391454.95765443 13035.45070570
0.18500001 386567.30892479 11863.75127137
0.18600001 381736.87541599 11778.49184742
0.18700001 376964.55164700 12756.48103041
0.18800001 372249.77605971 12663.93797987
0.18900001 367594.05716784 12571.71734912
0.19000001 362990.89761375 15599.53456201
0.19100001 358448.08524174 10323.30534274
0.19200001 353957.42030759 10247.06780209
0.19300001 349523.91325127 13222.49026309
0.19400001 345142.36588665 10095.41467923
0.19500001 340815.64955326 12023.97668443
0.19600001 336541.28727645 10939.27505987
0.19700001 332319.06710038 11843.85211117
0.19800001 328149.00206347 12733.82262686
0.19900001 324030.07204389 11665.08314487
0.20000001 319960.67303097 10611.49622258
0.20100001 315942.20066661 12444.96387244
0.20200001 311971.61941571 9499.53626019
0.20300001 308051.03974623 13196.90716648
0.20400001 304177.75971985 9353.46655348
0.20500001 300351.71372092 11137.04207118
0.20600001 296572.50228860 9208.57663133
0.20700001 292839.69023489 12791.23827409
0.20800001 289151.22494840 9971.38046369
0.20900001 285510.11314585 13490.35348385
0.21000001 281911.11059604 11599.23319380
0.21100001 278356.47942618 10622.08375705
0.21200001 274844.75259812 12293.80636490
0.21300001 271374.53668113 8711.12303929
0.21400001 267947.27112440 9505.42989252
0.21500001 264562.17173819 10286.17772349
0.21600001 261216.62127665 12753.90213682
0.21700001 257911.53810038 8433.70769462
0.21800001 254645.98522744 8365.12101023
0.21900001 251418.64543724 12445.22353757
0.22000001 248229.39186857 9051.68520247
0.22100001 245079.65569471 11425.61408873
0.22200001 241967.27225589 13759.46958744
0.22300001 238890.10733435 12040.06197897
0.22400001 235848.81898545 10347.86742230
0.22500001 232845.68280546 11050.85662851
0.22600001 229875.49380556 8609.98702764
0.22700001 226942.05720944 7761.41872359
0.22800001 224041.30653620 10004.56501649
0.22900001 221173.63971343 11445.73639645
0.23000001 218340.25934932 9078.58841309
0.23100001 215540.09814202 8250.87534708
0.23200001 212770.46147441 9667.22637429
0.23300001 210033.27863328 11058.25264304
0.23400001 207328.00466421 7308.31251006
0.23500001 204651.56234024 7969.13221444
0.23600001 202007.23390002 9335.76475624
0.23700001 199392.21022940 8541.96269024
0.23800001 196806.70733582 10583.28118756
0.23900001 194250.02783973 10489.50199949
0.24000001 191721.73091148 6930.74090028
0.24100001 189222.97143480 8242.55302558
0.24200001 186751.22773978 10891.33211697
0.24300001 184307.22431252 13491.28945785
0.24400001 181889.81111706 8689.78613718
0.24500001 179499.23231858 7948.22638305
0.24600001 177135.21555638 8531.71806087
0.24700001 174797.20161755 6502.45620778
0.24800001 172484.78032073 7086.53753472
0.24900001 170196.92198254 7020.62336391
0.25000001 167934.95946714 7587.30182767
0.25100001 165696.21704694 7515.98076082
0.25200001 163483.81293022 6204.21099422
0.25300001 161294.91336921 7988.93743714
0.25400001 159129.32714507 8521.37587177
0.25500001 156986.83152445 6631.12407732
0.25600001 154868.03640575 6567.17939450
0.25700001 152771.57701000 6503.48634102
0.25800001 150698.22177981 7611.01405110
0.25900001 148647.13593524 5797.23857577
0.26000001 146617.93248525 7462.12002691
0.26100001 144610.09647014 7388.13017824
0.26200001 142624.75469829 6751.85620689
0.26300001 140659.84718678 7798.18229703
0.26400001 138716.40337442 8822.36367207
0.26500001 136794.24403221 5458.09059516
0.26600001 134891.75304788 5402.41496521
0.26700001 133010.81179195 6951.14535318
0.26800001 131150.37579231 6879.49328773
0.26900001 129308.72535805 6808.10471227
0.27000001 127487.84075092 5182.38097177
0.27100001 125686.21008566 6153.59713700
0.27200001 123905.45729952 6088.71445984
0.27300001 122142.99507043 5522.08506846
0.27400001 120397.85657246 5463.05300051
0.27500001 118674.60082682 5404.44157742
0.27600001 116967.73442868 5832.01151462
0.27700001 115281.39661433 5287.95791296
0.27800001 113612.46182185 5230.14992750
0.27900001 111962.95183832 5642.93303972
0.28000001 110330.29263829 6045.54867124
0.28100001 108716.41264257 5058.57491968
0.28200001 107121.05223854 6366.20443585
0.28300001 105542.94710705 4945.74273552
0.28400001 103982.46643951 5778.82584589
0.28500001 102439.82299397 4834.13547589
0.28600001 100914.52395446 5213.24455424
0.28700001 99406.39421487  6870.97029335
0.28800001 97914.84372393  5093.53041161
0.28900001 96442.15694371  5453.80423332
0.29000001 94984.83749772  4560.69718833
0.29100001 93545.41414259  4916.74720007
0.29200001 92122.44794093  5263.41631225
0.29300001 90716.25853137  4000.58719060
0.29400001 89325.93448369  5929.00918201
0.29500001 87953.22157063  5467.17251163
0.29600001 86596.06726183  3857.85497914
0.29700001 85255.34754717  4573.09705891
0.29800001 83930.66439319  4893.57761910
0.29900001 82622.82984686  5948.84403059
0.30000001 81330.07048444  3672.05285621
0.30100001 80054.31841025  5077.04511393
0.30200001 78792.79713528  3939.24607926
0.30300001 77548.36410169  4243.44668453
0.30400001 76319.40356542  4189.93545410
0.30500001 75105.80666323  5171.03503357
0.30600001 73906.82075307  4424.43203385
0.30700001 72724.40329335  4367.82786859
0.30800001 71556.93396471  4311.66326017
0.30900001 70404.54219179  4583.33591368
0.31000001 69267.71951209  4847.00890234
0.31100001 68145.00491857  4464.86093365
0.31200001 67038.01461854  3147.43493536
0.31300001 65945.31007633  3416.62667682
0.31400001 64868.76755265  4291.06917678
0.31500001 63805.51954123  3326.81994640
0.31600002 62757.55619657  2984.12193844
0.31700002 61723.99331859  3238.65808277
0.31800002 60705.05827114  3485.68461097
0.31900002 59700.55855536  2865.62694634
0.32000002 58710.64329085  3392.30112997
0.32100002 57734.07926089  4182.83424051
0.32200002 56773.09922073  3850.91950248
0.32300002 55824.22498676  2984.36320910
0.32400002 54890.28586487  2675.90156262
0.32500002 53970.04519056  3430.87593522
0.32600002 53063.94086850  2863.06506513
0.32700002 52171.03714557  3850.22272366
0.32800002 51292.39835395  3037.53597436
0.32900002 50426.64508969  3494.56667020
0.33000002 49575.29704452  3199.83769926
0.33100002 48734.86736096  3883.19441521
0.33200002 47910.62230749  2871.76283710
0.33300002 47098.11412252  2831.53875513
0.33400002 46299.21301842  2791.84267722
0.33500002 45512.11960780  2523.19203054
0.33600002 44739.09798318  2487.71766116
0.33700002 43977.80750893  2452.64244092
0.33800002 43230.17717035  3297.38191982
0.33900002 42494.07157919  2600.63730381
0.34000002 41771.07392991  2350.24958597
0.34100002 41060.13270286  2106.38490741
0.34200002 40362.15355926  2076.63289897
0.34300002 39675.08514839  2251.95793967
0.34400002 39001.62765164  2018.33432656
0.34500002 38338.94736460  2188.77060871
0.34600002 37689.25439715  3138.76125485
0.34700002 37049.60492512  2900.98420303
0.34800002 36423.26166581  2288.10940621
0.34900002 35807.53176555  1879.89550673
0.35000002 35203.51776358  2224.15835764
0.35100002 34611.31689051  2923.96418940
0.35200002 34029.03403532  1801.83743751
0.35300002 33458.37747328  2309.63190637
0.35400002 32898.94279164  1751.86878663
0.35500002 32350.54401460  2764.03061152
0.35600002 31811.93097861  2555.29347689
0.35700002 31284.34372539  1847.96627139
0.35800002 30767.95163079  1822.53970117
0.35900002 30261.64456457  1797.54177228
0.36000002 29765.98817551  1773.01116965
0.36100002 29279.59396000  1748.87023007
0.36200002 28804.61857419  1725.25271122
0.36300002 28338.38820882  1547.27606949
0.36400002 27882.15698126  1831.85780044
0.36500002 27435.43298421  2259.30801327
0.36600002 26998.85958828  1932.17347796
0.36700002 26571.08391379  1613.39629167
0.36800002 26154.19872414  2171.45245193
0.36900002 25745.50200093  1714.65051448
0.37000002 25345.54778014  1410.47980078
0.37100002 24954.63807322  2227.95019271
0.37200002 24573.50209360  1512.37625799
0.37300002 24200.48735620  1629.17688599
0.37400002 23836.15588247  1340.78383190
0.37500002 23480.82889680  1854.04633752
0.37600002 23133.87263268  1831.50878309
0.37700002 22794.87485879  2197.19809172
0.37800002 22464.08201302  1404.79143523
0.37900002 22141.87242729  1262.08678814
0.38000002 21827.55499459  1871.16724055
0.38100002 21520.07587359  1479.72048717
0.38200002 21221.36881708  1584.91800519
0.38300002 20929.56015649  1928.86835540
0.38400002 20646.24141871  1192.32049842
0.38500002 20368.90604006  1297.29568715
0.38600002 20100.31309156  1400.18787629
0.38700002 19837.83678192  1270.01837095
0.38800002 19582.68998959  1256.91501653
0.38900002 19333.93070271  1357.24199963
0.39000002 19093.18522565  1791.70458646
0.39100002 18857.92215786  1108.84587542
0.39200002 18629.96620316  1208.06021568
0.39300002 18407.95519531  1196.70122394
0.39400002 18193.80620805  1293.57968268
0.39500002 17984.60335638  1175.11403898
0.39600002 17781.62856419  1164.78563428
0.39700002 17584.70652340  1154.78773210
0.39800002 17393.86468171  1561.53427578
0.39900002 17208.60205236  1445.52264089
0.40000002 17029.04176697  1331.58598406
0.40100002 16855.33509962  1016.37675466
0.40200002 16687.38637094  1412.25357548
0.40300002 16524.09764828  1001.36036493
0.40400002 16366.65430551  1292.55658502
0.40500002 16214.37767188  1184.94677640
0.40600002 16067.12037681  1078.98752003
0.40700002 15924.83663300  1169.52005774
0.40800002 15787.58159306  1259.13862961
0.40900002 15654.89646434  1059.05379599
0.41000002 15527.33169747  1148.71205341
0.41100002 15404.03409763  1142.36322281
0.41200002 15285.00068849  1420.35875628
0.41300002 15171.08215961  1318.97394545
0.41400002 15060.99691736  1218.81123329
0.41500002 14955.38288212  1213.18071688
0.41600002 14853.23533468  1021.97690563
0.41700002 14755.61933781  1017.69511395
0.41800002 14662.77772921  1105.86674874
0.41900002 14571.93117105  1193.44121946
0.42000002 14486.21250923  1280.72610863
0.42100002 14404.18904192  1276.49929338
0.42200002 14325.86104688  908.97592650
0.42300002 14250.53448047  1178.23424668
0.42400002 14178.51719493  1265.43271961
0.42500002 14110.31704440  901.64930186
0.42600002 14044.51215963  1079.46125574
0.42700002 13983.16237006  1256.80669338
0.42800002 13923.98434308  1254.41180891
0.42900002 13868.96037809  984.00278545
0.43000002 13816.29802490  1339.83556446
0.43100002 13765.65635678  981.21603161
0.43200002 13718.88657643  891.04172536
0.43300002 13674.58606771  1157.28027375
0.43400002 13633.08415717  1156.42641843
0.43500002 13593.82275040  977.93965501
0.43600002 13557.61901301  1155.31255894
0.43700002 13523.23836588  1066.17216329
0.43800002 13491.10932475  1421.42334582
0.43900002 13462.09575577  1066.19803438
0.44000002 13434.78930896  1333.06703236
0.44100002 13410.02474512  977.99315101
0.44200002 13387.22366771  1245.41347683
0.44300002 13366.46846235  979.22752596
0.44400002 13348.16928945  890.99034230
0.44500002 13330.51763705  1070.17400662
0.44600002 13315.10855281  1071.33368493
0.44700002 13302.65469504  1162.11996923
0.44800002 13290.30851933  1163.63301756
0.44900002 13281.31039652  1165.43504253
0.45000002 13273.38242272  1436.71098152
0.45100002 13266.67325498  989.42853825
0.45200002 13261.81095743  991.25410699
0.45300002 13258.05075066  1264.02261847
0.45400002 13256.09305237  995.20123307
0.45500002 13255.53151864  1178.68191850
0.45600002 13256.11045644  1090.44769783
0.45700002 13258.06728587  1184.07804542
0.45800002 13260.77776915  1369.50688902
0.45900002 13264.88275576  1189.86003958
0.46000002 13270.83744576  1009.44629815
0.46100002 13276.61689960  1196.09047317
0.46200002 13284.55205386  1291.65705741
0.46300002 13293.29918468  1017.73503381
0.46400002 13302.24962839  1391.74793333
0.46500002 13312.74141939  1116.67280318
0.46600002 13323.83628216  1026.66825338
0.46700002 13335.41515879  1497.83390163
0.46800002 13348.79595222  1032.99662372
0.46900002 13361.80516155  1130.40877024
0.47000002 13375.99657671  1039.51562323
0.47100002 13390.73535421  1042.87051881
0.47200002 13406.43722050  1046.30544247
0.47300002 13422.75056926  1431.53641606
0.47400002 13438.84100097  1149.02096004
0.47500002 13455.90166543  960.75142445
0.47600002 13474.05580531  964.06873856
0.47700002 13491.63080630  1451.02496199
