# SAXS profile: number of points = 501, q_min = 0, q_max = 0.5, delta_q = 0.001
#    q    intensity    error
0.00000000 1700912.83420644 255.13692513
0.00100000 1700825.60928273 561.27246439
0.00200000 1700563.89918056 1071.35529041
0.00300000 1700127.91904116 1224.09214532
0.00400000 1699517.55973367 1274.63821823
0.00500000 1698733.45611989 1834.63220523
0.00600000 1697775.46902437 2495.73004107
0.00700000 1696644.32421414 2443.16792841
0.00800000 1695339.79216311 3661.93410568
0.00900000 1693863.36829123 2794.87467715
0.01000000 1692214.31567409 3071.36911557
0.01100000 1690394.29965697 3042.70987186
0.01200000 1688403.23440644 3950.86374173
0.01300000 1686242.37349650 4957.55279673
0.01400000 1683911.98236056 3788.80212827
0.01500000 1681413.58590416 4035.39278586
0.01600000 1678746.81261874 4708.88501990
0.01700000 1675913.86376895 4977.46439868
0.01800000 1672915.32757039 5721.37067774
0.01900000 1669752.06913782 5009.25643344
0.02000000 1666424.94208142 10498.47761002
0.02100000 1662936.58228260 6036.46006737
0.02200000 1659285.83120111 8014.35092881
0.02300000 1655475.56982828 5959.71232266
0.02400000 1651506.43568030 8670.40918267
0.02500000 1647380.99313980 10279.65786667
0.02600000 1643099.49325203 6654.55325204
0.02700000 1638663.90569783 9635.34420681
0.02800000 1634074.61372924 8529.86987484
0.02900000 1629335.14888836 7332.00850664
0.03000000 1624445.96111459 8309.04147303
0.03100000 1619408.78009566 9327.79500255
0.03200000 1614224.83229692 10387.53727426
0.03300000 1608898.33443901 9025.92007230
0.03400000 1603427.74534421 10101.59526176
0.03500000 1597816.88247926 13805.13850212
0.03600000 1592066.64232381 14137.55243718
0.03700000 1586180.06690689 13561.84019926
0.03800000 1580158.58773303 10168.32098265
0.03900000 1574004.91020526 13221.64185802
0.04000000 1567718.95335233 9641.47200989
0.04100000 1561304.70384169 11803.46410833
0.04200000 1554764.13349638 12033.87495155
0.04300000 1548098.57809008 11239.19619863
0.04400000 1541311.11242810 15605.77573810
0.04500000 1534404.05972292 15881.08275605
0.04600000 1527378.03326486 10768.01563509
0.04700000 1520236.89394183 15323.98860362
0.04800000 1512982.69363354 11120.42331562
0.04900000 1505617.62791344 12421.34600847
0.05000000 1498143.73953363 12606.88015523
0.05100000 1490564.89698440 13951.68808570
0.05200000 1482880.15066675 17683.34662077
0.05300000 1475095.33186848 13143.10001965
0.05400000 1467211.09102303 15735.83968504
0.05500000 1459231.09223539 15934.80427056
0.05600000 1451156.23927941 17370.34099475
0.05700000 1442991.56928209 13809.42996263
0.05800000 1434736.36575468 13967.15917278
0.05900000 1426394.48968640 14121.30610744
0.06000000 1417969.73317053 15569.30839759
0.06100000 1409463.67865790 23594.42308333
0.06200000 1400878.73991183 15885.96565317
0.06300000 1392218.62841151 16038.35934918
0.06400000 1383482.65225128 20233.43473543
0.06500000 1374676.91463006 20413.95313718
0.06600000 1365802.89071215 19216.84757145
0.06700000 1356862.01856333 16607.99188445
0.06800000 1347858.31108819 15345.36759004
0.06900000 1338795.32227719 18274.55700468
0.07000000 1329672.47646691 15577.11379126
0.07100000 1320494.29839623 17113.60690878
0.07200000 1311263.17391741 15794.16566974
0.07300000 1301982.25361165 20232.80516915
0.07400000 1292654.31059445 14542.36167570
0.07500000 1283279.92804035 19018.20942499
0.07600000 1273862.58203396 20598.35891715
0.07700000 1264406.01362881 16272.90615842
0.07800000 1254911.44368883 14870.70130509
0.07900000 1245380.89672178 22416.85719243
0.08000000 1235819.37185601 19519.76789416
0.08100000 1226228.10309997 16590.86701336
0.08200000 1216607.95199441 16661.44668440
0.08300000 1206962.54099415 18249.27447631
0.08400000 1197295.23337407 19845.16942468
0.08500000 1187607.60344658 21448.19432513
0.08600000 1177902.31967245 16908.78859279
0.08700000 1168181.32215675 16961.99359421
0.08800000 1158446.84091962 20104.84586836
0.08900000 1148701.86625980 17058.22351518
0.09000000 1138948.85475633 18655.98311728
0.09100000 1129189.64970798 28049.07221652
0.09200000 1119425.71854088 21862.38531035
0.09300000 1109661.96989269 29727.84557040
0.09400000 1099896.72415860 21942.94067823
0.09500000 1090134.38413493 25116.69739102
0.09600000 1080376.75771744 20435.32733284
0.09700000 1070628.32341861 20459.70822240
0.09800000 1060888.29952645 17329.61118756
0.09900000 1051160.33835949 17344.14639850
0.10000000 1041443.82080564 17355.66208991
0.10100000 1031743.21902032 18942.80639213
0.10200000 1022060.22584823 22107.16372494
0.10300000 1012395.69118916 20531.38558313
0.10400000 1002753.08777883 18952.03425062
0.10500000 993134.76013907 17369.92777208
0.10600001 983538.07233830 17364.36548419
0.10700001 973970.89105211 23667.49376630
0.10800001 964429.94120608 15768.43028081
0.10900001 954920.51682517 17331.80819611
0.11000001 945442.96078767 18889.95124568
0.11100001 935998.08239545 18869.72222935
0.11200001 926588.97661387 21987.95745018
0.11300001 917215.73595116 15684.38982320
0.11400001 907881.07137866 18793.13906240
0.11500001 898587.02037491 15635.41489076
0.11600001 889333.59360788 24972.48848450
0.11700001 880123.28891262 21809.45612637
0.11800001 870955.91715156 26429.15855073
0.11900001 861833.69118594 17064.30788924
0.12000001 852757.99967448 24764.09347706
0.12100001 843731.59074022 16984.31772170
0.12200001 834753.52580316 24641.92524262
0.12300001 825826.54018827 23040.56155680
0.12400001 816950.26940886 22976.72740973
0.12500001 808125.85518529 15273.57938270
0.12600001 799356.86725381 16750.52394265
0.12700001 790642.07613569 18216.39429264
0.12800001 781982.43584033 21183.90518530
0.12900001 773380.06460078 15080.91197051
0.13000001 764835.23323779 18034.81564982
0.13100001 756347.98775257 16473.25994976
0.13200001 747920.14540969 16413.10836473
0.13300001 739553.55863723 20811.03812115
0.13400001 731246.61851567 17769.29366768
0.13500001 723002.37904642 16224.17415074
0.13600001 714819.12198881 20565.34710929
0.13700001 706700.01292821 19017.29824463
0.13800001 698642.82666922 16023.37398525
0.13900001 690651.17580465 15954.04291345
0.14000001 682724.01141181 17327.53622681
0.14100001 674861.62406200 14374.55327047
0.14200001 667064.56746408 17170.24277637
0.14300001 659334.83537083 15665.79642733
0.14400001 651669.09380106 15591.18380462
0.14500001 644071.87584443 21157.76211955
0.14600001 636541.22379208 15439.30811142
0.14700001 629079.81873719 13965.57263481
0.14800001 621683.23767429 19452.46942457
0.14900001 614355.87443870 19352.21095787
0.15000001 607096.09973525 17875.94550014
0.15100001 599904.99228384 16413.40136335
0.15200001 592782.64086427 17685.67092472
0.15300001 585729.91234560 16236.43393640
0.15400001 578743.01479770 14801.35330194
0.15500001 571826.63111838 20071.11569947
0.15600001 564976.51195586 18627.27647830
0.15700001 558198.66505127 13229.30898610
0.15800001 551485.52016278 13152.93027668
0.15900001 544843.34449399 15691.48906207
0.16000001 538267.30551595 15598.98725016
0.16100001 531762.49935451 14214.01227871
0.16200001 525324.76739122 16697.44851975
0.16300001 518954.57040785 14042.91133817
0.16400001 512652.65367197 12688.15377738
0.16500001 506417.68773511 18914.70152989
0.16600001 500251.27526798 12531.29503710
0.16700001 494150.27964333 13697.84639845
0.16800001 488115.87197365 14848.48552653
0.16900001 482150.14706398 13524.31226374
0.17000001 476248.94525681 12215.78602266
0.17100001 470413.60680377 13350.33879151
0.17200001 464644.24126829 14469.02235636
0.17300001 458940.16578405 13176.17278190
0.17400001 453301.04965073 14278.98373834
0.17500001 447725.83319137 13001.95880993
0.17600001 442213.11443922 14088.91049144
0.17700001 436765.99628834 15160.14844719
0.17800001 431380.05074685 11582.55490962
0.17900001 426057.64581388 14954.62407443
0.18000001 420797.07309616 12567.10518162
0.18100001 415599.84492189 14749.63919300
0.18200001 410460.83836915 11267.15054547
0.18300001 405383.82645364 19020.61003573
0.18400001 400366.10908509 16665.24007794
0.18500001 395409.65722743 17651.08793251
0.18600001 390510.39965458 17526.10756449
0.18700001 385669.50797807 16313.82095822
0.18800001 380886.29788970 11877.93976088
0.18900001 376162.42034102 12864.75538349
0.19000001 371490.95001614 11707.53784293
0.19100001 366880.37743885 14792.61751729
0.19200001 362322.09116793 14684.91504892
0.19300001 357820.86330275 13536.36389837
0.19400001 353372.23334150 14470.59363913
0.19500001 348978.20517140 10259.95971687
0.19600001 344636.90424743 11202.42310195
0.19700001 340347.96857356 13140.83568763
0.19800001 336111.35316631 14046.09411262
0.19900001 331926.21963578 12945.12317758
0.20000001 327790.68659395 13836.04553504
0.20100001 323706.33066736 11769.96273934
0.20200001 319670.13726544 10707.35175377
0.20300001 315684.08748366 10625.92688693
0.20400001 311745.74531159 10544.80033357
0.20500001 307854.68895929 11415.25240617
0.20600001 304010.68459337 10383.48542309
0.20700001 300213.49011949 11239.99360138
0.20800001 296460.62557530 10223.44515623
0.20900001 292755.71186730 9221.80535975
0.21000001 289092.84806972 10064.76798133
0.21100001 285474.71138035 10893.71550126
0.21200001 281899.74902470 9907.36714784
0.21300001 278366.53295655 9829.12274337
0.21400001 274876.45118508 9751.24256680
0.21500001 271428.97993869 12312.01911210
0.21600001 268021.22965617 9596.50058155
0.21700001 264654.13934849 11250.44799562
0.21800001 261326.95049342 11159.96794847
0.21900001 258038.29623582 11921.36984976
0.22000001 254787.85617665 10980.08318110
0.22100001 251577.34635966 10890.78383886
0.22200001 248404.24053872 9970.94668670
0.22300001 245266.97415604 8240.97072132
0.22400001 242165.60882612 9807.70762123
0.22500001 239102.80509602 9726.70257126
0.22600001 236073.15734219 8842.12052638
0.22700001 233080.70116467 11159.90449951
0.22800001 230121.05602229 10276.05624263
0.22900001 227194.82398780 7838.22179826
0.23000001 224303.33212247 10880.95515584
0.23100001 221445.23147348 7706.29441973
0.23200001 218617.87397938 9168.83406832
0.23300001 215823.37218187 9848.02093842
0.23400001 213060.99132524 10514.56041919
0.23500001 210327.77601232 10423.84507218
0.23600001 207627.15441278 11071.71853272
0.23700001 204955.92041891 8780.31204604
0.23800001 202314.69355293 10154.17494970
0.23900001 199702.45170155 7908.21746144
0.24000001 197119.00041723 10688.77830321
0.24100001 194565.38299378 12006.63035247
0.24200001 192039.12540707 8399.79174263
0.24300001 189540.72507416 8324.62903904
0.24400001 187069.43584939 8937.24272047
0.24500001 184625.31663319 9537.74430845
0.24600001 182207.81753954 8100.95995103
0.24700001 179816.88033670 9364.86357095
0.24800001 177451.97470831 8616.18103957
0.24900001 175111.76755519 9850.03739096
0.25000001 172797.86867549 7156.42406975
0.25100001 170507.37577478 9667.76866380
0.25200001 168243.60819482 8300.29880298
0.25300001 166003.68843457 6957.21491144
0.25400001 163787.36805304 6264.86712443
0.25500001 161594.43270377 9307.83976411
0.25600001 159425.53941352 6145.85483517
0.25700001 157279.47289285 7304.05906672
0.25800001 155156.66346964 6630.62032710
0.25900001 153056.61920734 8356.89180413
0.26000001 150978.70913756 6501.89841665
0.26100001 148922.40479684 8778.97617816
0.26200001 146888.93623653 8692.15321308
0.26300001 144876.18873754 6884.51681457
0.26400001 142885.47835506 5679.69803337
0.26500001 140916.23456543 6184.81382774
0.26600001 138967.01039071 6678.75483541
0.26700001 137039.57226789 5508.99106586
0.26800001 135133.08567721 5997.88229161
0.26900001 133245.57442882 7015.37982566
0.27000001 131379.31756641 5874.62646298
0.27100001 129532.62737442 5284.93144697
0.27200001 127707.13969422 6798.48990335
0.27300001 125900.21759014 5174.49918783
0.27400001 124110.99134344 5631.53649872
0.27500001 122343.98197602 6078.04931221
0.27600001 120593.61888312 9019.19718311
0.27700001 118864.21578982 6443.62944292
0.27800001 117152.54069436 5883.40087212
0.27900001 115460.46473050 7274.00962228
0.28000001 113785.68706345 5275.67363039
0.28100001 112130.04727042 6166.03159123
0.28200001 110493.24751932 4690.43857919
0.28300001 108873.98431743 6957.04792716
0.28400001 107272.68915607 5044.49844632
0.28500001 105689.58260381 6801.12496246
0.28600001 104124.10821757 4930.79737803
0.28700001 102576.11887605 6203.80396327
0.28800001 101044.98660460 5694.39048964
0.28900001 99533.25667356  4329.69687024
0.29000001 98037.01344848  5563.11059146
0.29100001 96559.06626788  4652.21603300
0.29200001 95097.86608305  5015.46169463
0.29300001 93653.85636322  5782.18936557
0.29400001 92225.94491919  4489.09808144
0.29500001 90816.01502646  4435.45438385
0.29600001 89421.93375506  4382.12207111
0.29700001 88044.62610002  4329.15447027
0.29800001 86683.53666790  3887.75680360
0.29900001 85339.82955625  6144.46801892
0.30000001 84011.35880013  5310.35824115
0.30100001 82700.28494827  3746.32308551
0.30200001 81403.82941650  3699.80422213
0.30300001 80124.65464593  4384.42130979
0.30400001 78861.24064621  4690.27250948
0.30500001 77613.48415560  4274.95090968
0.30600001 76380.77442021  4220.80179429
0.30700001 75164.88011021  5208.92643825
0.30800001 73964.25614966  3428.24343484
0.30900001 72779.01170685  4399.49146597
0.31000001 71609.71443592  4008.71200391
0.31100001 70454.76771037  3627.01161345
0.31200001 69315.75655397  3579.81241672
0.31300001 68191.55102588  4496.55108754
0.31400001 67083.64568350  4754.55361293
0.31500001 65989.34872793  3127.89527780
0.31600002 64910.62141373  4012.45025267
0.31700002 63846.60737314  3654.57997908
0.31800002 62797.53335143  3605.83453577
0.31900002 61763.31848288  4150.49519857
0.32000002 60743.77946115  4094.73836736
0.32100002 59737.97170621  2885.34417003
0.32200002 58748.07852776  3415.61344733
0.32300002 57770.44671952  2807.64384351
0.32400002 56808.10348130  2769.39517585
0.32500002 55859.86169490  4370.47578596
0.32600002 54925.92195114  3232.93991913
0.32700002 54005.51887476  4251.31464713
0.32800002 53099.62590348  4454.79332612
0.32900002 52206.91097563  3101.09065880
0.33000002 51328.81169087  3567.86586959
0.33100002 50462.11892068  3518.21909775
0.33200002 49611.64633279  3717.15277751
0.33300002 48773.30462516  2932.25121292
0.33400002 47948.84004522  2409.42932637
0.33500002 47136.43704028  2850.81184720
0.33600002 46338.39221388  2576.64642107
0.33700002 45552.29197601  3002.35170632
0.33800002 44780.34059501  3415.62064064
0.33900002 44019.93942492  3367.52552548
0.34000002 43273.07702775  2434.75979427
0.34100002 42538.35392937  2836.88295790
0.34200002 41817.04330385  3012.08177183
0.34300002 41106.74910788  3181.66253163
0.34400002 40410.47994070  2300.36667957
0.34500002 39725.09859301  2886.42580047
0.34600002 39052.94937084  2235.97672212
0.34700002 38391.21768471  2204.42382386
0.34800002 37742.96163853  2568.59737596
0.34900002 37105.60360097  2922.06642197
0.35000002 36480.27922070  2112.75547113
0.35100002 35866.86164786  2651.27853858
0.35200002 35263.78046618  2427.38244336
0.35300002 34672.48997198  2577.55302660
0.35400002 34092.61428982  2541.60451569
0.35500002 33524.12142210  2685.28225310
0.35600002 32965.61559720  2294.90143850
0.35700002 32418.32573243  2437.20984400
0.35800002 31882.43095864  1888.55588729
0.35900002 31356.98439981  2201.26040913
0.36000002 30842.42336578  2004.14076524
0.36100002 30337.27311062  1647.31400793
0.36200002 29843.79507230  2112.49313425
0.36300002 29359.31537694  2885.43365192
0.36400002 28885.03082286  2055.89216620
0.36500002 28420.54388242  1560.28793305
0.36600002 27966.36263382  2155.36767028
0.36700002 27521.22463938  1974.92317367
0.36800002 27087.21332702  1649.20506154
0.36900002 26661.63783271  2071.60935773
0.37000002 26244.93972602  1460.53096494
0.37100002 25837.56568263  1874.25710340
0.37200002 25440.12866824  1992.72537298
0.37300002 25050.99370816  2108.04122040
0.37400002 24670.86288858  1526.50971354
0.37500002 24299.82924974  1370.51043461
0.37600002 23937.50405201  1759.76569375
0.37700002 23583.29314613  1738.32462015
0.37800002 23237.46096343  1981.57457753
0.37900002 22900.51907825  1696.92854409
0.38000002 22571.55417603  1934.94657340
0.38100002 22249.61179214  1529.88337930
0.38200002 21936.64863825  1386.28657637
0.38300002 21630.86927921  1868.90719426
0.38400002 21333.69280259  1232.02081772
0.38500002 21042.76135659  1583.88872235
0.38600002 20760.78189942  1325.67979099
0.38700002 20484.91753924  1549.88893444
0.38800002 20216.82221572  1179.65163217
0.38900002 19955.12385130  1867.79968097
0.39000002 19701.75834261  1617.71145415
0.39100002 19453.98429389  1830.23092908
0.39200002 19213.68583978  1812.23493427
0.39300002 18979.48243444  1570.36245102
0.39400002 18753.37749823  1666.70650412
0.39500002 18532.40344186  1210.90729826
0.39600002 18317.85624066  1308.99406898
0.39700002 18109.48357746  1189.24984288
0.39800002 17907.40307043  1286.10974945
0.39900002 17710.97980053  1381.45648989
0.40000002 17520.53240916  2002.33414125
0.40100002 17336.08440443  1358.97572085
0.40200002 17157.51180022  1140.88880121
0.40300002 16983.78356972  1132.13906640
0.40400002 16816.04234379  1532.36193118
0.40500002 16653.72226724  1014.21173413
0.40600002 16496.45260370  1107.81932709
0.40700002 16344.46583447  1100.30949211
0.40800002 16197.47944910  1093.08695241
0.40900002 16055.35045155  1579.84655929
0.41000002 15918.52541964  1079.51485248
0.41100002 15785.99017364  1268.24651064
0.41200002 15657.93928935  1067.01032343
0.41300002 15535.21617172  1254.15806097
0.41400002 15416.36997253  1343.53670677
0.41500002 15302.16830891  1145.82641726
0.41600002 15191.54085110  1235.30020284
0.41700002 15085.70723475  1607.98561034
0.41800002 14984.62978918  941.78402688
0.41900002 14885.80228909  1031.58614751
0.42000002 14792.22069970  1494.60605032
0.42100002 14702.46536357  1209.86593210
0.42200002 14616.51358923  1020.15961430
0.42300002 14533.62842470  924.33881161
0.42400002 14454.37424335  921.46640168
0.42500002 14378.90847566  1010.69352465
0.42600002 14306.01567028  1007.93038181
0.42700002 14237.64449397  1462.49091172
0.42800002 14171.80502190  1094.34683565
0.42900002 14110.01773602  1547.16351807
0.43000002 14050.72530603  1090.05532090
0.43100002 13993.66244503  906.78936941
0.43200002 13940.53236101  905.43761975
0.43300002 13890.00919238  904.23964127
0.43400002 13842.40533204  1264.50378700
0.43500002 13797.18442200  992.56949436
0.43600002 13755.11291833  1081.97723343
0.43700002 13714.93945267  991.17872122
0.43800002 13677.12380070  900.63864496
0.43900002 13642.62845909  990.45487307
0.44000002 13609.89343738  1080.35339226
0.44100002 13579.84005163  1260.48081333
0.44200002 13551.73484339  1170.66666992
0.44300002 13525.90070441  1171.07253849
0.44400002 13502.55822905  1442.07328720
0.44500002 13479.96337845  901.80959276
0.44600002 13459.76328866  1173.22032266
0.44700002 13442.59198592  1174.34489154
0.44800002 13425.64424915  904.21718303
0.44900002 13412.16490605  905.32117406
0.45000002 13399.81442943  906.49748911
0.45100002 13388.81557983  998.53791327
0.45200002 13379.76033298  1090.98570926
0.45300002 13371.80720984  1001.68212556
0.45400002 13365.78536511  1003.43638384
0.45500002 13361.27088126  1005.30206875
0.45600002 13358.01430614  1007.26111649
0.45700002 13356.23335488  917.57327497
0.45800002 13355.22908182  1287.31059221
0.45900002 13355.66696022  1013.69517032
0.46000002 13358.10868282  923.71325920
0.46100002 13360.41709289  1573.99081231
0.46200002 13364.95732206  928.19633001
0.46300002 13370.44884190  1209.75826855
0.46400002 13376.18127836  1212.88529490
0.46500002 13383.60076796  1029.06511182
0.46600002 13391.54747321  1219.50132845
0.46700002 13400.10439079  1128.82484738
0.46800002 13410.58979311  1037.77854033
0.46900002 13420.79554781  946.16613097
0.47000002 13432.22830195  1138.78436941
0.47100002 13444.23585684  1713.33349880
0.47200002 13457.29944042  1909.59088110
0.47300002 13471.09698673  1053.57454527
0.47400002 13484.68816469  960.78407727
0.47500002 13499.33816828  1156.62334908
0.47600002 13515.14207865  1063.70930772
0.47700002 13530.43397132  1164.15859407
