# SAXS profile: number of points = 501, q_min = 0, q_max = 0.5, delta_q = 0.001
#    q    intensity    error
0.00000000 1700912.83420644 306.16431016
0.00100000 1700825.49893816 561.27242798
0.00200000 1700563.46168074 994.82965658
0.00300000 1700126.93193621 1326.09905415
0.00400000 1699515.80177365 1911.95534965
0.00500000 1698730.71718161 1528.85770598
0.00600000 1697771.52058136 2673.99025378
0.00700000 1696638.95777628 2239.56351734
0.00800000 1695332.79086843 2746.43923716
0.00900000 1693854.47856880 3557.09455705
0.01000000 1692203.35923822 3908.98992863
0.01100000 1690381.05212231 3346.95462893
0.01200000 1688387.47098757 4938.53356916
0.01300000 1686223.90357968 3895.17738906
0.01400000 1683890.59171242 4925.38019911
0.01500000 1681389.00034412 4842.40053662
0.01600000 1678718.87946586 6421.10000100
0.01700000 1675882.35980586 4977.37083190
0.01800000 1672880.02222958 4767.70827789
0.01900000 1669712.77567499 5510.05240836
0.02000000 1666381.42987915 6823.83226404
0.02100000 1662888.64495248 8231.29916571
0.02200000 1659233.25481125 8586.53248375
0.02300000 1655418.17007861 6555.45625191
0.02400000 1651444.07168614 10527.95643705
0.02500000 1647313.26187615 7709.42641767
0.02600000 1643026.38504225 9315.96002929
0.02700000 1638585.11641416 7570.26358456
0.02800000 1633989.99167279 9240.21382666
0.02900000 1629244.54317375 8797.92093709
0.03000000 1624349.10667181 9063.86843185
0.03100000 1619305.56592348 8549.93378149
0.03200000 1614114.92184636 9587.84307737
0.03300000 1608781.53247766 9025.26481327
0.03400000 1603303.89465090 10100.81500236
0.03500000 1597685.90877783 15529.50775044
0.03600000 1591928.27588950 11485.76304134
0.03700000 1586034.14071517 12656.55302824
0.03800000 1580004.96239435 11091.63534932
0.03900000 1573843.27614917 10387.36610362
0.04000000 1567549.24271314 9640.42828941
0.04100000 1561126.70338570 10818.60855608
0.04200000 1554577.70948094 19051.35071354
0.04300000 1547903.57640995 11237.78048637
0.04400000 1541107.24438580 10402.47438272
0.04500000 1534191.24715209 16937.47215556
0.04600000 1527156.05544153 13996.38589877
0.04700000 1520005.73274157 13132.85014167
0.04800000 1512741.93001007 18901.71129494
0.04900000 1505367.29996451 13548.30633032
0.05000000 1497883.63025145 13750.57236602
0.05100000 1490294.90207505 12786.73085546
0.05200000 1482600.07113352 16501.33956070
0.05300000 1474805.08175257 15529.69823482
0.05400000 1466910.33325795 14522.41297649
0.05500000 1458919.87651512 13480.42028785
0.05600000 1450834.28736025 19847.41397725
0.05700000 1442658.87316499 12551.13278240
0.05800000 1434392.74501231 15233.25166331
0.05900000 1426039.79381407 15401.23049252
0.06000000 1417603.88586944 16862.39901021
0.06100000 1409086.48226872 20967.20783598
0.06200000 1400490.11417610 15881.55863712
0.06300000 1391818.37029066 14697.60267746
0.06400000 1383070.67061280 22924.39743751
0.06500000 1374253.20475573 19047.15030890
0.06600000 1365367.30752284 16466.33049916
0.06700000 1356414.42130745 15218.97051930
0.06800000 1347398.48853487 13945.57500912
0.06900000 1338323.29226777 15457.63474940
0.07000000 1329188.13703968 15571.43975461
0.07100000 1319997.60039669 17107.16970240
0.07200000 1310753.98133308 17223.30812157
0.07300000 1301460.27839840 17335.45172053
0.07400000 1292119.72248750 15989.98231514
0.07500000 1282732.36881780 16085.46465894
0.07600000 1273302.26295661 14706.64182660
0.07700000 1263832.76456929 17744.21284655
0.07800000 1254325.21141883 20809.25623331
0.07900000 1244781.51407254 14937.37886949
0.08000000 1235206.88577561 25513.19942255
0.08100000 1225602.29271218 16582.39979841
0.08200000 1215968.79727644 19680.45590743
0.08300000 1206310.10731191 16719.45887202
0.08400000 1196629.36459098 19834.13264908
0.08500000 1186928.33343277 18373.65146409
0.08600000 1177209.46034852 19971.35943250
0.08700000 1167475.00379800 16951.73785116
0.08800000 1157726.77809042 21637.91449871
0.08900000 1147968.20852997 20146.84300599
0.09000000 1138201.60488437 17090.09790015
0.09100000 1128428.62000178 20244.01039392
0.09200000 1118651.00426655 24968.29158841
0.09300000 1108873.47046639 17198.62833513
0.09400000 1099094.45093353 25059.35465901
0.09500000 1089318.28762096 20392.03930274
0.09600000 1079546.88505443 15707.40791591
0.09700000 1069784.66635893 20443.58593523
0.09800000 1060030.61322364 20463.89195045
0.09900000 1050288.80470103 17329.76609246
0.10000000 1040558.59778041 20493.80254705
0.10100000 1030844.07464602 22080.68111741
0.10200000 1021147.09432961 20509.74035431
0.10300000 1011468.94692855 18934.69957720
0.10400000 1001812.27943528 17356.39855775
0.10500000 992180.24801676 20508.36669141
0.10600001 982569.79852319 15770.24600834
0.10700001 972988.84927329 22067.38813996
0.10800001 963434.16201779 22053.00900644
0.10900001 953910.94453432 17313.48445817
0.11000001 944419.70356167 15724.58880445
0.11100001 934961.17803320 20419.55308946
0.11200001 925538.57643232 18825.45553088
0.11300001 916151.66173767 17232.81356862
0.11400001 906803.62486677 26592.01755129
0.11500001 897495.79261238 23424.64129020
0.11600001 888229.08890614 18706.10549326
0.11700001 879005.45613333 23337.59595942
0.11800001 869824.87557943 23289.56214054
0.11900001 860689.33383199 20140.13136030
0.12000001 851600.39751029 17002.20273718
0.12100001 842560.72586075 20044.52061249
0.12200001 833569.69791221 19993.17014633
0.12300001 824629.70999967 18405.73599437
0.12400001 815740.44040882 18354.16077400
0.12500001 806903.31774835 18300.56810886
0.12600001 798121.69136412 16724.64083066
0.12700001 789394.19290701 22734.55382712
0.12800001 780721.93826298 27192.54639126
0.12900001 772107.15886042 16561.69933814
0.13000001 763549.89047880 24006.00968817
0.13100001 755050.42937417 16444.99912695
0.13200001 746610.31533039 14894.87649299
0.13300001 738231.59892825 20773.83817318
0.13400001 729912.64922181 16258.80502795
0.13500001 721656.67471258 17666.15622989
0.13600001 713461.69130479 16127.80229238
0.13700001 705330.94221350 17520.42143073
0.13800001 697262.13723021 26168.24924423
0.13900001 689259.18995954 21711.66550761
0.14000001 681320.51190867 15850.92245709
0.14100001 673446.94622956 18647.74682058
0.14200001 665638.95714265 19989.13882579
0.14300001 657898.42298292 17052.72792805
0.14400001 650221.64182308 21213.48206512
0.14500001 642613.87911760 18295.21800150
0.14600001 635072.71850396 14003.35410361
0.14700001 627601.04461915 20899.11577177
0.14800001 620194.16327009 22178.14432487
0.14900001 612856.78557437 16547.13399121
0.15000001 605587.12641629 17831.51377867
0.15100001 598386.18462385 15007.52621850
0.15200001 591254.14908084 13569.28336170
0.15300001 584191.98690511 14844.31908775
0.15400001 577195.83793018 14761.78425169
0.15500001 570270.31300764 16013.19114496
0.15600001 563411.05867898 17248.83037551
0.15700001 556624.44574070 14511.19998534
0.15800001 549902.66414224 17049.73290646
0.15900001 543251.95327882 16949.46174232
0.16000001 536667.52173501 12960.52126167
0.16100001 530154.54084659 18035.85833097
0.16200001 523708.75751809 16646.08364351
0.16300001 517330.63071507 19089.50117456
0.16400001 511021.11608368 17706.88250823
0.16500001 504778.61177063 12568.98802649
0.16600001 498604.94527487 14988.06536259
0.16700001 492496.79856541 14893.10389179
0.16800001 486455.41127881 13564.80978399
0.16900001 480482.75795948 15928.00417845
0.17000001 474575.01507404 15824.70462488
0.17100001 468733.28069521 12093.31921300
0.17200001 462957.68654731 14416.50303987
0.17300001 457247.59905890 17901.24434853
0.17400001 451602.52804896 16596.39368958
0.17500001 446021.62944788 21194.94883235
0.17600001 440503.49980419 14034.44216660
0.17700001 435051.10921462 12777.45168112
0.17800001 429660.13351042 17304.56269446
0.17900001 424332.76890164 11456.98530150
0.18000001 419067.51021120 19342.06184742
0.18100001 413865.67448163 11298.53344705
0.18200001 408722.43825514 12341.37460609
0.18300001 403641.27137931 14482.64950124
0.18400001 398619.57925929 11061.69384701
0.18500001 393659.27049984 10983.09416581
0.18600001 388756.65975716 13085.54978563
0.18700001 383912.32206881 12991.59359259
0.18800001 379126.06893542 12897.86947456
0.18900001 374399.18327093 14938.52811832
0.19000001 369725.02421829 12711.14693321
0.19100001 365111.85184484 14721.31056197
0.19200001 360551.14288320 13569.34290358
0.19300001 356047.97230296 16577.59437376
0.19400001 351597.18721951 11312.64003335
0.19500001 347201.48161951 19394.67567976
0.19600001 342858.71257216 10131.47543528
0.19700001 338568.48719575 13072.12990838
0.19800001 334330.62601944 10977.74662414
0.19900001 330144.61815229 15846.94242024
0.20000001 326008.26303001 9829.14959489
0.20100001 321923.47438719 13655.99442892
0.20200001 317886.83767400 15487.44746347
0.20300001 313900.86066121 14408.05018534
0.20400001 309962.34372842 12390.74527620
0.20500001 306071.59719191 10403.37408029
0.20600001 302228.10572318 13137.85637679
0.20700001 298431.61727176 12104.38696871
0.20800001 294679.60958284 10162.02681683
0.20900001 290975.52059018 10082.30226505
0.21000001 287313.98627156 14549.58095258
0.21100001 283697.36904291 11728.04979066
0.21200001 280124.00220239 8949.96229347
0.21300001 276592.61682478 9766.48576180
0.21400001 273104.73953819 14092.20522640
0.21500001 269659.38663923 9610.66099419
0.21600001 266254.04730765 8666.56964961
0.21700001 262889.48770087 16333.32464309
0.21800001 259565.25124410 9379.39079717
0.21900001 256279.49035746 10148.66829800
0.22000001 253032.20614340 10065.62163631
0.22100001 249825.10861643 16638.35302057
0.22200001 246655.57224907 9075.69221004
0.22300001 243521.95742023 9000.57197185
0.22400001 240424.39102120 12171.48537099
0.22500001 237365.81458427 10460.71194339
0.22600001 234340.53955495 10373.08447392
0.22700001 231352.52769936 7912.25682148
0.22800001 228397.37322313 8629.99515535
0.22900001 225476.01970538 10890.49226679
0.23000001 222589.44826460 8483.99722183
0.23100001 219736.52425414 9176.19768682
0.23200001 216914.47700901 10613.62586201
0.23300001 214125.63223153 9018.97205614
0.23400001 211368.91646359 8195.83012350
0.23500001 208641.56488898 7385.91174640
0.23600001 205946.89158771 8785.69481067
0.23700001 203281.83793670 8708.59434911
0.23800001 200647.02864216 8631.83558046
0.23900001 198041.19811789 8555.38016336
0.24000001 195464.41086645 15545.28533151
0.24100001 192917.63974932 7002.91065415
0.24200001 190398.23673379 9022.02087439
0.24300001 187907.06932069 7565.13896870
0.24400001 185443.08351236 9541.04709804
0.24500001 183006.28190944 8778.81175847
0.24600001 180596.60254403 8029.32532894
0.24700001 178213.27678035 8618.39447280
0.24800001 175856.10094548 7225.04824914
0.24900001 173523.95697824 7808.57843342
0.25000001 171218.22966752 6446.36665195
0.25100001 168936.10729453 8301.52070519
0.25200001 166680.57885037 7590.63391996
0.25300001 164449.29134263 6892.07012624
0.25400001 162241.69141798 6826.31948937
0.25500001 160057.55734504 7375.45259141
0.25600001 157897.65250638 7304.34575053
0.25700001 155760.59537783 6630.72885896
0.25800001 153646.98695097 6566.10429802
0.25900001 151556.26766759 5910.69471870
0.26000001 149487.72432941 6437.68915285
0.26100001 147441.03823807 6373.87638462
0.26200001 145417.17195189 8031.39078692
0.26300001 143414.27591103 7950.88783272
0.26400001 141433.37731098 6184.17471555
0.26500001 139474.05448393 9460.52556331
0.26600001 137534.89537305 7711.58194848
0.26700001 135617.62357427 6542.19447080
0.26800001 133721.52583491 10791.32764553
0.26900001 131844.41649562 6407.63894491
0.27000001 129988.49419977 6869.24230105
0.27100001 128152.34118278 5751.47734446
0.27200001 126337.47465798 6208.22379849
0.27300001 124541.27959597 6142.37620036
0.27400001 122762.81744768 8102.34633499
0.27500001 121006.73591805 7013.55074573
0.27600001 119267.44490369 5946.67508433
0.27700001 117548.96436242 6862.50886426
0.27800001 115848.32876956 5333.07806731
0.27900001 114167.55180764 6233.54862372
0.28000001 112504.03475228 4742.04528924
0.28100001 110859.69571227 5627.23842069
0.28200001 109234.21478116 6028.09042801
0.28300001 107626.50151504 5043.37809970
0.28400001 106036.68440514 4533.06847287
0.28500001 104465.11716822 6274.17523409
0.28600001 102911.21413285 5759.42637155
0.28700001 101374.97286094 4817.33893837
0.28800001 99855.53571154  5194.48521359
0.28900001 98355.54388485  4278.46636151
0.29000001 96871.04738776  5074.10570235
0.29100001 95404.89696031  4596.60815313
0.29200001 93955.60286361  6194.02341198
0.29300001 92523.40151552  4488.31041998
0.29400001 91107.48523266  4837.80769486
0.29500001 89709.50236505  5576.34293098
0.29600001 88327.40563842  5902.47916120
0.29700001 86962.04553673  5053.36470536
0.29800001 85613.03223638  3839.74467757
0.29900001 84281.29867354  5309.72206779
0.30000001 82964.97512279  4120.45568453
0.30100001 81666.03126232  4069.41853045
0.30200001 80381.63681386  4384.01467937
0.30300001 79114.54831851  5772.19771858
0.30400001 77863.31502891  4987.14556370
0.30500001 76627.63312299  5275.81279029
0.30600001 75407.07889162  3819.74576209
0.30700001 74203.22871754  3428.18932905
0.30800001 73014.70003012  4399.50095860
0.30900001 71841.58130092  3674.69705752
0.31000001 70684.35960038  4616.39574406
0.31100001 69541.54241589  3254.54433915
0.31200001 68414.64980959  3533.27475670
0.31300001 67302.38172607  3486.93656232
0.31400001 66206.49562087  4066.73418606
0.31500001 65124.27946992  3704.26919164
0.31600002 64057.56793466  3655.12499941
0.31700002 63005.54701039  3005.36473469
0.31800002 61968.42088604  2965.18907979
0.31900002 60945.98600108  3217.94821322
0.32000002 59938.45309813  3463.24398399
0.32100002 58944.51877774  4270.53058766
0.32200002 57966.41001963  3651.01450796
0.32300002 57000.68717212  3047.25688051
0.32400002 56049.91614843  2732.43354162
0.32500002 55113.37885649  5120.58427203
0.32600002 54191.14263594  5316.15134432
0.32700002 53282.26680722  3407.93394636
0.32800002 52387.94770328  2843.87987574
0.32900002 51506.78654844  3059.50326586
0.33000002 50640.23560067  4274.28928828
0.33100002 49784.86234207  3471.00076686
0.33200002 48945.81679753  2689.32803129
0.33300002 48118.74636939  3133.97409945
0.33400002 47305.59914609  2852.52776359
0.33500002 46504.34428531  2343.81906297
0.33600002 45717.44881663  2542.11886183
0.33700002 44942.37817396  2278.57868133
0.33800002 44181.33913530  2471.28332157
0.33900002 43431.87630818  2879.53353560
0.34000002 42695.81989166  2402.28041997
0.34100002 41971.99323482  2583.79602590
0.34200002 41261.33557932  2547.47497931
0.34300002 40561.64404369  2302.27902495
0.34400002 39875.88187064  2476.29238144
0.34500002 39201.02623210  2644.89336514
0.34600002 38539.36871760  3610.75362616
0.34700002 37887.92975218  2373.30003208
0.34800002 37249.85793947  1950.03015549
0.34900002 36622.68804347  2691.76769868
0.35000002 36007.39883923  2464.52653028
0.35100002 35404.05317260  2056.26750565
0.35200002 34810.79259079  2027.55471048
0.35300002 34229.30121894  2544.60637314
0.35400002 33659.17274965  2150.82124057
0.35500002 33100.30324515  1944.31190471
0.35600002 32551.27712269  2266.05726423
0.35700002 32013.43668647  1719.12163149
0.35800002 31487.02667664  1865.13411353
0.35900002 30970.79306602  2006.90748574
0.36000002 30465.32655495  1814.66726220
0.36100002 29969.26816972  1952.79760644
0.36200002 29484.75550140  2247.62301833
0.36300002 29009.15016523  2059.06957626
0.36400002 28543.64208912  2031.59382192
0.36500002 28087.78182659  1850.42315439
0.36600002 27642.17138145  1826.04192795
0.36700002 27205.42200651  1501.73936589
0.36800002 26779.81151543  1926.94142887
0.36900002 26362.48313452  1609.42967160
0.37000002 25953.97532315  1877.64043370
0.37100002 25554.50087246  1711.12945948
0.37200002 25165.11616560  1407.98831616
0.37300002 24783.80283531  1946.51996689
0.37400002 24411.37412658  1510.45384563
0.37500002 24047.96315794  1898.82726090
0.37600002 23693.18071096  1607.81931921
0.37700002 23346.35658160  1853.23387324
0.37800002 23007.74714715  1438.78953601
0.37900002 22677.94974349  1421.90751628
0.38000002 22356.09151969  1277.65069088
0.38100002 22041.17250446  1894.43886650
0.38200002 21735.10807001  1498.41842133
0.38300002 21435.99902950  1234.71360259
0.38400002 21145.46193069  1587.49562965
0.38500002 20860.96754708  1207.85007820
0.38600002 20585.39439635  1314.48042145
0.38700002 20315.94831270  1537.10472216
0.38800002 20053.93611485  1404.17667329
0.38900002 19798.37176943  1158.20480338
0.39000002 19550.90665865  1261.32680284
0.39100002 19308.98948360  1589.51608960
0.39200002 19074.44714229  1124.43871231
0.39300002 18845.90608597  1225.17241269
0.39400002 18625.29371645  1434.61331648
0.39500002 18409.74506693  1530.95447230
0.39600002 18200.37640563  1192.21571294
0.39700002 17997.18870792  1719.09154683
0.39800002 17800.26159178  1171.88027742
0.39900002 17608.78102428  1056.52691151
0.40000002 17423.12115862  1257.60094481
0.40100002 17243.36036945  1351.70708340
0.40200002 17069.51276874  1960.51898194
0.40300002 16900.25994768  1228.98696162
0.40400002 16736.98069948  1321.80311337
0.40500002 16578.96177417  1211.59058386
0.40600002 16425.86819214  1103.07923071
0.40700002 16277.90362050  1095.82852365
0.40800002 16134.98054002  1088.86921333
0.40900002 15996.74453683  1278.93978632
0.41000002 15863.63661038  1173.59189204
0.41100002 15734.77877179  1166.89124901
0.41200002 15610.31346195  1353.88255071
0.41300002 15490.99483781  1154.38899001
0.41400002 15375.46551957  1244.25960613
0.41500002 15264.56498743  952.50890035
0.41600002 15157.05620418  1232.49608364
0.41700002 15054.21065966  1227.06876901
0.41800002 14956.16440507  939.99497740
0.41900002 14860.08983414  1029.80427430
0.42000002 14769.21934129  1119.21149472
0.42100002 14682.16648136  1022.31930054
0.42200002 14598.76910497  1018.92113796
0.42300002 14518.37402205  1108.04235787
0.42400002 14441.45431347  1288.89985855
0.42500002 14368.21854740  918.12920869
0.42600002 14297.48700736  1098.90490346
0.42700002 14231.21805613  1096.37309100
0.42800002 14167.23066999  1185.15973786
0.42900002 14107.40013723  1364.89102796
0.43000002 14049.94471621  1089.99476274
0.43100002 13994.49787645  1360.26525805
0.43200002 13942.99813929  1086.71732647
0.43300002 13894.02585487  994.95123862
0.43400002 13847.87833777  993.93151479
0.43500002 13803.96999488  1263.89155263
0.43600002 13763.13956592  992.39122543
0.43700002 13724.23829534  991.85074861
0.43800002 13687.50067788  1351.98294353
0.43900002 13654.00151808  1261.62980006
0.44000002 13622.20890209  991.22007773
0.44100002 13592.99192223  1261.70157001
0.44200002 13565.75125293  901.44421348
0.44300002 13540.60001655  1352.70600576
0.44400002 13517.86163329  992.54903746
0.44500002 13495.87900719  1083.44921804
0.44600002 13476.12663792  903.57433389
0.44700002 13459.39711503  994.91868189
0.44800002 13442.73028254  905.36792744
0.44900002 13429.55434712  1178.44344981
0.45000002 13417.39542956  907.68684383
0.45100002 13406.46267866  1090.74985523
0.45200002 13397.49799297  1092.43203812
0.45300002 13389.52776652  1094.19226094
0.45400002 13383.48466850  1187.44973349
0.45500002 13378.83854365  1006.62385973
0.45600002 13375.36367646  1100.25746817
0.45700002 13373.27031516  1286.24119987
0.45800002 13372.02968383  1380.99643105
0.45900002 13372.10521591  922.67530363
0.46000002 13374.14356565  1017.30427854
0.46100002 13376.00824542  1205.04463994
0.46200002 13380.00809792  1115.08992773
0.46300002 13384.88629519  1024.74694333
0.46400002 13389.99642835  1587.71890174
0.46500002 13396.68067986  1123.71362869
0.46600002 13403.97611394  1408.42285693
0.46700002 13411.70969798  1412.25309813
0.46800002 13421.35752642  1133.03105608
0.46900002 13430.68746966  1041.54986264
0.47000002 13441.19010181  1329.46817598
0.47100002 13452.26126865  1142.90417155
0.47200002 13464.32072600  1146.35232095
0.47300002 13477.03428931  1054.03890173
0.47400002 13489.49047220  1441.68936255
0.47500002 13503.03312060  1060.52827156
0.47600002 13517.68677075  1354.06674801
0.47700002 13531.75492852  1067.24956180
