# SAXS profile: number of points = 501, q_min = 0, q_max = 0.5, delta_q = 0.001
#    q    intensity    error
0.00000000 1664650.74656090 274.66737318
0.00100000 1664564.44410807 649.18014862
0.00200000 1664305.50461981 748.93750079
0.00300000 1663874.14421784 1098.15697430
0.00400000 1663270.24205337 1247.45272894
0.00500000 1662494.44328211 2094.74308145
0.00600000 1661546.59902961 2268.01120001
0.00700000 1660427.43063591 2590.26689944
0.00800000 1659136.75404066 2911.78512628
0.00900000 1657675.96281442 2983.81686062
0.01000000 1656044.42524789 3825.46278750
0.01100000 1654243.73626628 3275.40274042
0.01200000 1652273.81367603 3866.32089352
0.01300000 1650135.94293650 4158.34275960
0.01400000 1647830.36531581 4449.14218359
0.01500000 1645358.58761878 5528.40510057
0.01600000 1642720.25105263 5445.61787568
0.01700000 1639917.50860976 5313.33296624
0.01800000 1636951.00541609 5131.84163290
0.01900000 1633821.57309961 5881.75792856
0.02000000 1630530.10001191 6163.40405685
0.02100000 1627079.10244063 7517.10579409
0.02200000 1623467.54380513 7281.25226477
0.02300000 1619698.22089428 6414.00524670
0.02400000 1615771.86213103 7876.88818706
0.02500000 1611690.83151639 8171.27288898
0.02600000 1607455.58721472 8463.25405378
0.02700000 1603067.97250346 7406.17437218
0.02800000 1598528.36393331 6953.59870200
0.02900000 1593840.33111332 7172.28181932
0.03000000 1589004.26754812 9605.53123885
0.03100000 1584021.96070136 9123.96691346
0.03200000 1578894.53196166 10941.73961045
0.03300000 1573626.19835789 8828.04337976
0.03400000 1568215.46012006 9056.44470006
0.03500000 1562666.30352105 12657.59764302
0.03600000 1556979.26325493 9505.35884145
0.03700000 1551157.67521360 9725.75907338
0.03800000 1545202.64622446 15367.04102788
0.03900000 1539117.10020099 15698.99514907
0.04000000 1532900.89082856 12255.54319008
0.04100000 1526558.15645488 12502.51188106
0.04200000 1520090.44914223 11765.50062220
0.04300000 1513499.41876325 16981.46426677
0.04400000 1506788.08404480 12204.98404759
0.04500000 1499958.69168858 11384.68699890
0.04600000 1493011.72605341 12630.87978958
0.04700000 1485951.52351273 11768.73661356
0.04800000 1478779.54448561 10869.03015768
0.04900000 1471498.17041510 15450.73150855
0.05000000 1464109.59707644 14560.57062095
0.05100000 1456617.49373488 12497.77867844
0.05200000 1449020.87796981 12671.68816836
0.05300000 1441325.72789948 16344.63451633
0.05400000 1433532.46485149 16557.30074117
0.05500000 1425644.94180879 13172.95987682
0.05600000 1417663.97901399 18181.54137928
0.05700000 1409594.54556527 14716.16774263
0.05800000 1401435.94415820 19844.33389586
0.05900000 1393192.16578938 13792.60308551
0.06000000 1384866.81323585 17740.14470635
0.06100000 1376461.33281251 12801.09099337
0.06200000 1367978.36224995 15512.87535304
0.06300000 1359421.57625307 16965.58206487
0.06400000 1350789.97536738 17121.26373849
0.06500000 1342090.19396937 18601.37095855
0.06600000 1333323.32117341 13399.90000475
0.06700000 1324490.59958487 18913.72664721
0.06800000 1315596.38026934 13616.42317316
0.06900000 1306643.95070099 15091.73833718
0.07000000 1297633.10717601 29021.56580103
0.07100000 1288568.12377527 18091.49730517
0.07200000 1279451.09933276 18212.98725222
0.07300000 1270285.46188680 16920.20314514
0.07400000 1261073.85283543 18443.20596204
0.07500000 1251817.04624993 17124.85799538
0.07600000 1242518.28386386 17221.30422170
0.07700000 1233181.40474373 14428.22311202
0.07800000 1223807.50439506 14502.11960718
0.07900000 1214398.44800765 14572.78205961
0.08000000 1204959.93364637 23424.42220895
0.08100000 1195492.09609915 17645.46416632
0.08200000 1185996.59642765 16242.22415025
0.08300000 1176476.89297788 17788.33145667
0.08400000 1166936.07000291 19341.96626818
0.08500000 1157375.81775678 17916.17849995
0.08600000 1147798.82930168 17974.53051080
0.08700000 1138207.07088059 18029.20084936
0.08800000 1128602.53960967 19586.89799480
0.08900000 1118988.66738189 16616.98249112
0.09000000 1109367.24663382 16657.14999068
0.09100000 1099740.41647760 18211.70215248
0.09200000 1090109.90229797 16727.73723674
0.09300000 1080480.11527788 16758.24737547
0.09400000 1070849.75913492 21363.45369877
0.09500000 1061222.95072172 18337.93345040
0.09600000 1051601.42915432 22951.20227018
0.09700000 1041990.10034519 22975.88279277
0.09800000 1032387.59592277 19930.24347636
0.09900000 1022797.73686094 18410.36012920
0.10000000 1013220.30674338 23025.43255356
0.10100000 1003659.16949380 21498.38042166
0.10200000 994115.93147896 21502.72860930
0.10300000 984592.21771855 18431.56718273
0.10400000 975090.94691572 21500.75639100
0.10500000 965614.56979959 16888.59962039
0.10600001 956159.88626083 24554.18703454
0.10700001 946735.32072999 19938.24679282
0.10800001 937337.77167455 19923.11527456
0.10900001 927972.07187328 16842.69389721
0.11000001 918638.66823042 16824.86800058
0.11100001 909338.37006822 19859.95093716
0.11200001 900074.24746751 16781.88513407
0.11300001 890846.52327538 22850.21439782
0.11400001 881657.67585664 18250.31474954
0.11500001 872509.52518238 19736.16638896
0.11600001 863402.75129108 15152.71899872
0.11700001 854339.11870501 19658.34404721
0.11800001 845318.91178782 15088.94328608
0.11900001 836343.99268037 15054.19257732
0.12000001 827415.81141483 16519.35745304
0.12100001 818537.37964055 16477.15822837
0.12200001 809707.54599587 17926.92591291
0.12300001 800928.78554564 16387.00372433
0.12400001 792201.12094344 19309.90323283
0.12500001 783525.56495060 16289.49726289
0.12600001 774905.37787344 17714.33777295
0.12700001 766339.59597103 16185.09302965
0.12800001 757829.13871513 20529.59233534
0.12900001 749375.91426305 20457.96342361
0.13000001 740980.42835615 16016.29271384
0.13100001 732642.79803712 15956.96089342
0.13200001 724364.55118446 17341.28817283
0.13300001 716147.54864055 15834.02304691
0.13400001 707990.30772074 14336.80440726
0.13500001 699895.44968598 25700.16212419
0.13600001 691862.18611308 17061.32231400
0.13700001 683892.53259028 19819.20652901
0.13800001 675985.13306560 18322.57789576
0.13900001 668142.87920209 16837.20134990
0.14000001 660365.09888928 19553.41150026
0.14100001 652652.15287945 15291.64066316
0.14200001 645004.44060912 16602.41508434
0.14300001 637423.82518985 16522.02632823
0.14400001 629907.33828277 15070.53377929
0.14500001 622459.08444607 16358.22551089
0.14600001 615077.34694321 16274.94736788
0.14700001 607764.69398301 20238.56526442
0.14800001 600516.50306540 13421.54447672
0.14900001 593337.51714162 13350.09476555
0.15000001 586225.79674300 13278.01492272
0.15100001 579182.76757316 17166.97804089
0.15200001 572207.87770682 14445.38855434
0.15300001 565302.51184564 14364.33750384
0.15400001 558462.88721370 19476.39411069
0.15500001 551693.52425228 14200.59198442
0.15600001 544990.10050597 12834.51747264
0.15700001 538358.59710638 12759.09935361
0.15800001 531791.47969835 15219.87286733
0.15900001 525295.14088435 18910.62596443
0.16000001 518864.40053624 20048.92138308
0.16100001 512504.95130367 14944.64508547
0.16200001 506211.80453237 13614.56712559
0.16300001 499986.14930450 17219.52379494
0.16400001 493828.15585440 14666.69692128
0.16500001 487736.89568406 15788.04405867
0.16600001 481713.66436838 13273.62064836
0.16700001 475755.60740578 13187.94605995
0.16800001 469863.58276851 11911.04238558
0.16900001 464039.91003595 20116.13104990
0.17000001 458280.28411446 16456.84577964
0.17100001 452586.13210452 15179.73958759
0.17200001 446957.62252610 12758.40593750
0.17300001 441393.74958401 12672.41514900
0.17400001 435894.14233248 18307.55484256
0.17500001 430458.36487407 13636.92164325
0.17600001 425084.71637668 19186.19957981
0.17700001 419775.88561900 15691.22334554
0.17800001 414527.75957337 12243.07795727
0.17900001 409342.77365006 12157.48095165
0.18000001 404219.03780723 10974.54739485
0.18100001 399158.04604565 11986.71668896
0.18200001 394154.88483911 12983.46251991
0.18300001 389212.88235846 12890.73127266
0.18400001 384330.04355576 15997.73881875
0.18500001 379507.66910793 15882.39670248
0.18600001 374741.95713195 13664.96611240
0.18700001 370034.01796148 12521.95175941
0.18800001 365383.26573979 12430.33928775
0.18900001 360791.21722418 11310.80519438
0.19000001 356251.12139751 13268.57364337
0.19100001 351771.22651884 12157.21416292
0.19200001 347342.98386366 12066.69582959
0.19300001 342971.36285904 15968.74740928
0.19400001 338651.47989376 11886.66750596
0.19500001 334385.81612725 13763.32084218
0.19600001 330172.25141442 11707.90858843
0.19700001 326010.20550360 9682.50356103
0.19800001 321899.94989484 10569.58535430
0.19900001 317840.65401619 12395.78609246
0.20000001 313830.14375830 10408.17720965
0.20100001 309870.39269663 10327.98067670
0.20200001 305957.95176743 11179.70408597
0.20300001 302095.24459460 17563.81835088
0.20400001 298279.29040243 11006.50633608
0.20500001 294510.23992649 10010.40352826
0.20600001 290787.38160369 13543.42293836
0.20700001 287110.72104753 9853.64041212
0.20800001 283477.87969481 10664.43833823
0.20900001 279892.08238539 13224.90151787
0.21000001 276347.92531946 11370.33592477
0.21100001 272847.59770482 9544.20941890
0.21200001 269389.97733077 11189.11323739
0.21300001 265973.21886826 12806.61109395
0.21400001 262599.06221122 9315.70217236
0.21500001 259266.74329093 9240.26716775
0.21600001 255973.44607600 11664.71048917
0.21700001 252720.26850699 11569.53443925
0.21800001 249506.13501150 12294.41538398
0.21900001 246329.84420503 9754.66229173
0.22000001 243191.37793631 8061.79455977
0.22100001 240091.84388147 8794.56465722
0.22200001 237029.10654728 11100.07358447
0.22300001 234001.45901704 11007.42915265
0.22400001 231009.36849905 9355.87986662
0.22500001 228054.66432246 11596.58022917
0.22600001 225132.53584701 8432.33952890
0.22700001 222246.94414773 9881.09960408
0.22800001 219393.60172491 8289.78763320
0.22900001 216572.87241739 8218.94089692
0.23000001 213786.14283482 10370.76627937
0.23100001 211032.18341753 13219.05659444
0.23200001 208308.31822257 10192.52649267
0.23300001 205616.41855879 7217.13663274
0.23400001 202956.16109869 8585.04602051
0.23500001 200324.37436912 7800.63150687
0.23600001 197724.28965846 8434.91859578
0.23700001 195153.11849402 10450.44998964
0.23800001 192611.09273586 6905.10800118
0.23900001 190097.48253107 8896.56260326
0.24000001 187611.98098215 7460.39077663
0.24100001 185155.44124036 8737.48568543
0.24200001 182725.76704933 7326.38997640
0.24300001 180323.19912035 7919.79527999
0.24400001 177946.92831247 7193.50491731
0.24500001 175597.25977712 6479.53919229
0.24600001 173273.63364419 8987.70380229
0.24700001 170975.74267591 9540.44689264
0.24800001 168703.16616864 8191.38262083
0.24900001 166454.72827679 8738.87364795
0.25000001 164231.82239802 9893.32544929
0.25100001 162031.73667064 6737.27992950
0.25200001 159857.71132449 8493.24060448
0.25300001 157706.89113539 9613.81253845
0.25400001 155578.85147259 7736.15875548
0.25500001 153473.69464524 8250.74621449
0.25600001 151391.87974305 7587.00441228
0.25700001 149332.03370487 7512.89497115
0.25800001 147294.95348625 7439.13197780
0.25900001 145279.86847264 6799.09816622
0.26000001 143286.48027113 5609.66596804
0.26100001 141313.73519808 7219.71907288
0.26200001 139363.48882012 5497.88989410
0.26300001 137433.29949527 6530.83070104
0.26400001 135524.27389315 7003.21718481
0.26500001 133636.14945646 5332.08261562
0.26600001 131767.39850657 7915.92683986
0.26700001 129919.94566433 6789.61668170
0.26800001 128092.68406724 5685.39405136
0.26900001 126283.79702908 6137.39282604
0.27000001 124495.51961192 6578.96604522
0.27100001 122726.17474803 5507.95098334
0.27200001 120977.30662505 5449.42303481
0.27300001 119246.44556338 7351.54371689
0.27400001 117532.71784793 5333.04732473
0.27500001 115840.73905067 5275.38750603
0.27600001 114164.50497661 6640.94956878
0.27700001 112508.81299280 6099.10304099
0.27800001 110870.08213399 6495.87841966
0.27900001 109250.58463966 6423.93468084
0.28000001 107647.65024760 5444.81840722
0.28100001 106063.24776123 5383.77071117
0.28200001 104497.02852512 4435.89907084
0.28300001 102947.88218583 5262.69598642
0.28400001 101416.03293814 4335.53561331
0.28500001 99901.79246683  4285.78709968
0.28600001 98404.63531533  4659.95172592
0.28700001 96924.36100300  4605.84585287
0.28800001 95460.46095487  5793.49564958
0.28900001 94015.20956919  4907.59417181
0.29000001 92585.07799095  6062.00826840
0.29100001 91172.48878004  5191.36175687
0.29200001 89776.25596110  5129.36662714
0.29300001 88396.52274317  5847.43025625
0.29400001 87032.33624094  3851.18106096
0.29500001 85685.61135358  4565.32958903
0.29600001 84354.21888457  5261.17288088
0.29700001 83039.00185956  3711.84355883
0.29800001 81739.69152564  3666.02533847
0.29900001 80456.88430395  4706.72795459
0.30000001 79188.98135525  4290.45921294
0.30100001 77937.81143010  3883.64132741
0.30200001 76700.67222858  4880.46400495
0.30300001 75480.46626306  3786.10036699
0.30400001 74275.55842868  4077.72835078
0.30500001 73085.75113251  4696.49059012
0.30600001 71910.28367847  3973.76246420
0.30700001 70751.30200542  4249.32339962
0.30800001 69606.88214692  4839.41871038
0.30900001 68477.47898479  4776.30438532
0.31000001 67363.53676931  4085.26188079
0.31100001 66263.40839486  3411.24042567
0.31200001 65178.85330488  3060.14730755
0.31300001 64108.36516739  3321.45455658
0.31400001 63053.68983997  2979.28698600
0.31500001 62012.38228014  3527.26447110
0.31600002 60986.02379646  3189.87412571
0.31700002 59973.94137337  3718.98428065
0.31800002 58976.28229199  2822.01524129
0.31900002 57992.91036266  3897.12376090
0.32000002 57023.81538254  3294.83620881
0.32100002 56067.99943206  3791.31830111
0.32200002 55127.66613975  3472.21621622
0.32300002 54199.20265155  2897.48951095
0.32400002 53285.47574156  2857.43377194
0.32500002 52385.29300573  3586.29732899
0.32600002 51499.07321190  3283.83855885
0.32700002 50625.85603940  2988.95068210
0.32800002 49766.88632299  3683.99393451
0.32900002 48920.55407610  2421.56754144
0.33000002 48088.36517004  3103.86367688
0.33100002 47266.96665580  2824.67406111
0.33200002 46461.74297298  2552.84058854
0.33300002 45668.03617988  2745.56246515
0.33400002 44887.65904683  2481.16547131
0.33500002 44119.16108405  2223.60582394
0.33600002 43364.31411249  3507.30589151
0.33700002 42621.23170417  2376.98620471
0.33800002 41891.67601912  3408.30692232
0.33900002 41173.37896454  2729.79515463
0.34000002 40468.15674707  2690.93021033
0.34100002 39774.76189014  2448.53445792
0.34200002 39094.23050704  2614.81773130
0.34300002 38424.54082885  3568.87152120
0.34400002 37768.15933387  2736.30327333
0.34500002 37122.50900350  3082.65329365
0.34600002 36489.68779897  2279.14600787
0.34700002 35866.80845266  2433.92173687
0.34800002 35257.02489207  2583.98747672
0.34900002 34657.77975735  2001.48687578
0.35000002 34070.08919879  2331.92736566
0.35100002 33494.14876457  1945.34025238
0.35200002 32927.87758598  2440.94368106
0.35300002 32373.20862985  2578.52618950
0.35400002 31829.59712168  2033.91135241
0.35500002 31296.84575404  2339.75229939
0.35600002 30773.76745230  1647.93532512
0.35700002 30261.76318506  1950.06811201
0.35800002 29760.58318509  1923.12897651
0.35900002 29269.48414794  1738.60744074
0.36000002 28788.91717179  1714.81193256
0.36100002 28317.49295623  1998.93192246
0.36200002 27857.25674085  2426.92432222
0.36300002 27405.73789694  1496.35336005
0.36400002 26964.12801844  1623.91468683
0.36500002 26531.90114722  1602.26158618
0.36600002 26109.71361592  1724.80776317
0.36700002 25696.19031821  1702.11572730
0.36800002 25293.37772313  1539.98737562
0.36900002 24898.72803647  2072.81920722
0.37000002 24512.68251230  1500.54393107
0.37100002 24135.54394212  2289.49780680
0.37200002 23767.99746073  2260.69318557
0.37300002 23408.51698798  1313.21786523
0.37400002 23057.66984134  1945.49098502
0.37500002 22715.62539907  1665.50973316
0.37600002 22381.98553842  2025.12214745
0.37700002 22056.07921937  2376.10152686
0.37800002 21738.25514383  1359.40184982
0.37900002 21428.90886483  1832.17179474
0.38000002 21127.42372676  1690.40525246
0.38100002 20832.62153835  1671.19297898
0.38200002 20546.41250663  1298.43059987
0.38300002 20267.16029272  1284.12733698
0.38400002 19996.10653378  1616.68528985
0.38500002 19731.19462797  1142.43622308
0.38600002 19474.69267509  1243.55655968
0.38700002 19224.26515470  1454.50797051
0.38800002 18981.14573581  1661.32485923
0.38900002 18744.14783341  1754.45232033
0.39000002 18515.19249286  1520.28252761
0.39100002 18291.64587884  1290.65859436
0.39200002 18075.21387398  1065.53390835
0.39300002 17864.73338244  1372.54753080
0.39400002 17661.84665324  1255.75735654
0.39500002 17463.95176891  1452.30229791
0.39600002 17272.19343156  1131.41508434
0.39700002 17086.33939773  1224.06541245
0.39800002 16906.53264582  1214.22723215
0.39900002 16732.13505297  1305.10659597
0.40000002 16563.32557564  1295.16930475
0.40100002 16400.42000303  1087.83991034
0.40200002 16242.94992759  1767.39546536
0.40300002 16090.18345639  1267.58471275
0.40400002 15943.12933384  1162.25418350
0.40500002 15801.23340363  1250.98370784
0.40600002 15664.27127462  1147.56456795
0.40700002 15532.12135615  950.56587204
0.40800002 15404.80324869  1228.61014131
0.40900002 15282.12152398  1033.83557008
0.41000002 15164.49384191  1121.86930758
0.41100002 15050.93104320  1116.17709905
0.41200002 14941.59807170  1295.88486216
0.41300002 14837.38381477  921.40157856
0.41400002 14736.73741776  1100.83433727
0.41500002 14640.53754283  1004.92654456
0.41600002 14547.84260210  1000.96435767
0.41700002 14459.46681345  906.60861216
0.41800002 14375.82975300  1174.57722563
0.41900002 14294.04215453  900.52469841
0.42000002 14217.22206126  1346.72642357
0.42100002 14144.20247444  1074.39367087
0.42200002 14074.72830812  1607.47479624
0.42300002 14008.12647709  1425.46701786
0.42400002 13944.79242978  1066.77667143
0.42500002 13885.20887671  1153.44435605
0.42600002 13827.92110560  974.24622766
0.42700002 13775.00344806  972.79078960
0.42800002 13724.20239426  971.46771251
0.42900002 13677.49269220  970.41815250
0.43000002 13632.99298428  1145.78494966
0.43100002 13590.45121750  880.66128063
0.43200002 13551.70196897  968.20139305
0.43300002 13515.40682883  1055.82363150
0.43400002 13481.72484500  1319.52388173
0.43500002 13450.25394027  879.64664938
0.43600002 13421.74887362  1143.73438447
0.43700002 13394.98664295  968.05573056
0.43800002 13370.49304789  968.49170982
0.43900002 13348.97379903  1057.23877499
0.44000002 13329.05155741  969.88848254
0.44100002 13311.62543552  882.56080820
0.44200002 13296.00401139  971.87145927
0.44300002 13282.51283916  884.61539701
0.44400002 13271.31774795  1240.20470232
0.44500002 13260.60709416  975.84812231
0.44600002 13252.29766469  1332.84990079
0.44700002 13246.62842580  1068.20816688
0.44800002 13241.20712347  1516.05208145
0.44900002 13238.96757554  982.99338907
0.45000002 13237.65146649  985.07988056
0.45100002 13237.59651918  1077.01090384
0.45200002 13239.19453844  1169.48430498
0.45300002 13241.90831479  1352.66099846
0.45400002 13246.38836040  904.06604844
0.45500002 13252.13538815  997.09071386
0.45600002 13258.99503737  1363.35622933
0.45700002 13267.07289438  1549.46151677
0.45800002 13275.89382732  1279.66346666
0.45900002 13286.08649388  1008.41401268
0.46000002 13297.94646171  1655.19547454
0.46100002 13309.72921570  1383.54641755
0.46200002 13323.39145735  1202.90245474
0.46300002 13337.93315034  1021.15221039
0.46400002 13352.54902237  1676.41260921
0.46500002 13368.74970349  1214.81834313
0.46600002 13385.29855014  1125.16824945
0.46700002 13402.46641238  1129.02382409
0.46800002 13421.24393153  1133.02146640
0.46900002 13439.62614989  1042.24305732
0.47000002 13459.08260730  1045.97265440
0.47100002 13479.08829970  1049.75144654
0.47200002 13499.93283592  1149.38433613
0.47300002 13521.38531869  1153.64465007
0.47400002 13542.49403222  1157.88329464
0.47500002 13564.59011590  968.51178018
0.47600002 13587.55514240  1361.06546313
0.47700002 13610.03449507  1268.59137541
