# SAXS profile: number of points = 501, q_min = 0, q_max = 0.5, delta_q = 0.001
#    q    intensity    error
0.00000000 1682732.95097188 302.89193117
0.00100000 1682646.17340193 555.27325041
0.00200000 1682385.80585878 832.78100027
0.00300000 1681952.06671889 1715.59116917
0.00400000 1681344.83889337 1765.41214792
0.00500000 1680564.75717709 2571.26418025
0.00600000 1679611.68867268 1763.59234491
0.00700000 1678486.35466026 2215.60208023
0.00800000 1677188.54352734 2717.04555523
0.00900000 1675719.66492296 4021.72736773
0.01000000 1674079.11310392 2762.23065589
0.01100000 1672268.48088178 4515.12509497
0.01200000 1670287.64543819 3257.06105141
0.01300000 1668137.94161636 6305.56169742
0.01400000 1665819.57246109 4872.52246545
0.01500000 1663334.06242285 5588.80269860
0.01600000 1660681.07043957 5081.68430271
0.01700000 1657862.75834877 5371.47557801
0.01800000 1654879.73393378 6131.32969012
0.01900000 1651732.85421428 5450.71866486
0.02000000 1648423.00988174 5711.78598762
0.02100000 1644952.73443950 7599.68197767
0.02200000 1641320.94583091 6795.06902446
0.02300000 1637530.49718130 6484.62106401
0.02400000 1633582.14612555 7963.71332549
0.02500000 1629478.06211647 8261.45415224
0.02600000 1625219.01125390 7240.35102630
0.02700000 1620806.58800115 7488.12677953
0.02800000 1616241.36295039 9842.91035176
0.02900000 1611526.80027976 7977.05802765
0.03000000 1606663.28091477 7470.98459966
0.03100000 1601652.69350760 11531.89992387
0.03200000 1596496.01475453 13434.51458293
0.03300000 1591197.56777675 8926.61876675
0.03400000 1585755.85107606 12487.82790342
0.03500000 1580174.85940045 12799.41695220
0.03600000 1574455.14916662 12233.51707438
0.03700000 1568599.91910674 9835.12194765
0.03800000 1562610.59319613 10055.39963258
0.03900000 1556489.71564402 13074.51421689
0.04000000 1550237.44909867 10487.35682913
0.04100000 1543857.69936530 13616.82553977
0.04200000 1537352.27943303 9915.92266237
0.04300000 1530722.70427650 11113.04734889
0.04400000 1523971.83938451 11315.49143294
0.04500000 1517102.24536675 12561.60717531
0.04600000 1510114.30031051 12775.56757452
0.04700000 1503012.29037807 14068.19569222
0.04800000 1495797.53113558 13192.93483846
0.04900000 1488472.77870822 13396.25563194
0.05000000 1481039.94356814 13595.94731507
0.05100000 1473502.89443573 13791.98773440
0.05200000 1465860.48814021 15149.66885092
0.05300000 1458118.86290368 14172.91600813
0.05400000 1450278.24048207 14357.75525033
0.05500000 1442342.70546318 20596.65479483
0.05600000 1434312.91442265 14716.05118869
0.05700000 1426194.02324274 13648.67743953
0.05800000 1417985.19394096 17568.83737326
0.05900000 1409690.44575715 13955.93606482
0.06000000 1401313.37996971 16668.62343348
0.06100000 1392855.50393860 19430.33518795
0.06200000 1384319.46328562 13081.81953954
0.06300000 1375708.88379723 17168.84767252
0.06400000 1367022.79039515 17327.01467859
0.06500000 1358267.89888688 18825.59395919
0.06600000 1349445.22753684 18986.69523980
0.06700000 1340556.15692681 23245.24484896
0.06800000 1331604.71500297 20673.16416811
0.06900000 1322594.59191375 13887.24386528
0.07000000 1313525.28839451 20983.56746473
0.07100000 1304401.31123606 19722.54874965
0.07200000 1295224.76083136 17019.25415462
0.07300000 1285998.78697057 17129.50464506
0.07400000 1276726.48150845 14363.17359009
0.07500000 1267408.03992807 15893.29756566
0.07600000 1258047.31882862 21795.67082050
0.07700000 1248647.78461831 16070.09774154
0.07800000 1239210.75464249 17621.57775740
0.07900000 1229738.08752039 22135.28661359
0.08000000 1220235.22565828 19273.61629342
0.08100000 1210702.57712702 22337.46359603
0.08200000 1201141.80127216 19440.48096584
0.08300000 1191556.15184079 18016.32986138
0.08400000 1181949.02278139 16576.83582260
0.08500000 1172322.00159377 18147.54543661
0.08600000 1162677.63247348 21242.12134264
0.08700000 1153017.98683126 19785.78958312
0.08800000 1143345.13549089 18316.38993077
0.08900000 1133662.40642555 18365.33184671
0.09000000 1123971.91688987 24547.54781801
0.09100000 1114275.36930798 23065.50122832
0.09200000 1104574.78115477 20031.46459745
0.09300000 1094874.40712689 21612.82181232
0.09400000 1085173.01604986 21649.20268765
0.09500000 1075474.83486081 17035.52218491
0.09600000 1065781.70298154 15507.12450734
0.09700000 1056098.04250858 20182.03454115
0.09800000 1046422.98042974 17093.32018901
0.09900000 1036760.23256774 21771.96590769
0.10000000 1027109.64953096 17116.78311439
0.10100000 1017474.74282600 20237.57358662
0.10200000 1007857.53764868 24914.23950255
0.10300000 998259.64969982 24916.56202860
0.10400000 988683.60636840 15571.76753288
0.10500000 979132.21967911 23352.30453806
0.10600001 969602.40442083 23343.17898481
0.10700001 960102.47930145 15553.66089660
0.10800001 950629.07690207 18651.34336658
0.10900001 941187.17474173 24847.34258264
0.11000001 931777.45518609 20168.32396682
0.11100001 922400.49277313 20145.22771047
0.11200001 913059.63449407 24762.17845321
0.11300001 903754.66545573 24726.72881102
0.11400001 894488.65109980 18515.91594958
0.11500001 885262.89527473 15403.57510310
0.11600001 876078.43143069 15375.17719565
0.11700001 866936.96246405 24551.65593324
0.11800001 857838.62121986 15312.42010996
0.11900001 848785.46487856 21389.39472242
0.12000001 839778.83458858 22862.97984863
0.12100001 830821.57099716 18244.84255858
0.12200001 821913.10972441 18197.15710659
0.12300001 813055.48406088 16635.11598764
0.12400001 804248.62163759 19603.56107609
0.12500001 795493.92306622 19545.28661072
0.12600001 786794.60079507 16487.28163660
0.12700001 778149.46295850 17928.56447147
0.12800001 769559.57307784 14890.97844086
0.12900001 761026.87221059 16324.02717830
0.13000001 752551.76697186 16266.40720981
0.13100001 744134.43185895 23574.17991252
0.13200001 735776.31831542 17614.48589082
0.13300001 727479.56316052 16084.57389975
0.13400001 719242.35563688 24759.91926012
0.13500001 711067.87335070 18857.52089036
0.13600001 702954.60411281 20224.00491390
0.13700001 694905.19501192 17261.44585803
0.13800001 686917.72549989 24347.79992848
0.13900001 678995.73938385 19962.47567928
0.14000001 671138.00411427 14194.56945644
0.14100001 663345.19892761 16955.10408424
0.14200001 655617.73447973 14063.00106788
0.14300001 647957.38407026 13995.88015607
0.14400001 640361.03773331 13927.85322767
0.14500001 632833.13315266 15244.95089678
0.14600001 625371.84619630 19305.22980279
0.14700001 617979.69426470 17834.89481787
0.14800001 610652.07734805 20472.11185894
0.14900001 603393.64773296 14933.99348599
0.15000001 596202.87995557 13503.99586815
0.15100001 589080.53344587 16117.24415557
0.15200001 582026.68548183 14693.26436832
0.15300001 575042.52954710 14611.83136531
0.15400001 568124.16952785 15850.66507784
0.15500001 561276.05666172 15760.63241485
0.15600001 554494.09641994 20893.33853916
0.15700001 547784.28420411 14280.73696321
0.15800001 541139.05612613 15487.40051732
0.15900001 534564.62443835 16678.41706971
0.16000001 528056.12806494 14027.81170419
0.16100001 521618.99894660 13942.87650001
0.16200001 515248.32397499 12597.82211588
0.16300001 508945.31083983 12520.05523770
0.16400001 502710.33660783 17418.91398580
0.16500001 496542.21119225 17309.46229936
0.16600001 490442.33241966 12285.58100715
0.16700001 484407.88949945 17089.91114844
0.16800001 478439.72939038 16979.82679779
0.16900001 472539.95848176 15664.70036333
0.17000001 466704.65757028 15562.26754153
0.17100001 460935.03347974 16648.97419547
0.17200001 455231.26469586 12994.57706438
0.17300001 449592.52859480 14081.23866057
0.17400001 444018.31357769 12821.02941004
0.17500001 438508.05823128 11576.61328404
0.17600001 433060.26015068 14947.07558504
0.17700001 427677.61062855 14844.69056604
0.17800001 422355.97028493 18144.41334044
0.17900001 417097.63500418 12387.80034474
0.18000001 411900.89331229 13419.73173800
0.18100001 406767.29692019 11104.74773047
0.18200001 401691.83124211 14334.37367500
0.18300001 396677.91599228 16422.46649787
0.18400001 391723.20786043 13044.38343798
0.18500001 386829.48345064 14030.30602758
0.18600001 381992.78990952 19286.81687371
0.18700001 377214.19951092 15956.16139316
0.18800001 372493.11760321 14784.25253617
0.18900001 367831.02926426 11531.50331227
0.19000001 363221.22217019 13528.17505892
0.19100001 358671.96991276 12395.70386588
0.19200001 354174.63431447 14354.69860704
0.19300001 349734.63161017 15265.91739114
0.19400001 345346.43342211 13131.79875140
0.19500001 341012.93757588 10025.78083850
0.19600001 336731.87936214 11940.51300645
0.19700001 332502.82144197 13825.46796892
0.19800001 328325.79514338 13720.73562747
0.19900001 324200.14578809 10698.60531662
0.20000001 320123.77004647 13512.42497227
0.20100001 316098.44393614 10535.56163433
0.20200001 312120.81630940 12355.30309756
0.20300001 308193.34859260 12259.93198647
0.20400001 304313.05998422 15907.96596258
0.20500001 300479.97099882 11141.79785127
0.20600001 296693.72847238 9212.34070452
0.20700001 292953.95162780 9140.16372283
0.20800001 289258.41047235 9975.07675666
0.20900001 285610.19169571 9896.39361007
0.21000001 282004.11191585 11603.05973328
0.21100001 278442.42183230 10625.36331942
0.21200001 274923.68580300 9662.19339432
0.21300001 271446.37384815 8713.42901246
0.21400001 268012.01780459 10372.06557939
0.21500001 264619.98066745 15432.63800214
0.21600001 261267.36361170 11905.95432268
0.21700001 257955.19117781 8435.13515032
0.21800001 254682.71150884 9202.96021549
0.21900001 251448.37192061 13276.47466514
0.22000001 248252.19060249 13990.25286290
0.22100001 245095.47813319 9794.01576930
0.22200001 241976.15304421 11331.74378288
0.22300001 238892.21346417 8829.45662714
0.22400001 235844.03955625 8755.71038255
0.22500001 232834.11103499 8682.38441106
0.22600001 229857.20704979 10957.29357821
0.22700001 226917.04970599 10864.78885371
0.22800001 224009.53888023 7694.72802442
0.22900001 221135.22350263 7629.16557163
0.23000001 218295.37756610 8320.32870942
0.23100001 215488.65222162 8248.90599716
0.23200001 212712.45567873 8177.73074532
0.23300001 209968.87031550 10317.87077528
0.23400001 207257.19186558 12419.88780995
0.23500001 204574.43556182 8690.32243369
0.23600001 201923.89089180 10049.75252501
0.23700001 199302.65315574 10672.65758128
0.23800001 196711.08271060 7757.30191360
0.23900001 194148.26981705 7688.27184841
0.24000001 191614.07705650 10390.27381985
0.24100001 189109.37224318 9610.53875199
0.24200001 186631.70651674 7482.99862675
0.24300001 184181.91249471 8089.26997941
0.24400001 181758.76468242 8015.56190166
0.24500001 179362.52841059 9927.71641715
0.24600001 176993.06397334 7213.35266346
0.24700001 174649.57041352 7796.35719207
0.24800001 172331.78681702 8367.57030474
0.24900001 170038.65545952 8927.02983394
0.25000001 167771.45165649 6948.25499906
0.25100001 165527.60252629 6882.63803865
0.25200001 163310.12760137 7437.14356282
0.25300001 161116.32842981 7980.09212467
0.25400001 158945.84670067 6079.67892394
0.25500001 156798.56420450 7827.38469542
0.25600001 154675.10368759 7751.54318805
0.25700001 152574.08629498 7676.00264468
0.25800001 150496.25362674 7016.13567604
0.25900001 148440.81548829 7525.94970134
0.26000001 146407.39500119 5731.84978550
0.26100001 144395.25507159 7377.15393067
0.26200001 142405.80553365 5617.90929412
0.26300001 140436.94208840 6673.56380382
0.26400001 138489.77562082 6055.46572555
0.26500001 136563.78496441 9808.01150025
0.26600001 134657.61367384 5932.34145112
0.26700001 132773.12257282 6404.97573600
0.26800001 130909.24821958 6338.62609874
0.26900001 129064.23579899 7840.65269582
0.27000001 127240.07672771 6206.77123650
0.27100001 125435.36746043 5629.53955803
0.27200001 123651.50306648 6076.23514824
0.27300001 121886.12184653 6011.42381396
0.27400001 120138.12289868 6937.97692574
0.27500001 118412.30290842 7353.40435862
0.27600001 116702.77608704 6303.70074867
0.27700001 115014.00722785 5275.69276122
0.27800001 113342.64538474 5692.06792061
0.27900001 111690.88479508 7505.62781345
0.28000001 110056.03240104 5566.63438230
0.28100001 108440.08614581 5045.71744717
0.28200001 106842.81882875 4989.02566134
0.28300001 105262.92945850 6277.88141004
0.28400001 103700.75805584 5319.84914006
0.28500001 102156.42966573 5697.26435212
0.28600001 100629.66194916 5198.52858235
0.28700001 99120.10149183  5138.38630455
0.28800001 97627.30919554  5078.57286474
0.28900001 96153.44537575  5855.74510056
0.29000001 94695.04243421  6200.15819686
0.29100001 93254.63967644  5718.37477564
0.29200001 91830.77853518  6861.13694303
0.29300001 90423.90245126  4785.23314423
0.29400001 89032.96354538  4333.67970571
0.29500001 87659.71884448  5448.92838131
0.29600001 86302.05553286  4998.18378279
0.29700001 84961.10797150  4557.31404733
0.29800001 83636.11143909  4126.18775318
0.29900001 82328.14929272  4075.24358291
0.30000001 81035.39342173  5122.24746067
0.30100001 79759.72563536  4697.05046503
0.30200001 78498.43420078  4281.30480399
0.30300001 77254.16217463  4227.34795432
0.30400001 76025.69126749  4521.62820220
0.30500001 74812.53289358  5494.23267581
0.30600001 73614.12431330  4067.91670214
0.30700001 72432.33612750  4015.64890502
0.30800001 71265.54749314  3963.78993923
0.30900001 70113.99954673  3260.30113328
0.31000001 68978.11193815  6113.87524110
0.31100001 67856.48577859  3175.68368479
0.31200001 66750.62317015  4700.91285933
0.31300001 65659.11270096  4020.30766103
0.31400001 64583.82568176  3356.74449874
0.31500001 63522.03903614  3613.13375145
0.31600002 62475.47183328  2970.70882633
0.31700002 61443.48133395  6447.87923648
0.31800002 60426.13685840  3180.52986414
0.31900002 59423.32712906  3708.01578842
0.32000002 58435.18963013  2813.65451392
0.32100002 57460.49262653  3052.87611780
0.32200002 56501.50148490  3558.74723953
0.32300002 55554.63332561  3239.94636896
0.32400002 54622.70801635  3195.42857026
0.32500002 53704.59595186  2626.15486640
0.32600002 52800.73671561  2848.86388439
0.32700002 51910.10200800  2553.97713973
0.32800002 51033.81369723  3777.77823783
0.32900002 50170.50655646  2483.44019214
0.33000002 49321.62970149  2938.58283677
0.33100002 48483.72957991  4104.63274061
0.33200002 47662.10199400  2618.79431807
0.33300002 46852.30022393  2582.03038761
0.33400002 46056.11886152  3008.61610710
0.33500002 45271.76361259  2966.20609236
0.33600002 44501.56663131  2924.42058967
0.33700002 43743.09204342  2661.32984595
0.33800002 42998.47590562  3498.35616535
0.33900002 42265.25265044  2586.63358470
0.34000002 41545.31024130  2337.54699143
0.34100002 40837.41948945  2304.45569093
0.34200002 40142.63412423  2065.33862350
0.34300002 39458.66811114  3054.10105644
0.34400002 38788.39076354  3211.67890733
0.34500002 38128.93021960  2176.78072933
0.34600002 37482.50608898  2536.25389463
0.34700002 36846.17015522  2692.71824247
0.34800002 36223.13412994  2275.53739382
0.34900002 35610.79394550  2617.39347896
0.35000002 35010.13508523  2949.25391926
0.35100002 34421.38304003  2362.68384377
0.35200002 33842.52325272  1971.15786021
0.35300002 33275.33740419  1943.61254983
0.35400002 32719.42286539  2613.46402516
0.35500002 32174.55944446  1718.12155571
0.35600002 31639.46250114  2202.58128634
0.35700002 31115.47937085  1837.99145349
0.35800002 30602.67570434  1812.74958121
0.35900002 30099.94117675  1625.39690053
0.36000002 29607.88666129  2565.22742184
0.36100002 29125.10003292  2214.09020938
0.36200002 28653.75627208  1872.23652350
0.36300002 28191.15489610  2001.00826931
0.36400002 27738.55117270  2126.16004810
0.36500002 27295.48825833  1798.22685164
0.36600002 26862.60628297  1774.54385511
0.36700002 26438.44138465  2189.10305034
0.36800002 26025.27554639  1728.59888367
0.36900002 25620.24685635  1848.50089825
0.37000002 25223.97193882  1684.45692587
0.37100002 24836.65829677  1801.65127819
0.37200002 24459.21238111  2052.73949632
0.37300002 24089.75883723  1892.00974870
0.37400002 23729.12847849  1468.23989416
0.37500002 23377.40587144  1714.03147969
0.37600002 23034.12587627  1432.83786801
0.37700002 22698.71335817  2059.22737340
0.37800002 22371.51874757  1526.18508126
0.37900002 22052.91475516  1759.82268083
0.38000002 21742.15571064  1615.33353505
0.38100002 21438.25568343  1474.09453063
0.38200002 21143.00766585  1579.06560233
0.38300002 20854.79442192  1441.48345873
0.38400002 20574.95160345  1663.48491594
0.38500002 20301.09563754  1528.06354103
0.38600002 20036.00823882  1628.32646671
0.38700002 19776.99424707  1381.22534365
0.38800002 19525.23144305  1139.29730868
0.38900002 19279.87021881  1240.65970736
0.39000002 19042.48707127  1228.52611161
0.39100002 18810.58415838  1327.27488110
0.39200002 18585.95331250  1424.33459958
0.39300002 18367.23477942  1411.15471496
0.39400002 18156.31058100  1075.76145289
0.39500002 17950.36942139  1386.12759239
0.39600002 17750.55565993  1585.56845944
0.39700002 17556.80903433  1572.21232351
0.39800002 17369.14941206  1455.36109819
0.39900002 17186.97742051  1340.58430231
0.40000002 17010.43822239  1023.17790755
0.40100002 16839.79490429  1218.52761701
0.40200002 16674.83098175  1511.99037091
0.40300002 16514.49780703  1100.85647598
0.40400002 16359.97270560  1689.57626122
0.40500002 16210.63149542  1480.84125727
0.40600002 16066.24767767  1078.92891391
0.40700002 15926.73991122  1169.65983450
0.40800002 15792.25003419  1453.28187825
0.40900002 15662.33427784  1348.52704522
0.41000002 15537.48782074  1149.46340344
0.41100002 15416.81773023  1238.58719513
0.41200002 15300.39468362  1232.21734423
0.41300002 15189.07589991  1226.21415550
0.41400002 15081.49902393  1032.70569460
0.41500002 14978.38436384  1215.04659717
0.41600002 14878.72184735  1395.99614347
0.41700002 14783.51912787  1205.00470121
0.41800002 14693.04590119  1015.80377651
0.41900002 14604.46232063  1104.09740376
0.42000002 14521.02502806  917.00277397
0.42100002 14441.24135214  1096.95674509
0.42200002 14365.15656274  1002.61614981
0.42300002 14291.96182339  999.86569654
0.42400002 14222.05401254  1178.65278214
0.42500002 14155.89113105  1266.38608059
0.42600002 14092.11266363  1444.15977420
0.42700002 14032.71676454  990.99050487
0.42800002 13975.49001494  1348.98423762
0.42900002 13922.39253097  1167.39266904
0.43000002 13871.55347874  1614.23275482
0.43100002 13822.67096901  1253.99276973
0.43200002 13777.66663278  1073.83138825
0.43300002 13735.08638939  1251.81583285
0.43400002 13695.26653674  982.97780226
0.43500002 13657.56909729  982.52556742
0.43600002 13622.93707306  1250.17699444
0.43700002 13590.10889062  982.15721607
0.43800002 13559.48993575  1160.76019096
0.43900002 13531.95104186  1071.73057330
0.44000002 13505.99161218  893.42138748
0.44100002 13482.61320757  1072.67675763
0.44200002 13461.10928665  1341.73613173
0.44300002 13441.63410730  984.73416137
0.44400002 13424.56310767  1075.30755588
0.44500002 13408.04945317  1076.39826111
0.44600002 13393.79883783  1257.27595649
0.44700002 13382.43489968  1079.15960145
0.44800002 13371.18630506  990.60438436
0.44900002 13363.20587203  1082.41972693
0.45000002 13356.25603163  993.90583970
0.45100002 13350.46851160  1357.74271198
0.45200002 13346.49957901  1088.27362725
0.45300002 13343.55189577  908.69592717
0.45400002 13342.41816861  1001.68209148
0.45500002 13342.66714439  1186.43001871
0.45600002 13343.99173635  914.73067688
0.45700002 13346.58140232  1283.67426011
0.45800002 13349.97479289  1470.63329288
0.45900002 13354.71763815  1105.77067285
0.46000002 13361.25054469  1108.71662275
0.46100002 13367.58692086  1019.01119927
0.46200002 13376.02559730  928.96502176
0.46300002 13385.18477638  1024.76979505
0.46400002 13394.55823415  1027.69752922
0.46500002 13405.50894484  1218.15865555
0.46600002 13416.89262640  1315.79472223
0.46700002 13428.83147398  1036.97441557
0.46800002 13442.49560148  1513.08737662
0.46900002 13455.77877334  1043.49569333
0.47000002 13470.15426239  1522.66630999
0.47100002 13485.08541898  1145.69291150
0.47200002 13500.92989086  1149.46922539
0.47300002 13517.39086391  1249.41249677
0.47400002 13533.53864215  1157.11760875
0.47500002 13550.68923723  1451.27888609
0.47600002 13568.86763374  1262.10828277
0.47700002 13586.42288627  1071.56122383
