# SAXS profile: number of points = 501, q_min = 0, q_max = 0.5, delta_q = 0.001
#    q    intensity    error
0.00000000 1664650.74656089 299.63713438
0.00100000 1664564.33307442 699.11703649
0.00200000 1664305.05184456 1123.40594557
0.00300000 1663873.12976555 1796.98304416
0.00400000 1663268.42558995 1621.68677657
0.00500000 1662491.60218627 1496.24250119
0.00600000 1661542.52646090 2268.00564095
0.00700000 1660421.90023701 2191.75699940
0.00800000 1659129.49570282 2239.82491376
0.00900000 1657666.79996412 2983.80036749
0.01000000 1656033.15775746 3825.43675960
0.01100000 1654230.08696573 3573.13714342
0.01200000 1652257.56476444 3221.90239255
0.01300000 1650116.87823081 3465.24559712
0.01400000 1647808.30555132 3707.56885185
0.01500000 1645333.20812311 4343.67986286
0.01600000 1642691.43061126 6283.29500297
0.01700000 1639885.07276889 7084.30383215
0.01800000 1636914.63014043 5131.72759641
0.01900000 1633781.13695696 6861.88108484
0.02000000 1630485.28104632 7190.44041468
0.02100000 1627029.86026509 5906.11866054
0.02200000 1623413.44322497 7281.00962366
0.02300000 1619639.28127325 6996.84201359
0.02400000 1615707.75487532 7876.57566417
0.02500000 1611621.32120973 8799.45281568
0.02600000 1607380.57120432 7811.86993335
0.02700000 1602987.15332739 8079.05562280
0.02800000 1598441.61869898 9039.18776828
0.02900000 1593747.50501232 10040.60974258
0.03000000 1588905.16464458 7388.40935521
0.03100000 1583916.31506080 7602.79866212
0.03200000 1578782.25324175 9377.96701619
0.03300000 1573507.02715256 12839.81793349
0.03400000 1568089.12061889 8232.46826310
0.03500000 1562532.70647842 8437.67700462
0.03600000 1556838.26619786 13824.72444273
0.03700000 1551009.02778267 10608.90224067
0.03800000 1545046.33385214 12653.93005987
0.03900000 1538952.75279182 11080.46033324
0.04000000 1532728.39785051 10368.90809194
0.04100000 1526377.49549839 11539.41440101
0.04200000 1519901.29782474 10783.70020835
0.04300000 1513301.67602534 10986.57067792
0.04400000 1506581.64336590 10169.42656501
0.04500000 1499743.42646382 13452.69916046
0.04600000 1492787.46473598 10524.15211562
0.04700000 1485718.12436215 14976.03939007
0.04800000 1478536.66458860 14127.41848747
0.04900000 1471245.93297029 14344.64851417
0.05000000 1463847.74401988 16797.65364483
0.05100000 1456346.02526216 15903.29933670
0.05200000 1448739.64407034 11517.48070709
0.05300000 1441034.41327878 17508.56893755
0.05400000 1433231.07695803 11824.15693631
0.05500000 1425333.36856786 13170.08093994
0.05600000 1417342.07245872 15753.75787051
0.05700000 1409262.27573832 13486.64060835
0.05800000 1401093.15222192 14879.60997136
0.05900000 1392838.73281685 15042.65901700
0.06000000 1384502.77347153 16468.66125984
0.06100000 1376086.50620223 16636.88663745
0.06200000 1367592.71617578 18093.25248075
0.06300000 1359024.80147516 15655.96644499
0.06400000 1350382.11571076 14482.84886831
0.06500000 1341671.35128181 17267.31109872
0.06600000 1332893.12525744 20093.36480339
0.06700000 1324049.32359266 14855.83410595
0.06800000 1315143.68968359 14972.91160792
0.06900000 1306179.92062928 15086.37878960
0.07000000 1297157.53939958 24866.51119475
0.07100000 1288081.34313510 18084.66290466
0.07200000 1278952.60505479 18205.89118584
0.07300000 1269775.28389344 16913.40757395
0.07400000 1260552.06446310 15599.33252878
0.07500000 1251283.51298450 15691.09598831
0.07600000 1241973.07205238 21517.18448205
0.07700000 1232624.48571021 15863.87787492
0.07800000 1223238.86254035 23192.60992141
0.07900000 1213818.25253548 17478.98365634
0.08000000 1204367.72738547 17559.68228902
0.08100000 1194888.09747243 14697.12428847
0.08200000 1185380.92561757 17709.59185975
0.08300000 1175849.24406148 16297.27128756
0.08400000 1166296.61106220 26766.50848026
0.08500000 1156724.67740915 14921.74903908
0.08600000 1147135.86833556 16467.13616311
0.08700000 1137532.30302908 19520.05523660
0.08800000 1127915.97693895 21080.75059902
0.08900000 1118290.26290549 21135.68696165
0.09000000 1108657.23839943 19673.12361955
0.09100000 1099018.73731006 22749.68893113
0.09200000 1089376.49413770 16716.48308800
0.09300000 1079735.12888955 15224.26603276
0.09400000 1070093.02578470 28972.77003477
0.09500000 1060454.63699062 15270.54749042
0.09600000 1050821.89948046 18347.35122740
0.09700000 1041198.81995098 16836.18571012
0.09800000 1031584.90490858 22978.55483724
0.09900000 1021983.58380449 26060.58261245
0.10000000 1012395.13946205 23006.68062621
0.10100000 1002822.63617647 26083.41799370
0.10200000 993268.09592468 19949.79064501
0.10300000 983733.40442292 21484.73856325
0.10400000 974220.81190544 15343.97850937
0.10500000 964733.55635755 16873.19069457
0.10600001 955268.13853565 18398.46521391
0.10700001 945832.86106672 19919.24099142
0.10800001 936424.59056249 16841.59705386
0.10900001 927048.31271842 15296.29787978
0.11000001 917704.20822811 19863.70852207
0.11100001 908393.40494901 15261.00992153
0.11200001 899119.20986273 22860.10698695
0.11300001 889880.97777714 18260.35852370
0.11400001 880682.08774630 22787.65009338
0.11500001 871523.80281554 19713.86934797
0.11600001 862407.05465487 16648.76897413
0.11700001 853333.78108538 16614.40950019
0.11800001 844304.04657544 16577.91073530
0.11900001 835319.36877143 18042.89921531
0.12000001 826381.72894314 16498.71199552
0.12100001 817493.77651685 17952.16417800
0.12200001 808654.65542730 17903.61491462
0.12300001 799866.95723411 19340.78393715
0.12400001 791130.18019764 16317.06073539
0.12500001 782445.87680728 20703.51887588
0.12600001 773817.05158134 23585.94484365
0.12700001 765242.66987179 17631.19194474
0.12800001 756723.91383148 16106.86926501
0.12900001 748262.38281328 24804.89915937
0.13000001 739858.75868209 18899.69288137
0.13100001 731513.03187691 21725.93807085
0.13200001 723226.86759415 15871.21435753
0.13300001 715002.11834193 18683.00623305
0.13400001 706837.16180688 17176.14384169
0.13500001 698735.07744056 18530.45512740
0.13600001 690694.40263442 14193.77064338
0.13700001 682717.62897743 18371.93226208
0.13800001 674803.23319558 15476.61288315
0.13900001 666954.30355179 14006.04103509
0.14000001 659169.60965184 15335.58169179
0.14100001 651450.29970792 13875.89203821
0.14200001 643796.10625325 15190.36984350
0.14300001 636209.48429238 16490.55061068
0.14400001 628686.59728593 15041.32754956
0.14500001 621232.51338638 16325.99122193
0.14600001 613845.12117586 18949.39978462
0.14700001 606526.74105720 16157.87314404
0.14800001 599273.12801218 16072.50605157
0.14900001 592088.81734134 17318.59872434
0.15000001 584972.18503433 14574.58267780
0.15100001 577924.06664770 18447.33707783
0.15200001 570944.55389379 15723.81375619
0.15300001 564034.59177738 16937.95959036
0.15400001 557190.49753498 16841.08358274
0.15500001 550416.78283777 14167.72865886
0.15600001 543709.13242440 19206.52600934
0.15700001 537073.52879370 17820.10052643
0.15800001 530502.76617644 13917.74072754
0.15900001 524002.84232540 12576.06880941
0.16000001 517568.63815203 14999.13984164
0.16100001 511205.64873864 18633.44677610
0.16200001 504909.22132173 12345.03104408
0.16300001 498680.52741402 15947.80401956
0.16400001 492519.62724470 14627.83361974
0.16500001 486425.95641322 12112.00688651
0.16600001 480400.10044880 14440.82770129
0.16700001 474439.51171326 14347.05151160
0.16800001 468545.27488320 14253.14793493
0.16900001 462719.37346855 17699.01687089
0.17000001 456957.88302884 12893.06727847
0.17100001 451262.01688137 19792.35299504
0.17200001 445631.83010760 12720.56119112
0.17300001 440066.54431080 12634.31108381
0.17400001 434565.58691475 13688.81663428
0.17500001 429128.68342674 13594.79733301
0.17600001 423753.79919705 12375.73029004
0.17700001 418444.12159817 15641.44200409
0.17800001 413195.39241445 11094.29681034
0.17900001 408009.62788254 15422.76466243
0.18000001 402885.70830486 14219.85174630
0.18100001 397824.25335555 13032.72315555
0.18200001 392820.91860180 14017.81514248
0.18300001 387878.97035959 13917.09811394
0.18400001 382996.09461792 10628.14212773
0.18500001 378173.86709081 12661.26166834
0.18600001 373408.59700155 13616.34513294
0.18700001 368701.22457092 11437.11252653
0.18800001 364051.12849266 11352.93497843
0.18900001 359459.70807701 13317.98281349
0.19000001 354920.61524046 13219.01893921
0.19100001 350441.54617910 10092.71700684
0.19200001 346014.30902407 13022.24913544
0.19300001 341644.14528396 9941.84509754
0.19400001 337325.52881641 10853.44940254
0.19500001 333061.33771412 14688.00568728
0.19600001 328849.41170667 12632.75074769
0.19700001 324689.08461274 10607.59289559
0.19800001 320580.65710516 13397.06629355
0.19900001 316523.21959500 9495.69703662
0.20000001 312514.79638966 13191.25017904
0.20100001 308557.16180288 11219.13893340
0.20200001 304647.00483818 10204.15190934
0.20300001 300786.59778505 10124.47735997
0.20400001 296973.15830300 13697.88757417
0.20500001 293206.46608319 13590.12034532
0.20600001 289486.33775466 8988.55121215
0.20700001 285812.33682221 8917.34533037
0.20800001 282182.37154866 11500.34309609
0.20900001 278599.29219539 9653.46593090
0.21000001 275058.13363968 9576.14937535
0.21100001 271561.03401603 10362.76954794
0.21200001 268106.32605826 9422.59727477
0.21300001 264693.01120086 10195.97527348
0.21400001 261322.19803373 10955.93367052
0.21500001 257993.06753172 8358.97578322
0.21600001 254703.31527825 9119.65263470
0.21700001 251453.62266220 11511.54738974
0.21800001 248243.18537356 10601.22573261
0.21900001 245070.50653676 8896.05980790
0.22000001 241935.69615294 11228.23618936
0.22100001 238839.85618212 12725.38813908
0.22200001 235781.07227546 11041.62813676
0.22300001 232757.21365168 10166.83557305
0.22400001 229768.95593597 10081.11341839
0.22500001 226818.40156390 7689.14417662
0.22600001 223900.46551174 7623.81121119
0.22700001 221018.76663404 8314.72639397
0.22800001 218169.67946598 8992.95461287
0.22900001 215353.12152373 10401.55626150
0.23000001 212570.48347811 8102.12436093
0.23100001 209820.76260845 9492.29174932
0.23200001 207101.36588754 7962.01238810
0.23300001 204413.85903295 7892.41947053
0.23400001 201757.93906613 8534.36122613
0.23500001 199130.62589675 11278.75918423
0.23600001 196534.99461133 7685.50132778
0.23700001 193968.25839256 7617.13386735
0.23800001 191430.72071873 8235.34999484
0.23900001 188921.59060428 8161.41310014
0.24000001 186440.68994888 6739.83126045
0.24100001 183988.68374981 7346.66848964
0.24200001 181563.55857531 7279.79122543
0.24300001 179165.77517015 9180.45475398
0.24400001 176794.20592351 6497.18737503
0.24500001 174449.07870247 7080.88843949
0.24600001 172130.17983259 7652.90815738
0.24700001 169837.08564261 6317.93988478
0.24800001 167569.08234636 6884.57607389
0.24900001 165325.18866978 7439.63384209
0.25000001 163106.99097683 8597.36990112
0.25100001 160911.83491908 8515.45470678
0.25200001 158742.37596910 10241.26487016
0.25300001 156596.28627059 8352.84630485
0.25400001 154473.04072724 5908.59408736
0.25500001 152372.63049158 7606.44207401
0.25600001 150295.60290953 7532.06449617
0.25700001 148240.37710077 6884.28343828
0.25800001 146208.04967299 5680.18299855
0.25900001 144197.78375412 10122.68489849
0.26000001 142209.05641999 5567.48482227
0.26100001 140241.19557133 7716.07094543
0.26200001 138295.58874868 6546.91348114
0.26300001 136370.14695860 8100.38711263
0.26400001 134465.75925757 5879.51560175
0.26500001 132582.33628692 6877.04610862
0.26600001 130718.25518587 5758.79300472
0.26700001 128875.51807750 5698.87567906
0.26800001 127052.97136555 6151.90516463
0.26900001 125248.59295933 6087.08190587
0.27000001 123465.07824121 5520.74123481
0.27100001 121700.21437362 5461.90587956
0.27200001 119956.05208383 6877.08079141
0.27300001 118229.82294523 8260.71812011
0.27400001 116520.78702181 6729.07576896
0.27500001 114833.19142503 6655.73208998
0.27600001 113161.75380367 5172.05820237
0.27700001 111510.40482889 6974.97615215
0.27800001 109876.20772710 5977.81536431
0.27900001 108261.37371086 6365.76907548
0.28000001 106662.87873317 4945.42460652
0.28100001 105083.03478574 4889.51384000
0.28200001 103521.29379759 7031.16660751
0.28300001 101976.61675041 4778.62448710
0.28400001 100449.08511196 7300.13760603
0.28500001 98939.30567754  5517.84533880
0.28600001 97446.51929751  4614.58013975
0.28700001 95970.74353276  7048.09173865
0.28800001 94511.20803341  4097.06106217
0.28900001 93070.30357386  5263.12591623
0.29000001 91644.52857519  6000.42579249
0.29100001 90236.19268379  4742.81451196
0.29200001 88844.27343200  5466.58840303
0.29300001 87468.83885098  5400.32636629
0.29400001 86108.99674879  4953.42027245
0.29500001 84766.39389245  4892.71648708
0.29600001 83439.37236973  5947.55874406
0.29700001 82128.33994958  4038.25066648
0.29800001 80833.26721957  4350.44664770
0.29900001 79554.54368798  3579.95463543
0.30000001 78290.88187833  3534.83348414
0.30100001 77044.02390893  4188.11333796
0.30200001 75810.98892124  3445.60960959
0.30300001 74594.83645204  5442.43952519
0.30400001 73394.20912503  4029.34227172
0.30500001 72208.50969086  4640.11905241
0.30600001 71037.14980237  4252.63917425
0.30700001 69882.28273153  4197.13009956
0.30800001 68742.04774368  4779.29109565
0.30900001 67616.71729084  4401.84850404
0.31000001 66506.77352907  3412.79524522
0.31100001 65410.68611816  3673.46430632
0.31200001 64330.19797335  3322.33323163
0.31300001 63263.75109129  2979.72281748
0.31400001 62213.10466923  4115.39706872
0.31500001 61175.91941412  3479.68646103
0.31600002 60153.67642516  3432.36893933
0.31700002 59145.62967581  4231.87000367
0.31800002 58151.96340960  3060.82873899
0.31900002 57172.59308512  3018.71305783
0.32000002 56207.52981556  4600.86757090
0.32100002 55255.86645499  4003.28771422
0.32200002 54319.43608611  3158.13216358
0.32300002 53395.15934773  3633.00681405
0.32400002 52485.41806579  3326.26352742
0.32500002 51589.24252494  2774.98548682
0.32600002 50707.11274121  3233.33919705
0.32700002 49838.01238972  4658.85761880
0.32800002 48983.03272989  3625.96916953
0.32900002 48140.73576515  2382.96653322
0.33000002 47312.66502544  2818.88871570
0.33100002 46495.28369369  3010.10480887
0.33200002 45694.22731570  3651.88282001
0.33300002 44904.59557719  2474.69237945
0.33400002 44128.34606927  2882.68434349
0.33500002 43363.93327525  2185.54234057
0.33600002 42613.30207129  3446.56403474
0.33700002 41874.27680876  2123.02593474
0.33800002 41148.75257886  2720.13841804
0.33900002 40434.76975507  2268.39069069
0.34000002 39733.64120237  3048.56376563
0.34100002 39044.47755749  2203.27997291
0.34200002 38368.08086351  2368.84542470
0.34300002 37702.65271179  2334.54836648
0.34400002 37050.45892002  2300.83360790
0.34500002 36409.08937531  2267.55819369
0.34600002 35780.63015495  2048.62007655
0.34700002 35161.97418151  2019.00065312
0.34800002 34556.58966615  1989.94131017
0.34900002 33961.70835253  1961.28875025
0.35000002 33378.27660320  1757.36634639
0.35100002 32806.73986239  1905.41554145
0.35200002 32244.86262810  2048.83866843
0.35300002 31694.59488306  2356.17629520
0.35400002 31155.53372156  1824.93547418
0.35500002 30627.14115479  2453.23412269
0.35600002 30108.54100941  1773.54369216
0.35700002 29600.99927271  2225.40323073
0.35800002 29104.42167485  1724.00049957
0.35900002 28617.84799872  1699.90025164
0.36000002 28141.78666669  1523.87782018
0.36100002 27675.03913955  1653.03016610
0.36200002 27219.47893930  1778.52083814
0.36300002 26772.66996218  1607.96663409
0.36400002 26335.67038110  1441.87802166
0.36500002 25908.17265240  1564.59462059
0.36600002 25490.62606194  1403.25903118
0.36700002 25081.80027795  1661.41852911
0.36800002 24683.88612348  1502.87847782
0.36900002 24293.98861592  1483.14807526
0.37000002 23912.81764459  1996.12254744
0.37100002 23540.50668659  1576.27240240
0.37200002 23177.96598752  1945.21088765
0.37300002 22823.42917404  2048.63109971
0.37400002 22477.48052376  1643.66584116
0.37500002 22140.43404231  1373.59259305
0.37600002 21811.79812507  1603.49441512
0.37700002 21490.93639799  1584.09699694
0.37800002 21178.08676375  1444.76914746
0.37900002 20873.85517810  1665.73372212
0.38000002 20577.42440553  1411.19983258
0.38100002 20287.78745068  1511.23735879
0.38200002 20006.84788328  2068.90823762
0.38300002 19732.78919611  1591.25219616
0.38400002 19466.89354905  1236.63447129
0.38500002 19207.13689355  1445.72126247
0.38600002 18955.79283680  1980.69088735
0.38700002 18710.76259513  1633.44965194
0.38800002 18472.90425827  1401.26221890
0.38900002 18241.37523966  1067.12050208
0.39000002 18017.67853477  1479.43165458
0.39100002 17799.46285763  1465.25185186
0.39200002 17588.44130397  1140.52253039
0.39300002 17383.38167798  1541.03685876
0.39400002 17185.98163398  1323.75029807
0.39500002 16993.44775574  2220.70385793
0.39600002 16807.14276964  1000.86539935
0.39700002 16626.76126288  1389.66477219
0.39800002 16452.39388297  1083.14340260
0.39900002 16283.63514430  1172.42178594
0.40000002 16120.30399026  1551.41812953
0.40100002 15962.90476161  1058.81952300
0.40200002 15811.03078759  1051.35454203
0.40300002 15663.87218193  1233.99990896
0.40400002 15522.42973743  1037.28641635
0.40500002 15386.06813531  1030.71275322
0.40600002 15254.69450768  931.29914382
0.40700002 15128.15259259  1388.76447380
0.40800002 15006.62345529  1012.72203186
0.40900002 14889.44301384  1281.98110423
0.41000002 14777.36344498  1002.12694950
0.41100002 14669.62358334  1087.89933649
0.41200002 14565.84641827  902.35422837
0.41300002 14467.22998929  898.41502490
0.41400002 14372.26479238  984.14087829
0.41500002 14281.71462216  1069.41484158
0.41600002 14194.63120931  1065.44906906
0.41700002 14111.86147131  1327.22063427
0.41800002 14033.92689195  1234.84528573
0.41900002 13957.84058462  1319.01599775
0.42000002 13886.64641834  1052.33011545
0.42100002 13819.28646433  962.23696211
0.42200002 13755.44777566  1047.33984327
0.42300002 13694.49396732  1219.35780063
0.42400002 13636.76406179  956.27812515
0.42500002 13582.81276854  1301.91266556
0.42600002 13531.06845342  1126.66446816
0.42700002 13483.80136570  1038.79210644
0.42800002 13438.41055527  951.23793623
0.42900002 13397.29363221  950.53802825
0.43000002 13358.33251693  1122.70110959
0.43100002 13321.27051106  863.21837002
0.43200002 13288.01394496  1035.66785595
0.43300002 13257.21205400  949.34900017
0.43400002 13228.95953190  949.50861540
0.43500002 13202.97605781  1381.55948016
0.43600002 13179.83466038  1295.90730439
0.43700002 13158.47390108  950.96295390
0.43800002 13139.33727689  951.74794075
0.43900002 13123.09348241  1125.96147415
0.44000002 13108.55175067  1213.98303516
0.44100002 13096.35231798  1302.43229975
0.44200002 13086.00132271  1217.39076074
0.44300002 13077.72662055  1132.26962447
0.44400002 13071.66465656  959.78702289
0.44500002 13066.21044120  961.54247194
0.44600002 13062.93834032  1488.97909729
0.44700002 13062.36810527  877.79117827
0.44800002 13061.85137174  1143.63045105
0.44900002 13064.63675346  970.04932492
0.45000002 13068.28757801  1237.69757517
0.45100002 13073.17536698  974.99746508
0.45200002 13079.61197239  1244.26354590
0.45300002 13087.14572434  980.35813267
0.45400002 13096.37726540  1430.12446516
0.45500002 13106.86715324  986.16073135
0.45600002 13118.33185015  1528.74487461
0.45700002 13131.07142077  992.31511430
0.45800002 13144.48472078  904.99781592
0.45900002 13159.19364972  1271.17816681
0.46000002 13175.61377867  911.09373598
0.46100002 13191.79974963  1371.28764897
0.46200002 13209.86188725  917.42495155
0.46300002 13228.75427193  1196.93774325
0.46400002 13247.65780462  1293.63384593
0.46500002 13267.99297157  1112.91930320
0.46600002 13288.72543499  1210.13783909
0.46700002 13310.00725392  1214.67131956
0.46800002 13332.87332776  1125.56121968
0.46900002 13355.26687685  1035.70099539
0.47000002 13378.61641756  1228.75908311
0.47100002 13402.54307186  1043.79010391
0.47200002 13427.12346911  1047.91990081
0.47300002 13452.26720667  1147.74749247
0.47400002 13477.07393945  1344.33818918
0.47500002 13502.75952980  1156.91649135
0.47600002 13529.32496773  1452.03487099
0.47700002 13555.23112846  1069.10112978
