# SAXS profile: number of points = 501, q_min = 0, q_max = 0.5, delta_q = 0.001
#    q    intensity    error
0.00000000 1664650.74656090 374.54641798
0.00100000 1664564.31403126 649.18009789
0.00200000 1664304.98204396 823.83099220
0.00300000 1663872.96634772 998.32381537
0.00400000 1663268.14013797 1247.45115250
0.00500000 1662491.16002746 1645.86631357
0.00600000 1661541.88929802 1919.08096027
0.00700000 1660421.02690172 3188.00850415
0.00800000 1659128.37476192 2687.78808059
0.00900000 1657665.38505834 2735.14800227
0.01000000 1656031.39794577 2732.45192460
0.01100000 1654227.93851085 4764.17667034
0.01200000 1652255.04506328 3221.89747913
0.01300000 1650113.92495435 5544.38303238
0.01400000 1647804.87978074 4078.31725825
0.01500000 1645329.26482543 5133.42753484
0.01600000 1642686.97098215 6283.27794489
0.01700000 1639880.00213910 5313.21144527
0.01800000 1636908.94344258 6531.26697823
0.01900000 1633774.82985848 4901.32471074
0.02000000 1630478.30432989 8217.61102555
0.02100000 1627022.17225860 5906.09075307
0.02200000 1623405.02143585 7280.97185193
0.02300000 1619630.04942851 5830.66844335
0.02400000 1615697.72523138 6664.75342048
0.02500000 1611610.47876404 8170.86550050
0.02600000 1607368.79834338 6509.84393104
0.02700000 1602974.53462840 7405.74268917
0.02800000 1598428.00763537 9039.11079771
0.02900000 1593732.91282238 7888.97828069
0.03000000 1588889.61665432 8127.17076275
0.03100000 1583899.71948922 9883.53470439
0.03200000 1578764.56948602 10159.35047256
0.03300000 1573488.23716023 8827.26941741
0.03400000 1568069.18736033 10702.07269753
0.03500000 1562511.63261690 9281.31952634
0.03600000 1556816.05370182 10368.39539682
0.03700000 1550985.63390138 12376.86593093
0.03800000 1545021.58164739 9942.21433802
0.03900000 1538926.80270774 10156.91736824
0.04000000 1532701.10430233 10368.72345108
0.04100000 1526348.85951476 15385.59721729
0.04200000 1519871.29102280 13724.43839465
0.04300000 1513270.31748892 10986.34301493
0.04400000 1506548.93421735 13219.96751172
0.04500000 1499709.18469910 12417.59262629
0.04600000 1492751.69306089 10523.89992530
0.04700000 1485680.85028042 12836.28314341
0.04800000 1478497.95432836 17387.13675189
0.04900000 1471205.64200914 17654.46852588
0.05000000 1463805.89032335 15677.36181540
0.05100000 1456302.42150602 12495.07535859
0.05200000 1448694.56228685 16123.97122965
0.05300000 1440987.57392735 12839.19988223
0.05400000 1433182.59392197 11823.75695124
0.05500000 1425283.21345312 11972.37955151
0.05600000 1417290.21309039 12117.83188739
0.05700000 1409208.65204904 15938.15059864
0.05800000 1401037.71720195 14879.02125142
0.05900000 1392781.49782221 20056.05450537
0.06000000 1384443.74445137 16467.95910961
0.06100000 1376025.64762443 21754.96650558
0.06200000 1367529.97127116 16800.10648236
0.06300000 1358960.21302996 16959.82425158
0.06400000 1350315.66283591 15798.69399403
0.06500000 1341602.94557711 17266.43071726
0.06600000 1332822.78834831 21431.79143940
0.06700000 1323976.97682460 20256.84869342
0.06800000 1315069.50625565 13610.97002686
0.06900000 1306103.66926725 16456.90700326
0.07000000 1297079.28865621 20720.84260661
0.07100000 1288000.95039711 15301.45200740
0.07200000 1278870.16093247 23806.16916100
0.07300000 1269690.80171862 19730.99598321
0.07400000 1260465.49318740 15598.26120919
0.07500000 1251194.88832993 17116.34687464
0.07600000 1241882.38055273 15778.11638461
0.07700000 1232531.72072829 18746.80835129
0.07800000 1223143.88359607 17393.10684041
0.07900000 1213721.08180282 17477.58439772
0.08000000 1204268.45187744 16095.04861438
0.08100000 1194786.72020193 16165.46508279
0.08200000 1185277.20223209 20659.38260435
0.08300000 1175743.56349293 19258.68047386
0.08400000 1166188.54610347 16355.79512682
0.08500000 1156614.27675016 22380.48730577
0.08600000 1147023.22078478 23949.84597447
0.08700000 1137417.49801626 21019.47635037
0.08800000 1127798.93389477 15056.11647459
0.08900000 1118171.10170845 21133.43481492
0.09000000 1108535.66529043 18157.81505043
0.09100000 1098894.95338136 18197.70128294
0.09200000 1089250.33957047 18234.05154117
0.09300000 1079606.75430837 27400.42071195
0.09400000 1069962.36431814 19821.05373053
0.09500000 1060321.66795483 16795.49600984
0.09600000 1050686.41914978 21402.48336416
0.09700000 1041061.37079249 18364.32344414
0.09800000 1031444.88198771 16848.65293945
0.09900000 1021841.42938534 21458.67102613
0.10000000 1012250.49306412 21469.83396756
0.10100000 1002675.72815323 16875.03329848
0.10200000 993118.98129307 18412.42677923
0.10300000 983581.87555677 19947.04137461
0.10400000 974066.93164104 21478.17685313
0.10500000 964577.48654838 23005.17413656
0.10600001 955109.69854295 22994.26707438
0.10700001 945671.95317567 19915.85227107
0.10800001 936261.41448671 18369.44981673
0.10900001 926882.90173915 16822.92545835
0.11000001 917536.42608811 16804.68043479
0.11100001 908223.36343020 19835.59919104
0.11200001 898946.77056031 19808.29302181
0.11300001 889706.29072029 22820.96743140
0.11400001 880505.04632229 19745.32659347
0.11500001 871344.40794588 15161.39341218
0.11600001 862225.39942407 15132.05647248
0.11700001 853149.74966942 22651.12692048
0.11800001 844117.70924783 18081.00218367
0.11900001 835130.81524399 18038.82645893
0.12000001 826190.85460621 16494.90118920
0.12100001 817300.65770565 20939.24383683
0.12200001 808459.23037445 17899.28820375
0.12300001 799669.28785664 17848.61934589
0.12400001 790930.41111044 20761.92426990
0.12500001 782243.74442082 16262.84821282
0.12600001 773612.69143007 19158.51920608
0.12700001 765036.02081827 17626.43075032
0.12800001 756514.96312815 16102.42174908
0.12900001 748051.28726696 18963.10102599
0.13000001 739645.46665684 23254.45456779
0.13100001 731297.68734774 15927.66438123
0.13200001 723009.26468278 20193.64971453
0.13300001 714782.36211869 18677.26400266
0.13400001 706615.38917540 24325.23591919
0.13500001 698511.05034490 15674.58870877
0.13600001 690468.32340985 18445.86212963
0.13700001 682489.32552245 16953.03564537
0.13800001 674572.79342265 16877.81208732
0.13900001 666721.90411332 16801.39277598
0.14000001 658935.20326965 15330.12822705
0.14100001 651213.86710037 13870.85602343
0.14200001 643557.64020251 15184.74323677
0.14300001 635968.84766960 20605.39163640
0.14400001 628444.10342777 16402.39187316
0.14500001 620988.06312296 23119.38668066
0.14600001 613598.60058260 16235.81973733
0.14700001 606278.26706004 13459.37816370
0.14800001 599022.77155606 16065.79149110
0.14900001 591836.73908674 13316.32725773
0.15000001 584718.02592618 21190.18225938
0.15100001 577668.08043929 15804.99942658
0.15200001 570686.60112883 15716.70973671
0.15300001 563774.74568789 14325.51696394
0.15400001 556928.81287091 19422.89326546
0.15500001 550153.45222933 16735.66880662
0.15600001 543444.12210530 12798.10967959
0.15700001 536806.69529403 15266.78313471
0.15800001 530234.21350371 13910.69524784
0.15900001 523732.60536100 15083.49974635
0.16000001 517296.59992398 14991.25617342
0.16100001 510931.87953833 13657.20978474
0.16200001 504633.85610850 13572.12820072
0.16300001 498403.61370363 14712.87537109
0.16400001 492241.18544325 13401.26690636
0.16500001 486145.76086453 16947.04202383
0.16600001 480118.29632248 12026.96389071
0.16700001 474156.38851746 17923.11233219
0.16800001 468260.52581430 11870.40488987
0.16900001 462433.06342016 11792.04367401
0.17000001 456670.30387581 12884.95323228
0.17100001 450972.87644260 15125.63099014
0.17200001 445341.34111880 18490.57335643
0.17300001 439774.58157957 12625.92883340
0.17400001 434272.30386424 14819.54306924
0.17500001 428834.03831999 12453.34106095
0.17600001 423457.85745624 14615.64864039
0.17700001 418146.80850076 15630.32843999
0.17800001 412896.95265787 12194.91207274
0.17900001 407709.96689530 12108.98658874
0.18000001 402584.78285612 13116.21284500
0.18100001 397522.09090382 17363.76575088
0.18200001 392517.63043940 17239.37514325
0.18300001 387574.45763288 10697.05553599
0.18400001 382690.57430479 13805.56312023
0.18500001 377867.29213204 14759.49712795
0.18600001 373100.95953563 12558.57889128
0.18700001 368392.43272947 10388.66709378
0.18800001 363741.30718456 14436.89316424
0.18900001 359149.06596266 11259.32374990
0.19000001 354608.93735794 13207.41049593
0.19100001 350129.02182320 10083.71630496
0.19200001 345700.91912057 12009.65049772
0.19300001 341329.79383460 12912.50671091
0.19400001 337010.44588689 10843.31160880
0.19500001 332745.29561843 12717.52579950
0.19600001 328532.65830503 12620.58266519
0.19700001 324371.56617864 12523.98676201
0.19800001 320262.37453592 14339.74849752
0.19900001 316204.32702546 11383.35631089
0.20000001 312195.07346871 10353.95010093
0.20100001 308236.90617134 14009.36804760
0.20200001 304326.13819113 11120.07761508
0.20300001 300465.18254809 10113.65852259
0.20400001 296651.21380561 10034.22778125
0.20500001 292883.89489828 9050.11278013
0.20600001 289163.14920941 9876.36782808
0.20700001 285488.74318999 9797.97412942
0.20800001 281858.24493430 9719.88203602
0.20900001 278274.84180170 10518.78951734
0.21000001 274733.30300743 11303.90228660
0.21100001 271235.83767330 9487.83005033
0.21200001 267780.74717808 17111.19055360
0.21300001 264367.14012698 8486.18559926
0.21400001 260995.98357233 9258.83295495
0.21500001 257666.77536957 10018.08470000
0.21600001 254376.58877164 10763.94586278
0.21700001 251126.65805790 9033.02631742
0.21800001 247916.06035343 10587.25585796
0.21900001 244743.27987475 12922.44578838
0.22000001 241608.37704942 9611.18169347
0.22100001 238512.53335386 10325.20805710
0.22200001 235453.53704661 9451.10542394
0.22300001 232429.75951806 12495.42446254
0.22400001 229441.46158036 9292.37963341
0.22500001 226490.87804104 13052.66991873
0.22600001 223572.90752599 12941.51836412
0.22700001 220691.29602375 8302.40694903
0.22800001 217842.35144982 8979.46215140
0.22900001 215025.89415865 8160.23306923
0.23000001 212243.40815667 8825.08132851
0.23100001 209493.92375333 8748.46666968
0.23200001 206774.68035868 10117.48558844
0.23300001 204087.34486330 7879.81275784
0.23400001 201431.67877900 7810.51371406
0.23500001 198804.70742144 8445.22437069
0.23600001 196209.38455264 9765.34153106
0.23700001 193642.87359497 6913.05091431
0.23800001 191105.69888799 7536.25359210
0.23900001 188596.96865268 8826.33855043
0.24000001 186116.46728181 8073.73273258
0.24100001 183664.93217576 10667.25976534
0.24200001 181240.35551333 7266.83239804
0.24300001 178842.89815442 7854.78045850
0.24400001 176471.83249194 7133.87416594
0.24500001 174127.27544435 7067.82644463
0.24600001 171808.76021475 10184.82378733
0.24700001 169516.23832011 8197.80567297
0.24800001 167248.88758951 8745.44474577
0.24900001 165005.65950012 6806.48377638
0.25000001 162788.15030414 6741.87156379
0.25100001 160593.65417081 9105.66062226
0.25200001 158424.86043297 6012.22373787
0.25300001 156279.50036521 7740.52401930
0.25400001 154156.89213082 7075.80168357
0.25500001 152057.23384992 6422.89786170
0.25600001 149981.01511895 5781.76840639
0.25700001 147926.62928966 6297.23690680
0.25800001 145895.13801035 8502.03956982
0.25900001 143885.64930728 6733.84870619
0.26000001 141897.92142106 5555.30388649
0.26100001 139930.76516406 7149.06313050
0.26200001 137986.08495790 5987.90644008
0.26300001 136061.61165054 7543.25610683
0.26400001 134158.07425866 7465.89718577
0.26500001 132275.69874333 6333.36075552
0.26600001 130412.60384827 5745.32753440
0.26700001 128570.83308416 5685.40250802
0.26800001 126749.34780506 6137.20371114
0.26900001 124945.96593348 5060.31185977
0.27000001 123163.55047035 5507.25841990
0.27100001 121399.76146799 7429.66575343
0.27200001 119656.65089238 7839.90413748
0.27300001 117931.54258381 6785.78128140
0.27400001 116223.63255323 6232.49259062
0.27500001 114537.27152647 4741.84326561
0.27600001 112867.03912161 4689.62569744
0.27700001 111216.81533979 6956.61212874
0.27800001 109583.77408104 5503.29739481
0.27900001 107970.18490941 5895.17237506
0.28000001 106372.93654564 6725.42923140
0.28100001 104794.38523407 4876.08297572
0.28200001 103233.96153774 4820.51006216
0.28300001 101690.54294560 6064.82426833
0.28400001 100164.27164436 6423.03422320
0.28500001 98655.89655684  5078.80579513
0.28600001 97164.39439036  4601.22011414
0.28700001 95689.96293873  4547.18725408
0.28800001 94231.72092158  5718.92341343
0.28900001 92792.30463416  5651.05161971
0.29000001 91367.91351286  4387.03057498
0.29100001 89960.90677732  5122.37427437
0.29200001 88570.50576020  4671.20869491
0.29300001 87196.45214280  4614.43646583
0.29400001 85838.07862743  4178.16867497
0.29500001 84497.01131291  4877.16772385
0.29600001 83171.47266410  4075.81821084
0.29700001 81861.89231701  4756.99478773
0.29800001 80568.30719522  3613.48874876
0.29900001 79291.11087028  3568.10015807
0.30000001 78028.90103072  3875.30555315
0.30100001 76783.62914509  4521.78813442
0.30200001 75552.08084743  6180.91602674
0.30300001 74337.62040715  4745.71391146
0.30400001 73138.54228547  4349.91500836
0.30500001 71954.36357951  3632.97598912
0.30600001 70784.62404536  3911.55850993
0.30700001 69631.36954405  4825.45413786
0.30800001 68492.65973153  3492.09842174
0.30900001 67369.02636775  3132.65987441
0.31000001 66260.77779032  4636.59814540
0.31100001 65166.41598142  3354.76725356
0.31200001 64087.54027717  3008.91015847
0.31300001 63022.76071578  2968.37217025
0.31400001 61973.66361435  3806.73246775
0.31500001 60938.21519423  4332.70730545
0.31600002 59917.69192773  4273.62957909
0.31700002 58911.39818017  3372.08859149
0.31800002 57919.44014870  3048.58987657
0.31900002 56941.79411632  4099.80937050
0.32000002 55978.40696908  3234.43250782
0.32100002 55028.47217737  3189.45039842
0.32200002 54093.79090539  3669.18201085
0.32300002 53171.28783630  3359.36212457
0.32400002 52263.24290004  3312.18317563
0.32500002 51368.86938949  3014.32539851
0.32600002 50488.47499804  2971.75177910
0.32700002 49621.09212904  3173.76520286
0.32800002 48767.96013646  3369.37852538
0.32900002 47927.44437802  3558.61291358
0.33000002 47101.16146810  2572.43005540
0.33100002 46285.59381822  2766.02721756
0.33200002 45486.37618342  3180.86243714
0.33300002 44698.53456659  2463.33635662
0.33400002 43924.02411145  2869.33701096
0.33500002 43161.53761864  3045.47823859
0.33600002 42412.66815842  3001.54466771
0.33700002 41675.47851492  2746.83091900
0.33800002 40951.86226346  2498.88275366
0.33900002 40239.71222801  2257.44796290
0.34000002 39540.42862765  2426.99162410
0.34100002 38853.09470111  2391.79662307
0.34200002 38178.52810182  2553.57097302
0.34300002 37514.97984474  2710.08227233
0.34400002 36864.64985725  1907.74572046
0.34500002 36225.18624387  2256.10470612
0.34600002 35598.54544147  2038.19481578
0.34700002 34981.81699915  2739.07640076
0.34800002 34378.19779837  2519.57823597
0.34900002 33785.19815593  2305.83988335
0.35000002 33203.69121930  1922.99186804
0.35100002 32634.03582633  2240.00032521
0.35200002 32074.04009260  2377.64870468
0.35300002 31525.67286404  2511.01996255
0.35400002 30988.43607449  1980.16115895
0.35500002 30461.96724673  2277.33677923
0.35600002 29945.22122388  1924.28000699
0.35700002 29439.63131875  2055.18075971
0.35800002 28944.88123802  1714.55012134
0.35900002 28460.24221236  1536.85315226
0.36000002 27986.08300986  1666.99111344
0.36100002 27521.28557057  1942.72764045
0.36200002 27067.50499422  1621.20828842
0.36300002 26622.64708622  1598.95625974
0.36400002 26187.54728377  1577.14510987
0.36500002 25761.98669120  1555.76644997
0.36600002 25346.32070438  1813.90952713
0.36700002 24939.44832142  1789.65489632
0.36800002 24543.39936633  1766.02038506
0.36900002 24155.42945047  2145.00223681
0.37000002 23776.16552056  1455.45804129
0.37100002 23405.72830036  2350.87146185
0.37200002 23045.02623500  1676.18006260
0.37300002 22692.40808969  1527.65298496
0.37400002 22348.38772243  1257.09686894
0.37500002 22013.18285998  1614.00664375
0.37600002 21686.53757948  1349.01113404
0.37700002 21367.56460165  1211.54097031
0.37800002 21056.58286448  1316.77347181
0.37900002 20754.26951779  1301.29276041
0.38000002 20459.76573931  1636.98593435
0.38100002 20171.99615322  1387.02652120
0.38200002 19892.94371784  1257.13463780
0.38300002 19620.75914389  1130.15578023
0.38400002 19356.72358852  1453.20609225
0.38500002 19098.95957835  1437.57875557
0.38600002 18849.44251268  1641.31528455
0.38700002 18606.28476219  1516.04015425
0.38800002 18370.31454702  1500.67106644
0.38900002 18140.63096537  1167.34965793
0.39000002 17918.82652958  1261.12707090
0.39100002 17702.59773400  1145.00407568
0.39200002 17493.40065152  1753.10122935
0.39300002 17290.28861174  1430.59854751
0.39400002 17094.68015200  1012.85984699
0.39500002 16904.02349999  1104.50894782
0.39600002 16719.61683137  1593.04516717
0.39700002 16541.05940772  1777.50232817
0.39800002 16368.66575834  1469.49703808
0.39900002 16201.70486555  1360.94327319
0.40000002 16040.23470084  1061.30217926
0.40100002 15884.72000843  1149.41839427
0.40200002 15734.67694811  1141.39351989
0.40300002 15589.35021748  1133.65760153
0.40400002 15449.72647290  1126.28511324
0.40500002 15315.29642660  1399.05239486
0.40600002 15185.73941799  1483.34309663
0.40700002 15061.07201367  1106.08518109
0.40800002 14941.29074103  1283.30752255
0.40900002 14826.00749265  1185.33935520
0.41000002 14715.80504101  1179.39825089
0.41100002 14609.84554548  1264.04389649
0.41200002 14507.92386376  1168.39570373
0.41300002 14411.13542533  1431.89048371
0.41400002 14317.97800666  1247.81184241
0.41500002 14229.22749042  1331.85575621
0.41600002 14143.98448400  884.70627139
0.41700002 14063.01330683  1322.62646418
0.41800002 13986.89524212  1318.61461143
0.41900002 13912.59078862  876.49326122
0.42000002 13843.13622029  1049.03291248
0.42100002 13777.66779867  1046.55169558
0.42200002 13715.58001221  1740.50718602
0.42300002 13656.37143803  1215.96337046
0.42400002 13600.44298600  1213.83959402
0.42500002 13548.28512330  865.73546040
0.42600002 13498.29769131  951.02260891
0.42700002 13452.82699882  1468.24160823
0.42800002 13409.30586719  1121.75553548
0.42900002 13369.90927155  1379.77470221
0.43000002 13332.72142809  1120.54862552
0.43100002 13297.41056226  1292.50836790
0.43200002 13265.89610262  1120.10599050
0.43300002 13236.87794954  1120.23703396
0.43400002 13210.28759214  1120.56269810
0.43500002 13186.12619975  1034.84723320
0.43600002 13164.70807490  1121.83065176
0.43700002 13145.11031462  1036.36054632
0.43800002 13127.66703082  950.90260644
0.43900002 13113.16553584  1038.56275966
0.44000002 13100.32688986  1126.56266428
0.44100002 13089.86125374  1041.42941070
0.44200002 13081.19727367  869.24560003
0.44300002 13074.65293331  1306.15788994
0.44400002 13070.23169022  872.43800667
0.44500002 13066.43651727  1311.21696665
0.44600002 13064.93983989  1401.60681245
0.44700002 13065.99271383  1141.44517757
0.44800002 13067.21278528  1320.11523420
0.44900002 13071.75577934  1411.74969107
0.45000002 13076.98173435  1061.58942751
0.45100002 13083.52469475  887.06301634
0.45200002 13091.65522300  1156.45141893
0.45300002 13100.84728707  1070.60129104
0.45400002 13111.76289987  984.36564636
0.45500002 13123.88437627  1077.20848066
0.45600002 13137.06145476  990.60016594
0.45700002 13151.40980501  1084.20227571
0.45800002 13166.49313108  1087.81571405
0.45900002 13182.75820326  1000.57139505
0.46000002 13200.81307645  1095.40352100
0.46100002 13218.68146501  1099.26560273
0.46200002 13238.31081599  1103.28087569
0.46300002 13258.83152801  1291.94060532
0.46400002 13279.34642553  926.23445708
0.46500002 13301.29048699  1208.68832384
0.46600002 13323.58021048  1213.31188937
0.46700002 13346.43085228  1311.68728633
0.46800002 13370.90086767  940.64292062
0.46900002 13394.89310356  944.34000856
0.47000002 13419.77783498  948.10734898
0.47100002 13445.26570024  1332.69479937
0.47200002 13471.38920760  1051.37462054
0.47300002 13498.11065536  1055.68728439
0.47400002 13524.48358225  1059.98145100
0.47500002 13551.72028727  1354.63002412
0.47600002 13579.76182081  971.63200433
0.47700002 13607.24214370  1268.33110033
