# SAXS profile: number of points = 501, q_min = 0, q_max = 0.5, delta_q = 0.001
#    q    intensity    error
0.00000000 1700912.83420644 306.16431016
0.00100000 1700825.51193004 612.29719884
0.00200000 1700563.50902893 1071.35504461
0.00300000 1700127.04241978 1530.11439269
0.00400000 1699516.00051970 1402.10075371
0.00500000 1698731.01293509 1681.74376937
0.00600000 1697771.96305853 2139.19276054
0.00700000 1696639.55446929 2646.75781497
0.00800000 1695333.56461717 2288.70040886
0.00900000 1693855.46711274 3048.93997114
0.01000000 1692204.59665464 2792.13770504
0.01100000 1690382.54214625 3346.95757917
0.01200000 1688389.22749398 3950.83096556
0.01300000 1686225.97289042 4603.39710902
0.01400000 1683892.96818474 5304.26308492
0.01500000 1681391.71470555 5649.47641298
0.01600000 1678721.97899089 5564.96360913
0.01700000 1675885.84858198 4977.38119357
0.01800000 1672883.90221531 6198.03513660
0.01900000 1669717.16780169 6010.98207532
0.02000000 1666386.24383500 5249.11690553
0.02100000 1662894.03919168 9328.83598282
0.02200000 1659239.05747380 6869.25001003
0.02300000 1655424.52791551 5959.52857176
0.02400000 1651451.00630479 7431.52986723
0.02500000 1647320.74626490 10279.28192615
0.02600000 1643034.46359612 9316.00583469
0.02700000 1638593.81859174 12387.76983593
0.02800000 1633999.30671566 7818.68704120
0.02900000 1629254.53993345 10264.30407286
0.03000000 1624359.81835478 7553.27350254
0.03100000 1619316.93846743 8549.99382852
0.03200000 1614127.04210590 11984.89383964
0.03300000 1608794.44168709 9845.82243702
0.03400000 1603317.47228819 10100.90054147
0.03500000 1597700.29291470 9490.34017816
0.03600000 1591943.50138685 12369.40157741
0.03700000 1586050.13524915 9944.53480792
0.03800000 1580021.78599698 12016.06623861
0.03900000 1573861.03993913 15109.06668312
0.04000000 1567567.75277420 12532.70476418
0.04100000 1561146.24858722 10818.74400434
0.04200000 1554597.99198741 13035.30476756
0.04300000 1547924.84676365 15324.45669429
0.04400000 1541129.49581571 10402.62457987
0.04500000 1534214.47789753 16937.72862300
0.04600000 1527180.18594485 12919.94497370
0.04700000 1520030.96524204 15321.91284223
0.04800000 1512768.06644372 14454.49954741
0.04900000 1505394.44533261 16935.68829831
0.05000000 1497911.85323045 14896.73407406
0.05100000 1490324.10930604 11624.52859410
0.05200000 1482630.51240899 14144.29574752
0.05300000 1474836.44707264 15530.02851165
0.05400000 1466942.78164462 15732.96206683
0.05500000 1458953.35833316 13480.72965986
0.05600000 1450869.03917170 18607.39629568
0.05700000 1442694.75891215 13806.58948726
0.05800000 1434429.66179595 13964.17340960
0.05900000 1426077.85794180 16685.11171721
0.06000000 1417643.16812472 15565.72271322
0.06100000 1409126.90312765 19657.32121724
0.06200000 1400531.76457981 15882.03095272
0.06300000 1391861.33123108 16034.24328547
0.06400000 1383114.64715854 20228.05266069
0.06500000 1374298.45708863 14966.11089778
0.06600000 1365413.73174311 15094.64951068
0.06700000 1356462.03752123 15219.50477325
0.06800000 1347447.46143764 15340.69006655
0.06900000 1338373.50914650 15458.21475438
0.07000000 1329239.45081384 15572.04089550
0.07100000 1320050.37575739 18533.50814370
0.07200000 1310807.96184102 21530.02178185
0.07300000 1301515.52973170 18780.86997402
0.07400000 1292176.24038804 15990.68172419
0.07500000 1282790.18867585 17548.57060363
0.07600000 1273361.38970596 17648.78968871
0.07700000 1263893.19349126 16266.30616294
0.07800000 1254386.76678074 14864.48388344
0.07900000 1244844.64883843 17925.76378406
0.08000000 1235271.26815015 16509.40127330
0.08100000 1225667.89263308 19598.43052273
0.08200000 1216035.86113905 19681.54133610
0.08300000 1206378.47770807 21280.51734551
0.08400000 1196698.93906664 18309.49462714
0.08500000 1186999.24378746 19905.97825280
0.08600000 1177281.72780212 16899.87999607
0.08700000 1167548.55654575 16952.80583711
0.08800000 1157801.61676761 20093.64800268
0.08900000 1148044.53496314 20148.18253496
0.09000000 1138279.11696667 26413.76815001
0.09100000 1128507.62508405 18688.08714938
0.09200000 1118731.38081450 17166.93384522
0.09300000 1108955.12203206 20327.14834206
0.09400000 1099177.39887391 17229.60653710
0.09500000 1089402.63091799 17256.13848483
0.09600000 1079632.53463051 21992.11576422
0.09700000 1069871.67702264 25163.38302657
0.09800000 1060118.90221063 17317.04308182
0.09900000 1050378.47437190 18906.81342774
0.10000000 1040649.74122047 18919.01318510
0.10100000 1030936.33704261 23659.99004790
0.10200000 1021240.66975051 23667.25363469
0.10300000 1011563.82905698 17358.43612317
0.10400000 1001908.47852124 18936.07113490
0.10500000 992278.02518715 18932.66561134
0.10600001 982668.80353594 18926.20204665
0.10700001 973089.16126456 17340.44966974
0.10800001 963535.93326312 15753.81325025
0.10900001 954013.94917482 20463.60017293
0.11000001 944524.02462788 20444.22347537
0.11100001 935066.73521497 17280.03408020
0.11200001 925645.44268484 20396.59828977
0.11300001 916259.83429027 17234.84829443
0.11400001 906913.09339959 15644.25159774
0.11500001 897606.58161705 15618.35525557
0.11600001 888341.11668204 15590.38733194
0.11700001 879118.90355760 21784.56745610
0.11800001 869939.59872139 18634.10708225
0.11900001 860805.33913629 21692.29556798
0.12000001 851717.50286655 17004.54074573
0.12100001 842679.03058304 21589.43778058
0.12200001 833689.26931496 16919.72451786
0.12300001 824750.74451504 27612.65622732
0.12400001 815862.56347127 16827.16616445
0.12500001 807026.85632862 16778.08913366
0.12600001 798246.26078601 15206.59198456
0.12700001 789520.09799954 18190.54391516
0.12800001 780849.10461253 16620.37397498
0.12900001 772235.46867685 16564.45158384
0.13000001 763679.50105302 21008.82406422
0.13100001 755181.19473823 17943.10603278
0.13200001 746742.22101402 17877.00961380
0.13300001 738364.75231796 23745.81155399
0.13400001 730047.04158198 17740.14394681
0.13500001 721792.28085878 22086.84483563
0.13600001 713598.44884439 16130.89369671
0.13700001 705468.69898041 17523.84330898
0.13800001 697401.06003632 23265.30045990
0.13900001 689399.40137458 15925.12692275
0.14000001 681461.85970369 15854.21091370
0.14100001 673589.49459719 17216.94829391
0.14200001 665782.57927626 24277.76289838
0.14300001 658042.95804310 17056.47427699
0.14400001 650367.37166954 15560.04010116
0.14500001 642760.81064157 22522.33986731
0.14600001 635220.71689306 21009.92620237
0.14700001 627750.11509762 16723.26385515
0.14800001 620344.33140560 18024.10539934
0.14900001 613008.00027574 20689.02098543
0.15000001 605739.28459044 13719.99544332
0.15100001 598539.51380188 19105.38218204
0.15200001 591408.43399928 17644.67146097
0.15300001 584347.35102352 22947.32155756
0.15400001 577352.14037327 20135.15684572
0.15500001 570427.67763970 14682.80911537
0.15600001 563569.54907768 19908.09526073
0.15700001 556783.71029348 14515.35201243
0.15800001 550063.01868262 14430.90397626
0.15900001 543413.31871023 18258.68837048
0.16000001 536829.83975382 19446.66186301
0.16100001 530317.81768927 18041.41300942
0.16200001 523872.88719477 15370.43123587
0.16300001 517495.74231858 15276.47503441
0.16400001 511187.05167166 13917.06813878
0.16500001 504945.48552051 16345.08613797
0.16600001 498772.68219470 12494.25627887
0.16700001 492665.43953397 13656.68662868
0.16800001 486625.08220778 14803.13569971
0.16900001 480653.13836163 14707.98672835
0.17000001 474746.29717975 12177.24309767
0.17100001 468905.39423984 22985.74351105
0.17200001 463130.57891891 15623.71081763
0.17300001 457421.31741616 13132.56664320
0.17400001 451777.02837135 13045.06231029
0.17500001 446196.99146976 11779.60113112
0.17600001 440679.49718785 16380.05768409
0.17700001 435227.94950287 15106.76284075
0.17800001 429837.72442310 17311.71516881
0.17900001 424511.05571663 11461.79904573
0.18000001 419246.59859434 15935.56396529
0.18100001 414045.38769991 15824.81546540
0.18200001 408902.80241080 13469.25894767
0.18300001 403822.36996455 12260.04773128
0.18400001 398801.27455020 13280.08306988
0.18500001 393841.62988902 13185.81839161
0.18600001 388939.60887161 13091.70785312
0.18700001 384095.98533703 11914.65802806
0.18800001 379310.23127309 12904.13467758
0.18900001 374583.90278216 14945.89842716
0.19000001 369910.27490982 11657.72286460
0.19100001 365297.68293525 12624.68851876
0.19200001 360737.35475625 10443.34691366
0.19300001 356234.85832289 19696.22624737
0.19400001 351784.51627455 11318.66734598
0.19500001 347389.27836358 10213.24526652
0.19600001 343046.95683006 12164.44566404
0.19700001 338757.05269503 12073.30192861
0.19800001 334519.67998639 13979.57808729
0.19900001 330334.05630375 15856.03545194
0.20000001 326197.99826480 9834.87011249
0.20100001 322113.59236064 9760.04230981
0.20200001 318077.34533869 13559.63787266
0.20300001 314091.52003264 11533.44116072
0.20400001 310153.42093179 10490.93995888
0.20500001 306262.90107483 12302.58131768
0.20600001 302419.68167960 9390.13156000
0.20700001 298623.34176657 12112.16331458
0.20800001 294871.52258869 10168.64493714
0.20900001 291167.61235627 11006.13626734
0.21000001 287506.19841464 13649.35741497
0.21100001 283889.84831739 10833.23712392
0.21200001 280316.42107046 11642.94309958
0.21300001 276785.16486571 13327.20631833
0.21400001 273297.29955075 10576.60599264
0.21500001 269851.97972076 12240.48637883
0.21600001 266446.54628552 13876.53678661
0.21700001 263082.07805033 11183.61966668
0.21800001 259757.77681534 11946.26072056
0.21900001 256471.85421602 11849.00022502
0.22000001 253224.60820406 8394.39615887
0.22100001 250017.26608421 9158.13288969
0.22200001 246847.59443134 9908.46290899
0.22300001 243713.75698240 12283.17393273
0.22400001 240616.01122964 10557.02799190
0.22500001 237557.15859837 10469.14447449
0.22600001 234531.66797285 7985.80367211
0.22700001 231543.20645223 14253.80046325
0.22800001 228587.80894318 10207.58909107
0.22900001 225665.98190854 11678.21511604
0.23000001 222779.07159796 9263.15423511
0.23100001 219925.72126909 7653.41546212
0.23200001 217103.20576737 9864.08462055
0.23300001 214313.82186175 8274.65705343
0.23400001 211556.73048590 8203.11261256
0.23500001 208828.72644381 8131.79099232
0.23600001 206133.53575084 9526.46180530
0.23700001 203467.82240178 9442.94208430
0.23800001 200832.22429001 7919.81913947
0.23900001 198225.73849481 7849.73961568
0.24000001 195648.33737536 9194.49404986
0.24100001 193100.66765325 10514.33185106
0.24200001 190580.52341527 9725.32456991
0.24300001 188088.61121398 8949.25654489
0.24400001 185623.77188437 8186.00872733
0.24500001 183186.02006750 8787.43379832
0.24600001 180775.44816328 6697.73067129
0.24700001 178391.17133165 7963.38226496
0.24800001 176033.02177893 7232.31704192
0.24900001 173699.70587038 9770.60891743
0.25000001 171392.87837418 10970.00169931
0.25100001 169109.74918143 6392.34882147
0.25200001 166853.13021846 6965.28425050
0.25300001 164620.62825251 6899.25085647
0.25400001 162411.79941713 7454.70194594
0.25500001 160226.40571640 7383.23312473
0.25600001 158065.31356473 6702.75993884
0.25700001 155926.78443089 9051.55026447
0.25800001 153811.92727091 6573.15302292
0.25900001 151719.75157196 6508.77765040
0.26000001 149649.87012667 8788.18903901
0.26100001 147601.63547138 5800.74454849
0.26200001 145576.32899362 6317.28509559
0.26300001 143571.82157989 7391.07772466
0.26400001 141589.38113064 6753.81379951
0.26500001 139628.49215198 6128.29481053
0.26600001 137687.64422278 8823.02465930
0.26700001 135768.78477939 5457.90540640
0.26800001 133870.91820542 5941.86098572
0.26900001 131991.99906790 6949.37907978
0.27000001 130134.37824910 7934.94408924
0.27100001 128296.36782774 5757.94126059
0.27200001 126479.65850522 6215.21071307
0.27300001 124681.56021001 6149.29484057
0.27400001 122901.25803059 6083.61256042
0.27500001 121143.16389295 6519.92538928
0.27600001 119401.81874307 4961.14580357
0.27700001 117681.41243113 7851.70420900
0.27800001 115978.67724376 5339.07865960
0.27900001 114295.88724407 5280.47024059
0.28000001 112630.14139395 4747.36068444
0.28100001 110983.75326635 5164.07428389
0.28200001 109356.03174566 6034.81289751
0.28300001 107746.10030309 5507.98090819
0.28400001 106153.94756060 5445.69776761
0.28500001 104580.10263373 5832.43259994
0.28600001 103023.85811742 4878.69503207
0.28700001 101485.34280654 6576.25052513
0.28800001 99963.49833799  4766.75964387
0.28900001 98461.06533574  5139.66785380
0.29000001 96974.18822025  4656.21586779
0.29100001 95505.55150171  4601.45768916
0.29200001 94053.72186398  4960.39352591
0.29300001 92619.03195109  5309.84935310
0.29400001 91200.60777391  5649.87791904
0.29500001 89799.93204451  6379.38747442
0.29600001 88415.33533795  4332.79371334
0.29700001 87047.31858896  4669.21839014
0.29800001 85695.69463216  5380.83292067
0.29900001 84361.23761300  4555.50704676
0.30000001 83042.21345971  4124.29172672
0.30100001 81740.49054369  5554.26659538
0.30200001 80453.38562817  4387.92785989
0.30300001 79183.43014851  4693.99396142
0.30400001 77929.47566546  5704.43788877
0.30500001 76690.97928435  4576.15095054
0.30600001 75467.54588713  5212.92097895
0.30700001 74260.93991822  3430.85558665
0.30800001 73069.58314189  3386.77533897
0.30900001 71893.52503525  3677.35397965
0.31000001 70733.39741695  3959.65577487
0.31100001 69587.57304841  3256.69857285
0.31200001 68457.77802493  5142.54852871
0.31300001 67342.65915592  4440.57515499
0.31400001 66243.73130123  3443.01809740
0.31500001 65158.59808869  3397.36946520
0.31600002 64088.86093859  4875.88077107
0.31700002 63033.79205254  3307.38322560
0.31800002 61993.71416918  3856.31917249
0.31900002 60968.25378090  3804.41921606
0.32000002 59957.70176676  4619.14156283
0.32100002 58960.74747461  3417.36508544
0.32200002 57979.61933271  3370.93522762
0.32300002 57010.75928537  2770.72303247
0.32400002 56057.06718617  5465.56430945
0.32500002 55117.33923561  3234.28561949
0.32600002 54192.19527120  3189.75276470
0.32700002 53280.27125877  3407.80631108
0.32800002 52382.81521482  3619.12887457
0.32900002 51498.57978929  3313.93376637
0.33000002 50629.00712223  3519.22245172
0.33100002 49770.55097330  2478.57355584
0.33200002 48928.45662503  2688.37417657
0.33300002 48098.35265309  2891.67309844
0.33400002 47282.12743419  2851.11241930
0.33500002 46477.87859857  3045.23074999
0.33600002 45687.99027169  2309.52801761
0.33700002 44909.82136301  2960.00646621
0.33800002 44145.83460889  3142.74211464
0.33900002 43393.37122535  2655.67444476
0.34000002 42654.26582427  2399.94238026
0.34100002 41927.40752324  2365.96371858
0.34200002 41213.77923655  2120.44904214
0.34300002 40511.17236210  2717.48957075
0.34400002 39822.47758370  3091.21996883
0.34500002 39144.65966198  2234.76872594
0.34600002 38480.10653918  2804.04549631
0.34700002 37825.73476812  2764.30482777
0.34800002 37184.91566948  2141.29347024
0.34900002 36554.83529155  2302.95473244
0.35000002 35936.71478085  2270.48174739
0.35100002 35330.50705781  2051.99594711
0.35200002 34734.49073666  2390.94878310
0.35300002 34150.23295479  2176.05294694
0.35400002 33577.43393341  2324.39797413
0.35500002 33015.78054142  1763.04276442
0.35600002 32464.08563923  2433.83261565
0.35700002 31923.58014545  1885.72596851
0.35800002 31394.46540706  1859.65124647
0.35900002 30875.58734376  2334.19451375
0.36000002 30367.57705601  2631.04700075
0.36100002 29868.94050969  1621.88354650
0.36200002 29381.98518919  2399.77375400
0.36300002 28903.85204283  2051.59551518
0.36400002 28435.86043488  1712.54977581
0.36500002 27977.57144886  1689.56561983
0.36600002 27529.57332683  1667.05339177
0.36700002 27090.47078409  1794.47286974
0.36800002 26662.54914300  1770.92659796
0.36900002 26242.90957256  1747.77786032
0.37000002 25832.14374763  1868.82652795
0.37100002 25430.51324742  2838.04541285
0.37200002 25038.94387330  1681.11477129
0.37300002 24655.50091180  1659.80840001
0.37400002 24281.00192139  1502.38706506
0.37500002 23915.53829724  1618.60370863
0.37600002 23558.73613637  1465.47125078
0.37700002 23209.90832325  1974.00279640
0.37800002 22869.40074994  2080.20079076
0.37900002 22537.75310796  1798.51278322
0.38000002 22213.98025557  1269.52903175
0.38100002 21897.23233062  1380.18261918
0.38200002 21589.46396676  1364.34624001
0.38300002 21288.66522930  1839.34076295
0.38400002 20996.41494628  1940.06883295
0.38500002 20710.34198598  1798.69328669
0.38600002 20433.15045920  1304.75888439
0.38700002 20162.11614452  1525.46577976
0.38800002 19898.69830418  1393.30692127
0.38900002 19641.71293346  1838.46441767
0.39000002 19392.88041623  1137.39249030
0.39100002 19149.60733069  1238.59666083
0.39200002 18913.73751866  1337.95785546
0.39300002 18683.95284492  1325.06599854
0.39400002 18462.14786997  1203.27054443
0.39500002 18245.46886435  1192.15899208
0.39600002 18035.07448802  1825.78085230
0.39700002 17830.83860982  1277.40133853
0.39800002 17632.84272709  1160.85825594
0.39900002 17440.48620065  1465.00091026
0.40000002 17253.88145948  1141.60312085
0.40100002 17073.32303093  1029.52142754
0.40200002 16898.65116756  1225.82821377
0.40300002 16728.68187813  1216.50980382
0.40400002 16564.67402148  1509.45599173
0.40500002 16405.99477823  1198.95015520
0.40600002 16252.31451271  1389.08538722
0.40700002 16103.83772367  1084.11040692
0.40800002 15960.45509145  1370.84355276
0.40900002 15821.68803286  1167.64063215
0.41000002 15688.20112827  1160.61317446
0.41100002 15559.04707994  1153.85898612
0.41200002 15434.20406231  956.14898696
0.41300002 15314.65559538  1046.14417329
0.41400002 15198.98113174  1040.75028231
0.41500002 15087.89896005  1318.07891561
0.41600002 14980.30916699  1124.42205935
0.41700002 14877.39804740  1399.21935266
0.41800002 14779.34665142  1486.21116969
0.41900002 14683.39909677  1202.57044301
0.42000002 14592.60190455  921.52285394
0.42100002 14505.65449206  918.20797286
0.42200002 14422.54404791  1281.15464848
0.42300002 14342.28244057  1094.60304773
0.42400002 14265.67152187  1091.32392314
0.42500002 14192.77820380  997.61042722
0.42600002 14122.42714664  1356.81225241
0.42700002 14056.58690397  1173.16279860
0.42800002 13993.05982712  900.45344255
0.42900002 13933.72910686  898.72556998
0.43000002 13876.78543458  1255.98790920
0.43100002 13821.98945705  985.23145519
0.43200002 13771.09739107  983.87609973
0.43300002 13722.85270247  893.35775327
0.43400002 13677.37001794  1517.16234114
0.43500002 13634.28947622  980.85083140
0.43600002 13594.22425189  1158.43187452
0.43700002 13556.10911285  1514.08189857
0.43800002 13520.30331101  1068.37441827
0.43900002 13487.71914856  1335.28425899
0.44000002 13456.93213048  979.19371288
0.44100002 13428.72128405  890.32426332
0.44200002 13402.46407735  1157.77191419
0.44300002 13378.40792704  1247.40281423
0.44400002 13356.82104492  980.72463170
0.44500002 13335.97186733  981.39421623
0.44600002 13317.45777704  892.93558627
0.44700002 13301.87465484  983.27462108
0.44800002 13286.44260607  984.32614712
0.44900002 13274.55127227  1164.84192935
0.45000002 13263.70410070  1076.74754992
0.45100002 13254.17562665  1258.08641011
0.45200002 13246.54029182  900.10245549
0.45300002 13239.98024858  1172.13550696
0.45400002 13235.31306886  1264.63422366
0.45500002 13232.16248643  995.58795266
0.45600002 13230.14273756  906.92632764
0.45700002 13229.63356569  999.76345594
0.45800002 13229.88338981  1001.96526601
0.45900002 13231.49205131  1004.27029429
0.46000002 13235.15986974  1098.25361804
0.46100002 13238.63066486  1284.41200798
0.46200002 13244.25296680  919.81341214
0.46300002 13250.76822167  1198.92956552
0.46400002 13257.59629777  1479.54781695
0.46500002 13265.95126649  1205.47704872
0.46600002 13274.89932262  1115.88808995
0.46700002 13284.42511187  1025.82335576
0.46800002 13295.90201462  1215.97677638
0.46900002 13306.97247074  938.14160365
0.47000002 13319.20833893  1035.10232512
0.47100002 13332.12363490  943.91439809
0.47200002 13345.95943590  1230.96462691
0.47300002 13360.47919132  1139.91613863
0.47400002 13374.79832605  1334.13619626
0.47500002 13390.19852690  1338.48430819
0.47600002 13406.70643171  1247.02485785
0.47700002 13422.66134932  1443.60729654
