# SAXS profile: number of points = 501, q_min = 0, q_max = 0.5, delta_q = 0.001
#    q    intensity    error
0.00000000 1664650.74656090 324.60689558
0.00100000 1664564.57189096 599.24326011
0.00200000 1664306.01898240 823.83150548
0.00300000 1663875.29719151 998.32521388
0.00400000 1663272.28586895 1871.18139270
0.00500000 1662497.63457644 1496.24793034
0.00600000 1661551.20531407 1744.62883661
0.00700000 1660433.71405822 3188.03286349
0.00800000 1659144.93068761 2911.79947629
0.00900000 1657686.31745225 3232.48845721
0.01000000 1656057.20713320 2732.49450976
0.01100000 1654259.14462705 3573.19990797
0.01200000 1652292.15660817 3544.16683131
0.01300000 1650157.43367079 3465.33076355
0.01400000 1647855.27053569 4449.20942768
0.01500000 1645387.04370210 5133.60780494
0.01600000 1642752.62288996 5026.82325076
0.01700000 1639953.99716541 6641.81398646
0.01800000 1636991.78528903 5598.51215761
0.01900000 1633866.96786190 7842.56179961
0.02000000 1630580.21817734 6677.22629548
0.02100000 1627134.33458572 7517.36096661
0.02200000 1623527.94715443 6721.40600659
0.02300000 1619764.05691437 7580.49613141
0.02400000 1615843.40022817 8483.17823801
0.02500000 1611768.15339637 6914.48569386
0.02600000 1607538.96644938 8463.69304547
0.02700000 1603157.61721371 8079.91476083
0.02800000 1598624.40239169 8344.81976317
0.02900000 1593943.11790359 8607.29323188
0.03000000 1589113.93482088 9606.19417754
0.03100000 1584138.65223360 9885.02564478
0.03200000 1579018.44864581 9379.37001695
0.03300000 1573757.47091398 9631.39616601
0.03400000 1568354.12342420 12350.78929184
0.03500000 1562812.67018911 10127.02657047
0.03600000 1557133.57164783 11234.71923864
0.03700000 1551319.88278691 11495.28086308
0.03800000 1545373.06808812 13560.64930005
0.03900000 1539295.74950146 13853.66238708
0.04000000 1533087.87967151 13199.88725564
0.04100000 1526753.69246031 9618.54870848
0.04200000 1520294.58201255 15689.44081425
0.04300000 1513712.33783410 14985.75284017
0.04400000 1507009.96385845 12206.78127416
0.04500000 1500189.51480599 13456.70057307
0.04600000 1493251.68364250 11580.16734497
0.04700000 1486200.60792460 13910.83833714
0.04800000 1479037.71867260 15219.29883327
0.04900000 1471765.78037649 14349.71702661
0.05000000 1464386.50768307 13443.06876652
0.05100000 1456903.78948867 14773.00511360
0.05200000 1449316.85889901 11522.06956519
0.05300000 1441631.07643460 12844.93348984
0.05400000 1433847.33856896 11829.24109484
0.05500000 1425969.48290987 13175.95863674
0.05600000 1417998.20937426 12123.88525590
0.05700000 1409938.33494624 14719.75690394
0.05800000 1401789.41803620 18608.75539332
0.05900000 1393555.29722973 16304.59773911
0.06000000 1385239.60693014 16477.42589424
0.06100000 1376843.73771504 14085.11209504
0.06200000 1368370.58766777 18103.54372107
0.06300000 1359823.20805879 14359.73374849
0.06400000 1351201.23991407 14491.63397580
0.06500000 1342511.03905840 17278.11788091
0.06600000 1333753.63003491 17425.49199172
0.06700000 1324930.37807008 16217.14858652
0.06800000 1316045.67232943 13621.07334620
0.06900000 1307102.45955616 17841.94940828
0.07000000 1298100.78644886 17972.20623000
0.07100000 1289045.09200242 15313.85641026
0.07200000 1279937.03765647 19621.43570648
0.07300000 1270780.23354402 18337.35962925
0.07400000 1261577.65676199 17031.29916444
0.07500000 1252329.29429198 17131.86554893
0.07600000 1243039.30831239 20099.94655771
0.07700000 1233710.92063123 17321.30213783
0.07800000 1224345.23376011 17410.19004054
0.07900000 1214944.70043963 20411.07192474
0.08000000 1205514.12714682 14646.99733194
0.08100000 1196054.28137358 17653.76202136
0.08200000 1186566.38220561 16250.02736684
0.08300000 1177054.35772246 20763.23984468
0.08400000 1167520.88205366 16374.48113940
0.08500000 1157967.81882545 20912.89978975
0.08600000 1148397.90061712 14986.59330670
0.08700000 1138813.01454967 16535.56574773
0.08800000 1129215.11532833 19597.52924690
0.08900000 1119607.57610652 16626.17328611
0.09000000 1109992.50823168 16666.53829402
0.09100000 1100371.73897934 24296.20913813
0.09200000 1090746.89175396 18259.10382590
0.09300000 1081122.64279960 16768.21297780
0.09400000 1071497.57612619 22903.26176609
0.09500000 1061875.84735075 16820.11421263
0.09600000 1052259.08081301 18372.44441464
0.09700000 1042652.26492572 19925.08571946
0.09800000 1033053.85629818 16874.93553605
0.09900000 1023468.14827711 16887.22524065
0.10000000 1013894.58402652 16896.55403740
0.10100000 1004336.82866243 21512.89588174
0.10200000 994796.62244295 18443.53024761
0.10300000 985275.96028301 23055.45855517
0.10400000 975777.00617122 18442.18628425
0.10500000 966303.02729945 18437.06262833
0.10600001 956850.59067153 19964.68851377
0.10700001 947427.64084629 18417.99420476
0.10800001 938031.58967289 19937.86237681
0.10900001 928666.83050123 26049.10582158
0.11000001 919334.10608062 16837.60494541
0.11100001 910034.22905241 22932.86365165
0.11200001 900770.40334327 19848.47677208
0.11300001 891542.39593909 16769.91325716
0.11400001 882352.99454873 16742.64885988
0.11500001 873203.71548840 16713.11990144
0.11600001 864095.86302282 24263.81297630
0.11700001 855030.71746031 22701.06661768
0.11800001 846008.81504783 15101.25805985
0.11900001 837031.55012138 21093.19605658
0.12000001 828100.81783300 15030.03055166
0.12100001 819219.14206706 17990.05320727
0.12200001 810386.07322505 16446.78613093
0.12300001 801603.73316517 19382.77918114
0.12400001 792872.02288849 22299.52669444
0.12500001 784191.99506277 19267.59822659
0.12600001 775567.38138941 17729.47117404
0.12700001 766996.37294923 16198.96416009
0.12800001 758480.64439402 14676.60116072
0.12900001 750021.60727698 14625.42203123
0.13000001 741620.02544883 20401.96786174
0.13100001 733275.85093521 14518.86253290
0.13200001 724990.66098891 20248.99011596
0.13300001 716766.34166232 18729.10539058
0.13400001 708601.56603763 18653.93710539
0.13500001 700498.83407244 17148.21226660
0.13600001 692457.20135826 19921.99462241
0.13700001 684478.89881355 19836.19942296
0.13800001 676562.45580263 15516.96065555
0.13900001 668711.00608636 19660.10450607
0.14000001 660923.22621295 18172.08496173
0.14100001 653200.32361025 19478.43456872
0.14200001 645542.16613190 13846.88011662
0.14300001 637950.86603486 22047.58297010
0.14400001 630422.88892338 15082.86832895
0.14500001 622963.34450234 19100.05704343
0.14600001 615569.76690669 16287.97680073
0.14700001 608244.74626717 22955.15780707
0.14800001 600984.18377272 16118.39656923
0.14900001 593792.35574237 16032.39436147
0.15000001 586667.65628934 13288.02304192
0.15100001 579610.90941068 25108.74578043
0.15200001 572622.20944453 14455.84835956
0.15300001 565702.71247814 14374.50660239
0.15400001 558848.57850226 15591.87607601
0.15500001 552064.42315264 14210.13892257
0.15600001 545345.87419213 14127.18553768
0.15700001 538698.81712951 15320.59508225
0.15800001 532116.18819427 15229.16602492
0.15900001 525603.77942620 13875.94043180
0.16000001 519156.69584941 15045.16175588
0.16100001 512780.37609289 17444.78921815
0.16200001 506470.20717468 13621.51686498
0.16300001 500227.41620306 14766.71402342
0.16400001 494052.00512221 12227.78770404
0.16500001 487943.07327810 17009.69633752
0.16600001 481901.76397481 13278.80373326
0.16700001 475925.51353369 14391.98820877
0.16800001 470014.91114408 13106.36641609
0.16900001 464172.19953854 17754.58747069
0.17000001 458393.74532602 16460.92017194
0.17100001 452680.19337712 17518.72431095
0.17200001 447032.25204610 17400.73123261
0.17300001 441448.63156415 16130.53375911
0.17400001 435929.02525835 13731.76494413
0.17500001 430473.07210254 15910.28549631
0.17600001 425078.83601946 12414.42799227
0.17700001 419749.39822611 12328.04040816
0.17800001 414480.81204577 13354.57239488
0.17900001 409274.65700607 14365.54113945
0.18000001 404129.90264252 13166.55285002
0.18100001 399047.45556587 13072.79526185
0.18200001 394022.88216353 11897.52148894
0.18300001 389059.20938439 13959.44509215
0.18400001 384154.41991132 13858.37135298
0.18500001 379309.97663818 12699.29861779
0.18600001 374522.35609765 12606.42310182
0.18700001 369792.04690310 16685.01794455
0.18800001 365118.89762686 11386.23336045
0.18900001 360504.35953562 11301.81220542
0.19000001 355941.74978640 11217.50477453
0.19100001 351438.99424181 10121.44351240
0.19200001 346987.95204088 13058.89219211
0.19300001 342593.47658991 14954.20595978
0.19400001 338250.54249223 12861.97748605
0.19500001 333961.77625507 12764.01969163
0.19600001 329725.19864861 12666.39410465
0.19700001 325539.94893999 11602.24432851
0.19800001 321406.33664730 12472.17348302
0.19900001 317323.91008337 11423.66130288
0.20000001 313290.04559272 9445.69532103
0.20100001 309306.97723098 10309.20203835
0.20200001 305371.15195420 13017.97282308
0.20300001 301485.15704091 11070.53548979
0.20400001 297645.94427501 9152.61321906
0.20500001 293853.24277077 9988.07219388
0.20600001 290107.00254940 11710.16971142
0.20700001 286407.04944032 9829.49040142
0.20800001 282750.91004683 9750.66559388
0.20900001 279141.70994513 12310.14999050
0.21000001 275574.27810082 11338.50420846
0.21100001 272050.81766796 8651.21641081
0.21200001 268569.91736649 8580.80926551
0.21300001 265130.29218805 11914.95589422
0.21400001 261733.17153219 11817.25325336
0.21500001 258377.77966922 9208.58450277
0.21600001 255061.64460148 9962.70830916
0.21700001 251785.62266785 8233.39025051
0.21800001 248549.04476818 13063.73841068
0.21900001 245350.16604883 13764.14496613
0.22000001 242189.21339298 9634.28736431
0.22100001 239067.41365663 7960.94525119
0.22200001 235982.46776821 11051.05948813
0.22300001 232932.80934240 8609.19704038
0.22400001 229918.65291285 9311.70588329
0.22500001 226942.34720649 8462.68052751
0.22600001 223998.72843604 11440.73559588
0.22700001 221091.49301844 9073.59530256
0.22800001 218217.05943393 8994.90761524
0.22900001 215375.29055179 7430.44787543
0.23000001 212567.55657714 8102.01280210
0.23100001 209792.92295178 9491.03228320
0.23200001 207048.70538904 7236.35259558
0.23300001 204336.51759269 9323.87573872
0.23400001 201656.07339576 9240.89000041
0.23500001 199004.51499622 7749.23618046
0.23600001 196384.78936687 9774.07142907
0.23700001 193794.07559004 6918.44882579
0.23800001 191232.94436922 7541.27151789
0.23900001 188700.35430160 10869.14092188
0.24000001 186196.11675798 8077.18792701
0.24100001 183721.13922072 8002.89320300
0.24200001 181273.37885377 7268.15646894
0.24300001 178852.83258458 7200.61538046
0.24400001 176458.98801593 7133.35492798
0.24500001 174091.87299481 10278.38466783
0.24600001 171751.04578852 8908.72716648
0.24700001 169436.41980613 7563.64213795
0.24800001 167147.24550572 8740.12988096
0.24900001 164882.43561296 9274.63744199
0.25000001 162643.61586562 6123.53242703
0.25100001 160428.10959199 9096.27424420
0.25200001 158238.47962476 9608.24093738
0.25300001 156072.64711382 9514.18901818
0.25400001 153929.90343865 5887.81908509
0.25500001 151810.28065354 8744.27257935
0.25600001 149714.48107213 7502.94157391
0.25700001 147640.85822052 6285.07163182
0.25800001 145590.25974857 6787.41823062
0.25900001 143562.15097578 7278.60139886
0.26000001 141556.02405297 6650.30232467
0.26100001 139570.81419506 6033.64658314
0.26200001 137608.39407084 5971.51654326
0.26300001 135666.40549020 5909.62890278
0.26400001 133745.85050073 9037.87627524
0.26500001 131846.71175652 6838.88926242
0.26600001 129967.22943686 5725.70656378
0.26700001 128109.28523036 5149.99350996
0.26800001 126272.11079159 5604.58790270
0.26900001 124453.39224681 5544.39888696
0.27000001 122655.85174782 5484.55667044
0.27100001 120877.41583237 5918.15855922
0.27200001 119119.93518419 4877.96157663
0.27300001 117380.91771322 6271.66273022
0.27400001 115659.26883724 6202.22858492
0.27500001 113959.71351339 5189.72559901
0.27600001 112276.52927432 4665.09001213
0.27700001 110613.79189812 5073.85487449
0.27800001 108968.58851433 5928.43633870
0.27900001 107343.04513148 4959.24891978
0.28000001 105734.37227222 4902.37440242
0.28100001 104144.67705503 6167.44806710
0.28200001 102573.59615500 5660.52417172
0.28300001 101019.79866598 6455.16544028
0.28400001 99483.57001062  5954.09194695
0.28500001 97965.53088404  5463.53791600
0.28600001 96464.73475065  5813.92983861
0.28700001 94981.39606862  5744.47510613
0.28800001 93514.66053268  4459.24679857
0.28900001 92067.02321202  6808.35668879
0.29000001 90634.72278072  5538.68817130
0.29100001 89220.37490953  4689.42312722
0.29200001 87822.82282157  5789.71986857
0.29300001 86442.04507401  4955.72267868
0.29400001 85077.26975031  4517.60323759
0.29500001 83730.20313429  5576.43179272
0.29600001 82398.93155248  3670.87257443
0.29700001 81084.10495527  3986.90562938
0.29800001 79785.49247539  4294.05540830
0.29900001 78503.67945615  5298.99861414
0.30000001 77237.15462122  3835.98346586
0.30100001 75987.97141826  3786.48079502
0.30200001 74752.87301455  3737.27006329
0.30300001 73535.12959428  5029.80310237
0.30400001 72333.14127246  3640.16550687
0.30500001 71146.33710864  4571.86383904
0.30600001 69974.38274165  3866.78457337
0.30700001 68819.13040012  4133.27716751
0.30800001 67678.78051372  3450.60278786
0.30900001 66553.86986569  3713.70611433
0.31000001 65444.66614513  4579.49073032
0.31100001 64349.60146906  3915.02993874
0.31200001 63270.33326217  3267.59651603
0.31300001 62205.51696376  5566.77197665
0.31400001 61156.66902721  4334.47912253
0.31500001 60121.71459881  2849.76940691
0.31600002 59101.94557315  3091.32740957
0.31700002 58096.75121607  3325.45819706
0.31800002 57106.17606479  2732.53065408
0.31900002 56130.23795443  3233.10185926
0.32000002 55168.75399317  3453.28831971
0.32100002 54221.02999041  2880.76345979
0.32200002 53288.78350772  3098.21001984
0.32300002 52369.03993468  2545.13546134
0.32400002 51463.92961574  3261.52669384
0.32500002 50572.79532368  3956.81569349
0.32600002 49695.88409964  2681.34155356
0.32700002 48832.12205861  4084.31888239
0.32800002 47982.99359075  2841.55301500
0.32900002 47146.62215104  2333.75790699
0.33000002 46324.68219558  3220.02881190
0.33100002 45513.71673584  2493.24152086
0.33200002 44719.27644284  4467.45592820
0.33300002 43936.50287093  3081.70645730
0.33400002 43167.24494696  3253.73124196
0.33500002 42410.11765812  2351.21703431
0.33600002 41666.89656006  2316.88789294
0.33700002 40935.49083127  2490.51538012
0.33800002 40217.82867854  2658.59969070
0.33900002 39511.83977527  2418.12470876
0.34000002 38818.92477725  2382.70571567
0.34100002 38137.99178340  2152.12697826
0.34200002 37470.05247715  2891.75143687
0.34300002 36813.30834940  2279.48016095
0.34400002 36169.89056567  2058.97111796
0.34500002 35537.59159531  2028.84120026
0.34600002 34918.09204406  2180.98413236
0.34700002 34308.75445270  1790.91706725
0.34800002 33712.52098919  2470.79078032
0.34900002 33127.15344350  1739.17563815
0.35000002 32553.31484415  2056.71852926
0.35100002 31991.44741747  2026.97820437
0.35200002 31439.35392650  1831.18525618
0.35300002 30898.99829762  2789.25270843
0.35400002 30369.77129039  2102.34751715
0.35500002 29851.50235241  1753.47733123
0.35600002 29343.04114598  2199.84789891
0.35700002 28845.77280855  2478.42891710
0.35800002 28359.45936049  1832.58835068
0.35900002 27883.31168979  1505.69890257
0.36000002 27417.63525249  1781.59802309
0.36100002 26961.40897603  1464.00457674
0.36200002 26516.30862723  1732.57568777
0.36300002 26080.15272941  1423.97640648
0.36400002 25653.73360279  1966.35877379
0.36500002 25236.92489941  1662.60869113
0.36600002 24829.99030429  1640.26923720
0.36700002 24431.97340485  1753.23849458
0.36800002 24044.75056045  1730.14010853
0.36900002 23665.61775833  1444.78603258
0.37000002 23295.17459812  1685.28948613
0.37100002 22933.57821681  1279.69372512
0.37200002 22581.67348786  1263.44469150
0.37300002 22237.94082854  1621.81310145
0.37400002 21902.77111955  1724.84330737
0.37500002 21576.44469797  1216.91153861
0.37600002 21258.59155953  1322.39075060
0.37700002 20948.33638981  1662.87902140
0.37800002 20646.15016951  1525.85380056
0.37900002 20352.55799174  1276.10544653
0.38000002 20066.80203411  1261.49956964
0.38100002 19787.74975479  1360.60573760
0.38200002 19517.23972537  1681.89821301
0.38300002 19253.65485311  1109.01057208
0.38400002 18998.19980147  1097.14609051
0.38500002 18748.85276296  1194.11448904
0.38600002 18507.83066816  1289.25554542
0.38700002 18273.10560425  1169.84427621
0.38800002 18045.40975465  1684.71953451
0.38900002 17823.99390399  1355.51480062
0.39000002 17610.34321524  1342.70068206
0.39100002 17402.27220458  1739.53121198
0.39200002 17201.11760891  1115.40652419
0.39300002 17005.94866194  1206.06193624
0.39400002 16818.20332502  1195.77431306
0.39500002 16635.35378263  1086.95406765
0.39600002 16458.65440291  1274.14679097
0.39700002 16287.72850471  1458.56615670
0.39800002 16122.93007554  1061.45315181
0.39900002 15963.41746883  1340.92713091
0.40000002 15809.29550578  1426.39375459
0.40100002 15661.03832211  1227.66885224
0.40200002 15518.20180087  1125.69041197
0.40300002 15379.91997825  932.02319484
0.40400002 15247.26160610  1018.89830510
0.40500002 15119.72974350  1289.10821901
0.40600002 14996.92037673  1464.89925181
0.40700002 14878.89503806  1001.64726142
0.40800002 14765.69468787  905.87541202
0.40900002 14656.85683937  1171.81575983
0.41000002 14553.01786390  1256.07103135
0.41100002 14453.23973691  1786.42051613
0.41200002 14357.46468059  1601.00096239
0.41300002 14266.69820325  974.55820044
0.41400002 14179.39158950  970.93388510
0.41500002 14096.45669295  1407.39030291
0.41600002 14016.85171899  1052.10493988
0.41700002 13941.42938020  961.54042991
0.41800002 13870.75302209  1046.13224250
0.41900002 13801.73896479  1217.31343438
0.42000002 13737.45089809  867.52006532
0.42100002 13677.09592561  1125.48827705
0.42200002 13619.95782081  1209.86091055
0.42300002 13565.60237139  949.04958687
0.42400002 13514.41877975  1206.16193325
0.42500002 13466.83569624  946.58392594
0.42600002 13421.32298602  859.63577799
0.42700002 13380.20384452  1030.81095303
0.42800002 13340.94565879  1116.03686197
0.42900002 13305.71849547  944.04077199
0.43000002 13272.53478951  1201.29718072
0.43100002 13241.12595324  858.02500243
0.43200002 13213.42716596  1287.31820265
0.43300002 13188.09059973  944.39921260
0.43400002 13165.08959947  944.92435078
0.43500002 13144.31463629  1031.56586154
0.43600002 13126.25616690  1032.51135902
0.43700002 13109.89173883  861.31992806
0.43800002 13095.55530497  1121.04506501
0.43900002 13084.07301369  863.54885983
0.44000002 13074.08647373  1124.30611959
0.44100002 13066.42969722  866.30432998
0.44200002 13060.44072850  1041.43959304
0.44300002 13056.49665395  956.51899020
0.44400002 13054.49853661  958.52660048
0.44500002 13053.09831273  1222.55324591
0.44600002 13053.79959469  1575.46314775
0.44700002 13057.05455726  1403.89457253
0.44800002 13060.34883722  1319.42180381
0.44900002 13066.87428899  1146.61827320
0.45000002 13073.99887507  1149.79288556
0.45100002 13082.25301964  1064.37215612
0.45200002 13092.08392659  1245.45000296
0.45300002 13102.84917277  981.53447805
0.45400002 13115.29352997  895.11882584
0.45500002 13128.82483885  1077.61399384
0.45600002 13143.31567666  1351.46149850
0.45700002 13158.90350511  1265.62339910
0.45800002 13175.19170834  1179.24558974
0.45900002 13192.53599786  1365.42754049
0.46000002 13211.57397735  1461.72861413
0.46100002 13230.36273511  1008.55059910
0.46200002 13250.84309969  1288.37953565
0.46300002 13272.13008748  1016.11432766
0.46400002 13293.31325758  1019.92950803
0.46500002 13315.92046392  1303.09603836
0.46600002 13338.81279305  1214.69904457
0.46700002 13362.12719180  1031.82351065
0.46800002 13386.99390298  1224.30758542
0.46900002 13411.33162963  1229.14860211
0.47000002 13436.56782353  949.29356173
0.47100002 13462.29456102  1143.75660011
0.47200002 13488.64598130  1052.72142551
0.47300002 13515.50131617  1345.33306478
0.47400002 13541.93731339  1157.83569517
0.47500002 13569.24818438  1356.38211280
0.47600002 13597.23807450  1167.45891641
0.47700002 13624.70782803  1367.64823660
