# SAXS profile: number of points = 501, q_min = 0, q_max = 0.5, delta_q = 0.001
#    q    intensity    error
0.00000000 1664650.74656090 274.66737318
0.00100000 1664564.68013340 549.30635749
0.00200000 1664306.44816877 1048.51309555
0.00300000 1663876.26700077 1098.15837534
0.00400000 1663274.01291380 1247.45555709
0.00500000 1662500.32758548 1945.12546027
0.00600000 1661555.08707601 2093.55949495
0.00700000 1660438.98668357 2391.03224020
0.00800000 1659151.81029236 2239.85503846
0.00900000 1657695.05197501 2735.19695268
0.01000000 1656067.97442832 2732.51227580
0.01100000 1654272.16708282 3573.22803647
0.01200000 1652307.64127528 3544.20004593
0.01300000 1650175.57545070 4851.51640580
0.01400000 1647876.29127742 4078.49400172
0.01500000 1645411.20902569 5133.68320076
0.01600000 1642780.08164424 5864.72515364
0.01700000 1639984.96134193 5313.55151311
0.01800000 1637026.48192695 5132.07825177
0.01900000 1633905.58211256 5882.06036102
0.02000000 1630622.96497122 6163.75508641
0.02100000 1627181.43550598 7517.57857287
0.02200000 1623579.61801806 7281.75491764
0.02300000 1619820.47456489 8747.03096080
0.02400000 1615904.67857853 7271.57138517
0.02500000 1611834.70942116 6914.77121922
0.02600000 1607610.81216919 7812.98890449
0.02700000 1603235.03897435 10100.38120815
0.02800000 1598707.56704526 9040.69170624
0.02900000 1594032.16396336 8607.77408062
0.03000000 1589209.11602301 8867.78727502
0.03100000 1584240.06789481 8364.78794337
0.03200000 1579126.44226887 8598.34387418
0.03300000 1573872.22487713 10434.77333198
0.03400000 1568475.82980291 9881.39818369
0.03500000 1562941.34846538 10127.86040574
0.03600000 1557269.50646604 8642.84616030
0.03700000 1551463.26974107 11496.34336046
0.03800000 1545524.00739318 15370.23696485
0.03900000 1539454.54817990 12007.74603188
0.04000000 1533254.63729917 14144.27468452
0.04100000 1526928.57556913 12505.54561375
0.04200000 1520477.77170968 9807.08208251
0.04300000 1513903.92036954 10990.94297206
0.04400000 1507210.23122973 11191.03648661
0.04500000 1500398.60592404 11388.02594811
0.04600000 1493469.74201658 16846.33947308
0.04700000 1486427.67596042 13912.96369405
0.04800000 1479274.24428701 11959.93282153
0.04900000 1472011.67445606 14352.11449400
0.05000000 1464642.03157608 14565.86568230
0.05100000 1457169.05261223 13639.10296781
0.05200000 1449591.97850909 12676.68244281
0.05300000 1441916.16795463 16351.33010687
0.05400000 1434142.76034808 17747.51748694
0.05500000 1426275.14801581 17971.06770334
0.05600000 1418314.44948159 13339.24801984
0.05700000 1410265.11588634 15950.09920520
0.05800000 1402126.92431901 14890.58863155
0.05900000 1393903.67562576 13799.64703322
0.06000000 1385598.91752058 17749.52296268
0.06100000 1377214.20291400 15369.71122277
0.06200000 1368752.27653352 15521.65154143
0.06300000 1360216.26498818 19587.11513163
0.06400000 1351605.82695563 15813.78891494
0.06500000 1342927.15279095 14624.47737799
0.06600000 1334181.39834830 14749.37604884
0.06700000 1325369.90157540 14870.65099161
0.06800000 1316497.15717783 19076.04470044
0.06900000 1307566.01466799 15102.38817649
0.07000000 1298576.39356379 23510.72670644
0.07100000 1289532.80436803 20890.43240922
0.07200000 1280437.01023775 18227.02169461
0.07300000 1271292.72112068 16933.61983876
0.07400000 1262102.52083854 15618.51942733
0.07500000 1252866.89025318 17139.21986202
0.07600000 1243589.39286101 17236.14979309
0.07700000 1234273.73414765 18773.30437664
0.07800000 1224920.74759981 21772.96730966
0.07900000 1215533.09352057 16045.03758704
0.08000000 1206115.39509263 19050.59355917
0.08100000 1196668.55798918 16190.92634924
0.08200000 1187193.80214484 19214.73258937
0.08300000 1177694.76946151 23742.32766662
0.08400000 1168174.40592636 14894.22437468
0.08500000 1158634.54622636 16441.02498278
0.08600000 1149077.90000745 19494.10748890
0.08700000 1139506.23832175 18049.77966259
0.08800000 1129921.79274524 19609.79363404
0.08900000 1120327.54647819 16636.86484663
0.09000000 1110725.79323354 16677.54856884
0.09100000 1101118.52868494 19754.06733268
0.09200000 1091507.11086761 16749.17740325
0.09300000 1081896.34927976 22882.10886255
0.09400000 1072284.75363305 15280.05845740
0.09500000 1062676.53019623 16832.79702949
0.09600000 1053073.30075505 15322.21724625
0.09700000 1043479.98782359 19940.90350479
0.09800000 1033895.27329875 19959.34918947
0.09900000 1024323.07968511 21510.78568488
0.10000000 1014762.90627884 16911.02462841
0.10100000 1005218.84682430 19993.80380368
0.10200000 995692.29860321 18460.13608440
0.10300000 986184.93806625 19999.83148479
0.10400000 976699.75279923 19997.92837937
0.10500000 967239.14835100 16917.01350059
0.10600001 957800.21275882 16909.96355193
0.10700001 948390.66224172 16900.32239644
0.10800001 939008.04779769 15352.78230402
0.10900001 929656.78285928 16873.27140305
0.11000001 920337.47619494 19920.70560990
0.11100001 911050.91001815 24489.04961407
0.11200001 901800.28076623 16814.06702644
0.11300001 892585.58415986 19842.17847006
0.11400001 883409.25957809 18286.57253428
0.11500001 874273.45617373 19776.06650986
0.11600001 865178.56553914 18220.66144829
0.11700001 856126.39263433 21214.81300859
0.11800001 847117.42586654 24193.67482223
0.11900001 838153.12270127 22630.13537885
0.12000001 829235.31695863 19565.80822528
0.12100001 820366.67647838 22519.06633016
0.12200001 811546.15211052 20962.23809657
0.12300001 802776.45192683 17917.97125120
0.12400001 794057.46499784 16377.43598724
0.12500001 785389.77561540 20781.41444201
0.12600001 776777.58291216 20716.65911251
0.12700001 768218.93119509 17699.76500886
0.12800001 759715.53427754 24990.84367786
0.12900001 751268.49120326 14649.73626894
0.13000001 742879.06223505 16057.33168707
0.13100001 734546.80122599 15998.43008483
0.13200001 726273.47549992 18835.90347502
0.13300001 718061.02305053 21649.54086560
0.13400001 709907.93464294 18688.32726055
0.13500001 701816.61870288 17180.47163587
0.13600001 693786.40013499 17108.77343402
0.13700001 685819.37744608 25553.63120858
0.13800001 677914.18585476 18374.86487407
0.13900001 670073.80704646 16885.86073388
0.14000001 662297.14786991 14007.58533805
0.14100001 654585.02731040 16731.19408715
0.14200001 646937.49525099 19427.53389869
0.14300001 639356.76403803 19334.14945646
0.14400001 631839.46587717 16491.01083727
0.14500001 624390.12749582 15041.55888092
0.14600001 617006.77429859 13605.00001509
0.14700001 609691.67223570 14888.67133839
0.14800001 602441.07605127 14811.01455348
0.14900001 595258.95427948 13393.32710320
0.15000001 588143.75970307 18650.03950015
0.15100001 581096.64423114 21198.40658180
0.15200001 574117.27199966 14493.59121554
0.15300001 567206.85490020 13102.47896649
0.15400001 560361.69463441 15634.09201809
0.15500001 553586.40810066 16840.09932916
0.15600001 546876.60651659 15454.73362954
0.15700001 540238.04018674 12803.64215672
0.15800001 533663.73032585 15273.45668281
0.15900001 527159.43276853 16447.37507870
0.16000001 520720.48897876 16348.02052315
0.16100001 514352.00987201 17498.25620184
0.16200001 508049.66494414 13663.99638370
0.16300001 501814.43196423 17282.48985272
0.16400001 495646.33071978 15947.42144378
0.16500001 489544.59371414 19503.45753436
0.16600001 483510.32282036 18167.90123774
0.16700001 477540.79760068 16847.64013481
0.16800001 471636.99775786 14347.19814922
0.16900001 465800.85247837 11877.92229905
0.17000001 460028.63059707 18879.57589119
0.17100001 454321.23565004 14065.78611993
0.17200001 448679.11349170 19793.48002639
0.17300001 443101.24841693 13877.93175580
0.17400001 437587.29329644 17230.00048725
0.17500001 432136.70228896 11408.40947922
0.17600001 426747.58613651 14729.19363115
0.17700001 421423.18136541 12377.19942128
0.17800001 416159.31798969 13408.65385895
0.17900001 410957.92726167 14424.62392821
0.18000001 405817.51651525 14323.32992197
0.18100001 400739.34426678 10940.18461526
0.18200001 395718.75578270 15207.47250310
0.18300001 390758.96419465 11863.44271337
0.18400001 385857.87836856 10707.55663056
0.18500001 381016.96578511 11693.41123237
0.18600001 376232.39473486 14774.64683924
0.18700001 371505.28414566 13619.38436022
0.18800001 366834.97913722 11439.74936488
0.18900001 362223.14009642 10323.35998050
0.19000001 357662.97638131 12296.45370898
0.19100001 353162.46581177 11188.18744556
0.19200001 348713.70867620 15142.89351479
0.19300001 344320.88668643 11021.71210364
0.19400001 339979.78229290 11933.29092238
0.19500001 335692.45123595 13817.10194580
0.19600001 331457.22617113 11753.47379545
0.19700001 327272.98739678 10692.00900353
0.19800001 323140.41973949 11574.89038208
0.19900001 319058.49311310 12443.28181948
0.20000001 315025.20884132 12347.41364409
0.20100001 311042.37932715 11309.50144685
0.20200001 307106.72861899 9351.40032843
0.20300001 303220.55916349 12062.11441363
0.20400001 299381.03013690 10126.56382302
0.20500001 295587.97639416 10047.03579253
0.20600001 291840.94966835 11780.16049019
0.20700001 288140.15475904 11686.96522946
0.20800001 284482.87155328 8918.53844478
0.20900001 280872.62978886 10616.98590790
0.21000001 277303.64275138 14042.65713276
0.21100001 273778.49619843 11318.00356788
0.21200001 270295.77539541 9499.54547536
0.21300001 266854.03011147 12849.02215731
0.21400001 263454.61407293 9346.05287609
0.21500001 260096.86194129 12640.70808797
0.21600001 256778.08849091 9193.93989309
0.21700001 253499.36759045 11605.20159698
0.21800001 250259.67694170 9043.13385385
0.21900001 247057.66447050 8968.19364431
0.22000001 243893.35899727 9702.07827965
0.22100001 240768.03088118 9621.09096893
0.22200001 237679.31839949 12720.59772223
0.22300001 234625.73818479 10248.45272851
0.22400001 231607.59811194 9380.10816708
0.22500001 228626.99723403 11625.68335910
0.22600001 225678.81905788 7684.36415230
0.22700001 222767.05285783 12189.81370883
0.22800001 219887.81550257 8308.46150167
0.22900001 217041.03919293 11231.87430940
0.23000001 214228.27279363 8907.61200402
0.23100001 211448.30187149 8094.24137844
0.23200001 208698.63518173 9482.22293793
0.23300001 205980.71068000 7229.92328680
0.23400001 203294.46482225 8599.35626869
0.23500001 200636.87303554 10653.81846207
0.23600001 198011.05657247 7039.29339409
0.23700001 195414.08667432 7673.91154666
0.23800001 192846.44411628 8987.60895314
0.23900001 190307.29553900 7536.16925980
0.24000001 187796.21950896 6788.83365636
0.24100001 185314.34496339 8072.29324843
0.24200001 182859.55593575 7331.75424205
0.24300001 180431.65335697 8584.93847282
0.24400001 178030.46016315 9813.92958073
0.24500001 175655.86607270 11667.06317645
0.24600001 173307.29892827 7705.24287485
0.24700001 170984.80718249 6996.69864089
0.24800001 168687.79888839 9450.73437980
0.24900001 166414.93086415 6240.56020263
0.25000001 164167.86163634 6180.92028302
0.25100001 161943.86723930 6121.47847125
0.25200001 159745.84385904 6062.35506126
0.25300001 157571.38924772 6603.81723580
0.25400001 155419.86814490 8322.73433292
0.25500001 153291.39168390 8240.94560682
0.25600001 151186.50653775 5828.24010278
0.25700001 149103.87714843 6924.38438239
0.25800001 147043.94500599 6855.18904053
0.25900001 145006.45034249 5655.25183093
0.26000001 142990.88524543 5598.09342224
0.26100001 140996.04584304 5541.14486382
0.26200001 139024.07818452 7129.85018706
0.26300001 137072.23417478 9770.50931429
0.26400001 135141.83214674 5909.07689022
0.26500001 133232.65934705 5847.58169544
0.26600001 131343.12011310 5260.29220944
0.26700001 129474.92004603 6766.35964179
0.26800001 127627.44059265 6694.69771309
0.26900001 125798.30500944 8151.73055036
0.27000001 123990.35828158 7560.31245399
0.27100001 122201.39545911 8475.88919015
0.27200001 120433.28872087 5424.91774716
0.27300001 118683.53247968 5853.47209891
0.27400001 116951.14027102 5306.65824093
0.27500001 115240.71375326 4770.96577517
0.27600001 113546.44955585 7076.78280348
0.27700001 111872.83749429 5131.60729872
0.27800001 110216.48992043 5073.81635362
0.27900001 108579.77999768 5016.38607331
0.28000001 106959.95434349 4508.36228895
0.28100001 105358.99215241 4902.35413688
0.28200001 103776.50116578 6167.43775618
0.28300001 102211.27812529 4354.20065422
0.28400001 100663.65701257 6455.05731145
0.28500001 99134.07426492  5953.99278216
0.28600001 97621.80400734  5043.14263372
0.28700001 96126.80237949  5813.74928309
0.28800001 94648.40190143  4103.00841664
0.28900001 93189.14696706  5269.84651043
0.29000001 91745.12668519  6407.47995099
0.29100001 90319.03441212  3955.97389451
0.29200001 88909.70700579  5079.85635023
0.29300001 87517.13885472  3859.50600619
0.29400001 86140.46229923  3811.71563717
0.29500001 84781.51650165  7152.16907064
0.29600001 83438.37397367  4460.61568379
0.29700001 82111.59406691  5505.58264281
0.29800001 80801.15396452  5073.50469760
0.29900001 79507.43421557  3577.83470907
0.30000001 78228.90745181  3885.23887252
0.30100001 76967.66455371  3486.63536934
0.30200001 75720.61728003  3785.65244013
0.30300001 74490.94625472  4415.82350303
0.30400001 73276.81934290  3687.65610801
0.30500001 72078.12177774  4300.90173009
0.30600001 70894.15006945  3591.14334178
0.30700001 69726.97171872  4832.07936887
0.30800001 68574.61168659  3814.12008258
0.30900001 67437.77111382  3763.02780631
0.31000001 66316.59352161  4021.77000453
0.31100001 65209.61837748  3662.17234147
0.31200001 64118.34842714  3010.35660118
0.31300001 63041.73022800  4750.82501492
0.31400001 61981.03025833  3221.46420020
0.31500001 60934.08298050  3465.93080403
0.31600002 59902.57184673  2848.36742618
0.31700002 58885.54770071  2808.84075832
0.31800002 57883.23727353  3877.59824855
0.31900002 56895.59985470  4642.68116797
0.32000002 55922.30846084  4577.52077580
0.32100002 54962.86955035  3185.64806998
0.32200002 54019.07618817  3140.66923829
0.32300002 53087.66075892  2838.06647856
0.32400002 52171.05794387  2797.67311471
0.32500002 51268.48616244  2757.73200126
0.32600002 50380.07181619  3953.82822336
0.32700002 49504.92678610  2679.20676453
0.32800002 48644.45479168  2880.72474917
0.32900002 47796.76894960  3312.31624506
0.33000002 46963.47269462  2331.73652970
0.33100002 46141.40423762  3216.97885579
0.33200002 45335.73485410  2717.42407584
0.33300002 44541.95699392  2901.01779639
0.33400002 43761.61577349  3518.43407481
0.33500002 42993.58801725  2383.56463255
0.33600002 42239.40685485  2989.28296468
0.33700002 41497.23130262  2314.30069935
0.33800002 40768.91224329  2487.71914290
0.33900002 40052.15709011  3268.25617333
0.34000002 39348.68907693  2012.68554160
0.34100002 38657.18018921  2776.35881267
0.34200002 37978.78810925  2735.61223707
0.34300002 37311.71541637  2117.81306733
0.34400002 36658.05955733  3224.99294229
0.34500002 36015.48261895  2803.80545467
0.34600002 35385.73303562  2210.19299008
0.34700002 34766.41404366  2177.76827884
0.34800002 34160.17796347  2145.94248130
0.34900002 33564.92057042  2290.80593743
0.35000002 32981.33314067  1910.11399931
0.35100002 32409.64039164  3080.21236871
0.35200002 31848.05154529  2192.26073195
0.35300002 31298.17632811  2160.51321426
0.35400002 30759.44595515  1965.52868963
0.35500002 30231.88530967  1775.82102720
0.35600002 29714.16792519  2068.55189809
0.35700002 29207.79736489  1725.30467206
0.35800002 28712.24863372  1855.38559459
0.35900002 28227.24380560  1676.69836147
0.36000002 27752.73459890  1653.09171468
0.36100002 27287.72063537  1778.06796082
0.36200002 26833.93408294  2337.77244804
0.36300002 26389.25616275  1873.10949116
0.36400002 25954.42490088  1563.10531370
0.36500002 25529.17198279  1822.01709072
0.36600002 25114.03127111  1382.52748696
0.36700002 24707.95150573  1773.04268404
0.36800002 24312.63625337  1749.41582448
0.36900002 23925.58932443  1593.44432449
0.37000002 23547.30200691  1441.44816063
0.37100002 23178.08604081  1552.00471481
0.37200002 22818.51944030  1276.69622316
0.37300002 22467.25330149  1386.45426691
0.37400002 22124.71155832  1866.77262616
0.37500002 21791.06480321  1597.72094706
0.37600002 21466.01118724  1699.46418620
0.37700002 21148.67748476  1319.04307721
0.37800002 20839.61943234  1540.15214711
0.37900002 20539.24362244  1287.81063613
0.38000002 20246.71002514  1504.22939258
0.38100002 19960.99856902  1372.51832663
0.38200002 19683.95095557  1130.84303597
0.38300002 19413.99209938  1341.89519748
0.38400002 19152.25582397  1437.85567410
0.38500002 18896.82754939  1203.53900364
0.38600002 18649.83190036  1299.14735173
0.38700002 18408.96615971  1071.40188125
0.38800002 18175.55853750  1166.59828000
0.38900002 17948.36416548  1469.97109479
0.39000002 17729.16104892  1143.79687926
0.39100002 17515.61204563  1029.91803708
0.39200002 17309.02404135  1224.44041870
0.39300002 17108.58975452  1213.34124288
0.39400002 16915.70560407  1302.93228588
0.39500002 16727.81634631  1192.35880566
0.39600002 16546.22001452  985.32744855
0.39700002 16370.48467053  1465.97697170
0.39800002 16200.97361347  1163.55398005
0.39900002 16036.84970805  1539.53764491
0.40000002 15878.29898513  1337.11162089
0.40100002 15725.71754560  1517.21730068
0.40200002 15578.55623777  1035.89614611
0.40300002 15436.15306075  1122.51710376
0.40400002 15299.43007847  1115.32850557
0.40500002 15167.96005693  1016.10169236
0.40600002 15041.33290144  1101.92810057
0.40700002 14919.69391116  1278.31943488
0.40800002 14802.77565683  908.15032958
0.40900002 14690.48582535  1084.15790528
0.41000002 14583.32260615  1078.87425752
0.41100002 14480.19001578  894.87578538
0.41200002 14381.29021340  1158.19726221
0.41300002 14287.46395547  975.97670904
0.41400002 14197.19908622  883.77568499
0.41500002 14111.38746042  968.60568118
0.41600002 14029.01571488  1053.01796945
0.41700002 13950.93774703  1137.14098964
0.41800002 13877.68297173  1221.09738254
0.41900002 13806.25835164  869.79431737
0.42000002 13739.64897187  1041.19064842
0.42100002 13676.96309138  1038.90216565
0.42200002 13617.65124158  1036.84801467
0.42300002 13561.22936019  1466.24018790
0.42400002 13508.11766930  861.14254222
0.42500002 13458.64116564  946.00793236
0.42600002 13411.37003296  1116.69777871
0.42700002 13368.52867137  1201.56341392
0.42800002 13327.79475166  1372.22981266
0.42900002 13290.99951177  1285.90426370
0.43000002 13256.41827753  1028.43297871
0.43100002 13223.75508686  942.58930726
0.43200002 13194.83858807  1199.80672967
0.43300002 13168.31862489  1114.43485804
0.43400002 13144.26208521  943.42945587
0.43500002 13122.50063107  858.21158194
0.43600002 13103.62381522  1374.30813087
0.43700002 13086.44953999  859.77977552
0.43800002 13071.36263190  946.82419711
0.43900002 13059.25613514  948.10204034
0.44000002 13048.72982658  1294.76027840
0.44100002 13040.58359401  951.04980658
0.44200002 13034.18503426  1125.95812754
0.44300002 13029.91927553  1301.68899731
0.44400002 13027.68944512  956.55814284
0.44500002 13026.04729878  1307.16390838
0.44600002 13026.70451348  1048.12869483
0.44700002 13029.90690630  1138.29272128
0.44800002 13033.31057084  1053.35221026
0.44900002 13039.88952985  1232.26961897
0.45000002 13047.22685171  882.64493835
0.45100002 13055.77381314  1947.39931426
0.45200002 13065.89124034  887.82735186
0.45300002 13077.07788120  1335.82356887
0.45400002 13089.96845914  893.39038968
0.45500002 13103.97875296  1075.57462702
0.45600002 13119.08293496  1169.10713116
0.45700002 13135.28357973  1443.83043951
0.45800002 13152.25043571  996.08573396
0.45900002 13170.33957275  999.62882095
0.46000002 13190.15101797  1459.35837779
0.46100002 13209.75900886  1098.52361124
0.46200002 13231.17102824  1102.68584576
0.46300002 13253.40845045  922.43727187
0.46400002 13275.59365113  1111.16724126
0.46500002 13299.27541475  1115.54327466
0.46600002 13323.23591549  1306.60980816
0.46700002 13347.71145181  1311.81314366
0.46800002 13373.75790099  1223.09708680
0.46900002 13399.34441017  1133.58459083
0.47000002 13425.85575242  1422.80513080
0.47100002 13452.84756198  1142.95398304
0.47200002 13480.64794271  1912.90403374
0.47300002 13508.95412577  1056.53535225
0.47400002 13536.83696394  1060.94964734
0.47500002 13565.64569100  1356.02200754
0.47600002 13595.10464057  1167.27573977
0.47700002 13624.16340445  1074.53781864
