# SAXS profile: number of points = 501, q_min = 0, q_max = 0.5, delta_q = 0.001
#    q    intensity    error
0.00000000 1664650.74656090 324.60689558
0.00100000 1664564.53580004 599.24324712
0.00200000 1664305.87482697 1048.51273434
0.00300000 1663874.97796779 1697.15253798
0.00400000 1663271.71204480 1496.94459772
0.00500000 1662496.74579006 1645.87184348
0.00600000 1661549.90985878 2093.55297165
0.00700000 1660431.95286486 2789.52579675
0.00800000 1659142.63501865 2687.81118221
0.00900000 1657683.40389938 3232.48277579
0.01000000 1656053.61231698 2732.48857831
0.01100000 1654254.83526064 3573.19059974
0.01200000 1652287.00321692 3544.15577729
0.01300000 1650151.37910581 4504.91346365
0.01400000 1647848.27176917 4078.42465343
0.01500000 1645379.05106056 5133.58286790
0.01600000 1642743.50925845 6702.39381739
0.01700000 1639943.76031939 4870.63318664
0.01800000 1636980.37153561 6065.01254945
0.01900000 1633854.22612528 6862.18805937
0.02000000 1630566.15209878 6163.54033375
0.02100000 1627118.81250876 5906.44155720
0.02200000 1623510.97924423 7841.55838601
0.02300000 1619745.58788131 6414.19281997
0.02400000 1615823.29939876 9089.00647355
0.02500000 1611746.47129825 10057.29844022
0.02600000 1607515.58887584 9765.65764909
0.02700000 1603132.44450055 7406.47223282
0.02800000 1598597.46393932 6953.89928704
0.02900000 1593914.25788295 7889.87593878
0.03000000 1589083.13020411 8867.08427412
0.03100000 1584105.85339165 10645.19182461
0.03200000 1578983.66010166 13287.14811174
0.03300000 1573720.64061217 9631.17076455
0.03400000 1568315.31833706 8233.65580117
0.03500000 1562771.59284542 8438.96699106
0.03600000 1557090.22180681 12098.59158256
0.03700000 1551274.31850214 11494.94323171
0.03800000 1545325.28965755 14464.24538059
0.03900000 1539245.61916078 11082.56897119
0.04000000 1533035.43646846 11313.80204541
0.04100000 1526698.84447804 10580.02348279
0.04200000 1520237.34666067 9805.53134087
0.04300000 1513652.66054463 13986.15123264
0.04400000 1506947.64387980 13223.46618917
0.04500000 1500124.84014365 10350.86187794
0.04600000 1493184.52904404 12632.34170295
0.04700000 1486130.78418218 11770.15635813
0.04800000 1478965.37695784 13044.47523170
0.04900000 1471690.76924144 16556.52192463
0.05000000 1464308.85610124 12322.15959789
0.05100000 1456823.65660588 13635.87006104
0.05200000 1449233.94788347 17282.11563388
0.05300000 1441545.66765570 16347.12863328
0.05400000 1433759.22145572 15377.06836720
0.05500000 1425878.67033886 16768.33394542
0.05600000 1417904.63664503 12123.08520903
0.05700000 1409842.07937156 18398.43999461
0.05800000 1401690.59484505 14885.95481232
0.05900000 1393453.66301689 13795.19190818
0.06000000 1385135.28717663 13941.38731676
0.06100000 1376736.81418133 12803.65297022
0.06200000 1368260.91665482 16809.08614682
0.06300000 1359710.88392758 16969.19262482
0.06400000 1351086.32443257 23711.56610270
0.06500000 1342393.43061724 15947.63470173
0.06600000 1333633.47009084 17423.92210198
0.06700000 1324807.51407672 17566.94845877
0.06800000 1315920.03392009 20429.65948290
0.06900000 1306974.41698202 19212.52482915
0.07000000 1297970.33421514 16588.06164806
0.07100000 1288912.01041792 16704.30043741
0.07200000 1279801.53274550 19619.35841609
0.07300000 1270642.26960290 14104.12985345
0.07400000 1261437.09505886 17029.40158136
0.07500000 1252186.55687868 22839.88386803
0.07600000 1242893.98269810 18662.05402510
0.07700000 1233563.28141466 17319.22928313
0.07800000 1224195.48171812 18858.73228027
0.07900000 1214792.58194902 16035.26283384
0.08000000 1205359.75302773 19038.65819220
0.08100000 1195897.77985950 16180.49772066
0.08200000 1186407.88584640 20679.09042067
0.08300000 1176893.59714703 16311.74602200
0.08400000 1167358.26487113 16372.20043331
0.08500000 1157803.29497467 17922.79584760
0.08600000 1148231.49689739 17981.30608566
0.08700000 1138644.78013722 16533.12298395
0.08800000 1129045.00132852 16580.02662317
0.08900000 1119435.71309580 19646.09768760
0.09000000 1109818.92275204 18178.83480864
0.09100000 1100196.56286651 16700.98460895
0.09200000 1090570.23636290 15213.45551209
0.09300000 1080944.53467911 16765.45052072
0.09400000 1071318.13944338 16792.91262500
0.09500000 1061694.99487483 16817.24950927
0.09600000 1052077.15598905 16838.49567315
0.09700000 1042469.08321260 16856.72586803
0.09800000 1032869.69944902 16871.92733378
0.09900000 1023282.82324593 16884.16737749
0.10000000 1013708.26834563 18429.21718520
0.10100000 1004149.70649104 15363.49123189
0.10200000 994608.83470991 26123.40227240
0.10300000 985087.47772687 18440.83845052
0.10400000 975587.97842299 23048.26707455
0.10500000 966113.28200113 18433.44228786
0.10600001 956660.47995773 24567.04228128
0.10700001 947237.29085753 18414.29380080
0.10800001 937840.76848657 16867.06701502
0.10900001 928475.92318231 16851.83879890
0.11000001 919143.20655254 22955.60266416
0.11100001 909843.20794782 16813.90327436
0.11200001 900579.56011782 16791.30668888
0.11300001 891351.73403078 16766.32690649
0.11400001 882162.71805297 22825.96140437
0.11500001 873013.86163914 16709.48609859
0.11600001 863906.43358499 19710.02621042
0.11700001 854841.94387817 15130.70311922
0.11800001 845820.68109829 24156.63978990
0.11900001 836844.27668112 15063.19768976
0.12000001 827914.36526995 16529.31108123
0.12100001 819033.81589502 16487.15149065
0.12200001 810201.84332450 17937.86965628
0.12300001 801420.62262479 19378.35156807
0.12400001 792690.10224568 16349.23412915
0.12500001 784011.54059947 16299.60069711
0.12600001 775388.44207495 20679.61072463
0.12700001 766819.04326150 16195.21895690
0.12800001 758305.07994283 19075.16518496
0.12900001 749847.84112296 21933.05038660
0.13000001 741448.15502513 20397.23970616
0.13100001 733105.91171981 17418.59728353
0.13200001 724822.87935032 21690.32568705
0.13300001 716600.81610969 15844.04479112
0.13400001 708438.34402171 18649.64028562
0.13500001 700338.09149243 30002.48525410
0.13600001 692298.81324036 15649.41541118
0.13700001 684323.33187624 16998.59236534
0.13800001 676409.77445325 16923.77335487
0.13900001 668560.89535562 14039.77946456
0.14000001 660776.27107494 19565.58630925
0.14100001 653056.19540446 13910.09761816
0.14200001 645401.23589850 15228.24287927
0.14300001 637813.22836814 16532.11965908
0.14400001 630288.60304996 16450.53331557
0.14500001 622832.40924686 23188.05169009
0.14600001 615442.40348997 16284.60676456
0.14700001 608121.21103902 18900.40813075
0.14800001 600864.23336775 18801.04274909
0.14900001 593676.12550016 18700.79883557
0.15000001 586555.39578114 19928.22051194
0.15100001 579502.69040258 15855.19435754
0.15200001 572518.23915704 14453.22362952
0.15300001 565602.97117658 16985.05802594
0.15400001 558753.05855448 16888.31199179
0.15500001 551973.28318907 18082.64561065
0.15600001 545259.12060840 14124.93818599
0.15700001 538616.66862038 16594.78034341
0.15800001 532038.57782144 16495.85688394
0.15900001 525530.93441274 18919.11453185
0.16000001 519088.74506660 17550.39129912
0.16100001 512717.41947187 14950.84065754
0.16200001 506412.24716685 24763.56005545
0.16300001 500174.37555311 13534.71924141
0.16400001 494003.96474533 17117.23818652
0.16500001 487900.30502638 14578.46180246
0.16600001 481864.42868302 14484.84541009
0.16700001 475893.28936898 14391.01374999
0.16800001 469988.23071312 13105.62243224
0.16900001 464151.13620270 15386.61089165
0.17000001 458378.08576630 16460.35783712
0.17100001 452670.27464330 12846.78300102
0.17200001 447027.91513375 13920.44993463
0.17300001 441450.08385339 11521.84773269
0.17400001 435936.35421265 17164.99475776
0.17500001 430486.28717689 14774.29007366
0.17600001 425098.03776352 14672.25946637
0.17700001 419774.56240113 15691.17388366
0.17800001 414511.84403775 13355.57224571
0.17900001 409311.76027112 16577.12707398
0.18000001 404173.21350941 17557.28522417
0.18100001 399097.08667802 13074.42117716
0.18200001 394078.58967385 15144.44091656
0.18300001 389121.27455135 20405.52060142
0.18400001 384222.72941035 13860.83561827
0.18500001 379384.64411948 10584.83207098
0.18600001 374603.26861936 10507.62218119
0.18700001 369879.56135014 15645.90618430
0.18800001 365212.86812586 11389.16383060
0.18900001 360604.60376281 12332.67803138
0.19000001 356048.69549645 11220.87516874
0.19100001 351552.43669180 13162.12385165
0.19200001 347107.91257813 15073.16181593
0.19300001 342720.02177788 12965.09903649
0.19400001 338383.62178690 12867.03782646
0.19500001 334101.61605058 9822.58797605
0.19600001 329871.56791380 12672.01688024
0.19700001 325692.91654423 9673.08007849
0.19800001 321566.16024333 16317.87557271
0.19900001 317490.01927417 10477.17113120
0.20000001 313462.99463671 12286.18265544
0.20100001 309486.58281449 15941.65463421
0.20200001 305557.37628564 11165.06705718
0.20300001 301677.99146201 11077.61637006
0.20400001 297845.32019941 10990.49283483
0.20500001 294059.38509011 9995.07897165
0.20600001 290319.87529802 9915.87580951
0.20700001 286626.44157595 9837.01993987
0.20800001 282976.92814521 10645.59254004
0.20900001 279374.30751965 10560.34932344
0.21000001 275813.47125619 12221.29548909
0.21100001 272296.59904443 12122.64516254
0.21200001 268822.15366743 12883.30232356
0.21300001 265389.07450140 9370.88866366
0.21400001 261998.41546574 11829.22901752
0.21500001 258649.43985021 10894.31492155
0.21600001 255339.76351145 11635.83357334
0.21700001 252070.18926046 10715.50425209
0.21800001 248839.92078199 11444.14849785
0.21900001 245647.28696715 9727.63302384
0.22000001 242492.49868685 10450.21472502
0.22100001 239376.95728750 8768.37836004
0.22200001 236298.33219071 7904.17958552
0.22300001 233254.66116857 12539.77117737
0.22400001 230246.55550563 13210.39674681
0.22500001 227276.36517578 7704.66914379
0.22600001 224338.65967233 7638.73172306
0.22700001 221437.41321624 8330.47587914
0.22800001 218568.80218608 10510.97419419
0.22900001 215732.79504850 9675.61631549
0.23000001 212930.80516523 10329.27384706
0.23100001 210161.80005978 9507.72028435
0.23200001 207423.16891053 9424.27212516
0.23300001 204716.52349472 10778.32547175
0.23400001 202041.65076098 8546.36223139
0.23500001 199395.40688763 7058.59773767
0.23600001 196781.02039893 9793.79184847
0.23700001 194195.62859953 7626.06269580
0.23800001 191639.64803243 9618.39438969
0.23900001 189112.16463197 8169.64589852
0.24000001 186612.88287561 8095.26724205
0.24100001 184142.95218424 8021.26737656
0.24200001 181699.87494118 7947.55290586
0.24300001 179284.32206407 13123.61299587
0.24400001 176895.14864038 7801.07642406
0.24500001 174532.53678784 8372.32618576
0.24600001 172196.45540860 6379.87897469
0.24700001 169886.21505329 8215.69774863
0.24800001 167601.29543429 6885.89954867
0.24900001 165340.73668664 8680.38908670
0.25000001 163106.08249337 8597.32201495
0.25100001 160894.56103989 9730.90351205
0.25200001 158708.96298026 6625.30597305
0.25300001 156546.94540722 7157.32668263
0.25400001 154408.04651970 6496.71886468
0.25500001 152292.14042116 7017.62216262
0.25600001 150199.86728565 6948.24618937
0.25700001 148129.64002924 6305.87907440
0.25800001 146082.51029695 6810.36695227
0.25900001 144057.62117474 7865.54648830
0.26000001 142054.49845917 5561.43387782
0.26100001 140072.53374454 6605.82100395
0.26200001 138113.08977721 5993.41781447
0.26300001 136173.97977465 7010.23681051
0.26400001 134256.18651181 11207.03569937
0.26500001 132359.59037268 7393.60706807
0.26600001 130482.66104961 6793.58006902
0.26700001 128627.22169658 6204.97746826
0.26800001 126792.26564982 5116.06816107
0.26900001 124975.85198918 5061.52224508
0.27000001 123180.36152831 6008.73831970
0.27100001 121403.95654431 6439.26615983
0.27200001 119648.34791034 4899.60007879
0.27300001 117911.11684911 5815.37655821
0.27400001 116191.13956416 5272.17320723
0.27500001 114493.01927413 4740.01122227
0.27600001 112811.28821958 5156.04017209
0.27700001 111149.90057515 5098.44618067
0.27800001 109505.93582021 7332.51780955
0.27900001 107881.56666962 6343.43642039
0.28000001 106273.89053399 5375.33363762
0.28100001 104685.00863763 5313.81128994
0.28200001 103114.71422094 4814.94180844
0.28300001 101561.52192304 6057.12945418
0.28400001 100025.94613582 5986.55315958
0.28500001 98508.24256424  6761.60608965
0.28600001 97007.91960211  4593.81025019
0.28700001 95524.76482812  5364.67104667
0.28800001 94058.16747425  5300.64827891
0.28900001 92610.48012606  5639.97850664
0.29000001 91178.14434659  3979.92618912
0.29100001 89763.64701769  4324.81271803
0.29200001 88365.77125922  4660.41099681
0.29300001 86984.53270411  5754.02711075
0.29400001 85619.15078315  4167.51236165
0.29500001 84271.45127439  4489.98313644
0.29600001 82939.47924756  4064.44937293
0.29700001 81623.82518219  4013.44367420
0.29800001 80324.28783213  4683.30782375
0.29900001 79041.48010571  3912.55345045
0.30000001 77773.87310504  4213.78864431
0.30100001 76523.35728649  3813.15907410
0.30200001 75286.91505231  4448.32758645
0.30300001 74067.74149088  3715.23808907
0.30400001 72864.08923953  4000.23868863
0.30500001 71675.80886635  3618.91176099
0.30600001 70502.02529364  4545.26578587
0.30700001 69344.98783374  4485.23402543
0.30800001 68202.79663447  4109.55970577
0.30900001 67075.91040962  3742.83597806
0.31000001 65964.44818913  3692.68998446
0.31100001 64867.18782530  3642.94144074
0.31200001 63785.62169111  3893.15560424
0.31300001 62718.35839330  3544.84178422
0.31400001 61667.26713919  3787.91206337
0.31500001 60629.60641575  2873.84348017
0.31600002 59607.27199298  4534.92146794
0.31700002 58599.34820487  4751.82137092
0.31800002 57605.94868908  3032.08925281
0.31900002 56627.07316216  2718.09964048
0.32000002 55662.70890803  3752.22338516
0.32100002 54711.96967353  2906.84708639
0.32200002 53776.57458463  2605.47516200
0.32300002 52853.56504711  3339.28839779
0.32400002 51945.25572101  2532.33133631
0.32500002 51050.72465734  2496.38055395
0.32600002 50170.44239298  2460.86031590
0.32700002 49303.31677331  3153.44029014
0.32800002 48450.49419947  3347.44480275
0.32900002 47610.54457734  2592.39427500
0.33000002 46784.98304942  3252.02432576
0.33100002 45970.25750151  2976.11461158
0.33200002 45171.96348833  3158.87555633
0.33300002 44385.28958907  2223.70311372
0.33400002 43612.19313770  2629.81537074
0.33500002 42850.95728207  2375.65718422
0.33600002 42103.75132271  2341.17920317
0.33700002 41368.30670418  2097.37324923
0.33800002 40646.42155147  3100.30595066
0.33900002 39936.25541324  2240.42403478
0.34000002 39239.01645473  2007.07578671
0.34100002 38553.84921625  2175.59381431
0.34200002 37881.56793445  2143.90743878
0.34300002 37220.37161703  2880.85689959
0.34400002 36572.53621573  3028.20614208
0.34500002 35935.71066949  2238.07616649
0.34600002 35311.71520723  2573.16480902
0.34700002 34697.77069100  2173.46845902
0.34800002 34097.00376282  1963.47605467
0.34900002 33506.97628242  1935.02797196
0.35000002 32928.45182996  1733.68307096
0.35100002 32361.90884372  2050.45064145
0.35200002 31805.05369046  2189.30097447
0.35300002 31259.92051746  2157.87241552
0.35400002 30725.96526292  2617.85236439
0.35500002 30202.84630338  1612.83206899
0.35600002 29689.53699858  1748.86225974
0.35700002 29187.35554441  1724.09717367
0.35800002 28696.20046044  2008.87760838
0.35900002 28215.09719566  1828.33838488
0.36000002 27744.45675478  2103.30736620
0.36100002 27283.24450142  1481.48024660
0.36200002 26833.18160875  1607.17348858
0.36300002 26391.98586595  2017.40349515
0.36400002 25960.59717384  2132.01414389
0.36500002 25538.73813736  2103.11518523
0.36600002 25126.80660773  1659.87692313
0.36700002 24723.72246700  1364.74954482
0.36800002 24331.44279363  1481.41996466
0.36900002 23947.18899925  1727.78976814
0.37000002 23571.68578793  1705.29368911
0.37100002 23205.08395772  2071.74999388
0.37200002 22848.14812913  1406.18934322
0.37300002 22499.33995123  1640.87694037
0.37400002 22159.02154115  2243.60103732
0.37500002 21827.70348007  1354.19078805
0.37600002 21504.62969863  1459.30424048
0.37700002 21189.36834181  1441.72469027
0.37800002 20882.17562924  1305.86691484
0.37900002 20583.51319320  1407.91236911
0.38000002 20292.66599742  1855.56146671
0.38100002 20008.49779264  1261.13567561
0.38200002 19733.04754828  1927.22818010
0.38300002 19464.36084485  1681.72085666
0.38400002 19203.97748327  1330.83570264
0.38500002 18949.54768726  1645.76829461
0.38600002 18703.55143113  1194.31533322
0.38700002 18463.82588074  1182.05418888
0.38800002 18231.13082151  1595.67980075
0.38900002 18004.81592479  1369.26631595
0.39000002 17786.21287490  1356.10986489
0.39100002 17573.13289763  1136.63028967
0.39200002 17367.08375862  1433.30549050
0.39300002 17167.01553891  1724.77013291
0.39400002 16974.47285684  1508.60634662
0.39500002 16786.78649099  1196.56219777
0.39600002 16605.25288067  1087.72714148
0.39700002 16429.55058198  1373.18190270
0.39800002 16259.87790485  1362.41523420
0.39900002 16095.62641248  1062.31139355
0.40000002 15936.81742419  958.59961348
0.40100002 15783.82496852  951.76469070
0.40200002 15636.38813230  945.21970738
0.40300002 15493.44813316  1502.24480217
0.40400002 15356.22064297  1026.17949309
0.40500002 15224.00105597  1205.28422071
0.40600002 15096.66717650  921.65157479
0.40700002 14974.05640719  1649.54213197
0.40800002 14856.42654817  1184.87435549
0.40900002 14743.10255979  997.37093543
0.41000002 14634.75581207  1172.90256013
0.41100002 14530.60201741  1167.38862139
0.41200002 14430.45548215  983.36343543
0.41300002 14335.25426854  1068.26319871
0.41400002 14243.70631099  1330.00613981
0.41500002 14156.54804248  971.70550368
0.41600002 14072.63938636  880.24363533
0.41700002 13993.00854302  877.36167722
0.41800002 13918.11428330  1312.13028623
0.41900002 13844.96908245  1308.34964029
0.42000002 13776.70460677  1652.99798057
0.42100002 13712.13166783  1041.57357084
0.42200002 13650.98585442  1126.00162156
0.42300002 13592.67555292  1037.39304736
0.42400002 13537.48499061  1035.61765086
0.42500002 13485.98135430  861.75424938
0.42600002 13436.63586134  1204.86319478
0.42700002 13391.63792256  1117.66615398
0.42800002 13348.46965330  944.87146918
0.42900002 13309.50028549  944.30909000
0.43000002 13272.56451215  1201.29987092
0.43100002 13237.44057401  1286.67928477
0.43200002 13206.08883701  943.50906167
0.43300002 13177.08947106  1200.95999130
0.43400002 13150.55019189  1115.49547289
0.43500002 13126.17881745  944.29734888
0.43600002 13104.58199972  1374.40862526
0.43700002 13084.73928456  1203.53437643
0.43800002 13066.96015814  946.50530391
0.43900002 13052.09964931  1292.15792652
0.44000002 13038.72871900  948.76314020
0.44100002 13027.71647649  1036.48517199
0.44200002 13018.50655562  951.58778178
0.44300002 13011.22473825  1039.85713036
0.44400002 13006.10613434  1215.42067585
0.44500002 13001.55110384  1130.74495309
0.44600002 12999.09235556  958.74810212
0.44700002 12999.28644798  960.90729977
0.44800002 12999.43437731  1138.16553084
0.44900002 13002.86342474  965.46265504
0.45000002 13007.06101969  1231.89880756
0.45100002 13012.38816994  882.23995973
0.45200002 13019.28012549  1238.52417703
0.45300002 13027.18574776  975.86653061
0.45400002 13036.74656134  1067.70959398
0.45500002 13047.45531239  892.44598566
0.45600002 13059.17563794  1163.76849213
0.45700002 13072.03218598  898.04865374
0.45800002 13085.57465724  900.94185785
0.45900002 13100.30385147  903.92100859
0.46000002 13116.73276988  1179.12874823
0.46100002 13132.83089719  1183.13679160
0.46200002 13150.83877797  1187.32353534
0.46300002 13169.56172344  1191.58200121
0.46400002 13188.27767669  1011.87065270
0.46500002 13208.38921664  1107.91974000
0.46600002 13228.91262939  926.68537361
0.46700002 13249.85978684  1116.16824134
0.46800002 13272.38571382  1027.08361714
0.46900002 13294.37004094  1218.42907200
0.47000002 13317.32727050  1034.95613788
0.47100002 13340.79111596  1416.79208367
0.47200002 13364.98468752  948.24570852
0.47300002 13389.62605064  1237.60319452
0.47400002 13413.91835136  1242.46424618
0.47500002 13439.07979787  1247.41544596
0.47600002 13465.04607056  1445.13613802
0.47700002 13490.40663698  1354.16708240
