# SAXS profile: number of points = 501, q_min = 0, q_max = 0.5, delta_q = 0.001
#    q    intensity    error
0.00000000 1682732.95097188 328.13292544
0.00100000 1682646.35657978 555.27331086
0.00200000 1682386.54258769 908.48876176
0.00300000 1681953.72219436 1110.08949619
0.00400000 1681347.77607764 1513.21305597
0.00500000 1680569.35398764 2420.01996553
0.00600000 1679618.30360618 3703.55851023
0.00700000 1678495.35704391 3021.29176824
0.00800000 1677200.28163775 2717.06457097
0.00900000 1675734.55990033 3267.68253149
0.01000000 1674097.46875233 3867.16531980
0.01100000 1672290.64709091 3913.16028457
0.01200000 1670314.03151040 4885.66875637
0.01300000 1668168.84430407 3853.47020030
0.01400000 1665855.39066507 4872.62723370
0.01500000 1663375.10375192 5588.94059748
0.01600000 1660727.73339144 5505.31268230
0.01700000 1657915.36717979 4476.37169219
0.01800000 1654938.62952885 7074.86295959
0.01900000 1651798.39501630 6442.01403124
0.02000000 1648495.46060807 6750.58921656
0.02100000 1645032.54986373 6514.32919281
0.02200000 1641408.39915718 8494.28885155
0.02300000 1637625.88045716 7074.54412560
0.02400000 1633685.74408598 7964.21836557
0.02500000 1629590.41433327 6990.94319677
0.02600000 1625340.17685861 9873.94202603
0.02700000 1620937.02460874 7488.72939668
0.02800000 1616381.25826828 8437.51055510
0.02900000 1611676.53873952 7977.79923305
0.03000000 1606823.17904920 7471.72812602
0.03100000 1601822.93770597 9995.37559120
0.03200000 1596677.07505380 9484.26226265
0.03300000 1591389.69437223 10550.91416009
0.03400000 1585959.30531461 8326.28673708
0.03500000 1580389.71568703 10240.92583056
0.03600000 1574681.86436284 11361.33017643
0.03700000 1568838.72368105 14307.80982167
0.03800000 1562861.69152950 12799.83784600
0.03900000 1556753.49613382 10274.57355030
0.04000000 1550513.98066936 13349.92599219
0.04100000 1544147.30357998 13619.37984906
0.04200000 1537655.15257692 11901.45143309
0.04300000 1531039.07644816 10104.85837360
0.04400000 1524301.99709832 13375.75064573
0.04500000 1517446.41532891 13611.49497796
0.04600000 1510472.70763774 14908.36631743
0.04700000 1503384.81720314 11906.80830601
0.04800000 1496184.77688549 14296.04620831
0.04900000 1488874.76370418 15633.18574658
0.05000000 1481456.77814380 12466.45936859
0.05100000 1473934.79033395 14945.69947022
0.05200000 1466307.76958309 12822.86204257
0.05300000 1458581.46482511 16540.31458219
0.05400000 1450756.46627002 16756.23796683
0.05500000 1442836.66192389 15755.77708320
0.05600000 1434822.79692264 13494.50903477
0.05700000 1426719.76748043 13653.70881212
0.05800000 1418527.10974275 13809.36205814
0.05900000 1410248.45062402 20307.57863747
0.06000000 1401887.68873680 19240.90942682
0.06100000 1393446.33944678 15550.86187494
0.06200000 1384926.87118947 18322.58336230
0.06300000 1376332.78448087 14534.07488366
0.06400000 1367663.59893513 14668.19278456
0.06500000 1358925.29003095 16144.03320075
0.06600000 1350119.44362186 14925.57114759
0.06700000 1341247.08377837 17784.93716322
0.06800000 1332312.73011653 15168.38114239
0.06900000 1323319.60786809 16673.82783979
0.07000000 1314267.35054229 19595.72711422
0.07100000 1305160.19731865 15505.30387038
0.07200000 1296000.58443717 21286.81059660
0.07300000 1286791.70787105 17140.06635195
0.07400000 1277536.33775900 17246.74136800
0.07500000 1268235.00904027 24578.39562725
0.07600000 1258891.18403263 17448.23262868
0.07700000 1249508.63597120 16081.17689897
0.07800000 1240088.42766915 14695.04855702
0.07900000 1230632.88129767 19197.87384870
0.08000000 1221146.62767395 20771.70511116
0.08100000 1211631.02218263 20864.28718090
0.08200000 1202086.84945510 19455.77657140
0.08300000 1192517.86917984 18030.87102822
0.08400000 1182927.26213810 16590.55563023
0.08500000 1173316.63217399 19676.52084528
0.08600000 1163688.64010329 16704.75121300
0.08700000 1154045.37498512 18280.07959815
0.08800000 1144388.75366465 16805.34963681
0.08900000 1134721.93956258 15318.74690361
0.09000000 1125047.26637373 21499.65427036
0.09100000 1115366.79148601 20009.68117934
0.09200000 1105681.63341441 18509.11141304
0.09300000 1095996.87454442 16998.91232300
0.09400000 1086310.83977034 17027.92321367
0.09500000 1076627.88072583 26355.85175896
0.09600000 1066949.65209466 18628.94180128
0.09700000 1057280.94915205 26421.45216146
0.09800000 1047620.46523468 23335.74696030
0.09900000 1037972.39282181 24911.33859912
0.10000000 1028335.80766301 23368.93232812
0.10100000 1018715.15653673 17144.97689087
0.10200000 1009112.02943852 20268.01606461
0.10300000 999527.61923174 20270.42107156
0.10400000 989965.04814826 23387.92536279
0.10500000 980426.82372889 15588.78723073
0.10600001 970910.25329407 18699.73235833
0.10700001 961422.92871499 18690.06261373
0.10800001 951962.00761261 23346.86933544
0.10900001 942532.42490501 17106.96431718
0.11000001 933134.73697307 17090.36351210
0.11100001 923769.48446272 23278.99210428
0.11200001 914440.12973189 23249.64139296
0.11300001 905146.44098362 21669.20681735
0.11400001 895891.18173040 20090.36069625
0.11500001 886676.21997334 16970.98364942
0.11600001 877502.01301165 15400.16105357
0.11700001 868370.62404910 16907.17684648
0.11800001 859282.17586659 21473.46258627
0.11900001 850238.47711816 16834.72263988
0.12000001 841241.06747158 21375.93653136
0.12100001 832292.77012452 21323.34177509
0.12200001 823392.61821899 19749.07287839
0.12300001 814543.28174690 21210.70805602
0.12400001 805744.40003198 21150.79149741
0.12500001 796997.13676209 18075.89591351
0.12600001 788305.26280158 16518.93756044
0.12700001 779666.90693553 17963.52638235
0.12800001 771083.72150764 16412.51778580
0.12900001 762557.29923123 22304.80205379
0.13000001 754088.18186827 19263.18351379
0.13100001 745676.30360184 19193.70895946
0.13200001 737323.42674639 16180.56336271
0.13300001 729031.57898464 19049.59605692
0.13400001 720799.07246046 18975.03647711
0.13500001 712628.72582086 17445.15203060
0.13600001 704519.09696857 17373.44175042
0.13700001 696473.17298050 14416.99536050
0.13800001 688488.98126204 21532.49390435
0.13900001 680569.70660992 15721.16096407
0.14000001 672714.54306921 17073.49590829
0.14100001 664923.76968559 19828.02774717
0.14200001 657197.93465884 16916.27563598
0.14300001 649538.91938276 26657.07850882
0.14400001 641943.47615341 13962.27126494
0.14500001 634416.22448489 16672.45916594
0.14600001 626955.10854353 15206.79687509
0.14700001 619562.69691021 16505.15102434
0.14800001 612234.63033735 25998.54480385
0.14900001 604975.38301864 16334.33611217
0.15000001 597783.26062889 16247.74979051
0.15100001 590659.31879320 14813.73641432
0.15200001 583603.64167177 17411.81547089
0.15300001 576617.05530053 15983.82552719
0.15400001 569695.85514787 14569.97218298
0.15500001 562844.83284125 21072.91153607
0.15600001 556059.42301897 14404.72003314
0.15700001 549345.74731959 14321.44430855
0.15800001 542696.42320120 15531.97236511
0.15900001 536117.45366811 15440.18339443
0.16000001 529604.11973199 16626.92212382
0.16100001 523161.52289673 15255.39072779
0.16200001 516785.35291550 16426.02321783
0.16300001 510476.44190714 16325.03738286
0.16400001 504235.09230436 16223.76486081
0.16500001 498060.36540046 12401.70368397
0.16600001 491953.54837808 18485.15545305
0.16700001 485911.69904385 14693.97047286
0.16800001 479935.84280329 12166.37418952
0.16900001 474028.16780702 13296.49073482
0.17000001 468184.54039870 12008.93402828
0.17100001 462406.18514569 21474.14425220
0.17200001 456693.33836113 14221.43122814
0.17300001 451045.23042990 16481.19349822
0.17400001 445461.46567241 14032.03683136
0.17500001 439941.24884984 12775.89446997
0.17600001 434482.94369570 13842.62723992
0.17700001 429089.65376923 14893.70258577
0.17800001 423757.20249947 12515.66956696
0.17900001 418487.64396316 12429.08361278
0.18000001 413279.49106441 13464.64645488
0.18100001 408134.00307924 13370.47057245
0.18200001 403046.37372779 12169.98582960
0.18300001 398020.12600763 10985.35599675
0.18400001 393052.66908598 11997.93329064
0.18500001 388145.90444178 16243.90686828
0.18600001 383295.98451729 11826.59816101
0.18700001 378503.88272333 16010.71499562
0.18800001 373768.97830358 12715.62124265
0.18900001 369092.78010509 11571.05920300
0.19000001 364468.78957017 14618.84384038
0.19100001 359904.91005166 11401.78808917
0.19200001 355393.02701961 16461.80578939
0.19300001 350937.69317454 11233.51608933
0.19400001 346534.30033979 11149.74164030
0.19500001 342185.27795004 13078.32194127
0.19600001 337888.53166632 10983.06724083
0.19700001 333643.45598959 12881.97444453
0.19800001 329450.37023682 14751.14102447
0.19900001 325308.25487366 14638.87216115
0.20000001 321215.27759935 12590.03340053
0.20100001 317173.19199058 11532.41780583
0.20200001 313178.60987636 9536.28912145
0.20300001 309233.96721040 12301.32779705
0.20400001 305336.42946908 15961.46260493
0.20500001 301485.84364240 13973.86951333
0.20600001 297681.71668198 18486.03547975
0.20700001 293924.14816284 11921.56401301
0.20800001 290210.50189182 9098.09966438
0.20900001 286544.30817394 10831.37536099
0.21000001 282919.87980748 10745.29754304
0.21100001 279339.74848092 9771.30486379
0.21200001 275802.30034003 9693.07230369
0.21300001 272306.45282365 13985.66007820
0.21400001 268853.25527514 9537.56968179
0.21500001 265442.16661071 11180.42458623
0.21600001 262070.50407220 9383.43484194
0.21700001 258739.23293899 10999.00531226
0.21800001 255447.55018118 13426.32387233
0.21900001 252193.83980593 9986.87652851
0.22000001 248978.17481528 14031.16570514
0.22100001 245802.09535450 9822.25219480
0.22200001 242663.08724335 11363.91291294
0.22300001 239559.50643611 9659.03975624
0.22400001 236491.62125766 11174.22963281
0.22500001 233462.01794516 8705.79906085
0.22600001 230465.16121023 9416.80693235
0.22700001 227505.17611823 9336.81286942
0.22800001 224577.89279170 8485.67608042
0.22900001 221683.63249120 8412.89425089
0.23000001 218823.75699593 8340.46789234
0.23100001 215997.10705732 7516.69968108
0.23200001 213201.02748842 9686.78914206
0.23300001 210437.36857118 7386.35198618
0.23400001 207705.71667044 9518.11491659
0.23500001 205003.02612596 8708.52896171
0.23600001 202332.56293117 11508.67672385
0.23700001 199691.27853095 9267.67267496
0.23800001 197079.80881888 8478.37377640
0.23900001 194497.11549688 9802.65508470
0.24000001 191942.92000727 8326.48426376
0.24100001 189418.43679898 8251.06749725
0.24200001 186921.11647414 6813.27501776
0.24300001 184451.45888004 9451.29320009
0.24400001 182008.74984052 8026.58624765
0.24500001 179592.90881067 7952.37437832
0.24600001 177203.64560216 6565.39538014
0.24700001 174840.77046204 8455.30005953
0.24800001 172503.64083086 7087.31241881
0.24900001 170191.04528628 10211.46320026
0.25000001 167904.73604216 10114.58177768
0.25100001 165641.79146548 8139.63801769
0.25200001 163405.16196968 10542.08452322
0.25300001 161192.42181127 6141.43156156
0.25400001 159003.10578779 6081.86908412
0.25500001 156837.10054839 6022.54494600
0.25600001 154695.02492131 5963.49349287
0.25700001 152575.53433399 6495.14080390
0.25800001 150479.25177939 7015.34304988
0.25900001 148405.62476500 9260.51142349
0.26000001 146354.13320269 6875.71750319
0.26100001 144324.04371131 7940.70926072
0.26200001 142316.82876593 8421.59874071
0.26300001 140330.21511077 8335.61517200
0.26400001 138365.44684622 6050.02944963
0.26500001 136422.14937790 6531.89282130
0.26600001 134498.76425004 5925.34333942
0.26700001 132597.16290210 5330.40620090
0.26800001 130716.50863405 5801.85251027
0.26900001 128854.55277387 6262.33156115
0.27000001 127014.00543096 5163.11956510
0.27100001 125192.85003568 6129.44222781
0.27200001 123392.86500591 5052.93806111
0.27300001 121611.51086895 5997.87999990
0.27400001 119847.74981303 7415.57987062
0.27500001 118106.24690135 6356.47850905
0.27600001 116381.34908072 6769.90339642
0.27700001 114677.27755726 6216.65551059
0.27800001 112990.88335650 6620.13616917
0.27900001 111324.27606057 6078.30576058
0.28000001 109674.83772754 6471.91248061
0.28100001 108044.55594683 6398.39890600
0.28200001 106433.12033638 6325.32064097
0.28300001 104839.13908698 5359.37704379
0.28400001 103263.11581632 7946.09713816
0.28500001 101705.28429369 4799.47259298
0.28600001 100165.12868547 4743.31989341
0.28700001 98642.47318413  5113.62605191
0.28800001 97136.65395440  5053.04897788
0.28900001 95650.27148469  4576.86570718
0.29000001 94179.37480635  5344.20887635
0.29100001 92726.67775959  4061.42867812
0.29200001 91290.93846024  5215.90801582
0.29300001 89872.20951411  5152.37401534
0.29400001 88469.64534137  5872.17298750
0.29500001 87085.07157943  3866.57736116
0.29600001 85716.49960634  4964.27130970
0.29700001 84364.60074400  4148.20761495
0.29800001 83029.07403010  4096.23956119
0.29900001 81710.75112932  4780.07916735
0.30000001 80407.81039345  5808.66049780
0.30100001 79122.27963124  3584.23943697
0.30200001 77851.27985746  4246.00900443
0.30300001 76597.75694776  4890.00103504
0.30400001 75360.01978874  4137.26528227
0.30500001 74137.93708912  3743.22462084
0.30600001 72930.82074497  4701.85023603
0.30700001 71740.65949743  3977.30235084
0.30800001 70565.68488158  4251.93554384
0.30900001 69406.29660707  4841.08941754
0.31000001 68262.71680269  5095.12942338
0.31100001 67133.58199202  4712.77767897
0.31200001 66020.39846174  5269.41835271
0.31300001 64922.00197149  3363.60908140
0.31400001 63839.89615366  3016.43523608
0.31500001 62771.56496144  2975.37232005
0.31600002 61718.84589895  2934.73126145
0.31700002 60680.84485177  3473.37172377
0.31800002 59657.72958398  3140.08474533
0.31900002 58649.41814307  2815.17220416
0.32000002 57655.84000726  3608.96747614
0.32100002 56676.19744810  4379.93674618
0.32200002 55712.29430435  2699.26078686
0.32300002 54760.88669216  2927.51714118
0.32400002 53824.57867328  3411.13283494
0.32500002 52902.43419403  2845.62207004
0.32600002 51994.66831942  3315.44018238
0.32700002 51100.39266567  3268.38126966
0.32800002 50220.73517693  2726.23273817
0.32900002 49354.17996184  2687.33522618
0.33000002 48502.24718598  2889.76402418
0.33100002 47661.64986768  3797.68044129
0.33200002 46837.52163367  3041.39461131
0.33300002 46025.37976164  2536.45879878
0.33400002 45227.10442636  2727.19452606
0.33500002 44440.96675988  2911.77228000
0.33600002 43669.08344209  2648.96672704
0.33700002 42909.21816570  3915.89543525
0.33800002 42163.39112919  2787.21110259
0.33900002 41429.26035556  2112.89237820
0.34000002 40708.59180326  3123.36685402
0.34100002 40000.01830318  2667.60134697
0.34200002 39304.75201153  2831.12142147
0.34300002 38620.73853308  2789.96228376
0.34400002 37950.49443373  1963.93817996
0.34500002 37291.32990880  1935.42011393
0.34600002 36645.26160353  2098.12455248
0.34700002 36009.60668682  2443.61202550
0.34800002 35387.31276484  1852.52591098
0.34900002 34776.02961260  2190.88996936
0.35000002 34176.58858930  2339.21671678
0.35100002 33589.18671731  2305.56188547
0.35200002 33011.92447365  1922.77963204
0.35300002 32446.56214637  1895.20378473
0.35400002 31892.52479145  2037.93243070
0.35500002 31349.70963337  2176.29694583
0.35600002 30816.91109307  1980.29480064
0.35700002 30295.36798413  1626.86133780
0.35800002 29785.08296211  2085.10483152
0.35900002 29285.22757537  2055.82307317
0.36000002 28796.05157034  1559.30626639
0.36100002 28316.46379873  1845.10086852
0.36200002 27848.28864818  1516.33938872
0.36300002 27389.22775166  1794.54228729
0.36400002 26940.17331479  1769.96947062
0.36500002 26500.87265945  2182.34696688
0.36600002 26071.73304662  1865.82366386
0.36700002 25651.66407955  1699.16630912
0.36800002 25242.65171025  1397.18083835
0.36900002 24841.86026848  2068.08496531
0.37000002 24450.03853391  1496.70917975
0.37100002 24067.32748897  1745.84401875
0.37200002 23694.49394769  1458.27769909
0.37300002 23329.92839700  1439.68994958
0.37400002 22974.18311289  1550.75743358
0.37500002 22627.52316504  1276.19236696
0.37600002 22289.45851038  1638.60962001
0.37700002 21959.32399602  1245.09372956
0.37800002 21637.47971284  1353.09985794
0.37900002 21324.44618144  1215.49348992
0.38000002 21019.34516363  1801.88344951
0.38100002 20721.09948427  1187.31905670
0.38200002 20431.75777826  1408.56544796
0.38300002 20149.45881122  1508.79154726
0.38400002 19875.57626792  1262.59604223
0.38500002 19607.92025411  1135.29863650
0.38600002 19348.93019251  1460.16708615
0.38700002 19096.17061904  1444.81633748
0.38800002 18850.89760438  1319.93991279
0.38900002 18611.98203995  1415.44130120
0.39000002 18381.14195472  1401.47023473
0.39100002 18155.90009514  1281.08037141
0.39200002 17937.88513096  1057.43837857
0.39300002 17725.98005769  1361.88711235
0.39400002 17521.86473150  1245.80464143
0.39500002 17322.74701600  1131.86834365
0.39600002 17129.99811942  1428.12801088
0.39700002 16943.19050961  1112.65937348
0.39800002 16762.62828969  1103.56768574
0.39900002 16587.60511064  995.25635379
0.40000002 16418.26213573  1283.82606853
0.40100002 16254.87089779  1372.23626621
0.40200002 16097.14593677  1654.22328057
0.40300002 15944.14186415  1062.83654702
0.40400002 15796.96536309  1439.49853692
0.40500002 15655.05460618  1239.41073190
0.40600002 15518.02863903  1231.58840129
0.40700002 15386.08922311  1318.28018710
0.40800002 15259.07669007  1029.75883922
0.40900002 15136.64931794  1023.99437488
0.41000002 15019.39740498  1018.54048328
0.41100002 14906.33755646  921.21170464
0.41200002 14797.53934690  1375.06140896
0.41300002 14693.85013842  1368.73220525
0.41400002 14593.89611603  1271.85810678
0.41500002 14498.44917654  1085.64392578
0.41600002 14406.43070775  1441.79565355
0.41700002 14318.90362341  1167.13388965
0.41800002 14236.13759686  1073.68954843
0.41900002 14155.33476327  1159.32197205
0.42000002 14079.51857032  978.03380383
0.42100002 14007.54808399  1152.68118645
0.42200002 13939.12074561  1061.32470386
0.42300002 13873.59906570  1588.24969630
0.42400002 13811.48341365  968.53032028
0.42500002 13753.01878139  1230.34511848
0.42600002 13696.92289550  877.28795303
0.42700002 13645.22709425  876.02362096
0.42800002 13595.69435367  1049.85956774
0.42900002 13550.29254042  873.99391027
0.43000002 13507.06300593  960.55483118
0.43100002 13465.83966175  959.84509657
0.43200002 13428.44824754  872.17775501
0.43300002 13393.52707686  1046.30238483
0.43400002 13361.20507209  1046.18240672
0.43500002 13331.16083972  959.04375626
0.43600002 13304.02999973  872.07920781
0.43700002 13278.71144112  1221.37593623
0.43800002 13255.54026689  960.16510473
0.43900002 13235.48373957  1135.60455867
0.44000002 13217.00267727  1136.59619909
0.44100002 13200.98688889  962.74801943
0.44200002 13186.81394982  1139.14297704
0.44300002 13174.73047275  1052.92450928
0.44400002 13164.86547523  966.63029333
0.44500002 13155.66939767  1056.13718930
0.44600002 13148.70173814  969.78254266
0.44700002 13144.45629809  1324.96125764
0.44800002 13140.30727874  973.49971088
0.44900002 13139.54183912  1064.30293941
0.45000002 13139.59811613  1244.45139656
0.45100002 13140.92100935  1158.24083266
0.45200002 13143.90457783  982.44119423
0.45300002 13147.89550368  1253.52041673
0.45400002 13153.69530023  1795.47949358
0.45500002 13160.71386239  990.21215794
0.45600002 13168.86771653  1444.36147960
0.45700002 13178.26083708  1629.62381235
0.45800002 13188.36388723  998.82078634
0.45900002 13199.68466770  910.77828524
0.46000002 13212.88339705  1461.87348833
0.46100002 13225.77734354  1191.51033735
0.46200002 13240.66457767  1287.38987790
0.46300002 13256.38882209  922.64470575
0.46400002 13272.15688460  1851.46597315
0.46500002 13289.43699980  1021.82485934
0.46600002 13307.07009459  1118.59236517
0.46700002 13325.25940386  1309.60655628
0.46800002 13345.15424874  1126.59797508
0.46900002 13364.58405833  1319.08450908
0.47000002 13385.01371552  1229.34664297
0.47100002 13405.98974176  1044.05853057
0.47200002 13427.80187537  1524.32414114
0.47300002 13450.17756318  956.30767007
0.47400002 13472.21747287  1439.84331066
0.47500002 13495.18903315  1252.62350543
0.47600002 13519.04392632  1644.38898592
0.47700002 13542.37049249  1165.18561240
