# SAXS profile: number of points = 501, q_min = 0, q_max = 0.5, delta_q = 0.001
#    q    intensity    error
0.00000000 1664650.74656090 424.48594037
0.00100000 1664564.65224678 499.36940753
0.00200000 1664306.34034492 823.83166456
0.00300000 1663876.02635467 1397.65591193
0.00400000 1663273.58676512 1746.43733246
0.00500000 1662499.65891903 2244.37462838
0.00600000 1661554.11647505 2442.48465066
0.00700000 1660437.66731973 1992.52528359
0.00800000 1659150.10436901 3359.77910320
0.00900000 1657692.86235820 2486.53939983
0.01000000 1656065.27701686 3279.00939008
0.01100000 1654268.92894471 3573.22104210
0.01200000 1652303.76519355 3866.39098007
0.01300000 1650171.04476170 4158.43121621
0.01400000 1647871.03113731 4078.48098287
0.01500000 1645405.20055258 5133.66445432
0.01600000 1642773.22248588 5026.88628553
0.01700000 1639977.23958620 5313.52649462
0.01800000 1637017.84957698 4665.50108123
0.01900000 1633895.99274969 5882.02583931
0.02000000 1630612.35616184 5136.42915426
0.02100000 1627169.72253063 5906.62636058
0.02200000 1623566.74989309 7281.69720410
0.02300000 1619806.46528314 6414.43389450
0.02400000 1615889.48190614 6059.58583345
0.02500000 1611818.20205601 8800.52778515
0.02600000 1607592.99156711 10417.20306182
0.02700000 1603215.84646224 11446.96166802
0.02800000 1598686.97833576 11126.86187949
0.02900000 1594010.11571227 8607.65502006
0.03000000 1589185.54037874 8128.68441267
0.03100000 1584214.93809200 12166.77128438
0.03200000 1579099.70843917 8598.19830847
0.03300000 1573843.90167550 12039.90640286
0.03400000 1568445.84033318 9881.20925002
0.03500000 1562909.66757145 11815.59763246
0.03600000 1557236.01441749 12963.99041914
0.03700000 1551427.94179315 11496.08158035
0.03800000 1545486.89849428 12657.53828445
0.03900000 1539415.57103712 12007.44201015
0.04000000 1533213.72435619 12258.04429425
0.04100000 1526885.72433273 11543.25661118
0.04200000 1520432.87853798 9806.79252154
0.04300000 1513857.11870154 10990.60319193
0.04400000 1507161.26161030 12208.00678601
0.04500000 1500347.67544779 11387.63938577
0.04600000 1493416.64785931 10528.58785685
0.04700000 1486372.43709545 10701.88204481
0.04800000 1479216.77503288 10872.24380236
0.04900000 1471951.94393553 11039.64009338
0.05000000 1464580.10204698 12324.44213263
0.05100000 1457104.87233653 13638.50224041
0.05200000 1449525.50665317 11523.72831491
0.05300000 1441847.51088599 12846.86192089
0.05400000 1434071.59693683 14197.30947175
0.05500000 1426201.58098671 15574.12199090
0.05600000 1418238.49896196 14551.12767837
0.05700000 1410186.72490839 13495.48758732
0.05800000 1402046.20425783 17371.35328186
0.05900000 1393820.33483538 17562.13703918
0.06000000 1385513.18435366 19016.16934367
0.06100000 1377125.93224898 20491.63482947
0.06200000 1368661.49093571 15520.62203270
0.06300000 1360123.08419167 18280.05510623
0.06400000 1351509.97765091 18448.11205769
0.06500000 1342828.76277766 19941.00806004
0.06600000 1334080.52390909 21452.01582817
0.06700000 1325266.39903568 17573.03327361
0.06800000 1316390.95547442 13624.64702692
0.06900000 1307457.24149564 17846.79218198
0.07000000 1298465.02836228 15211.51851960
0.07100000 1289418.95218589 19496.01547020
0.07200000 1280320.59371909 15421.46227379
0.07300000 1271173.61859410 15521.03061028
0.07400000 1261980.67714213 14197.28328319
0.07500000 1252742.54146133 17137.51877047
0.07600000 1243462.30628248 15798.18934195
0.07700000 1234144.06504988 18771.33210957
0.07800000 1224788.53169092 14513.74478118
0.07900000 1215398.28167757 24794.12610916
0.08000000 1205978.02681693 14652.63371320
0.08100000 1196528.45964801 16189.03081860
0.08200000 1187051.21153146 23646.06124330
0.08300000 1177549.50288556 22255.68664904
0.08400000 1168026.69135825 19360.04331800
0.08500000 1158484.25666889 17933.33713512
0.08600000 1148925.14854914 17992.16867104
0.08700000 1139350.94289298 16543.37646765
0.08800000 1129763.86464063 18098.81796153
0.08900000 1120167.22347703 18146.70987267
0.09000000 1110562.98232763 21222.85958924
0.09100000 1100953.19149768 16712.47023211
0.09200000 1091339.52447597 18269.02449813
0.09300000 1081726.20361629 15252.34018773
0.09400000 1072112.43624136 24444.16469512
0.09500000 1062501.86016525 21420.03850773
0.09600000 1052896.33712454 15319.64242530
0.09700000 1043300.68613130 16870.17288786
0.09800000 1033713.72807381 15350.64958365
0.09900000 1024139.22830783 21506.92480577
0.10000000 1014576.90100352 19982.09300497
0.10100000 1005030.62744069 16914.66625535
0.10200000 995501.93074940 19994.65721958
0.10300000 985992.65349409 19995.93195348
0.10400000 976505.39922648 16917.95683751
0.10500000 967042.78711383 26139.16776552
0.10600001 957601.74786475 18443.41053170
0.10700001 948190.44334804 16896.75449558
0.10800001 938805.93376555 16884.42551338
0.10900001 929452.79127243 16869.56895557
0.11000001 920131.70584827 21448.27107288
0.11100001 910843.34872738 19892.81967263
0.11200001 901591.04989786 16810.16591672
0.11300001 892374.80275465 18311.53181465
0.11400001 883197.02203114 22852.72402106
0.11500001 874059.54181260 18250.36409242
0.11600001 864963.17293357 16698.11483982
0.11700001 855909.75404835 18179.52403215
0.11800001 846899.35912073 16628.86969953
0.11900001 837933.85516572 15082.81010341
0.12000001 829014.68289619 18055.94064400
0.12100001 820144.80090094 21012.11078892
0.12200001 811323.30256342 22453.37345625
0.12300001 802552.50652641 16420.22505716
0.12400001 793832.37944767 14884.35781596
0.12500001 785164.01415093 14839.60056670
0.12600001 776550.75023691 16272.62173804
0.12700001 767991.53198560 19169.06954173
0.12800001 759487.33614585 20574.51290585
0.12900001 751039.68382478 23432.43923975
0.13000001 742649.65353769 14593.06637986
0.13100001 734316.82562980 18901.31598267
0.13200001 726043.11756841 14484.56087830
0.13300001 717830.26940229 15871.22800470
0.13400001 709676.92378440 20119.34173783
0.13500001 701585.49987165 15743.57935940
0.13600001 693555.07791078 17103.06902770
0.13700001 685588.10957847 25545.01416742
0.13800001 677683.00939241 18368.59883577
0.13900001 669842.53905385 15473.36338184
0.14000001 662066.14605823 21004.04947426
0.14100001 654354.09946022 23694.16305894
0.14200001 646707.15041458 15259.05593373
0.14300001 639126.75456168 16566.16625963
0.14400001 631609.98867565 17858.77327220
0.14500001 624161.23103166 20503.69740659
0.14600001 616778.54414536 14959.96429397
0.14700001 609464.46931255 20295.16778556
0.14800001 602214.63069704 17497.34692040
0.14900001 595033.35096048 20082.37654242
0.15000001 587919.23910676 15979.64567289
0.15100001 580873.21681978 18541.47395577
0.15200001 573894.98590848 13170.89054809
0.15300001 566986.01084231 18336.32845591
0.15400001 560142.22974641 14325.63820181
0.15500001 553368.41729415 14243.70373335
0.15600001 546660.14211931 15448.61634539
0.15700001 540023.21099787 19197.82605705
0.15800001 533450.48052231 17811.91238534
0.15900001 526948.34447876 16440.78912375
0.16000001 520511.26952220 15084.41730277
0.16100001 514144.97384193 16241.84049035
0.16200001 507844.59893205 12416.80103004
0.16300001 501611.45427168 16041.53506489
0.16400001 495445.57939642 15940.96226965
0.16500001 489346.26026069 13403.19470132
0.16600001 483314.52097893 16949.84105098
0.16700001 477347.56984258 16840.82305918
0.16800001 471446.47376803 17926.75301147
0.16900001 465613.15369895 14247.76317594
0.17000001 459843.66984502 11794.99068848
0.17100001 454139.23905152 12888.47221289
0.17200001 448500.24951734 12802.44022704
0.17300001 442925.44058023 13872.42545409
0.17400001 437414.73796180 13778.56489650
0.17500001 431967.41344045 11403.94025341
0.17600001 426581.82851212 16988.62212285
0.17700001 421260.88611066 13497.19942847
0.17800001 416000.59004885 13403.53964445
0.17900001 410802.70512123 14419.17563082
0.18000001 405666.09799558 13216.60209698
0.18100001 400591.90228462 17497.85511833
0.18200001 395575.13968721 14116.09952655
0.18300001 390619.42093785 12937.31583261
0.18400001 385722.35329503 12844.55497151
0.18500001 380885.65896340 11689.38142582
0.18600001 376105.43829396 11604.73384681
0.18700001 371382.72278884 12567.59193293
0.18800001 366716.77638276 16634.27376263
0.18900001 362109.46979839 16512.19260297
0.19000001 357553.97912335 13317.09858167
0.19100001 353058.25698541 13218.50176611
0.19200001 348613.94978800 19175.51121416
0.19300001 344226.21346935 11018.68161382
0.19400001 339889.88199130 12924.31337344
0.19500001 335607.82127519 11840.24449410
0.19600001 331377.54346404 11750.64824653
0.19700001 327198.48432413 9717.79544367
0.19800001 323071.13406904 11572.40856925
0.19900001 318994.42414829 13397.76644741
0.20000001 314966.65179881 10445.86950059
0.20100001 310989.26291625 14134.46266757
0.20200001 307059.15205392 10284.94678415
0.20300001 303178.46645466 10204.98766320
0.20400001 299344.69381023 10125.33474671
0.20500001 295557.28950456 12785.80894831
0.20600001 291816.20214156 10873.07220574
0.20700001 288121.21465716 11686.19701889
0.20800001 284469.87190951 14269.00944948
0.20900001 280865.56257808 8847.26563943
0.21000001 277302.61204394 10531.95370330
0.21100001 273783.58354240 9576.95020505
0.21200001 270307.01060729 10363.57127662
0.21300001 266871.44504274 11993.20330721
0.21400001 263478.33601423 12745.76510726
0.21500001 260126.84158149 9270.92107227
0.21600001 256814.44640633 10031.17275089
0.21700001 253542.19178993 13265.32810163
0.21800001 250308.93385037 9044.91375233
0.21900001 247113.39968610 9785.69109025
0.22000001 243955.63474455 8087.12967416
0.22100001 240836.86814335 8821.85489722
0.22200001 237754.87014334 9543.48093881
0.22300001 234707.88310253 9463.42229418
0.22400001 231696.43296866 11729.63247369
0.22500001 228722.53014619 7753.69413861
0.22600001 225781.11045572 7687.84717456
0.22700001 222876.13128183 10671.30967041
0.22800001 220003.69486364 8312.84000354
0.22900001 217163.70434404 8241.36296960
0.23000001 214357.80657990 8170.24818418
0.23100001 211584.71892854 10308.40799371
0.23200001 208841.86783055 8028.92598846
0.23300001 206130.87775565 7958.71356655
0.23400001 203451.65889111 10040.33984114
0.23500001 200800.95061781 9240.86018449
0.23600001 198182.07675825 7749.91047818
0.23700001 195592.11885756 9775.69456287
0.23800001 193031.40174260 9688.24651170
0.23900001 190499.21737820 8915.36379499
0.24000001 187995.11678204 10873.63806900
0.24100001 185520.21439447 8081.26092128
0.24200001 183072.29148329 6672.98534021
0.24300001 180651.58673290 8595.40290334
0.24400001 178257.29411197 7861.14704220
0.24500001 175889.59116380 9086.45670935
0.24600001 173548.13951510 9001.94242249
0.24700001 171232.53170407 7006.83552880
0.24800001 168942.40612944 8202.99891767
0.24900001 166676.43621781 6250.36665386
0.25000001 164436.20048340 6810.12556520
0.25100001 162219.06753786 6745.06914733
0.25200001 160027.94695957 7894.97913676
0.25300001 157860.26752004 6615.92412477
0.25400001 155715.60033676 5956.12199467
0.25500001 153593.89106668 9436.80911361
0.25600001 151495.75455475 6424.17777584
0.25700001 149419.71707459 6939.05198925
0.25800001 147366.50305707 6297.70780611
0.25900001 145335.65435945 6234.89986702
0.26000001 143326.55606595 7855.72890967
0.26100001 141338.32326525 6110.05600386
0.26200001 139372.80080946 6048.08297730
0.26300001 137427.38108200 5986.33700319
0.26400001 135503.45092467 7540.76740077
0.26500001 133600.58455019 7462.92900611
0.26600001 131717.29542127 6330.33351749
0.26700001 129855.39309063 5220.18704926
0.26800001 128013.98852815 5165.36468154
0.26900001 126191.15892443 5621.81639612
0.27000001 124389.15082571 5056.41922035
0.27100001 122606.21150245 5002.33366602
0.27200001 120844.02817401 6433.13214428
0.27300001 119100.16059641 5384.51851538
0.27400001 117373.51917476 7262.48684263
0.27500001 115668.73783196 5267.55457016
0.27600001 113980.08362798 7103.80904831
0.27700001 112312.11156586 6556.78138352
0.27800001 110661.31833393 5094.29403060
0.27900001 109029.95416519 5037.18412083
0.28000001 107415.45808026 5885.83030408
0.28100001 105819.68503694 6714.25933337
0.28200001 104242.37581290 4425.08906270
0.28300001 102682.21612681 6123.96765965
0.28400001 101139.57634047 5188.46051184
0.28500001 99614.88114086  4700.82646353
0.28600001 98107.46438099  5068.23184981
0.28700001 96617.13979367  5843.40489130
0.28800001 95143.37345159  4536.91197779
0.28900001 93688.56335057  6520.72431785
0.29000001 92249.01238489  5234.67045556
0.29100001 90827.31795884  4376.06038640
0.29200001 89422.14815438  3930.10359742
0.29300001 88033.68876664  5046.97161589
0.29400001 86661.02158837  4985.17550285
0.29500001 85305.99535321  4545.10364757
0.29600001 83966.63378350  4114.78508334
0.29700001 82643.62799605  4802.42145019
0.29800001 81336.68141265  3647.95033405
0.29900001 80046.46607922  4682.71848731
0.30000001 78771.33415298  4979.13626752
0.30100001 77513.34590271  3511.35473562
0.30200001 76269.44109927  4506.38014069
0.30300001 75042.70047375  4448.53149468
0.30400001 73831.54549663  4391.13137630
0.30500001 72635.71060873  3667.37720226
0.30600001 71454.31803153  4277.61295147
0.30700001 70289.72545670  3572.12401683
0.30800001 69139.89431642  3525.09767861
0.30900001 68005.30341524  3162.24675852
0.31000001 66886.26622127  4368.34225373
0.31100001 65781.27977458  4309.98965489
0.31200001 64692.10914308  4555.94200211
0.31300001 63617.22547377  3895.28290019
0.31400001 62558.30013465  3547.05578558
0.31500001 61512.90686158  4081.99669261
0.31600002 60482.82087954  4313.93740349
0.31700002 59467.05793075  3120.23667736
0.31800002 58465.91461124  4755.91004924
0.31900002 57479.33953725  3862.61179979
0.32000002 56507.13553468  4081.22805724
0.32100002 55548.45560167  4561.08390542
0.32200002 54605.37664909  3174.75674870
0.32300002 53674.40563921  2608.57623758
0.32400002 52758.32411831  3343.55894932
0.32500002 51855.93253789  3042.90626541
0.32600002 50967.75074731  3499.95560955
0.32700002 50092.69728888  2711.01690565
0.32800002 49232.02526628  3644.40084291
0.32900002 48384.12637619  3353.02011665
0.33000002 47550.61355360  2360.88807473
0.33100002 46728.04228683  3490.58492412
0.33200002 45921.68683786  2523.16720279
0.33300002 45127.12736031  3165.21686294
0.33400002 44346.05237316  2674.06708473
0.33500002 43576.90455864  2635.53131251
0.33600002 42821.67444630  2164.63574577
0.33700002 42078.26568293  2346.70498827
0.33800002 41348.52257153  2733.34421403
0.33900002 40630.28110972  2486.57332167
0.34000002 39925.11115860  3267.47125196
0.34100002 39231.87431413  2012.59524763
0.34200002 38551.68622774  2776.87809049
0.34300002 37882.51113126  2345.68520034
0.34400002 37226.73569758  2504.42876266
0.34500002 36581.86552689  3227.61814830
0.34600002 35949.81640043  2058.30683549
0.34700002 35327.94441590  2212.94254302
0.34800002 34719.19463974  2726.32488821
0.34900002 34121.11021876  1970.49420846
0.35000002 33534.70033383  1942.16226182
0.35100002 32960.07411870  1740.29199589
0.35200002 32395.35154953  1886.86734037
0.35300002 31842.22639991  2028.98676230
0.35400002 31300.25191116  2000.08619185
0.35500002 30769.23781036  2136.00058996
0.35600002 30247.97319503  1781.75694545
0.35700002 29737.91588959  1756.61877480
0.35800002 29238.65290915  1574.50153373
0.35900002 28749.66978533  3104.96448388
0.36000002 28271.22126222  2143.24138541
0.36100002 27802.03274552  1811.58053951
0.36200002 27344.13098750  2084.44320391
0.36300002 26895.02510375  1909.00897229
0.36400002 26455.78653216  2027.83613374
0.36500002 26026.04800795  1571.71311365
0.36600002 25606.31080476  1409.62747657
0.36700002 25195.44337528  1668.94624823
0.36800002 24795.27403462  1784.14402767
0.36900002 24403.34536828  1489.82430531
0.37000002 24020.01050087  1470.38501246
0.37100002 23645.73894336  2111.09167287
0.37200002 23280.99769140  1432.82907079
0.37300002 22924.41299091  1929.08944457
0.37400002 22576.50153783  1777.89958032
0.37500002 22237.50757539  1630.45413266
0.37600002 21906.77144641  1610.47637917
0.37700002 21583.89844930  1590.94923006
0.37800002 21269.16417302  2176.47367293
0.37900002 20962.94898906  1672.84340857
0.38000002 20664.54922990  1299.07694888
0.38100002 20372.85073893  1517.57372344
0.38200002 20089.83178238  1615.82524680
0.38300002 19813.79425816  1141.27460334
0.38400002 19545.94702191  1354.53419279
0.38500002 19284.18899871  1674.83189388
0.38600002 19030.87982333  1878.06246434
0.38700002 18783.72524920  1421.17671968
0.38800002 18543.85020941  1406.64382428
0.38900002 18310.21590460  1071.14768117
0.39000002 18084.42237708  1272.78170720
0.39100002 17864.21487774  1155.45747303
0.39200002 17651.00195779  1144.57927618
0.39300002 17443.77978354  1340.20566426
0.39400002 17244.18347686  1021.71791941
0.39500002 17049.54204235  1012.74284530
0.39600002 16861.09369764  1204.89381272
0.39700002 16678.42830871  1393.98310409
0.39800002 16501.91909390  1481.45985684
0.39900002 16330.79027392  1273.80170172
0.40000002 16165.24265586  1069.57333100
0.40100002 16005.55428225  1351.18895653
0.40200002 15851.34961809  1054.03554279
0.40300002 15701.80544321  1046.68240044
0.40400002 15557.98000735  1039.66206325
0.40500002 15419.20353431  1126.83544768
0.40600002 15285.44774786  1026.49429214
0.40700002 15156.44854747  1113.08963407
0.40800002 15032.34672499  1106.68141833
0.40900002 14912.73167885  1100.55965005
0.41000002 14798.20460458  912.30935710
0.41100002 14687.75361707  907.70321654
0.41200002 14581.48383266  1354.98444935
0.41300002 14480.28279490  989.14816459
0.41400002 14382.66649427  984.85313486
0.41500002 14289.50597411  980.83173654
0.41600002 14199.71154573  1421.10719883
0.41700002 14114.27815611  1150.45486702
0.41800002 14033.54695347  1058.41016138
0.41900002 13954.76419915  1142.89524207
0.42000002 13880.84964061  1139.54840524
0.42100002 13810.65636936  1136.47896649
0.42200002 13744.01890441  1482.49866937
0.42300002 13680.19546748  1566.10885133
0.42400002 13619.67577235  955.07980879
0.42500002 13562.85881521  953.33339130
0.42600002 13508.24985498  951.72378863
0.42700002 13458.07222706  864.00827792
0.42800002 13409.93100778  1121.80783161
0.42900002 13365.85324108  1551.77563482
0.43000002 13323.98719158  1119.81455658
0.43100002 13284.04375850  1032.96729161
0.43200002 13247.88913113  1032.54052781
0.43300002 13214.13621017  1376.38449288
0.43400002 13182.93007173  1204.26071912
0.43500002 13153.98106572  946.29744271
0.43600002 13127.93775049  860.53636032
0.43700002 13103.60068616  946.99726647
0.43800002 13081.48895023  861.41608819
0.43900002 13062.38295469  1206.96424221
0.44000002 13044.82577377  1035.49831899
0.44100002 13029.74494727  950.25934404
0.44200002 13016.42677494  1037.92992022
0.44300002 13005.22403423  1125.99235024
0.44400002 12996.26791593  867.50092450
0.44500002 12987.89586279  1303.33541160
0.44600002 12981.73381784  870.42529374
0.44700002 12978.27118322  959.35385133
0.44800002 12974.99861938  1136.02605796
0.44900002 12974.91006782  875.80647108
0.45000002 12975.76186507  1053.37239813
0.45100002 12977.81745343  1495.82331057
0.45200002 12981.49360467  1058.51103869
0.45300002 12986.27067685  1326.54761251
0.45400002 12992.76200132  1064.10725834
0.45500002 13000.51891627  1067.08264322
0.45600002 13009.41550582  891.79547519
0.45700002 13019.51283851  1162.77274672
0.45800002 13030.33001274  1345.70739584
0.45900002 13042.41335840  899.92656438
0.46000002 13056.26295303  1173.69281379
0.46100002 13069.94311538  1268.04594115
0.46200002 13085.57453313  999.67251384
0.46300002 13101.98657499  1459.03729414
0.46400002 13118.51506279  1189.52140970
0.46500002 13136.53346208  1101.89247902
0.46600002 13154.98700651  1013.65757183
0.46700002 13174.02299720  1109.77974988
0.46800002 13194.64870113  1021.06793813
0.46900002 13214.85647554  1117.97691082
0.47000002 13236.16447535  935.13506451
0.47100002 13257.98593967  1032.53199392
0.47200002 13280.65873487  1224.94161647
0.47300002 13303.88134714  945.90600861
0.47400002 13326.83023870  1234.39770937
0.47500002 13350.68470855  1525.18229339
0.47600002 13375.44881186  1052.71474863
0.47700002 13399.71602991  1345.06355884
