# SAXS profile: number of points = 501, q_min = 0, q_max = 0.5, delta_q = 0.001
#    q    intensity    error
0.00000000 1664650.74656090 249.69761198
0.00100000 1664564.63304494 599.24328213
0.00200000 1664306.27027512 898.72541441
0.00300000 1663875.86190690 1098.15810798
0.00400000 1663273.29938600 1746.43703072
0.00500000 1662499.21349562 2094.74909192
0.00600000 1661553.47669977 2616.94683234
0.00700000 1660436.78694611 1992.52422715
0.00800000 1659148.97469503 2239.85121040
0.00900000 1657691.43522944 2983.84471097
0.01000000 1656063.50299761 4645.25832649
0.01100000 1654266.76748486 3870.98440445
0.01200000 1652301.22396997 3544.18628081
0.01300000 1650168.06600078 3465.35309144
0.01400000 1647867.57590746 4449.24265219
0.01500000 1645401.21901324 4343.85941162
0.01600000 1642768.71431178 4607.96644964
0.01700000 1639972.12663126 7527.47239891
0.01800000 1637012.11452543 6531.67863087
0.01900000 1633889.62200150 6372.16981333
0.02000000 1630605.31268290 6677.32905749
0.02100000 1627161.96018213 6443.56165446
0.02200000 1623558.24886808 10082.29718353
0.02300000 1619797.13741367 6997.52395214
0.02400000 1615879.35987530 10301.23138892
0.02500000 1611807.25427630 7543.25829452
0.02600000 1607581.13192045 9766.05582310
0.02700000 1603203.12467326 8753.48946164
0.02800000 1598673.24997469 8345.07474757
0.02900000 1593995.40749818 7890.27762939
0.03000000 1589169.85356301 10345.49622223
0.03100000 1584198.20139490 9124.98205990
0.03200000 1579081.85676229 9379.74666118
0.03300000 1573824.94553612 8829.15835149
0.03400000 1568425.73856918 8234.23550742
0.03500000 1562888.40901593 12659.39669762
0.03600000 1557213.60125190 9506.78947499
0.03700000 1551404.37168488 11495.90692584
0.03800000 1545461.93962030 9040.95276519
0.03900000 1539389.39723340 10159.97049225
0.04000000 1533186.19782150 11314.91466424
0.04100000 1526856.84593526 12504.95814802
0.04200000 1520402.64129236 12748.57673868
0.04300000 1513825.48621990 10990.37354011
0.04400000 1507128.24779412 11190.42775958
0.04500000 1500313.12428198 13457.80935013
0.04600000 1493380.54834865 16845.33336846
0.04700000 1486334.82519391 12841.93348693
0.04800000 1479177.68607258 10871.95649849
0.04900000 1471911.30138850 14351.13585655
0.05000000 1464537.86054522 15685.20121684
0.05100000 1457060.90150229 14774.59822949
0.05200000 1449480.01154613 14980.37661743
0.05300000 1441800.22805934 12846.44063088
0.05400000 1434022.64896920 15379.89362742
0.05500000 1426150.97429803 15573.56936583
0.05600000 1418186.22155614 15763.14058817
0.05700000 1410132.64667472 13494.97005860
0.05800000 1401990.27479115 17370.66031574
0.05900000 1393762.56569755 13798.25004486
0.06000000 1385453.62452643 17747.66175933
0.06100000 1377064.55175749 15368.04111578
0.06200000 1368598.17044590 16813.22930984
0.06300000 1360057.89947834 13056.55644546
0.06400000 1351442.95154330 13176.56939377
0.06500000 1342759.73487057 18610.65079587
0.06600000 1334009.53496325 13406.79645366
0.06700000 1325193.37687395 14868.67038436
0.06800000 1316316.08111153 14986.25928495
0.06900000 1307380.30897849 15100.24327568
0.07000000 1298386.08323293 13827.81243397
0.07100000 1289337.85790175 15317.33446930
0.07200000 1280237.41960750 16822.32048171
0.07300000 1271088.36471577 18341.80596226
0.07400000 1261893.31879735 17035.56060212
0.07500000 1252653.06930416 14280.24565942
0.07600000 1243370.79795011 17233.12006749
0.07700000 1234050.46128060 15882.23018138
0.07800000 1224692.69215260 17415.13089911
0.07900000 1215300.25262215 16041.96408704
0.08000000 1205877.84146953 14651.41646117
0.08100000 1196426.16335685 17659.25099969
0.08200000 1186946.55420793 17732.98235199
0.08300000 1177442.82535860 20770.09241411
0.08400000 1167917.64898165 14890.95072348
0.08500000 1158372.89611260 14943.01106135
0.08600000 1148811.47396905 16491.18948311
0.08700000 1139235.11186729 19549.27543763
0.08800000 1129645.76509811 21113.08034123
0.08900000 1120046.94840101 18144.76141635
0.09000000 1110440.30149145 21220.51515835
0.09100000 1100828.28687671 24306.28971618
0.09200000 1091212.26898622 22833.61780141
0.09300000 1081596.66730766 16775.56509826
0.09400000 1071980.59485102 16803.29661400
0.09500000 1062367.66752938 15298.09513147
0.09600000 1052759.64174473 22976.48026115
0.09700000 1043161.97501634 18401.37810439
0.09800000 1033572.45379647 19953.11715869
0.09900000 1023995.79288869 19967.91890027
0.10000000 1014430.92328529 19979.21797367
0.10100000 1004882.35819466 23062.05120522
0.10200000 995351.42219807 16915.99821592
0.10300000 985839.70447707 15379.10011329
0.10400000 976350.05446763 16915.26548943
0.10500000 966885.23287948 21522.86629653
0.10600001 957441.86977338 16903.63700623
0.10700001 948028.06384120 16893.86089264
0.10800001 938641.26134919 19950.82094890
0.10900001 929285.82030645 16866.53843240
0.11000001 919962.37255308 19912.58649119
0.11100001 910671.80363694 16829.21572342
0.11200001 901417.00598694 19862.72466200
0.11300001 892198.48418227 18307.91375737
0.11400001 883018.32067385 22848.10012323
0.11500001 873878.48846625 16726.03505684
0.11600001 864779.82549189 16694.57531729
0.11700001 855724.02565469 19690.21075762
0.11800001 846711.35735156 16625.17828462
0.11900001 837743.54696405 21111.13837786
0.12000001 828822.06169405 16547.43324119
0.12100001 819949.96997053 15005.08515732
0.12200001 811126.05869113 14965.27648788
0.12300001 802353.01938680 22385.65029558
0.12400001 793630.71809296 14880.57666538
0.12500001 784959.99548692 16319.31907515
0.12600001 776344.56778993 14789.36471332
0.12700001 767783.01063609 16215.57794882
0.12800001 759276.52442667 16161.20158409
0.12900001 750826.64124603 19033.45625267
0.13000001 742434.43540442 24801.02348368
0.13100001 734099.46291317 14535.17005083
0.13200001 725823.44945540 15928.19634916
0.13300001 717608.47237674 14423.93097476
0.13400001 709453.05914415 20112.99517498
0.13500001 701359.42023975 18600.05270172
0.13600001 693326.88506124 15672.65497579
0.13700001 685357.66372120 25536.42775438
0.13800001 677450.38935220 19774.77779769
0.13900001 669607.98486603 15467.94517985
0.14000001 661829.50435209 19596.77254806
0.14100001 654115.42340990 18112.45692846
0.14200001 646466.38380727 22186.72733871
0.14300001 638883.93699710 15179.88305905
0.14400001 631365.14053725 20598.28868165
0.14500001 623914.49524178 16396.47370841
0.14600001 616529.74749967 17672.82604578
0.14700001 609213.64150726 14876.99782745
0.14800001 601961.89353764 18835.38853742
0.14900001 594778.90884233 18735.53651249
0.15000001 587662.62928243 17303.72693566
0.15100001 580614.74240812 13238.01675154
0.15200001 573634.62410324 17114.38981770
0.15300001 566723.71713127 13091.31848350
0.15400001 559878.07142324 20827.46523981
0.15500001 553102.54028332 15531.12006412
0.15600001 546392.61452120 16727.81068303
0.15700001 539753.84526234 17909.03343105
0.15800001 533179.40754797 17802.86125830
0.15900001 526675.45506437 13904.23266999
0.16000001 520236.56411766 17589.19906307
0.16100001 513868.60029117 17481.81060712
0.16200001 507566.56238891 13651.00333986
0.16300001 501331.83179901 12332.76364446
0.16400001 495164.39631355 13480.85132606
0.16500001 489063.40292408 13395.44723851
0.16600001 483030.07242151 15729.87505106
0.16700001 477061.66906143 16830.73647915
0.16800001 471158.93371776 15527.04339380
0.16900001 465324.05869047 14238.91686826
0.17000001 459553.28066089 15323.80486722
0.17100001 453847.35235875 18734.81959005
0.17200001 448206.92122552 13957.16418606
0.17300001 442630.69728791 18484.25879165
0.17400001 437118.56137142 12621.79905568
0.17500001 431669.88435857 12535.69403380
0.17600001 426282.95668869 12449.59433808
0.17700001 420960.67056345 14611.54556537
0.17800001 415699.17073567 18974.58954444
0.17900001 410500.09801664 13300.20380396
0.18000001 405362.28804149 14307.26263223
0.18100001 400286.72442993 12020.61090244
0.18200001 395268.89456364 11935.14483514
0.18300001 390311.99268577 11849.87265772
0.18400001 385413.79958915 13903.80347700
0.18500001 380576.03846995 12741.68636992
0.18600001 375794.76625325 10541.04369140
0.18700001 371070.91792989 12557.04045600
0.18800001 366403.92378641 10387.55173012
0.18900001 361795.73404568 14435.65047047
0.19000001 357239.21968011 10234.90412742
0.19100001 352742.54505886 10158.98577771
0.19200001 348297.52232266 12099.85649722
0.19300001 343908.73513671 14010.84253152
0.19400001 339571.60014432 15891.95163771
0.19500001 335288.61672000 14786.22869608
0.19600001 331057.64901926 10761.02938990
0.19700001 326877.77926254 10679.09755318
0.19800001 322749.72452703 12524.30365215
0.19900001 318672.35664153 12428.22249638
0.20000001 314643.80045519 12332.46434169
0.20100001 310665.74440414 10354.48975037
0.20200001 306735.11144024 10274.09304328
0.20300001 302853.80001207 10194.05939022
0.20400001 299019.47270147 12872.78890824
0.20500001 295231.49201532 10034.91888792
0.20600001 291489.75393078 10860.90874483
0.20700001 287794.46209494 9877.10640598
0.20800001 284142.53261694 10689.44258234
0.20900001 280537.87314729 8836.94342187
0.21000001 276974.51007507 9642.86802410
0.21100001 273455.07228587 12174.22039368
0.21200001 269978.16588370 10350.96336932
0.21300001 266542.24389358 11978.40900686
0.21400001 263148.84720347 10183.86086823
0.21500001 259797.17700398 10942.65761275
0.21600001 256484.41929525 9183.42506705
0.21700001 253211.95426205 9936.03755501
0.21800001 249978.48545133 8211.79363533
0.21900001 246782.82625806 15473.28393798
0.22000001 243624.93393739 8076.16694189
0.22100001 240506.13294762 8809.74006643
0.22200001 237423.94837463 11118.56402812
0.22300001 234377.00367002 8662.57446526
0.22400001 231365.51315513 9370.30372587
0.22500001 228391.60657990 8516.72341210
0.22600001 225450.22203698 8444.23846571
0.22700001 222545.29521375 9133.25934748
0.22800001 219672.92578351 8300.34189325
0.22900001 216833.08378469 11221.11261651
0.23000001 214027.35620120 9640.86271602
0.23100001 211254.49357163 8086.82239637
0.23200001 208511.87631591 8016.23946408
0.23300001 205801.05740022 10835.42618458
0.23400001 203121.99514771 8592.06080111
0.23500001 200471.67237247 8516.03704516
0.23600001 197853.04310710 7737.04361664
0.23700001 195263.41073714 11153.44654884
0.23800001 192703.07384610 7599.24607656
0.23900001 190171.25907801 8900.01534582
0.24000001 187667.53870380 8141.01821404
0.24100001 185193.09166981 10083.76431840
0.24200001 182745.69642949 7327.18904493
0.24300001 180325.31278150 9899.86014000
0.24400001 177931.53219504 7846.78094098
0.24500001 175564.45572985 9069.66021204
0.24600001 173223.39535510 9626.89065226
0.24700001 170908.37954253 6993.57122172
0.24800001 168618.89860505 9446.87424125
0.24900001 166353.58525578 7485.91169065
0.25000001 164113.95645107 6178.89075269
0.25100001 161897.55943945 7955.64644723
0.25200001 159707.02958776 6666.97026555
0.25300001 157540.12842793 8403.19084790
0.25400001 155396.11511801 7727.07218982
0.25500001 153275.16768132 7062.92006092
0.25600001 151177.82159270 8159.06741739
0.25700001 149102.67414553 5770.27376244
0.25800001 147050.21421031 9140.64174779
0.25900001 145020.20581506 6221.36712383
0.26000001 143012.04668783 7838.49064984
0.26100001 141024.60040716 8313.40058736
0.26200001 139060.01214396 7680.28483412
0.26300001 137115.56477960 5429.77662220
0.26400001 135192.53016775 6448.68399414
0.26500001 133290.63688495 7445.61532871
0.26600001 131408.41079077 5262.90710121
0.26700001 129547.44135437 6249.36886666
0.26800001 127707.14489858 5152.98354050
0.26900001 125885.22538661 5098.35186942
0.27000001 124084.34978110 6557.23777448
0.27100001 122302.49480008 5987.93042878
0.27200001 120541.40608273 5429.78789395
0.27300001 118798.66633616 8788.72575147
0.27400001 117073.14794409 5795.12109748
0.27500001 115369.62186059 7164.45385660
0.27600001 113682.18206181 5668.19386585
0.27700001 112015.35763542 5138.14469791
0.27800001 110365.71676637 6004.44710485
0.27900001 108735.62009909 5023.58588633
0.28000001 107122.35809585 6321.29065041
0.28100001 105527.91278947 4910.21401449
0.28200001 103951.89247169 4854.03384871
0.28300001 102393.05835386 5670.52784002
0.28400001 100851.69925730 4742.55138204
0.28500001 99328.38496704  4687.30670845
0.28600001 97822.23559077  4632.37218566
0.28700001 96333.26547141  4993.91671841
0.28800001 94860.87637555  6168.32877829
0.28900001 93407.54967667  5688.52004457
0.29000001 91969.39025920  4415.91048232
0.29100001 90549.01584135  4362.65178974
0.29200001 89145.38017531  4309.73360858
0.29300001 87758.36419081  4644.17285281
0.29400001 86387.18829117  4587.15991540
0.29500001 85033.61147478  4530.59103384
0.29600001 83695.75607335  4847.23994244
0.29700001 82374.18433324  5523.18932100
0.29800001 81068.79087104  4726.71607549
0.29900001 79780.12607873  5026.14818089
0.30000001 78506.47645162  4962.39461143
0.30100001 77250.07789676  4899.20017214
0.30200001 76007.71961938  4145.46122429
0.30300001 74782.61267006  4092.10475903
0.30400001 73573.02632791  4712.35255939
0.30500001 72378.71515540  3986.61981949
0.30600001 71198.99587249  5245.94226424
0.30700001 70036.02844779  3559.23113422
0.30800001 68887.73472913  3192.94665586
0.30900001 67754.87975336  4095.78267500
0.31000001 66637.49000143  3730.36686689
0.31100001 65534.23245463  3680.40266890
0.31200001 64446.70039987  3025.77272703
0.31300001 63373.54012209  3581.87265729
0.31400001 62316.17285712  3827.77109898
0.31500001 61272.50556068  3775.61197141
0.31600002 60244.17403147  3723.99379408
0.31700002 59230.17768372  3107.80757021
0.31800002 58230.78446489  3622.24611915
0.31900002 57245.91611391  3022.58451393
0.32000002 56275.36692904  3251.59085512
0.32100002 55318.48674824  3206.25964374
0.32200002 54377.18097741  4215.31926897
0.32300002 53448.03352421  4415.87673887
0.32400002 52533.62306156  3585.41994373
0.32500002 51633.06183473  2777.34252760
0.32600002 50746.61948584  3982.59488583
0.32700002 49873.29601802  2699.14290831
0.32800002 49014.50402451  3386.41224341
0.32900002 48168.40631875  2622.76984825
0.33000002 47336.66675083  2820.31873857
0.33100002 46515.92847314  2548.14268242
0.33200002 45711.40599622  3196.59877269
0.33300002 44918.73615602  2475.47166679
0.33400002 44139.39640167  2883.40620649
0.33500002 43372.18294584  2404.55393639
0.33600002 42618.71680568  2369.81386021
0.33700002 41877.18168588  2335.49053322
0.33800002 41149.30005319  2929.41880952
0.33900002 40432.89332779  2062.07765737
0.34000002 39729.67130236  2438.60734003
0.34100002 39038.25840018  2202.92902585
0.34200002 38359.89344943  2565.70159487
0.34300002 37692.62642514  1944.93961565
0.34400002 37038.73529162  2108.43010633
0.34500002 36395.77131723  1888.94062082
0.34600002 35765.55002133  2606.23575349
0.34700002 35145.62766505  2018.06203610
0.34800002 34538.66729506  1988.90925038
0.34900002 33942.52194064  1781.98248628
0.35000002 33358.02014830  2107.55981279
0.35100002 32785.28012161  2596.59430861
0.35200002 32222.44445803  1876.79636635
0.35300002 31671.23219530  1681.74250922
0.35400002 31131.12141988  1657.73229412
0.35500002 30602.01114124  1797.56221958
0.35600002 30082.65916966  1933.11176980
0.35700002 29574.56892901  2223.41619739
0.35800002 29077.14253659  1878.96503971
0.35900002 28590.11576490  2315.79948665
0.36000002 28113.53850450  1674.58300034
0.36100002 27646.31620083  2702.15107346
0.36200002 27190.24058479  1776.61040396
0.36300002 26743.13248990  1606.19261342
0.36400002 26305.80884036  1584.26741245
0.36500002 25878.00906215  2131.05414721
0.36600002 25460.11660537  1541.73743407
0.36700002 25051.21385596  2212.52331256
0.36800002 24652.95337551  1500.99513737
0.36900002 24262.97238681  1750.57354063
0.37000002 23881.55872481  1461.90968659
0.37100002 23509.17153914  1442.99301743
0.37200002 23146.31241845  1683.54711351
0.37300002 22791.64586855  1278.61139379
0.37400002 22445.69011927  1641.34116772
0.37500002 22108.52593865  1371.61301421
0.37600002 21779.81456500  1231.64857200
0.37700002 21458.81389123  1460.05776633
0.37800002 21145.94753506  1322.36189175
0.37900002 20841.66353766  1900.75980468
0.38000002 20545.19621627  1408.98962326
0.38100002 20255.42583697  1508.82674207
0.38200002 19974.29067557  1606.53227514
0.38300002 19700.16894782  1475.14872070
0.38400002 19434.17057179  1459.02042480
0.38500002 19174.41303512  1443.25813753
0.38600002 18922.96133423  1208.32575324
0.38700002 18677.66774869  1413.15240881
0.38800002 18439.73147087  1183.55422053
0.38900002 18207.92019049  1065.16338161
0.39000002 17984.07498709  1265.71925756
0.39100002 17765.83581090  1253.55743421
0.39200002 17554.45481605  1138.31867648
0.39300002 17349.19251132  1127.87105860
0.39400002 17151.40306427  1321.08688361
0.39500002 16958.64698731  1108.07804665
0.39600002 16772.09744927  1697.92336572
0.39700002 16591.26161388  1089.54820180
0.39800002 16416.75102536  1277.30537404
0.39900002 16247.47160001  1267.30284484
0.40000002 16083.74148711  1257.66822517
0.40100002 15925.93294787  1056.36718248
0.40200002 15773.56401449  1048.86318884
0.40300002 15625.87022015  1041.62055823
0.40400002 15483.87058730  1128.77421930
0.40500002 15347.07160868  1028.10037578
0.40600002 15215.08613159  1021.76915758
0.40700002 15088.03122464  923.38755470
0.40800002 14965.66490927  1193.58666139
0.40900002 14847.93520871  1369.72208790
0.41000002 14735.30079440  999.27447072
0.41100002 14626.64957122  1265.49778086
0.41200002 14522.26120841  1079.58494939
0.41300002 14422.91506624  895.66306805
0.41400002 14327.07439735  1070.23250819
0.41500002 14235.70224987  888.30786248
0.41600002 14147.76873097  1061.93157126
0.41700002 14064.13400955  970.00336860
0.41800002 13985.28816497  878.97540282
0.41900002 13908.28198375  1139.08834844
0.42000002 13836.09166966  1223.24892248
0.42100002 13767.80067162  958.65200619
0.42200002 13702.90646088  956.39440176
0.42300002 13640.87529081  1301.33956441
0.42400002 13582.18439599  1039.03715553
0.42500002 13527.10989138  1037.25883562
0.42600002 13474.26682816  949.32951436
0.42700002 13425.87316900  1206.71753761
0.42800002 13379.54493124  1205.36325997
0.42900002 13337.26175858  860.25342419
0.43000002 13297.16669871  859.66186781
0.43100002 13259.00196536  1116.93837849
0.43200002 13224.59214999  1288.40595127
0.43300002 13192.62346131  1030.60779364
0.43400002 13163.08368613  1116.55862659
0.43500002 13135.92720212  1030.90761568
0.43600002 13111.63555653  1289.20162719
0.43700002 13089.08017008  1117.93839030
0.43800002 13068.62760295  1032.68300212
0.43900002 13051.26698719  947.52202817
0.44000002 13035.43784983  948.52368009
0.44100002 13022.09825379  1295.04773271
0.44200002 13010.46916943  951.00028901
0.44300002 13001.02199461  1039.04172705
0.44400002 12993.68401776  867.32844929
0.44500002 12986.95737252  955.71023834
0.44600002 12982.57854511  1218.67470578
0.44700002 12980.76004603  959.53782808
0.44800002 12979.20796384  1311.22454669
0.44900002 12980.86157869  963.82901790
0.45000002 12983.31585714  878.32135936
0.45100002 12987.03372847  1056.62511422
0.45200002 12992.38421140  971.11580390
0.45300002 12998.84780886  973.74373551
0.45400002 13007.05197580  976.50447336
0.45500002 13016.43288494  890.32405153
0.45600002 13026.99123170  982.30032038
0.45700002 13038.68328423  895.75758408
0.45800002 13051.21168988  1347.86395115
0.45900002 13064.85379981  991.62245040
0.46000002 13080.33930744  1628.10991076
0.46100002 13095.69282331  1179.79102237
0.46200002 13112.86785169  1092.82645855
0.46300002 13130.91520963  1188.08526448
0.46400002 13149.04395079  1100.57503084
0.46500002 13168.68234573  1380.73640939
0.46600002 13188.68454610  1016.25413587
0.46700002 13209.28383507  1483.66683067
0.46800002 13231.50482651  1023.92004953
0.46900002 13253.30138698  934.35779207
0.47000002 13276.14389740  1031.75557189
0.47100002 13299.53231515  1129.92831905
0.47200002 13323.78165287  1228.91905900
0.47300002 13348.57240219  1613.44202273
0.47400002 13373.05188829  1048.11299142
0.47500002 13398.48137000  1052.31677668
0.47600002 13424.67750747  1152.64286542
0.47700002 13450.55608076  964.40491670
