# SAXS profile: number of points = 501, q_min = 0, q_max = 0.5, delta_q = 0.001
#    q    intensity    error
0.00000000 1664650.74656090 249.69761198
0.00100000 1664564.59861567 549.30633059
0.00200000 1664306.12624123 898.72533663
0.00300000 1663875.54136637 1297.82296850
0.00400000 1663272.72411411 1247.45459049
0.00500000 1662498.31335530 1945.12310362
0.00600000 1661552.17847739 1919.09284427
0.00700000 1660435.03250842 2191.77433400
0.00800000 1659146.66793658 2463.83290591
0.00900000 1657688.48092390 3729.79924152
0.01000000 1656059.87580170 3005.74880437
0.01100000 1654262.41438544 3573.20697065
0.01200000 1652296.02279488 4832.96607857
0.01300000 1650161.96876351 4504.94237341
0.01400000 1647860.51350084 4819.99221566
0.01500000 1645393.08959418 5133.62666813
0.01600000 1642759.47997436 4189.03686120
0.01700000 1639961.72839520 4870.68655183
0.01800000 1637000.47821741 5131.99673014
0.01900000 1633876.59411572 6372.11900458
0.02000000 1630590.92122940 5649.99779764
0.02100000 1627146.07870461 5906.54053349
0.02200000 1623540.85142381 6161.33781108
0.02300000 1619778.10555571 6414.32158997
0.02400000 1615858.70485133 6665.41746144
0.02500000 1611784.70323848 8171.74881863
0.02600000 1607556.88521026 7812.72681946
0.02700000 1603176.86652510 8080.01177736
0.02800000 1598645.11280254 10431.15983941
0.02900000 1593965.25283518 10759.26595064
0.03000000 1589137.53305877 10345.28581574
0.03100000 1584163.82901746 9124.78407500
0.03200000 1579045.18940928 10942.78366661
0.03300000 1573785.83655254 9631.56976372
0.03400000 1568384.25030172 9880.82123281
0.03500000 1562844.48742146 11815.10487051
0.03600000 1557167.12341540 12099.18910809
0.03700000 1551355.24459698 11495.54289410
0.03800000 1545410.31785310 9944.71585562
0.03900000 1539334.87930780 10159.61067392
0.04000000 1533128.99871749 11314.49253484
0.04100000 1526796.73145546 12504.46581041
0.04200000 1520339.64761114 9806.19118203
0.04300000 1513759.52956380 10989.89469476
0.04400000 1507059.00758259 15258.97316043
0.04500000 1500240.77690987 11386.82802583
0.04600000 1493305.12085018 14738.92222796
0.04700000 1486256.26570927 10701.04561079
0.04800000 1479095.59590801 13045.62376290
0.04900000 1471825.85227636 11038.69440590
0.05000000 1464448.83260902 12323.33750025
0.05100000 1456968.53629991 15910.09715755
0.05200000 1449383.82661962 13827.12235031
0.05300000 1441700.59326193 14013.33041978
0.05400000 1433919.14843318 13012.81687887
0.05500000 1426043.73971186 14374.52156686
0.05600000 1418074.85423647 13336.99462645
0.05700000 1410017.52425929 14720.58364040
0.05800000 1401871.14428880 13647.21622687
0.05900000 1393639.52426113 15051.30756500
0.06000000 1385326.36254134 15210.88417134
0.06100000 1376933.08918952 20488.76532461
0.06200000 1368462.43904110 15518.36478411
0.06300000 1359917.82366759 14360.73288937
0.06400000 1351298.42015193 18445.22429770
0.06500000 1342610.82677313 19937.77171023
0.06600000 1333856.21706530 18767.35785221
0.06700000 1325035.58870113 14866.90000098
0.06800000 1316153.43623420 13622.18870267
0.06900000 1307212.98867784 19216.03183324
0.07000000 1298214.20653722 19356.37472590
0.07100000 1289161.13995153 16707.52915632
0.07200000 1280055.98473424 16819.93642737
0.07300000 1270901.94134770 15517.71343095
0.07400000 1261702.14159065 21291.22463714
0.07500000 1252456.55957029 19989.20762769
0.07600000 1243169.31921331 21537.90946508
0.07700000 1233843.65593085 17323.16574153
0.07800000 1224480.81463766 18863.12783410
0.07900000 1215083.07144656 16039.09729539
0.08000000 1205655.34790307 16113.58448063
0.08100000 1196198.27146287 17655.88731517
0.08200000 1186713.33366976 20684.41437648
0.08300000 1177203.97219375 16316.04782035
0.08400000 1167673.40999459 14887.83667625
0.08500000 1158123.23636405 16433.76949549
0.08600000 1148556.06975834 16487.52315549
0.08700000 1138973.99870634 22551.68623336
0.08800000 1129378.85142651 16584.92921209
0.08900000 1119774.17865753 22675.42818287
0.09000000 1110161.88565985 18184.45254133
0.09100000 1100543.88988972 16706.25703341
0.09200000 1090921.97395406 15218.36225172
0.09300000 1081300.42467565 15246.33670438
0.09400000 1071678.14283229 15271.41425308
0.09500000 1062059.17602490 16823.01813896
0.09600000 1052445.25475406 19907.00292946
0.09700000 1042841.14126357 18395.71859672
0.09800000 1033245.52310133 18412.43608738
0.09900000 1023662.50966168 16890.43220365
0.10000000 1014091.69488245 16899.83888997
0.10100000 1004536.53179914 23054.11448907
0.10200000 994999.06757897 21521.83084404
0.10300000 985481.14973764 15373.50665909
0.10400000 975984.92847186 16908.93968126
0.10500000 966513.51155954 18441.07866820
0.10600001 957063.62647538 21505.22069880
0.10700001 947643.41971203 18422.18894611
0.10800001 938249.84373691 18408.46280045
0.10900001 928887.61458192 18391.97563435
0.11000001 919557.54945994 16841.69731109
0.11100001 910260.04551814 21409.31727840
0.11200001 900998.80439983 18326.31654424
0.11300001 891773.21292430 21349.05172254
0.11400001 882586.43147191 19792.00165765
0.11500001 873439.52403063 21276.98780728
0.11600001 864334.11019133 22753.59652229
0.11700001 855271.34356638 15138.30349406
0.11800001 846251.71446477 18126.71257757
0.11900001 837276.94353046 18085.18283210
0.12000001 828348.41055596 19544.88166773
0.12100001 819468.96745600 17995.53937307
0.12200001 810638.31624538 17947.53316720
0.12300001 801858.13587162 16406.01823289
0.12400001 793128.49060957 16358.27588958
0.12500001 784450.72813843 17791.34335252
0.12600001 775828.23994800 20691.34013446
0.12700001 767259.38428418 22097.07130874
0.12800001 758745.68817860 17618.07570983
0.12900001 750288.71231936 17556.75669576
0.13000001 741889.16701012 21867.18422833
0.13100001 733546.95490002 18881.49950916
0.13200001 725263.62124281 14469.00992587
0.13300001 717041.30202649 21618.79627527
0.13400001 708878.40240683 15790.26715805
0.13500001 700777.51531726 14295.86198650
0.13600001 692737.64533072 17082.91113933
0.13700001 684761.25436899 15592.01449720
0.13800001 676846.58039738 16934.70224011
0.13900001 668996.65495810 18263.60954163
0.14000001 661210.72471281 25172.29347696
0.14100001 653489.30425876 15311.25512091
0.14200001 645832.83743710 19394.36102298
0.14300001 638242.96356239 17921.86326216
0.14400001 630716.63127498 15089.89611504
0.14500001 623258.48786911 15014.29768102
0.14600001 615866.47213960 16295.82762156
0.14700001 608543.05233094 20264.48459863
0.14800001 601283.72356337 20158.03778349
0.14900001 594093.22643740 18713.93751572
0.15000001 586969.86960568 15953.84180863
0.15100001 579914.39410227 17188.66345224
0.15200001 572926.97002389 15778.40949899
0.15300001 566008.67635693 15689.76124900
0.15400001 559155.79856001 19500.55939503
0.15500001 552372.71771775 15510.62664551
0.15600001 545655.22909309 14135.19937677
0.15700001 539009.33177812 19161.78264909
0.15800001 532427.64817336 15238.08000994
0.15900001 525916.16046972 16408.58498115
0.16000001 519470.09285406 20072.32533534
0.16100001 513094.95554771 14961.84961003
0.16200001 506785.50197264 16108.17794060
0.16300001 500543.56684060 12313.37232557
0.16400001 494368.87084512 20800.57122279
0.16500001 488260.69234443 17020.76853870
0.16600001 482220.14707523 12079.61525455
0.16700001 476244.58170510 13201.50042817
0.16800001 470334.68717857 16692.17883611
0.16900001 464492.66465273 16582.38891109
0.17000001 458714.72914368 11766.03335812
0.17100001 453001.71573353 14024.93378139
0.17200001 447354.28634414 15091.49756248
0.17300001 441771.20511132 13836.27479750
0.17400001 436252.07414231 14887.10273317
0.17500001 430796.52291944 18196.84598751
0.17600001 425402.76165194 14682.77701187
0.17700001 420073.72749190 13459.16286452
0.17800001 414805.27138731 12251.27426908
0.17900001 409599.42599929 11059.18502435
0.18000001 404454.88500719 10980.95064663
0.18100001 399372.76796782 11993.16478859
0.18200001 394348.34605771 11907.34887169
0.18300001 389384.86044768 15045.83171845
0.18400001 384480.09053539 12803.18761966
0.18500001 379635.77673517 10591.83867129
0.18600001 374848.16790964 11565.94076727
0.18700001 370118.00965687 10437.32836543
0.18800001 365444.94794071 13468.47419269
0.18900001 360830.18614641 12340.39294926
0.19000001 356267.54732041 13269.18542690
0.19100001 351764.73869767 11143.90744849
0.19200001 347313.47844692 14076.61594659
0.19300001 342919.02018654 12972.62714665
0.19400001 338575.83974022 12874.34691448
0.19500001 334286.94859481 14742.05512967
0.19600001 330050.05892649 9752.97970217
0.19700001 325864.57352325 17420.72092381
0.19800001 321730.73479797 13445.12804261
0.19900001 317647.88073849 13341.21162152
0.20000001 313613.75482626 9455.45515489
0.20100001 309630.29209096 13134.51761127
0.20200001 305694.00822401 9308.38299037
0.20300001 301807.58161726 12929.43740759
0.20400001 297967.91463964 13743.77071236
0.20500001 294174.79317565 10908.00184654
0.20600001 290428.19665483 13526.69389858
0.20700001 286727.62935559 12524.26344226
0.20800001 283071.04342350 10649.13315698
0.20900001 279461.17009897 9683.33000167
0.21000001 275893.21787667 9605.22283444
0.21100001 272369.24718646 10393.61096398
0.21200001 268887.70899684 9450.05897944
0.21300001 265447.38935890 9372.94776137
0.21400001 262049.58652832 9296.20952158
0.21500001 258693.58612169 10058.00710393
0.21600001 255376.81041174 9975.01868629
0.21700001 252100.05605436 9892.40666728
0.21800001 248862.75514653 8175.14189309
0.21900001 245663.00922860 8106.87968785
0.22000001 242501.34837417 11254.48811019
0.22100001 239378.71700738 9565.57398391
0.22200001 236293.09499601 10275.20572176
0.22300001 233242.54616993 7836.94992188
0.22400001 230227.57296074 10101.23524130
0.22500001 227250.41232055 11555.68401294
0.22600001 224305.99100969 9928.90516156
0.22700001 221397.87020199 10600.53052656
0.22800001 218522.50035885 7506.24824230
0.22900001 215679.76841682 10417.33330718
0.23000001 212871.25292176 11801.58282010
0.23100001 210095.62326029 8042.46083875
0.23200001 207350.35767167 12319.72208371
0.23300001 204637.29654245 12210.70806219
0.23400001 201955.95907999 7830.84268369
0.23500001 199303.35607423 8466.40696646
0.23600001 196682.61616639 7691.27406896
0.23700001 194091.00237007 8314.85893481
0.23800001 191528.84237652 11672.72585074
0.23900001 188995.22672348 10205.74272580
0.24000001 186489.99568449 8764.09776174
0.24100001 184014.04723480 7347.68125364
0.24200001 181565.05211794 8603.46040157
0.24300001 179143.60942730 9834.98462278
0.24400001 176748.67559675 10392.82261671
0.24500001 174380.44780435 7078.10271120
0.24600001 172038.80014597 6374.03784693
0.24700001 169723.05953619 7576.43773611
0.24800001 167432.75928093 6878.97524048
0.24900001 165166.82620583 6193.75627573
0.25000001 162926.86385857 9201.29507171
0.25100001 160710.23435491 8504.78600441
0.25200001 158519.54845350 6617.39886326
0.25300001 156352.61166139 7148.44174335
0.25400001 154208.77745678 6488.33461846
0.25500001 152088.08648257 5840.18279724
0.25600001 149991.15129220 6938.59098706
0.25700001 147916.32431790 6296.79822414
0.25800001 145864.70874102 9066.95072434
0.25900001 143835.36629907 7853.41137151
0.26000001 141828.02412225 5552.56740711
0.26100001 139841.77608782 6594.93847235
0.26200001 137878.21245222 6527.15488633
0.26300001 135935.08932910 5383.02979214
0.26400001 134013.54592595 6392.44644315
0.26500001 132113.15661508 5271.31519837
0.26600001 130232.53172734 5737.39445674
0.26700001 128373.53179328 6708.80108898
0.26800001 126535.11440337 5105.69210778
0.26900001 124715.38502721 5556.07066588
0.27000001 122916.60122257 5496.21608376
0.27100001 121137.06488286 7413.58872166
0.27200001 119378.42673658 5377.40148683
0.27300001 117638.25281865 7252.39862948
0.27400001 115915.45411046 6694.11779168
0.27500001 114214.72200415 5674.18765770
0.27600001 112530.36673029 6545.89174249
0.27700001 110866.54256965 5547.76205274
0.27800001 109220.23273488 6399.21373879
0.27900001 107593.52354507 4518.92820276
0.28000001 105983.71076976 4913.93498241
0.28100001 104392.75612103 6182.13931008
0.28200001 102820.57784487 6110.62723053
0.28300001 101265.65102884 4745.30863181
0.28400001 99728.40625625  5116.06748309
0.28500001 98209.03504851  4634.48458330
0.28600001 96707.26316285  4579.57266384
0.28700001 95222.75342885  6993.15934282
0.28800001 93754.94929315  6096.41586635
0.28900001 92306.05170518  4818.37612708
0.29000001 90872.70405710  4363.25309183
0.29100001 89457.27381490  5093.69741213
0.29200001 88058.54687726  5805.25997768
0.29300001 86676.64504348  6115.90436377
0.29400001 85310.74526053  5662.50098471
0.29500001 83962.54545408  5964.69951141
0.29600001 82630.12385372  4049.28941113
0.29700001 81314.23043848  4361.69552719
0.29800001 80014.46288756  4306.37859647
0.29900001 78731.61790344  5668.67675740
0.30000001 77464.05730480  4546.75305875
0.30100001 76213.66272375  3797.72699331
0.30200001 74977.54834686  3748.50270706
0.30300001 73758.56648331  4036.06894904
0.30400001 72555.49135371  3651.35527524
0.30500001 71367.68713247  3930.93239336
0.30600001 70194.61135133  4202.20060749
0.30700001 69038.26409129  3508.52474722
0.30800001 67896.81845210  3776.42122110
0.30900001 66770.85278752  3725.81376194
0.31000001 65660.39141382  3369.36314492
0.31100001 64564.24899306  3625.92839512
0.31200001 63483.94712287  4768.91433366
0.31300001 62418.01745509  2939.88876133
0.31400001 61368.22191502  4059.50807188
0.31500001 60332.09208479  3145.71543024
0.31600002 59311.20002494  3948.34677260
0.31700002 58304.92336952  3059.25947405
0.31800002 57313.29431362  3290.92951531
0.31900002 56336.19172933  4056.20599657
0.32000002 55373.73542873  2932.87003585
0.32100002 54424.91211386  3417.34039344
0.32200002 53491.59523332  2591.66791177
0.32300002 52570.72882373  3065.92505017
0.32400002 51664.55289041  3022.37648720
0.32500002 50772.24879367  2731.03939193
0.32600002 49894.33572169  2692.04901134
0.32700002 49029.54712294  2653.47921594
0.32800002 48179.20958171  2615.40851599
0.32900002 47341.80149137  3280.78699871
0.33000002 46518.83734410  2309.66038351
0.33100002 45706.81611421  2731.43946033
0.33200002 44911.18250088  2691.97640658
0.33300002 44127.36720858  2431.85932203
0.33400002 43357.10795736  2614.43373364
0.33500002 42598.78102880  2361.67653208
0.33600002 41854.52431055  2750.47019532
0.33700002 41122.04216341  2293.37640006
0.33800002 40403.27875973  2259.95750445
0.33900002 39696.10428073  3239.20226271
0.34000002 39002.08885892  2194.45263357
0.34100002 38320.06350171  2162.40128581
0.34200002 37651.14002332  2130.86637054
0.34300002 36993.16923427  1908.84762289
0.34400002 36348.68357307  2257.25335679
0.34500002 35715.22099762  2780.43008635
0.34600002 35094.65381831  2009.34449953
0.34700002 34484.15226593  1980.08011689
0.34800002 33886.88123559  2660.96747505
0.34900002 33300.35978479  2447.57656010
0.35000002 32725.36895433  3273.68243839
0.35100002 32162.39345591  2207.62679137
0.35200002 31609.17356208  2008.44698326
0.35300002 31067.64261782  2309.56866160
0.35400002 30537.34669982  2276.55930430
0.35500002 30017.90933558  1923.54772133
0.35600002 29508.35189818  1738.18955089
0.35700002 29009.91048163  2804.09807997
0.35800002 28522.49472749  2457.49826212
0.35900002 28045.10854863  1817.32312003
0.36000002 27578.27228552  1941.37256949
0.36100002 27120.80126543  2061.72340985
0.36200002 26674.58125306  2033.40342524
0.36300002 26237.16865987  2005.56926736
0.36400002 25809.59499877  1836.99801105
0.36500002 25391.55545458  1812.19539863
0.36600002 24983.49287015  1512.87548241
0.36700002 24584.23162000  1764.16454462
0.36800002 24195.80989221  1741.00958326
0.36900002 23815.43198620  1586.10784541
0.37000002 23443.75592103  1435.10958669
0.37100002 23080.96831367  1287.91809291
0.37200002 22727.87913485  1271.62489783
0.37300002 22382.83034807  1381.24452621
0.37400002 22046.40494424  1612.14343792
0.37500002 21718.88272079  1469.93405218
0.37600002 21399.67307191  1694.21219736
0.37700002 21088.17149420  2152.25888465
0.37800002 20784.76741069  1417.93689993
0.37900002 20489.93292065  1284.71885499
0.38000002 20202.79548521  1500.96676168
0.38100002 19922.43943502  1255.71141708
0.38200002 19650.63584896  1580.50071621
0.38300002 19385.73257595  1563.26554898
0.38400002 19129.01478128  1877.99111512
0.38500002 18878.25669258  1530.27156000
0.38600002 18635.96483985  1406.36315326
0.38700002 18399.90305354  1499.22417183
0.38800002 18170.80573288  1272.31987769
0.38900002 17948.05063108  1469.94541633
0.39000002 17733.02173066  1144.04595115
0.39100002 17523.53489142  1133.42229047
0.39200002 17320.99957794  1531.60946024
0.39300002 17124.40323594  1315.66796295
0.39400002 16935.32800407  1304.44370131
0.39500002 16751.08154512  1194.01714911
0.39600002 16572.93529969  1085.61017824
0.39700002 16400.58649753  1077.02656632
0.39800002 16234.31867419  1165.94882242
0.39900002 16073.37131037  964.40232431
0.40000002 15917.78675420  1148.94590235
0.40100002 15768.05419338  1236.05782678
0.40200002 15623.78702019  1133.34956414
0.40300002 15484.01349226  1125.99751451
0.40400002 15349.90883473  1305.50980825
0.40500002 15220.83027008  1112.33832884
0.40600002 15096.58078569  1013.81093070
0.40700002 14976.97159685  1099.90884619
0.40800002 14862.31228653  1094.16348238
0.40900002 14751.95943530  997.97010308
0.41000002 14646.53751210  1173.84680453
0.41100002 14545.19335317  1078.67159018
0.41200002 14447.87095103  984.55021261
0.41300002 14355.50608386  1248.06775807
0.41400002 14266.65356059  976.90914885
0.41500002 14182.17716598  1061.96147651
0.41600002 14100.96343076  970.21683483
0.41700002 14023.96616138  967.23299198
0.41800002 13951.67687449  1139.92181304
0.41900002 13881.02096366  1049.40523458
0.42000002 13815.20046857  872.42995093
0.42100002 13753.09317067  1044.68500675
0.42200002 13694.37119991  1390.25263009
0.42300002 13638.38096623  1040.88128467
0.42400002 13585.51597249  952.68435271
0.42500002 13536.27065256  951.46450925
0.42600002 13489.10162753  1036.77240022
0.42700002 13446.28032701  1726.50247580
0.42800002 13405.29119124  1207.68274065
0.42900002 13368.39733380  1120.94016956
0.43000002 13333.50649234  1034.41348269
0.43100002 13300.37563990  1034.23725877
0.43200002 13270.99693379  1206.73180837
0.43300002 13243.89447712  1293.26635698
0.43400002 13219.20691592  862.55329214
0.43500002 13196.63209499  1294.58966987
0.43600002 13176.81513189  1295.61040924
0.43700002 13158.69567230  864.52634664
0.43800002 13142.60583105  951.98469849
0.43900002 13129.40190284  1213.15679331
0.44000002 13117.58879721  954.50139406
0.44100002 13108.17472834  1042.88643081
0.44200002 13100.41647070  1305.78407360
0.44300002 13094.61293138  1656.99239886
0.44400002 13090.91241586  1223.34582324
0.44500002 13087.69332711  963.12339759
0.44600002 13086.55573676  1140.68968485
0.44700002 13088.04032626  1055.41962193
0.44800002 13089.46078573  1674.99292883
0.44900002 13094.08522061  1149.00603256
0.45000002 13099.42065814  974.79343447
0.45100002 13105.81024570  1155.14616980
0.45200002 13113.81432063  1247.51721544
0.45300002 13122.75501224  1072.39159042
0.45400002 13133.26178099  1165.24870674
0.45500002 13144.94931162  989.02603308
0.45600002 13157.56143297  901.95087898
0.45700002 13171.30126563  904.86843983
0.45800002 13185.66327378  907.83295943
0.45900002 13201.19555380  1001.97079002
0.46000002 13218.36155021  1096.85969342
0.46100002 13235.15870305  1284.07515823
0.46200002 13253.82837597  1196.62195164
0.46300002 13273.11977212  1108.57101591
0.46400002 13292.43867245  1112.57716962
0.46500002 13313.14558884  1116.70670492
0.46600002 13334.15240622  1027.46316236
0.46700002 13355.59216900  937.56261470
0.46800002 13378.54072063  1129.41646117
0.46900002 13400.95806751  1228.19786510
0.47000002 13424.23229036  1232.94867315
0.47100002 13448.05443792  952.12229933
0.47200002 13472.52816226  1147.05110210
0.47300002 13497.43311075  1055.63429363
0.47400002 13521.95341587  1156.12707185
0.47500002 13547.31982721  1450.91802226
0.47600002 13573.46326039  1068.29947654
0.47700002 13598.95328823  1365.06299577
