# SAXS profile: number of points = 501, q_min = 0, q_max = 0.5, delta_q = 0.001
#    q    intensity    error
0.00000000 1646666.22097350 296.39991978
0.00100000 1646580.96960060 642.16659339
0.00200000 1646325.16980429 814.93098486
0.00300000 1645899.05666400 1086.29341610
0.00400000 1645302.46849522 1480.77227791
0.00500000 1644536.08447249 1480.08253461
0.00600000 1643599.74574357 2243.51374428
0.00700000 1642494.17805014 1970.99309558
0.00800000 1641219.15662875 3988.16271899
0.00900000 1639776.11121992 2705.63069917
0.01000000 1638164.40210216 3243.56565622
0.01100000 1636385.57671294 3240.04358296
0.01200000 1634439.52235496 3824.58865000
0.01300000 1632327.59962350 3770.67692144
0.01400000 1630050.00744493 4767.89648314
0.01500000 1627608.21209152 4296.88587126
0.01600000 1625001.87927642 4972.50597287
0.01700000 1622233.21844960 5694.03885219
0.01800000 1619302.67291073 6922.51923819
0.01900000 1616211.27961436 5333.49746339
0.02000000 1612959.69135987 5080.82325762
0.02100000 1609550.68539223 6373.82100313
0.02200000 1605982.85775313 6094.70522207
0.02300000 1602259.34896637 9229.01427014
0.02400000 1598380.59140881 5993.92749109
0.02500000 1594349.07778641 8705.14636228
0.02600000 1590165.27406781 7728.20358544
0.02700000 1585830.88080555 8658.63700577
0.02800000 1581346.35915874 8254.62837336
0.02900000 1576715.18765102 8514.26240424
0.03000000 1571937.81726527 9502.36454215
0.03100000 1567015.96523105 12034.68316673
0.03200000 1561950.82076191 8504.82261076
0.03300000 1556746.35403660 7939.40677160
0.03400000 1551401.12360688 9773.82752969
0.03500000 1545919.27343478 11687.15024686
0.03600000 1540301.29631942 10258.40710757
0.03700000 1534550.19716190 14869.79209819
0.03800000 1528667.45433274 8942.70502171
0.03900000 1522655.64078473 14617.49482847
0.04000000 1516514.73822939 13057.19250121
0.04100000 1510248.90568381 11417.48225636
0.04200000 1503859.57087373 10669.88415036
0.04300000 1497348.36454119 14823.74949705
0.04400000 1490718.32736935 14087.28884788
0.04500000 1483971.67991520 12287.28608063
0.04600000 1477108.97629558 14579.06627377
0.04700000 1470134.24674047 11643.46377570
0.04800000 1463048.91246088 10753.41000692
0.04900000 1455855.80991145 16378.37862388
0.05000000 1448556.68589241 17730.33466096
0.05100000 1441155.26882247 13489.21394456
0.05200000 1433650.54843396 11397.52239119
0.05300000 1426048.32080427 16171.38871180
0.05400000 1418349.30834446 12871.52057347
0.05500000 1410557.11304160 15403.28439297
0.05600000 1402672.60191816 16789.99182845
0.05700000 1394700.65987014 14560.67556872
0.05800000 1386640.55210513 15953.30029687
0.05900000 1378496.33306804 19850.34812331
0.06000000 1370271.46671385 16299.37985805
0.06100000 1361967.28575563 21532.70379405
0.06200000 1353586.70548644 15349.67395771
0.06300000 1345132.94232396 14204.60453508
0.06400000 1336605.09919700 16941.47042462
0.06500000 1328010.44182700 17091.49518582
0.06600000 1319348.90615314 15911.34855268
0.06700000 1310622.55427485 14705.18574715
0.06800000 1301835.15197266 14821.39389898
0.06900000 1292990.52874002 16291.68142488
0.07000000 1284087.83112170 15043.08964604
0.07100000 1275131.72602542 13771.42328610
0.07200000 1266123.96533176 13864.05806987
0.07300000 1257068.13333991 13953.45693387
0.07400000 1247966.94428586 15443.59165929
0.07500000 1238820.96379531 18359.32754399
0.07600000 1229633.30220913 18462.94489822
0.07700000 1220408.10199467 19990.28564799
0.07800000 1211146.13629816 15787.29062701
0.07900000 1201849.40667082 14422.19355650
0.08000000 1192523.31025033 23182.65423879
0.08100000 1183168.23262422 16008.26693848
0.08200000 1173785.93558797 17536.36270058
0.08300000 1164379.21764031 16138.29671390
0.08400000 1154951.73382461 14725.63529747
0.08500000 1145505.01188722 20687.82148588
0.08600000 1136041.45222696 17790.40997716
0.08700000 1126563.09859018 17844.76031962
0.08800000 1117072.17303385 19386.78847348
0.08900000 1107571.60644188 14952.21738927
0.09000000 1098064.00733492 23981.71904675
0.09100000 1088550.29436749 19528.59319843
0.09200000 1079033.14629690 21073.51833735
0.09300000 1069516.46008353 21112.25591416
0.09400000 1059998.96316500 21146.98030900
0.09500000 1050484.80824101 21177.77472955
0.09600000 1040975.92974182 19690.06063665
0.09700000 1031476.50174074 16678.97581727
0.09800000 1021985.88541761 16694.14022322
0.09900000 1012507.48842705 16706.37434462
0.10000000 1003041.32612613 16715.68448598
0.10100000 993590.84258042 21282.71684904
0.10200000 984158.00701389 18246.29030828
0.10300000 974744.17854936 19767.81287087
0.10400000 965352.04607099 18245.15452909
0.10500000 955984.64079487 19760.20345493
0.10600001 946638.37722759 22790.32000412
0.10700001 937321.55764677 22776.91492264
0.10800001 928031.16218213 16690.64123734
0.10900001 918772.14117335 18191.68925144
0.11000001 909544.43717003 22715.87338755
0.11100001 900349.39207221 16638.45754872
0.11200001 891189.99734774 15105.67116618
0.11300001 882066.06961845 21116.66270086
0.11400001 872980.22002550 19576.58235582
0.11500001 863934.33391803 18038.94974163
0.11600001 854929.14073515 18004.80855176
0.11700001 845966.21344717 16470.96295152
0.11800001 837045.95276960 19423.65224884
0.11900001 828170.12345752 19379.18180170
0.12000001 819340.08515271 16358.12557062
0.12100001 810558.86271864 16316.55067517
0.12200001 801825.39121387 16273.04708133
0.12300001 793142.03449686 16227.68679036
0.12400001 784508.92255007 17651.45158907
0.12500001 775926.84589324 19064.52350193
0.12600001 767399.34718723 16080.85407809
0.12700001 758924.94980471 16028.49569524
0.12800001 750505.37000993 15974.50755353
0.12900001 742141.42867372 17366.11024947
0.13000001 733834.46222265 18745.80222106
0.13100001 725584.19241837 15803.22445580
0.13200001 717392.29518644 21467.96544546
0.13300001 709260.57379339 21384.20730799
0.13400001 701187.46915450 17038.85630376
0.13500001 693175.67068648 19797.09808820
0.13600001 685224.32643779 18305.76874392
0.13700001 677335.50396424 15422.93015251
0.13800001 669507.78910881 16751.08567341
0.13900001 661744.06285328 16675.95117031
0.14000001 654043.46811452 15216.32200330
0.14100001 646406.82882420 13768.46610332
0.14200001 638833.96283870 21924.78263871
0.14300001 631327.43406371 19091.34250658
0.14400001 623883.33732375 17640.30219492
0.14500001 616506.63746016 13501.49599727
0.14600001 609195.02712614 17462.57627636
0.14700001 601951.42743597 17372.31901537
0.14800001 594771.02170937 14622.44625859
0.14900001 587658.52940683 18511.24454969
0.15000001 580612.39978475 14465.95862318
0.15100001 573633.52596013 22234.03651533
0.15200001 566721.67818431 13006.26312806
0.15300001 559878.02265941 15519.81952048
0.15400001 553099.03494084 14145.50848615
0.15500001 546388.91145953 16621.15147100
0.15600001 539743.48708191 15253.15166481
0.15700001 533168.74059634 13899.70972337
0.15800001 526657.41976634 12560.78005428
0.15900001 520215.51254415 16230.72475748
0.16000001 513838.08270340 14891.02833964
0.16100001 507530.61491032 14799.59342939
0.16200001 501288.28331817 13482.14901628
0.16300001 495112.29717684 15833.69201119
0.16400001 489002.71740374 19364.50852338
0.16500001 482958.77289307 16835.94361790
0.16600001 476981.61479359 15532.90701911
0.16700001 471068.34342281 11870.92281474
0.16800001 465220.08532439 18869.32755170
0.16900001 459438.92484263 12887.26245035
0.17000001 453720.72694190 15129.31835428
0.17100001 448066.91621709 12716.13968271
0.17200001 442477.49415331 12630.52066706
0.17300001 436951.70771267 14825.77214283
0.17400001 431488.92702070 13591.90184304
0.17500001 426088.94795166 13498.49850861
0.17600001 420749.93587580 13405.09359011
0.17700001 415474.67732471 11093.17440851
0.17800001 410259.18196969 12117.00551179
0.17900001 405105.54826256 12031.63535170
0.18000001 400012.41828561 11946.37143639
0.18100001 394980.77732779 12939.57087648
0.18200001 390005.93441471 17129.06144863
0.18300001 385091.22927214 11691.37027299
0.18400001 380234.74199162 13716.96896535
0.18500001 375437.80964954 16759.54461451
0.18600001 370696.35644588 12477.63994746
0.18700001 366011.90254413 14450.15059514
0.18800001 361383.73602486 11269.75234039
0.18900001 356813.15855328 11186.09304916
0.19000001 352293.95309422 11102.54445635
0.19100001 347833.71998103 12021.13393054
0.19200001 343424.25438488 10936.34589764
0.19300001 339070.77217876 13813.74391130
0.19400001 334768.09072487 9791.96711641
0.19500001 330518.66938387 13604.14907471
0.19600001 326320.72932769 10607.05580805
0.19700001 322173.43245645 13395.97195460
0.19800001 318077.21881290 10444.06597330
0.19900001 314031.08938693 12247.21306489
0.20000001 310033.04515707 14021.24512989
0.20100001 306085.00602271 12056.68895706
0.20200001 302183.63835594 11041.79066740
0.20300001 298331.30008321 12780.51349963
0.20400001 294525.03356498 11773.63877325
0.20500001 290764.88478095 10781.56243729
0.20600001 287050.51920844 12478.08665981
0.20700001 283381.55996639 12378.10712443
0.20800001 279755.97166306 9647.38513883
0.20900001 276176.66300746 12179.39141436
0.21000001 272638.54338025 13806.41648944
0.21100001 269143.84551940 11126.40709976
0.21200001 265691.03403577 11035.47762037
0.21300001 262278.75197264 11786.80767088
0.21400001 258908.65646095 10854.74593530
0.21500001 255579.66354722 10765.01593755
0.21600001 252289.52163782 8212.02431756
0.21700001 249039.00473550 8957.93342386
0.21800001 245827.13239219 9690.50601707
0.21900001 242652.56228467 9609.04192080
0.22000001 239515.51722944 9527.92772589
0.22100001 236417.13645751 8659.96011791
0.22200001 233355.06925790 11708.59115365
0.22300001 230327.66900567 9286.81205344
0.22400001 227335.77121506 7672.58264132
0.22500001 224380.86836964 8367.16297716
0.22600001 221458.27939095 9802.85120080
0.22700001 218571.86731014 8222.67403705
0.22800001 215717.78406421 9632.87810293
0.22900001 212895.83099641 8079.39716840
0.23000001 210107.69134855 8736.27821943
0.23100001 207352.16631095 7937.44130177
0.23200001 204626.67022158 10727.55369371
0.23300001 201932.90838696 7796.62996156
0.23400001 199270.70389050 9834.00970210
0.23500001 196636.86985167 7657.04007417
0.23600001 194034.47643102 10346.88894506
0.23700001 191461.06257108 9569.22435991
0.23800001 188916.66514424 6772.66276576
0.23900001 186400.59509685 8052.50608906
0.24000001 183912.66531938 7978.13179892
0.24100001 181453.69586310 8562.80031281
0.24200001 179021.62761793 7830.40636240
0.24300001 176616.70274351 7110.58878880
0.24400001 174238.06341260 7683.89895997
0.24500001 171885.85852215 6976.84732745
0.24600001 169559.97335726 6910.41704107
0.24700001 167259.86034703 8088.68722903
0.24800001 164985.09190721 9243.29021137
0.24900001 162734.39676405 6102.54016735
0.25000001 160509.50825504 6647.50159886
0.25100001 158307.62001520 10172.84814344
0.25200001 156131.87963584 7110.24613500
0.25300001 153979.38997976 6453.27653936
0.25400001 151849.98813018 6969.91478493
0.25500001 149743.60957020 7475.20134341
0.25600001 147660.67772281 7400.01521419
0.25700001 145599.81189357 6198.18428557
0.25800001 143562.11388191 8366.08258230
0.25900001 141546.47928294 8832.50072516
0.26000001 139552.74659642 7102.53737408
0.26100001 137580.00753857 8110.34182815
0.26200001 135629.99932497 7490.84521716
0.26300001 133700.19163636 5294.52783932
0.26400001 131791.80919247 5762.59712962
0.26500001 129904.60327774 5701.51330765
0.26600001 128037.05914319 7691.82669200
0.26700001 126191.07847839 6087.45791386
0.26800001 124365.52118102 7025.40862396
0.26900001 122558.76348217 4963.63015591
0.27000001 120772.87225147 8346.00973189
0.27100001 119006.03911191 7283.16993831
0.27200001 117260.19229200 5281.98561176
0.27300001 115532.67030086 6172.91086630
0.27400001 113822.61656090 6573.25641747
0.27500001 112134.47131045 6499.31426474
0.27600001 110462.65289873 5048.69578967
0.27700001 108811.45355923 4537.43782816
0.27800001 107177.65259177 5382.46196790
0.27900001 105563.56104231 5320.40372834
0.28000001 103966.31302448 4820.39833152
0.28100001 102387.86496826 5630.30896108
0.28200001 100828.12685459 4280.15418756
0.28300001 99285.61097088  4229.56722755
0.28400001 97760.81901471  4179.27521069
0.28500001 96254.00539925  5368.08613519
0.28600001 94764.71728588  6527.39403561
0.28700001 93292.58721438  5239.31194595
0.28800001 91837.27134369  4379.26049131
0.28900001 90400.83708890  3932.43659950
0.29000001 88979.99511035  6214.36315266
0.29100001 87577.06699556  4603.05085917
0.29200001 86190.85951152  4166.89730033
0.29300001 84821.47707901  5236.87824275
0.29400001 83468.02834541  4062.80647203
0.29500001 82132.41872385  4011.34752036
0.29600001 80812.55398573  3960.21939554
0.29700001 79509.21274941  3909.46817596
0.29800001 78222.12905207  5964.04651190
0.29900001 76951.82260320  4155.39861729
0.30000001 75696.96031344  4443.03329593
0.30100001 74459.06731690  5396.79345461
0.30200001 73235.52692220  4992.83228429
0.30300001 72029.29669303  4269.89691011
0.30400001 70838.86842852  3240.87838403
0.30500001 69663.75931370  4476.59338543
0.30600001 68503.30369699  3470.03501305
0.30700001 67359.73586740  4356.82792217
0.30800001 66230.98379651  4911.68999089
0.30900001 65117.76643678  4239.16679573
0.31000001 64020.07972208  3882.49791856
0.31100001 62936.72733872  2945.43897890
0.31200001 61869.16119023  3485.70870649
0.31300001 60816.00060410  3437.32051689
0.31400001 59779.02400170  3954.38262494
0.31500001 58755.65377370  3620.52355696
0.31600002 57747.66841886  4942.62317399
0.31700002 56754.12578684  4602.19227796
0.31800002 55775.32156097  2935.73418936
0.31900002 54811.06420753  3157.11744784
0.32000002 53861.40740111  3371.45495591
0.32100002 52925.31432864  2811.92208342
0.32200002 52004.80255728  2519.63280321
0.32300002 51096.69293619  3228.28921257
0.32400002 50203.45285541  3181.64397537
0.32500002 49324.03559277  3859.11272751
0.32600002 48458.81384701  2614.59542492
0.32700002 47606.81932607  2342.25562175
0.32800002 46769.27624698  3692.90222733
0.32900002 45944.56358791  3411.38400794
0.33000002 45134.28602532  2465.00914800
0.33100002 44334.92835200  3532.60725837
0.33200002 43552.07135767  2392.96867407
0.33300002 42780.81225260  3214.97819303
0.33400002 42023.16676440  2745.16349888
0.33500002 41277.51916079  2080.38706422
0.33600002 40545.78392509  2049.58947447
0.33700002 39825.93750502  2019.17512713
0.33800002 39119.69664996  2188.16033574
0.33900002 38425.05832437  2351.61368082
0.34000002 37743.42989800  2509.74948992
0.34100002 37073.85680973  2472.45562773
0.34200002 36417.21777177  2248.39913171
0.34300002 35771.69711956  1845.81965879
0.34400002 35139.46312472  2182.16076339
0.34500002 34518.24744079  1970.64683972
0.34600002 33909.84657766  1941.50835776
0.34700002 33311.45447074  2608.28700859
0.34800002 32726.28535536  2398.50956729
0.34900002 32151.88416049  1687.97399837
0.35000002 31588.84707650  2661.04460376
0.35100002 31037.73231884  1966.55081286
0.35200002 30496.45241723  2099.22340157
0.35300002 29966.71995397  2068.60277640
0.35400002 29448.20477576  1881.74037430
0.35500002 28940.43071654  1854.50288815
0.35600002 28442.43798977  1675.40188914
0.35700002 27955.64669474  2101.70561806
0.35800002 27479.62686889  1923.71137007
0.35900002 27013.71998062  1604.61504285
0.36000002 26558.22951815  1581.94101618
0.36100002 26112.05859017  1417.88484861
0.36200002 25676.99539624  1398.11246555
0.36300002 25250.70826454  1516.55761020
0.36400002 24834.27364348  1631.61185566
0.36500002 24427.17605182  1609.26243452
0.36600002 24030.05399550  1587.42544214
0.36700002 23641.66753672  1435.52212083
0.36800002 23263.89454662  1416.42228657
0.36900002 22894.17571935  1270.62681261
0.37000002 22533.16265739  1880.95584193
0.37100002 22180.90338579  2104.08059485
0.37200002 21838.18485463  1954.95440079
0.37300002 21503.50123094  1568.25041906
0.37400002 21177.28186449  1429.46659357
0.37500002 20859.92367088  1411.79970092
0.37600002 20550.77547114  1627.00497112
0.37700002 20249.24284420  1262.94533602
0.37800002 19955.80385999  1247.93625350
0.37900002 19670.75359636  1457.60291054
0.38000002 19393.34512982  1329.99567201
0.38100002 19122.58438868  1205.29655112
0.38200002 18860.40590074  1083.53037033
0.38300002 18604.87907953  1178.80519432
0.38400002 18357.50648005  1590.21907417
0.38500002 18116.11553918  1363.60008123
0.38600002 17883.00393570  1349.54095594
0.38700002 17655.98370622  1027.57830038
0.38800002 17436.01059869  1526.08689995
0.38900002 17222.10971908  1309.74150619
0.39000002 17015.99833364  1397.18368937
0.39100002 16815.12386759  1384.22106236
0.39200002 16621.25599861  1861.66386632
0.39300002 16433.30419149  1359.69165322
0.39400002 16252.70564051  1733.35113868
0.39500002 16076.74732144  1145.95060336
0.39600002 15906.99293382  1136.71376891
0.39700002 15742.89177090  1033.83575158
0.39800002 15584.65537861  1305.83833604
0.39900002 15431.77918677  1111.08815409
0.40000002 15284.22033164  919.34589651
0.40100002 15142.43853656  1095.70690442
0.40200002 15005.80897974  1269.94167412
0.40300002 14873.76107475  1622.42993490
0.40400002 14747.27409416  985.48663803
0.40500002 14625.66652991  1068.84376065
0.40600002 14508.95565417  1240.08049852
0.40700002 14396.70328576  969.18611112
0.40800002 14289.27232021  876.64689838
0.40900002 14186.15906435  872.44882380
0.41000002 14087.80425982  868.51317377
0.41100002 13993.56477043  1297.20351568
0.41200002 13903.20833979  1378.08607594
0.41300002 13817.71193072  858.07995156
0.41400002 13735.73542545  1026.05948490
0.41500002 13657.92605458  1107.93101404
0.41600002 13583.37998100  1189.49664130
0.41700002 13512.99123425  1016.71750864
0.41800002 13447.23128108  1014.19023128
0.41900002 13383.07145999  1180.38695870
0.42000002 13323.65675695  1009.66675688
0.42100002 13267.82562960  1091.80942279
0.42200002 13215.34728142  1006.21658969
0.42300002 13165.52497505  1004.79291371
0.42400002 13118.69723025  1170.84378328
0.42500002 13075.57065558  835.52900448
0.42600002 13034.38816178  1335.76416212
0.42700002 12997.55933210  834.44334866
0.42800002 12962.42272664  917.54513618
0.42900002 12931.23071058  917.47086239
0.43000002 12902.12714676  1251.18383935
0.43100002 12874.73212591  917.71094942
0.43200002 12850.98495632  1001.60581496
0.43300002 12829.42251338  1085.75407876
0.43400002 12810.19319007  1003.03817431
0.43500002 12793.15108147  1004.00654445
0.43600002 12778.75080575  1591.52959452
0.43700002 12765.90334973  1090.33585677
0.43800002 12755.19266495  1091.90831983
0.43900002 12747.16911221  1261.96980191
0.44000002 12740.61370368  1011.34996373
0.44100002 12736.34458195  844.41968580
0.44200002 12733.67869125  1015.38358696
0.44300002 12732.93360750  848.01341845
0.44400002 12734.25271284  850.01140886
0.44500002 12735.99671700  1107.64968697
0.44600002 12739.78702226  1025.04331239
0.44700002 12746.15104198  856.54139061
0.44800002 12752.49971795  1202.43325539
0.44900002 12761.83087880  1033.70835017
0.45000002 12771.99239082  864.02532619
0.45100002 12783.14507784  953.36700509
0.45200002 12795.77546936  956.42028278
0.45300002 12809.41036926  1221.24924248
0.45400002 12824.52537250  962.80128797
0.45500002 12840.78103817  1317.46419696
0.45600002 12857.94709949  1145.83601008
0.45700002 12876.19073586  1503.81038731
0.45800002 12894.98186988  976.60149820
0.45900002 12914.99818420  1247.58888372
0.46000002 12936.46709575  1073.46809048
0.46100002 12957.66636972  1077.55958638
0.46200002 12980.70314448  901.50987611
0.46300002 13004.33088503  1176.63191424
0.46400002 13027.92954795  1363.04719356
0.46500002 13052.80022774  1003.62985708
0.46600002 13078.09924971  1190.95716462
0.46700002 13103.73473920  1195.84688898
0.46800002 13130.80887970  1200.87818301
0.46900002 13157.33933428  1020.35171373
0.47000002 13184.76182286  931.50346694
0.47100002 13212.70922460  1029.00584318
0.47200002 13241.15271395  939.45982958
0.47300002 13270.09350669  1132.20443165
0.47400002 13298.67240718  1137.03654471
0.47500002 13327.97794816  1332.26473884
0.47600002 13358.01872432  1146.91954203
0.47700002 13387.39673123  1247.83930846
