# SAXS profile: number of points = 501, q_min = 0, q_max = 0.5, delta_q = 0.001
#    q    intensity    error
0.00000000 1628779.37420969 390.90704981
0.00100000 1628694.50577286 537.46919967
0.00200000 1628439.85800988 806.07775524
0.00300000 1628015.66441495 976.80943345
0.00400000 1627421.75414268 1342.62299818
0.00500000 1626658.82274415 1756.79159810
0.00600000 1625726.69209033 1877.71440581
0.00700000 1624626.10616124 1949.55140842
0.00800000 1623356.83447368 2629.83818288
0.00900000 1621920.27421681 3406.03272146
0.01000000 1620315.84524976 3208.22551212
0.01100000 1618545.05357177 3496.05746793
0.01200000 1616607.78006559 3782.86237121
0.01300000 1614505.42021171 4068.55383838
0.01400000 1612238.13760439 4715.79676155
0.01500000 1609807.40298711 4249.89173313
0.01600000 1607212.87042257 4508.23230307
0.01700000 1604456.80446148 5198.44027965
0.01800000 1601539.60677931 5020.82689318
0.01900000 1598462.28225404 6713.54188840
0.02000000 1595225.52956755 6029.95277453
0.02100000 1591832.06249397 6303.65525327
0.02200000 1588280.54764056 6027.52495214
0.02300000 1584574.12395617 6845.36052708
0.02400000 1580713.20969654 7705.97724864
0.02500000 1576700.16003789 8608.78326698
0.02600000 1572535.69824682 8279.40082996
0.02700000 1568221.25363671 7245.18252364
0.02800000 1563757.49952920 8162.81452189
0.02900000 1559147.84130584 9822.63185123
0.03000000 1554392.62626855 10119.09646214
0.03100000 1549493.72056777 10412.59828133
0.03200000 1544452.22599980 7645.03887082
0.03300000 1539272.05067100 9420.34538439
0.03400000 1533951.90128420 12885.19656532
0.03500000 1528495.85451049 9079.26579506
0.03600000 1522904.28098289 9297.33106506
0.03700000 1517180.40111525 12971.89302945
0.03800000 1511325.63511419 10609.50644950
0.03900000 1505342.32186142 13548.08152416
0.04000000 1499230.70381264 12908.37695799
0.04100000 1492994.90405997 13168.21566437
0.04200000 1486636.18823785 10547.68424488
0.04300000 1480156.31964643 17584.25789363
0.04400000 1473558.26522882 10941.17062745
0.04500000 1466844.38815936 10121.22674858
0.04600000 1460014.99400669 13381.03804211
0.04700000 1453074.35652865 15693.20378037
0.04800000 1446023.63491154 13816.75647445
0.04900000 1438865.85954506 12949.79333869
0.05000000 1431602.75798561 14237.29009114
0.05100000 1424238.04366180 16663.58588710
0.05200000 1416770.55150255 11263.32640933
0.05300000 1409206.36116964 14838.94367488
0.05400000 1401545.81814101 12719.02889277
0.05500000 1393792.80439073 15220.21813396
0.05600000 1385948.04905236 14219.82764683
0.05700000 1378016.54585417 13187.61895940
0.05800000 1369997.50755446 18186.71776197
0.05900000 1361894.96685850 15934.17185646
0.06000000 1353712.40074383 18579.70356823
0.06100000 1345451.05580175 13763.96494406
0.06200000 1337113.92672103 16426.44535760
0.06300000 1328704.16384162 15306.67268312
0.06400000 1320220.93687146 12872.15473649
0.06500000 1311671.53153848 14284.10364663
0.06600000 1303055.81068957 13095.71151016
0.06700000 1294375.82806272 14522.89747052
0.06800000 1285635.15408411 18628.85425468
0.06900000 1276837.95988221 17428.83896839
0.07000000 1267983.31868218 16204.82757161
0.07100000 1259076.03892775 14957.82404305
0.07200000 1250117.31582796 21902.05639935
0.07300000 1241110.99901453 19286.86582838
0.07400000 1232059.93232404 18018.87735468
0.07500000 1222964.57780509 15335.97652451
0.07600000 1213828.17066897 14019.71602848
0.07700000 1204654.65882296 19732.24423674
0.07800000 1195444.99221822 16999.22858654
0.07900000 1186200.84602894 18504.73406599
0.08000000 1176928.04424680 15729.64404925
0.08100000 1167626.55949282 18670.34956227
0.08200000 1158298.42605235 21631.22412158
0.08300000 1148946.25534627 15924.39584646
0.08400000 1139573.98148596 18888.43962973
0.08500000 1130182.88037772 14579.35984130
0.08600000 1120775.22492055 16088.72910912
0.08700000 1111353.36174222 24938.77060856
0.08800000 1101919.24167018 14710.62256716
0.08900000 1092476.07831932 16223.27052504
0.09000000 1083026.14254604 19218.29980227
0.09100000 1073570.55072606 16296.80172566
0.09200000 1064111.94043713 14844.36226659
0.09300000 1054654.28484528 17844.75133815
0.09400000 1045196.22594390 17872.85630362
0.09500000 1035741.82357196 19389.08784861
0.09600000 1026293.15728693 22398.84921071
0.09700000 1016854.22212547 19432.08509837
0.09800000 1007424.61375501 22440.38432649
0.09900000 998007.31870655 14970.11048453
0.10000000 988603.02945249 19470.53758071
0.10100000 979214.53327121 16480.18137005
0.10200000 969843.76255332 16482.49551987
0.10300000 960492.84237062 20977.16466416
0.10400000 951163.67874167 16478.91150945
0.10500000 941859.60528508 19468.23895721
0.10600001 932577.00437407 17961.43394939
0.10700001 923324.19703929 17949.42323510
0.10800001 914097.88926783 22418.25178933
0.10900001 904903.51252505 17917.09039128
0.11000001 895740.66418931 20879.71586505
0.11100001 886610.67924928 17874.07213506
0.11200001 877516.80090872 19336.08361831
0.11300001 868458.59406966 19305.83545510
0.11400001 859438.78850229 17790.38375965
0.11500001 850458.85545105 19237.38021615
0.11600001 841520.28890509 19199.28629549
0.11700001 832624.13626287 19158.68227769
0.11800001 823770.88231920 19115.60422453
0.11900001 814962.15061954 17603.18328252
0.12000001 806199.41515234 16095.77208171
0.12100001 797485.76631852 17512.78825335
0.12200001 788820.15732715 16009.10584716
0.12300001 780204.80349482 15962.99103159
0.12400001 771639.83764936 18808.72192892
0.12500001 763126.33967731 20192.32389933
0.12600001 754667.41014286 20126.98077696
0.12700001 746261.74463022 18626.69402378
0.12800001 737911.11793846 17134.29696606
0.12900001 729616.33957550 15650.27122152
0.13000001 721378.55922165 14175.08935685
0.13100001 713197.66595799 14121.31445161
0.13200001 705075.36405754 18286.13042885
0.13300001 697013.23610628 18212.95671807
0.13400001 689009.90396215 13952.45121303
0.13500001 681068.06928165 22230.06282946
0.13600001 673186.76626545 15217.38756894
0.13700001 665368.15145217 15150.43352296
0.13800001 657610.83297812 19195.66111982
0.13900001 649917.26956031 20472.39495659
0.14000001 642286.98947669 16301.24456169
0.14100001 634720.91598915 14871.51176301
0.14200001 627218.68463924 16144.60970408
0.14300001 619782.76141411 16064.76993359
0.14400001 612409.30463671 13319.90300415
0.14500001 605103.37883854 18552.47047035
0.14600001 597862.75729134 23729.17395630
0.14700001 590690.00505728 17047.31435019
0.14800001 583580.46858816 16955.93131479
0.14900001 576538.78601080 16863.76028646
0.15000001 569563.74748066 14190.68143804
0.15100001 562655.84634287 14111.40929213
0.15200001 555814.99138584 21685.12291217
0.15300001 549042.32299458 16487.74173757
0.15400001 542334.36482503 15131.12949267
0.15500001 535695.24996771 18802.90416123
0.15600001 529120.77844576 13706.87441253
0.15700001 522616.98702082 18579.03476546
0.15800001 516176.60153315 17235.13753867
0.15900001 509805.72019937 18353.00679345
0.16000001 503499.26028982 13375.45848095
0.16100001 497262.63688903 15708.52744083
0.16200001 491090.99929596 16810.04569944
0.16300001 484985.79277731 11930.65106554
0.16400001 478946.76455203 11853.93298228
0.16500001 472973.68943559 16487.86359214
0.16600001 467067.07108505 16380.04295630
0.16700001 461224.20129725 19758.84571648
0.16800001 455446.33247091 11545.56507328
0.16900001 449735.51321063 13761.90735406
0.17000001 444087.47133781 15947.18184876
0.17100001 438503.93140186 12444.74216084
0.17200001 432984.60188568 17977.52151924
0.17300001 427528.68779687 14506.04906199
0.17400001 422135.71343836 11081.06300107
0.17500001 416805.48383240 18706.23099785
0.17600001 411536.14890481 10926.28526946
0.17700001 406330.39574385 14103.72870240
0.17800001 401184.15821700 12926.15418828
0.17900001 396099.79470853 10694.69496228
0.18000001 391075.80235035 14864.79194948
0.18100001 386113.13381701 16865.42248179
0.18200001 381207.07444350 10464.13468778
0.18300001 376360.94121574 12465.07496191
0.18400001 371572.97139546 14435.61062066
0.18500001 366844.29287000 12281.94750551
0.18600001 362171.03052293 15238.34682916
0.18700001 357554.60383130 13107.95239574
0.18800001 352994.21486885 10007.38646434
0.18900001 348491.14961824 16884.39699675
0.19000001 344039.62564131 15770.77718455
0.19100001 339646.61255044 10760.00519401
0.19200001 335304.11338842 10677.75999539
0.19300001 331017.65737220 9632.61428470
0.19400001 326781.46445575 12425.86577310
0.19500001 322598.83616003 10432.84685442
0.19600001 318466.94614416 12233.90831426
0.19700001 314385.80049857 15873.33981731
0.19800001 310355.32471328 12043.33894465
0.19900001 306374.82908730 12867.74342980
0.20000001 302442.21798424 10030.49663350
0.20100001 298559.46398816 9950.98740503
0.20200001 294722.93492043 13461.47068873
0.20300001 290935.31951211 11573.40755720
0.20400001 287193.53141168 9714.32165915
0.20500001 283497.67724171 11388.10223308
0.20600001 279847.29227133 11296.03648647
0.20700001 276242.08784942 9480.62890313
0.20800001 272680.16330426 9403.37587605
0.20900001 269163.91421761 11022.26280825
0.21000001 265688.82965541 10090.86222733
0.21100001 262256.95853723 8339.77167573
0.21200001 258866.54121349 9097.86502104
0.21300001 255516.64280814 11482.91847066
0.21400001 252208.52240618 9760.47027856
0.21500001 248941.19404519 8872.26457523
0.21600001 245712.52392749 13596.50315435
0.21700001 242523.18265406 10309.66098206
0.21800001 239372.14031877 8649.71269938
0.21900001 236258.12483130 8576.17033687
0.22000001 233181.45694131 8502.96222941
0.22100001 230143.02196325 13028.39708937
0.22200001 227140.88154743 9117.43541643
0.22300001 224172.76907880 9038.64647665
0.22400001 221240.22953255 10453.60133973
0.22500001 218344.11762079 7401.86593736
0.22600001 215480.14591333 8804.51917837
0.22700001 212651.89181989 8727.23405299
0.22800001 209855.95138264 8650.26272506
0.22900001 207091.61091016 9288.05918856
0.23000001 204360.85630113 9205.43520743
0.23100001 201662.34013174 9123.20469902
0.23200001 198993.67657271 9041.27812268
0.23300001 196356.37643523 7581.32005272
0.23400001 193750.33078259 10244.54922465
0.23500001 191172.40835392 8121.00429097
0.23600001 188625.49480417 7376.20032319
0.23700001 186107.35355574 6644.03283619
0.23800001 183617.91151005 7899.24292679
0.23900001 181156.42923212 9782.44764124
0.24000001 178722.80591956 7752.99568751
0.24100001 176317.72300498 7680.40037739
0.24200001 173939.19942374 6974.09253078
0.24300001 171587.84297050 7536.13841974
0.24400001 169262.09611208 6842.42055900
0.24500001 166962.56889027 9241.37862523
0.24600001 164689.14944498 9762.77324093
0.24700001 162441.12041690 7855.65295498
0.24800001 160217.89123822 5984.13852084
0.24900001 158018.50935692 7703.40269558
0.25000001 155844.64054846 9974.83669020
0.25100001 153693.50080758 7552.49898699
0.25200001 151568.20363424 6327.21496005
0.25300001 149465.72218051 5694.64428449
0.25400001 147386.11257889 9020.03051658
0.25500001 145329.15120313 6138.70363725
0.25600001 143295.28574066 5524.03352666
0.25700001 141282.96217043 5467.65089469
0.25800001 139293.74794049 5952.71859988
0.25900001 137326.19039931 8033.58251847
0.26000001 135380.15902081 6360.16017173
0.26100001 133454.82436808 7342.68478416
0.26200001 131551.87900340 7784.58280837
0.26300001 129668.86736918 5648.37612987
0.26400001 127806.83401053 6096.38627077
0.26500001 125965.64003808 6533.83805795
0.26600001 124143.78797790 6960.74252130
0.26700001 122343.26242447 6393.65919685
0.26800001 120562.76292494 5837.64925707
0.26900001 118800.70704522 6254.85752192
0.27000001 117059.24823905 5234.30453271
0.27100001 115336.42503446 5176.29900050
0.27200001 113634.27229572 5118.65603779
0.27300001 111950.01503821 5521.37500298
0.27400001 110283.04070721 5004.09320891
0.27500001 108637.56967139 5397.11471669
0.27600001 107008.14451894 4890.80747670
0.27700001 105398.92772111 5274.16259277
0.27800001 103806.87969283 4778.74993282
0.27900001 102234.20590948 5581.98790684
0.28000001 100677.91128794 5092.28899395
0.28100001 99140.15004728  5451.71710912
0.28200001 97620.77346368  4144.00202967
0.28300001 96118.32106928  4913.56880562
0.28400001 94633.17409376  5663.79573758
0.28500001 93165.76839596  5195.85514937
0.28600001 91715.48700384  4343.18709264
0.28700001 90282.09813436  4680.22418881
0.28800001 88865.25467142  6548.92525299
0.28900001 87466.78439368  3804.80530122
0.29000001 86083.69834265  6012.08577683
0.29100001 84718.10579719  5565.97981434
0.29200001 83369.01511806  4030.47522667
0.29300001 82036.39627406  3617.80524694
0.29400001 80719.37307389  3571.83242760
0.29500001 79419.78001025  3526.23839938
0.29600001 78135.72935112  3829.04159811
0.29700001 76867.89735921  5497.59227938
0.29800001 75615.93624347  3730.51239117
0.29900001 74380.34799327  4016.53898178
0.30000001 73160.05111119  4954.76469606
0.30100001 71956.39454158  5541.36220598
0.30200001 70766.58642808  3537.97565596
0.30300001 69593.90047994  4442.87481697
0.30400001 68436.80914887  3757.18100014
0.30500001 67294.66168526  4015.47265286
0.30600001 66166.75097467  3351.67692930
0.30700001 65055.46526069  3907.23142854
0.30800001 63958.73501899  4150.28251187
0.30900001 62877.17104177  4093.30402861
0.31000001 61810.79663315  3460.16855934
0.31100001 60758.41069561  3980.89125725
0.31200001 59721.73851966  2803.93575625
0.31300001 58698.92685500  3870.60742008
0.31400001 57692.10519637  3543.73772947
0.31500001 56698.62679612  2956.26654112
0.31600002 55720.21349581  4239.19404348
0.31700002 54755.92719541  2873.04363598
0.31800002 53805.99703915  3089.54049627
0.31900002 52870.30284243  2791.55212226
0.32000002 51949.04233484  2501.34650686
0.32100002 51041.07341651  3451.39754785
0.32200002 50148.24551621  3158.58739340
0.32300002 49267.67697067  3112.73197840
0.32400002 48401.63990887  3067.45407447
0.32500002 47549.06691122  3022.69432668
0.32600002 46710.42418414  2749.37569767
0.32700002 45884.80852695  2934.79249235
0.32800002 45073.31195895  2446.80485556
0.32900002 44274.32028871  2629.89474968
0.33000002 43489.60294699  2375.18477742
0.33100002 42715.32960277  2339.94586645
0.33200002 41957.48046868  2095.77624866
0.33300002 41210.84439332  3096.99510282
0.33400002 40477.59167360  2644.19880130
0.33500002 39755.98881459  3005.55289671
0.33600002 39048.13219395  2960.82476382
0.33700002 38351.88616673  2333.32886488
0.33800002 37668.72967674  3639.36449007
0.33900002 36997.21063596  2641.60096451
0.34000002 36338.29140680  2973.92590957
0.34100002 35691.24129261  2014.05684152
0.34200002 35056.79560800  1803.67221945
0.34300002 34433.26810838  2842.81074966
0.34400002 33822.67955511  2625.48562481
0.34500002 33222.94680971  2413.97942952
0.34600002 32635.83397071  1698.69523863
0.34700002 32058.31079928  2510.16585447
0.34800002 31493.89085670  1648.70526443
0.34900002 30939.93776948  1786.78149081
0.35000002 30397.02545664  1920.48415931
0.35100002 29865.97184035  2365.38508179
0.35200002 29344.23556226  1709.15508127
0.35300002 28833.99217002  2143.51907944
0.35400002 28334.80414325  1508.82839209
0.35500002 27845.89202649  1784.36484557
0.35600002 27366.63554824  1612.03174332
0.35700002 26898.34329664  1877.77343448
0.35800002 26440.70526237  2420.51447789
0.35900002 25992.74241645  1824.69060406
0.36000002 25554.97456670  1660.56232600
0.36100002 25126.38806472  2182.98069846
0.36200002 24708.75281577  1345.39165455
0.36300002 24299.53937312  2122.80786019
0.36400002 23899.94167333  1962.78280289
0.36500002 23509.56235634  1677.87754485
0.36600002 23128.84741697  1400.56742168
0.36700002 22756.63677177  1381.78305023
0.36800002 22394.88104514  1735.37941439
0.36900002 22040.91285504  1834.90608210
0.37000002 21695.50363972  1448.82580169
0.37100002 21358.61544250  1310.99187796
0.37200002 21031.05902117  1529.69415037
0.37300002 20711.35401747  1278.09771696
0.37400002 20399.83953144  1147.49102800
0.37500002 20097.05290379  1246.82122121
0.37600002 19802.18953578  1231.79525843
0.37700002 19514.83500386  1549.08767599
0.37800002 19235.25590453  1421.58165497
0.37900002 18963.84743802  1405.22116173
0.38000002 18699.98620766  1389.31554111
0.38100002 18442.59385199  1268.11281334
0.38200002 18193.56758385  1149.74255793
0.38300002 17951.00482167  1240.77351205
0.38400002 17716.38433635  1023.12124389
0.38500002 17487.54242188  1113.78162961
0.38600002 17266.66244312  1202.79576277
0.38700002 17052.01733872  1488.64118420
0.38800002 16843.94770974  1572.55103268
0.38900002 16641.93859513  1265.61949012
0.39000002 16447.41085133  1350.49696898
0.39100002 16257.99297102  1529.55205118
0.39200002 16075.46055600  1231.94297807
0.39300002 15898.62105309  1033.56940363
0.39400002 15728.98762077  1118.33107282
0.39500002 15563.77414700  924.48822813
0.39600002 15404.62124182  1100.81428609
0.39700002 15250.94390013  1001.52953337
0.39800002 15102.92898795  994.30137703
0.39900002 14960.27864910  897.61676147
0.40000002 14822.60395854  980.73763738
0.40100002 14690.55351961  1151.59254496
0.40200002 14563.56291604  968.40416198
0.40300002 14440.94779380  1050.14577332
0.40400002 14323.83090851  870.17276892
0.40500002 14211.32437171  952.01666477
0.40600002 14103.68156719  1033.23576057
0.40700002 14000.15257955  1285.21406770
0.40800002 13901.53272614  1108.71679511
0.40900002 13806.90439152  1018.94959237
0.41000002 13716.88285897  1183.90421565
0.41100002 13630.96890171  1095.11209345
0.41200002 13548.68033771  923.27486536
0.41300002 13471.15989442  1003.87088290
0.41400002 13396.98216683  1250.94326910
0.41500002 13326.84209362  1912.66846791
0.41600002 13259.91040229  829.40743496
0.41700002 13196.89383456  992.93433916
0.41800002 13138.50398316  1156.05702026
0.41900002 13081.48465569  988.96028683
0.42000002 13029.03169295  1069.61840752
0.42100002 12980.09132271  1068.13176556
0.42200002 12934.39936369  984.82521422
0.42300002 12891.27234604  1147.83894408
0.42400002 12850.90185304  1310.79205112
0.42500002 12814.23127143  982.59530045
0.42600002 12779.27366772  1064.06627236
0.42700002 12748.64312433  1064.00180558
0.42800002 12719.34883505  1227.73520448
0.42900002 12694.18188100  900.65224714
0.43000002 12670.88734839  1064.92477766
0.43100002 12649.14742293  1147.53070859
0.43200002 12630.96484479  1148.53368776
0.43300002 12614.83176524  903.34814552
0.43400002 12600.97620059  1068.87785687
0.43500002 12589.19960805  1152.66717074
0.43600002 12579.85870229  989.53173241
0.43700002 12572.03423571  1238.97403264
0.43800002 12566.30946942  910.24066955
0.43900002 12563.09643875  994.99728510
0.44000002 12561.24517879  1080.20433034
0.44100002 12561.61734544  999.40232336
0.44200002 12563.47492479  1085.29583281
0.44300002 12567.18494801  1339.15929152
0.44400002 12572.85859540  923.16218612
0.44500002 12578.86502715  1009.83133224
0.44600002 12586.78700393  928.33851947
0.44700002 12597.23162321  1015.84080624
0.44800002 12607.47920318  934.02514103
0.44900002 12620.66537356  1107.46343901
0.45000002 12634.64902406  1111.15426108
0.45100002 12649.50181599  1286.45439565
0.45200002 12665.66755421  860.63215110
0.45300002 12682.90259864  950.07627869
0.45400002 12701.45311561  1040.24905947
0.45500002 12721.06928445  1218.16965241
0.45600002 12741.46575268  960.77027062
0.45700002 12762.91296078  964.49337816
0.45800002 12784.80642123  1056.28075658
0.45900002 12807.97260720  1237.25021249
0.46000002 12832.39685058  1242.30439798
0.46100002 12856.52171374  890.95699699
0.46200002 12882.36291108  1073.61617589
0.46300002 12908.77342564  1527.36614411
0.46400002 12935.02818952  992.44008488
0.46500002 12962.52703079  996.68875064
0.46600002 12990.40102062  1091.97316155
0.46700002 13018.61826804  1005.29775031
0.46800002 13048.06031128  1009.72419505
0.46900002 13076.94185149  1106.30933307
0.47000002 13106.63005220  1203.77849420
0.47100002 13136.91585262  1023.10305509
0.47200002 13167.43855506  1214.49875269
0.47300002 13198.48912169  1126.09514524
0.47400002 13229.13203963  1319.60598350
0.47500002 13260.40762118  1325.51040864
0.47600002 13292.39757005  1236.39241858
0.47700002 13323.64517842  1241.89702594
0.47800002 13355.36296680  1151.49944958
