# SAXS profile: number of points = 501, q_min = 0, q_max = 0.5, delta_q = 0.001
#    q    intensity    error
0.00000000 1646666.22097350 370.49989972
0.00100000 1646580.80760772 642.16653022
0.00200000 1646324.52853424 740.84606130
0.00300000 1645897.60952934 1382.55404126
0.00400000 1645299.89275014 1357.37246310
0.00500000 1644532.07833466 1776.09471490
0.00600000 1643593.95388725 2416.08321058
0.00700000 1642486.30492008 2365.18037738
0.00800000 1641208.89488423 2658.75852197
0.00900000 1639763.10525053 3197.53819193
0.01000000 1638148.34779080 3243.53386868
0.01100000 1636366.16510676 4123.64291561
0.01200000 1634416.46980170 5099.37960936
0.01300000 1632300.56091533 4798.96386075
0.01400000 1630018.68929534 4767.80487755
0.01500000 1627572.24913511 4687.40828623
0.01600000 1624961.00852012 5801.11105975
0.01700000 1622187.13024590 5255.88653777
0.01800000 1619251.08553250 5999.32554185
0.01900000 1616153.82681457 7272.69254883
0.02000000 1612896.13803484 5588.68537110
0.02100000 1609480.64320642 6373.54363606
0.02200000 1605906.13304373 6094.41405178
0.02300000 1602175.53819011 8074.96508004
0.02400000 1598289.53913638 6592.94464956
0.02500000 1594250.39459441 7461.09218745
0.02600000 1590058.71790383 7083.71191226
0.02700000 1585716.12098692 7992.00961582
0.02800000 1581223.13331379 8253.98513442
0.02900000 1576583.24403912 10641.93738588
0.03000000 1571796.84444784 9501.51236143
0.03100000 1566865.75149185 12785.62512048
0.03200000 1561791.00841500 10050.12560204
0.03300000 1556576.66272459 8732.39548045
0.03400000 1551221.40260311 9772.69528732
0.03500000 1545729.20871712 10016.32573502
0.03600000 1540100.61471424 10257.07056801
0.03700000 1534338.72335152 10494.87735309
0.03800000 1528444.86119503 12517.96399251
0.03900000 1522421.69157445 13701.79585870
0.04000000 1516269.25194515 11190.06759789
0.04100000 1509991.61044799 9512.94758690
0.04200000 1503590.23692369 10667.97322589
0.04300000 1497066.86559507 11856.77012588
0.04400000 1490424.19605001 14084.50930678
0.04500000 1483664.94476418 11261.01745400
0.04600000 1476789.28209630 14575.91089188
0.04700000 1469801.43936854 15873.85628344
0.04800000 1462702.72794372 12901.03866072
0.04900000 1455496.07726719 14191.08741391
0.05000000 1448183.16445176 12186.46189634
0.05100000 1440767.87088176 13485.58789967
0.05200000 1433249.05143583 13673.19658789
0.05300000 1425632.65554931 12702.38755310
0.05400000 1417919.02216858 12867.61572625
0.05500000 1410112.28254914 13029.43809857
0.05600000 1402212.82140307 15585.59623718
0.05700000 1394225.95914668 12129.76641078
0.05800000 1386150.79899429 18401.15271584
0.05900000 1377991.17306424 14882.30536418
0.06000000 1369750.91676000 15039.86576867
0.06100000 1361431.24195941 16459.70448447
0.06200000 1353034.85877942 17900.65201839
0.06300000 1344565.31709002 16780.17594185
0.06400000 1336021.65767759 13026.21177155
0.06500000 1327410.77926933 19712.05099424
0.06600000 1318733.14026994 17229.24928376
0.06700000 1309990.44174020 14698.09344418
0.06800000 1301186.57368287 14814.00983481
0.06900000 1292325.41454161 14926.35923679
0.07000000 1283406.32636147 13668.27801581
0.07100000 1274433.49199583 16516.65882987
0.07200000 1265409.05260541 15241.85275266
0.07300000 1256336.25231520 16734.39966494
0.07400000 1247218.12711584 15434.32504638
0.07500000 1238055.19592276 23993.51082162
0.07600000 1228850.56890461 21289.83710435
0.07700000 1219608.25680530 18550.24245580
0.07800000 1210329.30472000 15776.64322689
0.07900000 1201015.26700000 14412.18387999
0.08000000 1191671.95397873 17374.57790407
0.08100000 1182299.74535332 15996.51630516
0.08200000 1172900.03277615 18983.38792128
0.08300000 1163476.08431602 19057.73915551
0.08400000 1154031.47429697 16185.29218673
0.08500000 1144567.44825088 16241.41285314
0.08600000 1135086.42800552 14812.87858096
0.08700000 1125591.06020940 17829.36323094
0.08800000 1116082.65492155 16389.67455724
0.08900000 1106564.91233238 22407.94052722
0.09000000 1097039.98557953 14974.59650660
0.09100000 1087509.08704095 19509.91393811
0.09200000 1077974.74545633 18045.29808683
0.09300000 1068440.98275934 16571.52042133
0.09400000 1058906.35510416 25652.00765798
0.09500000 1049375.13392756 19644.30343046
0.09600000 1039849.22427489 21181.72969419
0.09700000 1030333.04681117 18175.07580021
0.09800000 1020825.38794142 18191.10926842
0.09900000 1011330.24811178 16686.94987851
0.10000000 1001847.30147998 18213.58479744
0.10100000 992380.10923610 16701.75802396
0.10200000 982930.70878127 18223.53619797
0.10300000 973500.61134423 18223.93230163
0.10400000 964091.87244218 16702.89247585
0.10500000 954708.28788390 21251.80748818
0.10600001 945345.88698564 16690.08242006
0.10700001 936013.14029330 18196.09630357
0.10800001 926706.53831265 24242.64418316
0.10900001 917431.74707249 21192.67435482
0.11000001 908188.48957958 19657.74078223
0.11100001 898977.81606924 16613.11082299
0.11200001 889803.02371478 21115.02674679
0.11300001 880663.69028009 21083.08973791
0.11400001 871562.86599439 19544.79819018
0.11500001 862501.69891055 15007.53026772
0.11600001 853481.84427905 22467.91060869
0.11700001 844504.30596691 17937.27230349
0.11800001 835569.52584713 22372.37510826
0.11900001 826679.38551136 16368.25260410
0.12000001 817835.02113861 14843.70633288
0.12100001 809039.79467440 14805.42894000
0.12200001 800292.55400885 17718.47798050
0.12300001 791595.47746379 16196.04423198
0.12400001 782948.81102072 16148.31998817
0.12500001 774353.62725968 19025.86951828
0.12600001 765813.04917911 16047.61320177
0.12700001 757325.70396618 23265.04672224
0.12800001 748893.34942210 18838.41309255
0.12900001 740517.16143852 17328.10239437
0.13000001 732197.79733032 18703.99361441
0.13100001 723935.49086702 22934.27743173
0.13200001 715731.75550231 14278.84919538
0.13300001 707588.27014125 19911.53486046
0.13400001 699503.79170103 15581.44769474
0.13500001 691480.91304522 16927.45354945
0.13600001 683518.52200261 19664.82880523
0.13700001 675619.07034698 16782.37849876
0.13800001 667780.86311645 15315.55481779
0.13900001 660006.76276784 16632.17120609
0.14000001 652296.13643390 13796.06393621
0.14100001 644649.70711458 19223.45517279
0.14200001 637067.36525965 19131.13388107
0.14300001 629551.48852656 16317.97535229
0.14400001 622098.07752000 16236.76058916
0.14500001 614712.70273396 14808.42970741
0.14600001 607392.63148013 17410.91060273
0.14700001 600140.77920084 18652.37629752
0.14800001 592952.21842255 18553.47578977
0.14900001 585832.05808385 15817.46631454
0.15000001 578778.32155181 14420.26256185
0.15100001 571791.96777862 13036.85748050
0.15200001 564873.35102500 16852.99722307
0.15300001 558022.85893758 21913.55870456
0.15400001 551237.36219846 12816.26927593
0.15500001 544521.00999476 19112.68835280
0.15600001 537869.58888680 19000.24412414
0.15700001 531289.25727949 17628.17838853
0.15800001 524772.46090486 16270.57091831
0.15900001 518325.43495710 13683.79212875
0.16000001 511943.06258568 21017.82342655
0.16100001 505630.98840345 15972.88367765
0.16200001 499384.13076993 17093.91960319
0.16300001 493204.04756535 19412.51222859
0.16400001 487090.68320692 13261.04447636
0.16500001 481043.16375367 13175.77287726
0.16600001 475062.81118409 17850.48597302
0.16700001 469146.37430682 13004.73810980
0.16800001 463295.24826864 14093.44211777
0.16900001 457511.74068386 15166.51491980
0.17000001 451791.32534353 12747.29284649
0.17100001 446135.52813689 13812.35660336
0.17200001 440544.53526459 17148.19684496
0.17300001 435017.26451658 17030.92671010
0.17400001 429553.33976772 14658.50841184
0.17500001 424152.50430647 12317.38930678
0.17600001 418812.95382738 14455.32978406
0.17700001 413537.35906490 13249.73761023
0.17800001 408321.74213075 12059.78322344
0.17900001 403168.28359874 15239.76183986
0.18000001 398075.68896462 10807.75546589
0.18100001 393044.81216740 13949.16104273
0.18200001 388070.90386911 12783.05617729
0.18300001 383157.50402618 13747.69189389
0.18400001 378302.45403900 12597.47231461
0.18500001 373507.08184985 11462.93288350
0.18600001 368767.83086142 16550.30103095
0.18700001 364085.60127700 10267.21444108
0.18800001 359459.96285497 14266.96659977
0.18900001 354892.07504562 14160.19446335
0.19000001 350376.01183680 15057.40982013
0.19100001 345918.99506381 12951.20778713
0.19200001 341512.93265644 9886.79986757
0.19300001 337163.30339040 15698.32414764
0.19400001 332864.39589102 9736.28403989
0.19500001 328619.39641887 18356.68035141
0.19600001 324425.77360343 11504.13847562
0.19700001 320283.33044982 10463.65690028
0.19800001 316191.93752381 10382.16275924
0.19900001 312150.98282105 11237.43591264
0.20000001 308158.31108673 13007.36292571
0.20100001 304215.84064143 10139.51444780
0.20200001 300320.31991423 14631.60667776
0.20300001 296474.07233443 10886.52845067
0.20400001 292674.08853921 9899.70151276
0.20500001 288920.32212819 12498.69372604
0.20600001 285212.62874283 9741.43779517
0.20700001 281550.61919910 9662.81770767
0.20800001 277932.15119174 11327.12535725
0.20900001 274359.92267273 10370.80556727
0.21000001 270829.39823176 12857.62628886
0.21100001 267342.41195371 8501.48910202
0.21200001 263897.42491776 10117.82774966
0.21300001 260493.33491247 10034.20373520
0.21400001 257131.51713843 9121.74100173
0.21500001 253810.95462313 10690.51791415
0.21600001 250529.48668897 11416.62924818
0.21700001 247287.67032546 9703.56864235
0.21800001 244084.85438143 11225.46298375
0.21900001 240919.42410943 8745.37550867
0.22000001 237791.57200735 10247.62828019
0.22100001 234702.72635533 8597.16127290
0.22200001 231650.38742358 11623.05873857
0.22300001 228632.71587741 10754.88346342
0.22400001 225650.76161862 10661.99899065
0.22500001 222706.00978129 9814.65431517
0.22600001 219793.69719364 11225.96361502
0.22700001 216917.63000188 9644.15828595
0.22800001 214074.06127395 10294.82209351
0.22900001 211262.79273007 10203.99337142
0.23000001 208485.33731079 8668.82073535
0.23100001 205740.73320004 9307.71121016
0.23200001 203026.32088131 7095.77025039
0.23300001 200343.82787413 7735.27556006
0.23400001 197692.86771558 7665.54130822
0.23500001 195070.47549691 11739.34177063
0.23600001 192479.61693101 7526.91577609
0.23700001 189917.79772325 8814.08540922
0.23800001 187385.22926408 12763.74549503
0.23900001 184880.95280603 7321.28607741
0.24000001 182404.96927742 7912.72794153
0.24100001 179958.05814911 8492.22116575
0.24200001 177537.96393647 7118.38500075
0.24300001 175145.39159767 8974.45028998
0.24400001 172779.05698597 6349.63064459
0.24500001 170439.17639428 7547.04708775
0.24600001 168125.76452105 9343.58980526
0.24700001 165838.35026411 6169.18692166
0.24800001 163575.97615522 7331.47559810
0.24900001 161337.84292515 8470.23715428
0.25000001 159125.72306610 6590.19213255
0.25100001 156936.72842738 6525.42947672
0.25200001 154773.70075487 5873.66222153
0.25300001 152634.03127279 7559.96392661
0.25400001 150517.64389920 8060.22021214
0.25500001 148424.24877215 6839.38970701
0.25600001 146354.34742753 6770.35243232
0.25700001 144306.42875879 8376.98858579
0.25800001 142281.88147808 6633.18162835
0.25900001 140279.47522201 7112.16973027
0.26000001 138298.79172555 5955.83774746
0.26100001 136339.34366321 6429.76375139
0.26200001 134402.38400585 6892.82658989
0.26300001 132485.83750419 6295.72729610
0.26400001 130590.63744401 5190.97808403
0.26500001 128716.74099869 6162.95785064
0.26600001 126862.37936038 5588.92238719
0.26700001 125029.67088686 5528.81230824
0.26800001 123217.43624364 5469.00616647
0.26900001 121423.86195048 5409.43330588
0.27000001 119651.21834263 6322.96893253
0.27100001 117897.56948211 5291.24316875
0.27200001 116164.97816485 4756.95608097
0.27300001 114450.61838384 5174.31270200
0.27400001 112753.71871106 6046.41845203
0.27500001 111078.69469898 7817.71890289
0.27600001 109420.20160141 5001.05055087
0.27700001 107781.94590688 5393.40882843
0.27800001 106161.32115448 4887.13665064
0.27900001 104560.28317097 5708.99173133
0.28000001 102976.04926851 4774.48475030
0.28100001 101410.59599543 4718.63525500
0.28200001 99863.82942581  5510.98568770
0.28300001 98334.28587805  4189.04077667
0.28400001 96822.32246329  5794.81627370
0.28500001 95328.36967935  4907.50470337
0.28600001 93851.76744540  4848.38253571
0.28700001 92392.46079250  5587.89629322
0.28800001 90949.82329904  6702.54754527
0.28900001 89526.03630157  3894.38276345
0.29000001 88117.67200220  5384.87119094
0.29100001 86727.19540602  6077.84214175
0.29200001 85353.49836199  4876.67235975
0.29300001 83996.45403046  5926.79007694
0.29400001 82655.32903151  4023.24833105
0.29500001 81331.92348749  6138.93387543
0.29600001 80024.22488179  3565.07938725
0.29700001 78732.97619355  3871.30062270
0.29800001 77457.85522470  3821.38346841
0.29900001 76199.46337013  3771.87361538
0.30000001 74956.48521787  4399.57110814
0.30100001 73730.45767013  3673.98887963
0.30200001 72518.59059519  4284.76112816
0.30300001 71323.95996039  3902.84727380
0.30400001 70145.06906921  3209.13706184
0.30500001 68981.41985132  3482.87205318
0.30600001 67832.34786239  4060.78369703
0.30700001 66699.96491275  4930.46163977
0.30800001 65582.41311079  4255.64298824
0.30900001 64480.28646671  3298.16680892
0.31000001 63393.53015914  4140.23165071
0.31100001 62321.01707402  3499.94848458
0.31200001 61264.28686167  3163.99424477
0.31300001 60221.76618038  3687.37891781
0.31400001 59195.36320165  4475.16966993
0.31500001 58182.55919248  3585.20946719
0.31600002 57184.95487901  2719.14473324
0.31700002 56201.70731753  2948.90372258
0.31800002 55232.97490038  2907.18777153
0.31900002 54278.67731767  3647.52728845
0.32000002 53339.06418027  2825.10366808
0.32100002 52412.94248753  3544.16333882
0.32200002 51502.07648252  2744.80329610
0.32300002 50603.68628991  2705.27319716
0.32400002 49719.90527417  3393.38369564
0.32500002 48849.80748650  2627.63126912
0.32600002 47993.88326565  2824.92010278
0.32700002 47151.12894769  2551.81921948
0.32800002 46322.66811941  2971.83091393
0.32900002 45506.89689614  2252.59150303
0.33000002 44705.54841563  2441.59364234
0.33100002 43914.82559510  2405.65426002
0.33200002 43140.62569224  2154.87435537
0.33300002 42377.86841992  3184.69696257
0.33400002 41628.65076985  3556.12766042
0.33500002 40891.18605847  2473.09904993
0.33600002 40167.69722560  2233.52491000
0.33700002 39455.85433282  3200.65905505
0.33800002 38757.40063254  2364.97669860
0.33900002 38070.61286884  2135.76148309
0.34000002 37396.70529653  2486.69403646
0.34100002 36734.70474100  2449.83757520
0.34200002 36085.53985110  2784.90166990
0.34300002 35447.26958727  1829.07919733
0.34400002 34822.19741810  2883.27808277
0.34500002 34208.15927638  2840.64568084
0.34600002 33606.81924136  2274.00553167
0.34700002 33015.21952702  2412.75235731
0.34800002 32436.81831813  1698.06751938
0.34900002 31869.11395294  1673.12856177
0.35000002 31312.46471815  1978.32161459
0.35100002 30767.85712857  2111.90581333
0.35200002 30232.64991247  2561.31022190
0.35300002 29709.15218683  1735.31166142
0.35400002 29196.75537322  1554.72729726
0.35500002 28694.86814582  1838.76723788
0.35600002 28202.68267190  1661.27910147
0.35700002 27721.53104917  1935.24017420
0.35800002 27251.29106831  1760.97851224
0.35900002 26790.69669302  1591.36745894
0.36000002 26340.51817473  1426.33912672
0.36100002 25899.63344256  1968.89022756
0.36200002 25469.75355900  2218.92503516
0.36300002 25048.41502916  1367.64352537
0.36400002 24636.84250973  1888.41406782
0.36500002 24234.62701869  1463.52919498
0.36600002 23842.13507797  1706.26247768
0.36700002 23458.21938110  1553.87252541
0.36800002 23084.98807379  1405.52956545
0.36900002 22719.54443594  1387.02825352
0.37000002 22362.81576784  1866.73613465
0.37100002 22014.63836597  1719.78363062
0.37200002 21675.98495155  1819.15712323
0.37300002 21345.24479399  2035.69609243
0.37400002 21022.83256758  1655.54814312
0.37500002 20709.16713211  1518.39620605
0.37600002 20403.65206191  1269.20923664
0.37700002 20105.64960585  1253.98942532
0.37800002 19815.55615792  1464.46874723
0.37900002 19533.75426912  1558.79366452
0.38000002 19259.58558938  1320.82244229
0.38100002 18991.95004284  1197.06266791
0.38200002 18732.83224037  1183.82138951
0.38300002 18480.16067991  1064.45730559
0.38400002 18235.66836481  1474.35385714
0.38500002 17996.90022354  1354.62674400
0.38600002 17766.32549859  1340.73581727
0.38700002 17541.96907938  1429.31970830
0.38800002 17324.30334472  1516.30972208
0.38900002 17112.80648232  1201.31907197
0.39000002 16908.93011645  1388.39231764
0.39100002 16710.21235744  1080.81658648
0.39200002 16518.43220452  1363.26627443
0.39300002 16332.47747166  1640.92408932
0.39400002 16153.70823203  957.10725809
0.39500002 15979.60347913  1139.02618996
0.39600002 15811.53480729  1035.73463662
0.39700002 15649.08020230  1121.10015881
0.39800002 15492.36943837  1205.38386126
0.39900002 15341.01515926  1380.69142975
0.40000002 15194.79738599  1096.76052728
0.40100002 15054.26089841  998.54917270
0.40200002 14918.94618434  1352.77550936
0.40300002 14788.00453214  1075.38374053
0.40400002 14662.62660442  1068.90553011
0.40500002 14542.06658799  885.61189717
0.40600002 14426.23625306  880.72176498
0.40700002 14314.76709056  1051.27654494
0.40800002 14208.24369268  1307.51368777
0.40900002 14105.79562559  1301.25970812
0.41000002 14008.02742504  1036.31391801
0.41100002 13914.41437837  1203.87518906
0.41200002 13824.58012783  1027.71933540
0.41300002 13739.45956371  1023.86457520
0.41400002 13657.85250166  935.22149437
0.41500002 13580.34712567  847.41370080
0.41600002 13506.09754527  1182.72901808
0.41700002 13435.88236522  1095.15882348
0.41800002 13370.31303042  1008.38905654
0.41900002 13306.14358403  1257.43062827
0.42000002 13246.69953126  1171.14076105
0.42100002 13190.86729704  1085.47652131
0.42200002 13138.30808593  1417.16366884
0.42300002 13088.34862025  1248.62851754
0.42400002 13041.33328586  914.52354001
0.42500002 12997.91487862  1079.73684013
0.42600002 12956.40755358  1244.78691470
0.42700002 12919.20313107  1410.00189654
0.42800002 12883.53824889  1243.58358840
0.42900002 12851.96883899  1077.63763822
0.43000002 12822.36395623  994.75904286
0.43100002 12794.36813645  994.89011344
0.43200002 12770.00421927  995.29417601
0.43300002 12747.80562403  995.85862254
0.43400002 12727.89553331  830.49522290
0.43500002 12710.15395872  1080.61734078
0.43600002 12694.90545093  1248.22663762
0.43700002 12681.29616261  916.47731710
0.43800002 12669.71905133  834.30103907
0.43900002 12660.85402143  919.17804552
0.44000002 12653.33154803  1004.42150588
0.44100002 12648.13162096  1006.28539945
0.44200002 12644.49271737  1092.29455515
0.44300002 12642.72601396  1094.60727016
0.44400002 12642.99416569  1097.09587072
0.44500002 12643.69951108  1184.20895233
0.44600002 12646.35905232  1271.90762196
0.44700002 12651.63250648  1275.28461709
0.44800002 12656.74624397  1193.40465990
0.44900002 12664.93269425  1282.32449606
0.45000002 12673.82501018  1371.81488412
0.45100002 12683.72860958  1375.93094478
0.45200002 12695.08233856  1380.20941726
0.45300002 12707.43461171  1038.45160568
0.45400002 12721.28902171  955.05081857
0.45500002 12736.20309202  1219.61886589
0.45600002 12751.98307102  1223.80787333
0.45700002 12768.85112951  1140.38614842
0.45800002 12786.28441029  968.36929571
0.45900002 12804.91808665  1060.24726782
0.46000002 12825.03629643  1064.22156232
0.46100002 12844.82985862  1068.17610167
0.46200002 12866.41586797  982.92988682
0.46300002 12888.61037104  986.75205677
0.46400002 12910.73644019  900.52390938
0.46500002 12934.15244322  1446.55567781
0.46600002 12958.03629947  1361.56572870
0.46700002 12982.19308777  1458.15999673
0.46800002 13007.79703286  915.09856463
0.46900002 13032.82472614  918.81418674
0.47000002 13058.73397442  1014.85955892
0.47100002 13085.27242698  1389.65599761
0.47200002 13112.17299223  1488.49394863
0.47300002 13139.57923072  1027.64654034
0.47400002 13166.65607695  1125.74914794
0.47500002 13194.47330535  1130.50252639
0.47600002 13223.00566528  1324.54854027
0.47700002 13250.90889724  1235.11727685
