# SAXS profile: number of points = 501, q_min = 0, q_max = 0.5, delta_q = 0.001
#    q    intensity    error
0.00000000 1646666.22097350 246.99993315
0.00100000 1646580.92310971 543.37171753
0.00200000 1646324.99242330 889.01552406
0.00300000 1645898.65350045 1185.04707274
0.00400000 1645301.75818862 1604.16927519
0.00500000 1644534.97632258 1480.08153727
0.00600000 1643598.15096709 1898.35594165
0.00700000 1642491.99608150 2365.18857266
0.00800000 1641216.32436039 2658.77055772
0.00900000 1639772.52036198 3935.45421710
0.01000000 1638159.96241824 3243.55686564
0.01100000 1636380.20517143 3240.03294731
0.01200000 1634433.15954165 5418.14616143
0.01300000 1632320.13665082 4113.44692578
0.01400000 1630041.34934231 5134.63047805
0.01500000 1627598.27407441 5078.10684123
0.01600000 1624990.59267522 5801.21667519
0.01700000 1622220.45175658 5255.99449947
0.01800000 1619288.41233211 5537.96661937
0.01900000 1616195.40742518 7757.73830569
0.02000000 1612942.13141366 6096.92153254
0.02100000 1609531.32499454 6904.88969728
0.02200000 1605961.65019273 5540.56794489
0.02300000 1602236.15464536 6344.85546120
0.02400000 1598355.39770252 5993.83301469
0.02500000 1594321.79418278 6217.85528129
0.02600000 1590135.78021592 7084.05522487
0.02700000 1585799.14769519 7992.42807045
0.02800000 1581312.27502980 10318.06306775
0.02900000 1576678.66993844 9933.07607668
0.03000000 1571898.83363260 8771.19589484
0.03100000 1566974.35791533 8273.62499049
0.03200000 1561906.56151199 10050.86918625
0.03300000 1556699.38455117 8733.08394993
0.03400000 1551351.36151021 10587.97353084
0.03500000 1545866.63834642 10017.21627906
0.03600000 1540245.72354835 11112.87340897
0.03700000 1534491.66085728 14869.22488137
0.03800000 1528605.74618586 9836.57843194
0.03900000 1522590.87541138 15530.42764841
0.04000000 1516446.72879054 11191.37737707
0.04100000 1510177.65230800 12368.35554588
0.04200000 1503784.92154772 11639.29583276
0.04300000 1497270.38558724 13834.77900501
0.04400000 1490636.82086955 12074.15880979
0.04500000 1483886.73050079 11262.70080782
0.04600000 1477020.35273230 13536.89216208
0.04700000 1470042.01856497 13759.59393370
0.04800000 1462952.98677715 15053.78693436
0.04900000 1455756.09673502 17469.07397396
0.05000000 1448453.17084099 13296.80072750
0.05100000 1441047.82682997 19108.29507391
0.05200000 1433539.25471749 13675.96512732
0.05300000 1425933.11276462 16170.08225257
0.05400000 1418230.01008847 14040.47775464
0.05500000 1410433.70334858 17771.46549122
0.05600000 1402545.13446299 16788.46604294
0.05700000 1394569.03594767 18199.12676863
0.05800000 1386504.75057093 15951.73790014
0.05900000 1378356.17044449 17367.28855875
0.06000000 1370127.08732454 16297.66246513
0.06100000 1361818.57627136 15197.89602141
0.06200000 1353433.55292482 14068.94244029
0.06300000 1344975.54719185 14202.94244241
0.06400000 1336443.32469208 13030.32302513
0.06500000 1327844.11840486 13145.65738713
0.06600000 1319178.13275092 15909.28902535
0.06700000 1310447.15770354 13366.56163412
0.06800000 1301655.25184297 20208.19873079
0.06900000 1292805.97325235 13574.46335469
0.07000000 1283898.73687987 17775.57884450
0.07100000 1274937.99396479 15146.26407772
0.07200000 1265925.58820771 13861.88584026
0.07300000 1256865.08135836 15346.32336245
0.07400000 1247759.12752178 26670.85260068
0.07500000 1238608.52594081 28240.27571514
0.07600000 1229416.19212518 22719.61229558
0.07700000 1220186.26819729 22841.88801168
0.07800000 1210919.52450627 18654.21614983
0.07900000 1201618.06150608 17303.30089728
0.08000000 1192287.23582050 14486.29059479
0.08100000 1182927.39405342 18915.00991837
0.08200000 1173540.28653146 20454.80815409
0.08300000 1164128.80103828 16134.82593963
0.08400000 1154696.67776353 16194.62166579
0.08500000 1145245.09434548 17728.39489273
0.08600000 1135776.74760570 14821.88725216
0.08700000 1126293.74550998 14867.07813886
0.08800000 1116798.02974491 17891.10527675
0.08900000 1107292.78454916 14948.45329354
0.09000000 1097780.38841367 23975.52480922
0.09100000 1088262.02490937 21025.22330904
0.09200000 1078740.20156630 19562.95447460
0.09300000 1069218.81751532 19598.78184604
0.09400000 1059696.69585077 19630.88221324
0.09500000 1050177.94897012 25708.35739915
0.09600000 1040664.38946007 15141.66757842
0.09700000 1031160.51834963 24252.89653178
0.09800000 1021665.19499940 19723.24751680
0.09900000 1012182.35080947 18219.28317129
0.10000000 1002711.60431869 16710.18967180
0.10100000 993256.65640075 22795.24133650
0.10200000 983819.30572475 16720.00988724
0.10300000 974401.21026610 21280.92343328
0.10400000 965004.64163043 18238.58858485
0.10500000 955633.00302714 16714.02200933
0.10600001 946282.43907514 16706.61724798
0.10700001 936961.44445018 16696.65372581
0.10800001 927666.76457823 22751.02847198
0.10900001 918403.60670193 16669.02624618
0.11000001 909171.91769514 16651.48445636
0.11100001 899972.80917979 15119.54390595
0.11200001 890809.25355436 16609.13931443
0.11300001 881681.45186422 28645.83171974
0.11400001 872591.72165359 18062.64948870
0.11500001 863541.97265334 21035.88344437
0.11600001 854533.06209977 17996.46713530
0.11700001 845566.52919922 19456.48675318
0.11800001 836642.54933293 19414.29127165
0.11900001 827763.22085661 20859.63414811
0.12000001 818929.47416137 20808.99891865
0.12100001 810144.93643989 19273.34894584
0.12200001 801408.04403688 19221.77284179
0.12300001 792721.38905621 20642.46594358
0.12400001 784085.03882034 24992.71178999
0.12500001 775499.84148821 14656.94769477
0.12600001 766969.22033308 16071.84076944
0.12700001 758491.89801101 17475.65415374
0.12800001 750069.25544544 18867.99300996
0.12900001 741702.54433367 20248.48041466
0.13000001 733392.81958639 17293.40350097
0.13100001 725139.79149669 20100.87596780
0.13200001 716945.29685141 18593.97715037
0.13300001 708811.05244602 15671.81310840
0.13400001 700735.64409805 18446.86670057
0.13500001 692721.48130714 14131.51888494
0.13600001 684767.84538506 15479.17787478
0.13700001 676876.85474010 16813.62186456
0.13800001 669047.06760504 13949.63201737
0.13900001 661281.32209986 18052.98094467
0.14000001 653578.95576690 15205.51512302
0.14100001 645940.39450718 13758.53105190
0.14200001 638366.01587566 17800.83719227
0.14300001 630857.65106222 14989.17849624
0.14400001 623412.13368680 13559.21454727
0.14500001 616033.98132840 18887.60275850
0.14600001 608721.20779301 17448.99424453
0.14700001 601476.43211545 16023.33290748
0.14800001 594294.97103614 18595.49052103
0.14900001 587181.50714211 18496.21834764
0.15000001 580134.43350183 14454.05009268
0.15100001 573154.77712118 15681.51544197
0.15200001 566242.25976659 19492.89071228
0.15300001 559398.04140612 12922.09536626
0.15400001 552618.51747448 17987.73359265
0.15500001 545908.14037526 16606.52641393
0.15600001 539262.56986077 16509.52435545
0.15700001 532687.63039130 17674.57641057
0.15800001 526176.22313562 21333.81597396
0.15900001 519734.48659254 16215.71674708
0.16000001 513357.28874289 22315.64239501
0.16100001 507050.19408035 16017.71638710
0.16200001 500808.14539944 18367.13959956
0.16300001 494632.72102442 13384.76206279
0.16400001 488523.79603230 14509.15742713
0.16500001 482480.63029890 14416.52191395
0.16600001 476504.37419288 11936.43513709
0.16700001 470592.09938126 13044.81361076
0.16800001 464744.90584494 12959.41231138
0.16900001 458965.02648651 14044.33047363
0.17000001 453248.19340295 15113.56172268
0.17100001 447595.81844744 11547.97266125
0.17200001 442007.96192116 14911.13929956
0.17300001 436483.80353678 17088.34171545
0.17400001 431022.86611485 14708.65600080
0.17500001 425624.78719384 14607.44338637
0.17600001 420287.85927374 15622.10046702
0.17700001 415014.74281376 14405.16240343
0.17800001 409801.46681773 11003.16990376
0.17900001 404650.27273900 15295.78103201
0.18000001 399559.56638520 13017.65128772
0.18100001 394530.58044699 16156.02803246
0.18200001 389558.39589916 14970.72986159
0.18300001 384646.53726533 15924.36739504
0.18400001 379792.98325609 11593.18136156
0.18500001 374999.02060783 13601.21512000
0.18600001 370260.72715533 11424.39527611
0.18700001 365579.60488173 14433.08348262
0.18800001 360954.70493444 11256.37300520
0.18900001 356387.68963993 10157.04963463
0.19000001 351872.07457047 12097.36249532
0.19100001 347415.50934949 13007.23728464
0.19200001 343009.76954430 11916.15995702
0.19300001 338660.20582540 11826.01494623
0.19400001 334361.38927863 12714.09242811
0.19500001 330116.30024675 11646.50362306
0.19600001 325922.53118779 11557.21350207
0.19700001 321779.56615743 10512.53892316
0.19800001 317687.73688077 11379.57527285
0.19900001 313646.03609753 10350.31968037
0.20000001 309652.62567310 14937.64336844
0.20100001 305709.29288620 11115.59041469
0.20200001 301812.76575952 10109.21906691
0.20300001 297965.32669482 10941.28731337
0.20400001 294164.03502122 11759.20785578
0.20500001 290408.95100840 9871.00071135
0.20600001 286699.65037054 9792.22702126
0.20700001 283036.07435412 10596.87112472
0.20800001 279415.80228772 9635.65439737
0.20900001 275841.95096238 9557.92405266
0.21000001 272309.24934369 9480.44696406
0.21100001 268820.18265083 10258.17865489
0.21200001 265373.02610895 13565.86973601
0.21300001 261966.54591600 10931.86447788
0.21400001 258602.26937007 10841.90065591
0.21500001 255279.21437034 9098.15163030
0.21600001 251994.97508056 9022.68050934
0.21700001 248750.55928333 8947.55804046
0.21800001 245544.78793564 9679.37599807
0.21900001 242376.40275910 8798.26383615
0.22000001 239245.55555239 11103.38675818
0.22100001 236153.53187990 9436.69558012
0.22200001 233097.95070846 9356.55218386
0.22300001 230076.91929641 9276.70182468
0.22400001 227091.62060298 11496.51383665
0.22500001 224143.26051130 7598.45689064
0.22600001 221227.23734791 7532.78778791
0.22700001 218347.51299944 7467.48529771
0.22800001 215500.11201295 10363.40087679
0.22900001 212684.92710399 9538.91943172
0.23000001 209903.62852632 8727.79328688
0.23100001 207154.91021018 7929.89033787
0.23200001 204436.36128723 9288.56651438
0.23300001 201749.52201665 8497.69026924
0.23400001 199094.30567112 9123.49698888
0.23500001 196467.52688187 9041.43601473
0.23600001 193872.21206377 10338.23619727
0.23700001 191305.86761260 8878.50573584
0.23800001 188768.57402297 7444.08906869
0.23900001 186259.68348065 9387.48849145
0.24000001 183778.82906654 10629.76797600
0.24100001 181327.05484390 8556.82412283
0.24200001 178902.14384452 7173.08179675
0.24300001 176504.56421868 7106.07409158
0.24400001 174133.09337926 8959.14807816
0.24500001 171788.15905689 6972.88170597
0.24600001 169469.52599942 7534.61548236
0.24700001 167176.73288541 6218.97475753
0.24800001 164909.15105800 6775.29279173
0.24900001 162665.74920345 9149.94882555
0.25000001 160448.09182847 7853.13222606
0.25100001 158253.55417800 7776.58002021
0.25200001 156085.08178126 9477.48661414
0.25300001 153939.82024781 6451.61817181
0.25400001 151817.73118287 6387.73134173
0.25500001 149718.51449667 6899.02947441
0.25600001 147642.83315482 5691.63148740
0.25700001 145589.24213056 7324.59511814
0.25800001 143558.67695851 7808.15680921
0.25900001 141550.28534432 7176.59980652
0.26000001 139563.66925592 6010.30970089
0.26100001 137598.09001393 5948.36571276
0.26200001 135655.17970218 6421.91651097
0.26300001 133732.45140371 6354.96639141
0.26400001 131831.09650768 5764.31496756
0.26500001 129950.94005869 7259.05985517
0.26600001 128090.33768190 5643.02009360
0.26700001 126251.26020627 5075.30090046
0.26800001 124432.63437385 5522.94273803
0.26900001 122632.65694603 5463.28512548
0.27000001 120853.59402412 6386.50847843
0.27100001 119093.59932354 4859.01908234
0.27200001 117354.39745864 5766.79536402
0.27300001 115633.49012876 4752.53666920
0.27400001 113930.01439199 6109.49731090
0.27500001 112248.42418300 6041.21047543
0.27600001 110583.07344486 6432.61768672
0.27700001 108938.34466150 6359.82086233
0.27800001 107310.88405041 5389.15285207
0.27900001 105703.06469069 6215.34049797
0.28000001 104112.07038787 4827.15637200
0.28100001 102539.79023020 4771.17666523
0.28200001 100986.07855989 5144.23108532
0.28300001 99449.60890197  5083.86424769
0.28400001 97930.72893118  5023.84663195
0.28500001 96429.80453062  4964.20657220
0.28600001 94946.25395286  5722.41099659
0.28700001 93479.81013657  6461.32478247
0.28800001 92030.13232533  5186.35835268
0.28900001 90599.30925447  4335.17715303
0.29000001 89183.83802166  5060.73712808
0.29100001 87786.22956787  4229.54074078
0.29200001 86405.31519487  4177.26516083
0.29300001 85041.15735498  4125.34673857
0.29400001 83692.78026420  4073.74627220
0.29500001 82362.14554513  4022.56737884
0.29600001 81047.10475959  4693.84329435
0.29700001 79748.61496098  4634.19223476
0.29800001 78466.20390622  3871.13035297
0.29900001 77200.51509641  4168.82801255
0.30000001 75950.08037412  4800.80480772
0.30100001 74716.59797505  4061.59445820
0.30200001 73497.34704284  4342.59095561
0.30300001 72295.30099755  3626.33246971
0.30400001 71108.93382623  3578.55726422
0.30500001 69937.83912318  4173.19105805
0.30600001 68781.22348559  3800.85058976
0.30700001 67641.37576927  3750.03805019
0.30800001 66516.31423679  4932.85009734
0.30900001 65406.56465144  4257.96756040
0.31000001 64312.30071405  5100.28724960
0.31100001 63232.19136809  3551.12003536
0.31200001 62167.84588535  3502.53660301
0.31300001 61117.74035421  3742.23941907
0.31400001 60083.71630696  3406.74687590
0.31500001 59063.10353511  4199.38686018
0.31600002 58057.91306512  3312.78467635
0.31700002 57066.98129158  3266.51416379
0.31800002 56090.62361808  3757.51105409
0.31900002 55128.61930887  5292.34770424
0.32000002 54181.19781293  3130.58975786
0.32100002 53247.25160233  3343.39508642
0.32200002 52328.78290603  3042.39558222
0.32300002 51422.43946033  2499.13067611
0.32400002 50530.94770363  3448.73734407
0.32500002 49653.14025987  3156.45027578
0.32600002 48789.37828782  2871.74294200
0.32700002 47938.76144510  2358.58717478
0.32800002 47102.50403829  2556.95955280
0.32900002 46278.89537605  2519.88597255
0.33000002 45469.65807031  2934.83921912
0.33100002 44671.10789982  2892.00766238
0.33200002 43889.01490127  2849.93331757
0.33300002 43118.40807118  2160.23234666
0.33400002 42361.26460397  2554.38437658
0.33500002 41615.93887773  2726.67644439
0.33600002 40884.53135463  2480.05578942
0.33700002 40164.78387584  2036.35463894
0.33800002 39458.50321960  2207.11148211
0.33900002 38763.74439790  2767.73148108
0.34000002 38081.95201397  2337.47032532
0.34100002 37411.99608915  2111.15903929
0.34200002 36754.88031909  2080.14255017
0.34300002 36108.73616774  2422.17413684
0.34400002 35475.84572144  2019.46261333
0.34500002 34853.79725063  2170.69459557
0.34600002 34244.44384640  2317.15040261
0.34700002 33644.97342027  2458.77477400
0.34800002 33058.61376515  2249.80406634
0.34900002 32482.88934089  2216.95730251
0.35000002 31918.46393041  1680.50720553
0.35100002 31365.78636610  1656.11359857
0.35200002 30822.79433913  2611.30726009
0.35300002 30291.38194691  1769.31970332
0.35400002 29771.01114942  1743.83706067
0.35500002 29261.22599770  1718.80449651
0.35600002 28761.16691835  2464.25689828
0.35700002 28272.12572001  1518.21322307
0.35800002 27793.85751801  1796.03915788
0.35900002 27325.45255896  1475.57450808
0.36000002 26867.45247053  1745.84714423
0.36100002 26418.65556467  1434.53306511
0.36200002 25980.93379677  1697.59429469
0.36300002 25551.83287706  1953.18219764
0.36400002 25132.41966151  1926.40005830
0.36500002 24722.29435327  1492.97942671
0.36600002 24322.01217450  1740.60488372
0.36700002 23930.41455790  1981.43841925
0.36800002 23549.35019165  1564.14791382
0.36900002 23176.18372739  1543.53390936
0.37000002 22811.69205086  1650.31193959
0.37100002 22455.87092116  1503.64518811
0.37200002 22109.45610804  1731.83377898
0.37300002 21771.03948758  1709.89752235
0.37400002 21440.98197616  1326.66082262
0.37500002 21119.70638999  1429.38179619
0.37600002 20806.49708528  1176.60746591
0.37700002 20500.91359000  1278.64204118
0.37800002 20203.31013047  1378.26988239
0.37900002 19913.97674876  1135.09672845
0.38000002 19632.32653870  1234.18626632
0.38100002 19357.16839206  1552.83212197
0.38200002 19090.50258057  1206.42436773
0.38300002 18830.46082808  1193.09805459
0.38400002 18578.51346996  1072.90920372
0.38500002 18332.48128657  1273.74086013
0.38600002 18094.63273229  1365.51152383
0.38700002 17862.84275502  1247.54099711
0.38800002 17637.97050964  1337.92831639
0.38900002 17419.20226022  1324.73039465
0.39000002 17208.14596242  1211.10937021
0.39100002 17002.27899425  1299.65426789
0.39200002 16803.38506262  1089.61555601
0.39300002 16610.28162296  1276.16799755
0.39400002 16424.51389323  1459.72874142
0.39500002 16243.40039333  1061.34383198
0.39600002 16068.39566281  956.87300705
0.39700002 15898.97747859  1613.58730075
0.39800002 15735.44994329  1506.82675796
0.39900002 15577.25918315  1121.56271433
0.40000002 15424.30118580  1020.54893631
0.40100002 15277.03652434  1289.68748449
0.40200002 15134.98032829  1097.89152503
0.40300002 14997.43330673  1090.61340174
0.40400002 14865.51369948  1444.92800005
0.40500002 14738.35072435  1166.83528213
0.40600002 14616.06732378  1427.69752383
0.40700002 14498.25246162  1153.48102050
0.40800002 14385.23907148  1147.29479651
0.40900002 14276.49342327  1317.00658070
0.41000002 14172.54097419  961.11091170
0.41100002 14072.67117614  1043.62934387
0.41200002 13976.69076899  952.44163758
0.41300002 13885.53314941  948.52081438
0.41400002 13797.88303714  1030.70191171
0.41500002 13714.39083450  941.35583148
0.41600002 13634.24180112  1023.38623808
0.41700002 13558.17657209  935.10748249
0.41800002 13486.80392228  1186.70393335
0.41900002 13416.95419388  1183.37541597
0.42000002 13351.87038349  843.17065467
0.42100002 13290.40450197  925.41090932
0.42200002 13232.32158315  839.59084423
0.42300002 13176.92231851  1089.46798892
0.42400002 13124.49875523  1338.69893647
0.42500002 13075.75983707  1002.64931182
0.42600002 13029.03825567  1168.31391575
0.42700002 12986.64948391  1083.86581729
0.42800002 12945.94338274  916.37864577
0.42900002 12909.31130466  915.91568047
0.43000002 12874.75163855  915.58800616
0.43100002 12841.93077049  832.15715336
0.43200002 12812.73096607  1081.84299039
0.43300002 12785.75789131  915.58816598
0.43400002 12761.20233775  1831.87068239
0.43500002 12738.82213593  916.43090789
0.43600002 12719.16130875  1083.86338229
0.43700002 12701.10451962  1084.80138843
0.43800002 12685.16356803  1169.44528476
0.43900002 12671.99577031  1003.62211257
0.44000002 12660.31858811  1423.71619430
0.44100002 12650.96770779  838.75919878
0.44200002 12643.34385746  840.15023914
0.44300002 12637.59382577  1094.16292529
0.44400002 12634.01088909  1011.98432018
0.44500002 12630.86544942  845.00493861
0.44600002 12629.84374011  1100.88038178
0.44700002 12631.44792321  1103.48334287
0.44800002 12633.09781679  1191.17484960
0.44900002 12637.78160277  1023.66035834
0.45000002 12643.32239589  1026.38496074
0.45100002 12649.98270464  1114.96952843
0.45200002 12658.07662075  1118.15125129
0.45300002 12667.31322764  1293.96610753
0.45400002 12678.13519433  951.81104482
0.45500002 12690.09071861  954.80247092
0.45600002 12703.04341936  1219.11113473
0.45700002 12717.10545278  1135.76474182
0.45800002 12731.83867523  1314.88070150
0.45900002 12747.82157655  879.59973047
0.46000002 12765.40143322  882.72755094
0.46100002 12782.74628438  1063.01323139
0.46200002 12801.96735853  1333.64501278
0.46300002 12821.88245656  1070.88367353
0.46400002 12841.82614852  1254.00438284
0.46500002 12863.12532862  1168.87225401
0.46600002 12884.90707453  902.58778335
0.46700002 12907.18977630  996.69324176
0.46800002 12930.93597609  1091.62966684
0.46900002 12954.19110192  1095.92461917
0.47000002 12978.42160596  1558.77340086
0.47100002 13003.25086482  1012.69322535
0.47200002 13028.72857419  1016.82716977
0.47300002 13054.74708027  1021.01181754
0.47400002 13080.45957276  1118.37934648
0.47500002 13107.00094077  1029.42390268
0.47600002 13134.33348988  1127.71392689
0.47700002 13161.14445031  1132.38492218
