# SAXS profile: number of points = 501, q_min = 0, q_max = 0.5, delta_q = 0.001
#    q    intensity    error
0.00000000 1646666.22097350 370.49989972
0.00100000 1646580.94112615 839.75629992
0.00200000 1646325.06318977 814.93093208
0.00300000 1645898.81553942 1678.81685165
0.00400000 1645302.04358378 1357.37423753
0.00500000 1644535.41827653 1776.09832204
0.00600000 1643598.78490763 2243.51243274
0.00700000 1642492.86141338 2168.09066717
0.00800000 1641217.45289026 3101.90111692
0.00900000 1639773.93104965 3689.49150258
0.01000000 1638161.71207197 4324.74710661
0.01100000 1636382.35259295 3829.13487179
0.01200000 1634435.67749795 3505.86468194
0.01300000 1632323.09918496 4113.45439137
0.01400000 1630044.77601501 5134.64127207
0.01500000 1627602.22494178 5859.36827070
0.01600000 1624995.04489291 4972.48505966
0.01700000 1622225.51221799 5694.01180331
0.01800000 1619294.08838530 5999.48486743
0.01900000 1616201.72107318 6788.04753480
0.02000000 1612949.11603463 6096.94793441
0.02100000 1609538.99764451 8498.36629287
0.02200000 1605970.06208176 5540.59696590
0.02300000 1602245.38037490 6344.89199509
0.02400000 1598365.43956573 9590.19307468
0.02500000 1594332.61643242 6839.68723687
0.02600000 1590147.53076511 9016.13691182
0.02700000 1585811.72770081 6660.40956140
0.02800000 1581325.87578788 7566.64466265
0.02900000 1576693.24105468 8514.14389262
0.03000000 1571914.35591612 10233.16292738
0.03100000 1566990.92573571 9025.86814755
0.03200000 1561924.22451706 10050.98284770
0.03300000 1556718.12527880 9527.11536591
0.03400000 1551371.29111631 12217.04948124
0.03500000 1545887.68461389 10852.13204712
0.03600000 1540267.90216794 9403.33597730
0.03700000 1534515.00424788 11370.75670735
0.03800000 1528630.48048394 10730.98646962
0.03900000 1522616.82399584 10962.84164046
0.04000000 1516473.99689297 12124.21016698
0.04100000 1510206.26172976 11417.15986805
0.04200000 1503814.87058776 12609.48827487
0.04300000 1497301.74133643 12846.84953699
0.04400000 1490669.52766419 12074.42373484
0.04500000 1483920.94649614 17406.39351119
0.04600000 1477056.08248624 11454.57045217
0.04700000 1470079.23758169 13759.94230371
0.04800000 1462991.67417356 12903.58716659
0.04900000 1455796.30604432 13102.16736427
0.05000000 1448495.00056847 13297.18472442
0.05100000 1441091.33088415 13488.61548543
0.05200000 1433584.26689194 12536.69499820
0.05300000 1425979.93836711 13860.52564708
0.05400000 1418278.47033769 21061.43626669
0.05500000 1410483.80522981 14217.67741996
0.05600000 1402596.93109122 14390.64518452
0.05700000 1394622.57420114 13346.53865810
0.05800000 1386560.10395725 15952.37474088
0.05900000 1378413.35049663 16127.43695406
0.06000000 1370186.01851772 15044.64318619
0.06100000 1361879.33404224 13932.02623831
0.06200000 1353496.22550499 16627.70190757
0.06300000 1345040.04514020 19368.57755560
0.06400000 1336509.66872815 16940.26084337
0.06500000 1327912.41873690 13146.33356045
0.06600000 1319248.38467109 14584.29157492
0.06700000 1310519.44304655 18714.21852251
0.06800000 1301729.31414500 17514.76874167
0.06900000 1292882.05547282 16290.31466165
0.07000000 1283976.81360463 17776.65981681
0.07100000 1275018.25258705 19278.27688207
0.07200000 1266007.91288806 16635.34475466
0.07300000 1256949.38858922 27904.27773415
0.07400000 1247845.54704649 18249.74198081
0.07500000 1238696.96692442 14121.14608483
0.07600000 1229506.70098740 18461.04398079
0.07700000 1220278.84675939 27126.80003540
0.07800000 1211014.37175001 14350.52097822
0.07900000 1201714.97535999 14420.58038070
0.08000000 1192386.34770984 17384.99376516
0.08100000 1183028.51801584 17461.50174518
0.08200000 1173643.80142138 14611.86601336
0.08300000 1164234.34432868 17603.22411240
0.08400000 1154804.54979012 16196.13457103
0.08500000 1145355.25080722 19207.60845774
0.08600000 1135889.18271150 19270.36088947
0.08700000 1126408.25160137 19329.16650513
0.08800000 1116914.77863807 20875.13819312
0.08900000 1107411.77471112 14950.05966080
0.09000000 1097901.63119467 17983.62956376
0.09100000 1088385.53072810 19525.63733860
0.09200000 1078865.95045968 19565.23493089
0.09300000 1069346.82794145 25632.24467027
0.09400000 1059827.01417972 15102.53566184
0.09500000 1050310.55169357 15124.47265528
0.09600000 1040799.45616659 19686.72263882
0.09700000 1031297.60003388 22740.11314982
0.09800000 1021804.83539395 16691.18277094
0.09900000 1012324.05445889 22777.29229637
0.10000000 1002855.87731003 21270.57415804
0.10100000 993403.16934285 15199.06920578
0.10200000 983968.07595354 16722.53823740
0.10300000 974552.36878742 21284.22473554
0.10400000 965158.20197735 18241.49087554
0.10500000 955788.69828764 21275.85742490
0.10600001 946440.42085537 24304.59115118
0.10700001 937121.88143336 16699.51271298
0.10800001 927829.45087327 16687.01345927
0.10900001 918568.56135426 15156.38197569
0.11000001 909339.15889044 18168.59724982
0.11100001 900142.28273925 16634.63016807
0.11200001 890981.08360649 22653.19511714
0.11300001 881855.59409099 18095.67764271
0.11400001 872768.29321977 22582.88065036
0.11500001 863720.73532822 16531.61565262
0.11600001 854714.18309246 24000.37539145
0.11700001 845749.97822570 14969.77531960
0.11800001 836828.24273069 19418.60028715
0.11900001 827951.17751687 16393.43408699
0.12000001 819119.71307515 16353.72584189
0.12100001 810337.30720032 22243.76013051
0.12200001 801602.77490512 14789.57189376
0.12300001 792918.34409874 16223.11008460
0.12400001 784284.06485731 16175.85959985
0.12500001 775701.23835902 16126.82950539
0.12600001 767172.79753655 14614.64248176
0.12700001 758697.74224510 17480.39680511
0.12800001 750277.32123121 20325.01359006
0.12900001 741912.83678307 20254.22139880
0.13000001 733605.24695979 20181.48129512
0.13100001 725354.30671914 15798.21754503
0.13200001 717162.04467926 21461.07519871
0.13300001 709029.92409210 19952.10300455
0.13400001 700956.52819013 17033.24443806
0.13500001 692944.57666769 18376.89103966
0.13600001 684992.89876798 21114.90710011
0.13700001 677104.19833426 16819.26907971
0.13800001 669276.50870886 16745.29903753
0.13900001 661512.73200145 22226.82884343
0.14000001 653812.36771652 13828.13222935
0.14100001 646175.86707849 20645.31992685
0.14200001 638603.45250319 15067.84917249
0.14300001 631097.10402853 16358.03770799
0.14400001 623653.54677709 17633.80486691
0.14500001 616277.34748831 17545.41691065
0.14600001 608966.59066448 17456.02814487
0.14700001 601723.75273727 14694.09473506
0.14800001 594544.18499319 15945.67579381
0.14900001 587432.38373949 14538.95218351
0.15000001 580387.32171796 18404.08284003
0.15100001 573409.54931506 14381.11217539
0.15200001 566498.85063831 14301.26415920
0.15300001 559656.53119079 19392.09972086
0.15400001 552878.86096919 14139.87753656
0.15500001 546170.12494126 16614.49598480
0.15600001 539526.23579586 17788.18083370
0.15700001 532953.09922819 15157.18685742
0.15800001 526443.30171477 17577.94267391
0.15900001 520003.35235301 14976.09725465
0.16000001 513627.92376627 12404.11494446
0.16100001 507322.48376678 17259.11171245
0.16200001 501082.12836775 13476.60447863
0.16300001 494908.15996043 19479.58609563
0.16400001 488800.75777001 14517.38319113
0.16500001 482759.27786970 13222.77724512
0.16600001 476784.55758712 15526.48985088
0.16700001 470873.69871860 14239.22132155
0.16800001 465028.09101689 14146.15519666
0.16900001 459249.65800161 14053.04019841
0.17000001 453534.13894513 11633.15121326
0.17100001 447883.24993774 12710.92723346
0.17200001 442296.72647825 14920.88077235
0.17300001 436774.03916386 15959.72414474
0.17400001 431314.46930482 12454.20588934
0.17500001 425917.62585545 12368.64843898
0.17600001 420582.07556613 13399.74556039
0.17700001 415310.30993182 11088.78579891
0.17800001 410098.04725636 13213.35970669
0.17900001 404948.17779477 12026.96144858
0.18000001 399858.55482476 10856.16027628
0.18100001 394830.84197228 14012.54724350
0.18200001 389859.70981922 11771.81449407
0.18300001 384949.03202046 14874.43129993
0.18400001 380096.58454980 10547.68071954
0.18500001 375303.64557717 13612.26386816
0.18600001 370566.41853436 11433.82738405
0.18700001 365886.33799768 17540.59187231
0.18800001 361262.44157104 11265.96977267
0.18900001 356696.23213558 11182.42740579
0.19000001 352181.68143073 13117.00734465
0.19100001 347726.01295134 13018.86254004
0.19200001 343321.04375590 10933.05915501
0.19300001 338972.50575820 13809.74053714
0.19400001 334674.40221692 13704.91741839
0.19500001 330430.26636933 10686.11531936
0.19600001 326237.09953139 14460.46012008
0.19700001 322094.96882401 12436.08733399
0.19800001 318003.79435504 13289.37919414
0.19900001 313962.73650499 11302.65904834
0.20000001 309970.02739128 12149.27579779
0.20100001 306027.36717226 18545.25932713
0.20200001 302131.33837376 11039.87962596
0.20300001 298284.36072526 10953.00224352
0.20400001 294483.65622240 15394.13385664
0.20500001 290729.18104325 10780.23854263
0.20600001 287020.45433288 9803.18408112
0.20700001 283357.22784676 10608.89511206
0.20800001 279737.55148466 11400.70444967
0.20900001 276163.98473132 10438.99911631
0.21000001 272631.70953709 9491.67341623
0.21100001 269143.01905673 10270.49809273
0.21200001 265696.17881351 10186.79197729
0.21300001 262289.98187207 10945.36146097
0.21400001 258925.93692768 8350.36186069
0.21500001 255603.17073823 9109.69743579
0.21600001 252319.17491696 9034.28848503
0.21700001 249075.00343605 12217.12949616
0.21800001 245869.34464677 11307.53169493
0.21900001 242701.05188158 11212.78912709
0.22000001 239570.42265148 11118.46384096
0.22100001 236478.38593884 8662.20368652
0.22200001 233423.00746322 9369.59996261
0.22300001 230401.90885391 8515.65495391
0.22400001 227416.67806929 11512.96987166
0.22500001 224468.19118925 11414.20806172
0.22600001 221552.24298065 11315.78134534
0.22700001 218672.40857024 9722.17574479
0.22800001 215824.91928509 8896.30359364
0.22900001 213009.57387950 8818.59677565
0.23000001 210228.14603910 9469.72728617
0.23100001 207479.23509388 7942.30549501
0.23200001 204760.38155357 9303.28837587
0.23300001 202073.37604248 7802.05341799
0.23400001 199417.99382860 10544.22692238
0.23500001 196790.85017071 9056.31535319
0.23600001 194195.23875443 8284.36927709
0.23700001 191628.60879632 8209.36998912
0.23800001 189090.93048471 10168.36526777
0.23900001 186581.66420512 8060.32827491
0.24000001 184100.47300135 8651.80213793
0.24100001 181648.27524806 6593.83270340
0.24200001 179222.73978370 8492.46992636
0.24300001 176824.86934114 6471.79052402
0.24400001 174452.91732449 7693.37401793
0.24500001 172107.38961465 9526.14446580
0.24600001 169788.40471633 9435.99103848
0.24700001 167494.96929647 6230.81315258
0.24800001 165226.77290952 6788.34228612
0.24900001 162982.72934006 6723.03790333
0.25000001 160764.46637608 7263.33893449
0.25100001 158569.12987929 7192.69607160
0.25200001 156400.16337752 8309.54107337
0.25300001 154254.12379306 6464.79063402
0.25400001 152131.36475499 6982.82997262
0.25500001 150031.47980515 8641.81364564
0.25600001 147955.01027720 7414.76569085
0.25700001 145900.47769065 5646.34875378
0.25800001 143869.26684907 6148.25340969
0.25900001 141859.96664903 5532.53896108
0.26000001 139872.45038496 7666.40936834
0.26100001 137906.06299804 6503.65023872
0.26200001 135962.23385286 6972.82349308
0.26300001 134038.64697669 7961.89600715
0.26400001 132136.41986766 5777.66523210
0.26500001 130255.32113915 6756.34382719
0.26600001 128393.69380126 5142.16768007
0.26700001 126553.72775328 6613.69812535
0.26800001 124733.99238973 6542.92188042
0.26900001 122933.16392413 5974.55204944
0.27000001 121152.97857331 7387.30321809
0.27100001 119391.94205253 5358.31061289
0.27200001 117651.73541459 5299.62267255
0.27300001 115929.63360612 6670.59143338
0.27400001 114225.07921107 5654.14168853
0.27500001 112542.33472975 6522.95402964
0.27600001 110875.76297667 5528.26580365
0.27700001 109229.97184773 5010.37904578
0.27800001 107601.35226194 7204.98688845
0.27900001 105992.33666140 4451.67835047
0.28000001 104400.10344241 4840.51102520
0.28100001 102826.56140688 5219.47650405
0.28200001 101271.59026969 5588.67297354
0.28300001 99733.86874992  4673.52931082
0.28400001 98213.76340149  4618.50244255
0.28500001 96711.49585105  6223.38505258
0.28600001 95226.70887507  4509.46101222
0.28700001 93758.95917357  5265.50339642
0.28800001 92307.99539470  4801.86214772
0.28900001 90875.69898270  4743.71171143
0.29000001 89458.93299043  4685.85913184
0.29100001 88060.01458772  5014.13746797
0.29200001 86677.65591590  4571.37978939
0.29300001 85312.08106187  4138.48924821
0.29400001 83962.32005070  4829.93268955
0.29500001 82630.23758204  5503.17408347
0.29600001 81313.80459008  4347.03619916
0.29700001 80013.89164102  3934.28323823
0.29800001 78730.03216124  4943.45895342
0.29900001 77462.83359093  4880.15874725
0.30000001 76211.03915523  4129.11429690
0.30100001 74975.96203696  3396.41124106
0.30200001 73755.24374195  4022.61118412
0.30300001 72551.64406484  3970.02615117
0.30400001 71363.77409220  4897.33922893
0.30500001 70191.18047525  3221.77533634
0.30600001 69033.01328922  3496.86745372
0.30700001 67891.59455911  4077.56936227
0.30800001 66764.99561069  3404.01346237
0.30900001 65653.66064753  3358.18490111
0.31000001 64557.75429406  3613.94325648
0.31100001 63476.02487087  3267.74591506
0.31200001 62410.13233435  3223.17143701
0.31300001 61358.41030266  3467.97751450
0.31400001 60322.85917207  3135.28075391
0.31500001 59300.63194864  3373.02010494
0.31600002 58293.73048926  4157.80052401
0.31700002 57301.10874253  3553.24192136
0.31800002 56323.11247315  4042.59158917
0.31900002 55359.41201150  3188.70228284
0.32000002 54410.48202636  3143.83780034
0.32100002 53474.76074453  2841.11417288
0.32200002 52554.63799322  3055.52679761
0.32300002 51646.55523943  2510.02270349
0.32400002 50753.47841827  2969.07862806
0.32500002 49873.93980673  2438.83577203
0.32600002 49008.47374911  3365.41205171
0.32700002 48156.21447578  3080.07162372
0.32800002 47318.15034479  3035.69607912
0.32900002 46492.82218588  3221.95273005
0.33000002 45681.92974511  3175.35108695
0.33100002 44881.66817586  2905.63933530
0.33200002 44097.80202434  2422.95384697
0.33300002 43325.41024588  3255.90473416
0.33400002 42566.59239625  2138.97136920
0.33500002 41819.43435580  2950.77942788
0.33600002 41086.33863430  2492.29741958
0.33700002 40364.83741485  2251.14708923
0.33800002 39656.78582836  3024.82148231
0.33900002 38960.22288138  2185.66860715
0.34000002 38276.58286498  2153.63203689
0.34100002 37604.91882710  2507.87215535
0.34200002 36946.08681241  2281.05150783
0.34300002 36298.11270639  2622.17578609
0.34400002 35663.46094325  2214.70102946
0.34500002 35039.54769197  3273.39470041
0.34600002 34428.46167321  1792.00151496
0.34700002 33827.12206389  2825.24136858
0.34800002 33239.07409380  2610.09841683
0.34900002 32661.52847736  2743.56852204
0.35000002 32095.31690557  1689.81851511
0.35100002 31540.83233924  1831.89162903
0.35200002 30996.01685375  2297.73483820
0.35300002 30462.78514406  2426.36095164
0.35400002 29940.66399102  2072.64256295
0.35500002 29429.08661022  2042.96728924
0.35600002 28927.21604352  2633.38923725
0.35700002 28436.30260937  1679.73247470
0.35800002 27956.27384910  1957.07904350
0.35900002 27486.01740071  1781.09401193
0.36000002 27026.22455907  1902.51116795
0.36100002 26575.57557445  1587.35920425
0.36200002 26136.13463903  2703.91393716
0.36300002 25705.08878783  1824.54728858
0.36400002 25283.87246506  1661.15049964
0.36500002 24871.91969152  1911.65583804
0.36600002 24469.87763625  1751.18687599
0.36700002 24076.39700098  1329.01717741
0.36800002 23693.55071387  1442.58190355
0.36900002 23318.51574245  1553.01322201
0.37000002 22952.22023511  1788.20756322
0.37100002 22594.59801126  1512.93435450
0.37200002 22246.39791905  1493.62322704
0.37300002 21906.13051130  1597.61417387
0.37400002 21574.24469107  1213.55132136
0.37500002 21251.18763572  1198.56703943
0.37600002 20936.07901574  1302.32885687
0.37700002 20628.72195296  1286.61344916
0.37800002 20329.35491325  1271.29626972
0.37900002 20038.17008063  1599.04604819
0.38000002 19754.65475317  1693.46785894
0.38100002 19477.67386753  1116.07076548
0.38200002 19209.22469431  1434.64101426
0.38300002 18947.36043306  1527.91521770
0.38400002 18693.66279209  1295.47089286
0.38500002 18445.73597025  1281.60979593
0.38600002 18206.09187750  1162.55005191
0.38700002 17972.51586893  1359.80061506
0.38800002 17745.80154560  1553.20135386
0.38900002 17525.28917289  1332.79830474
0.39000002 17312.39051502  1218.44610217
0.39100002 17104.64103050  1408.05411634
0.39200002 16903.98014258  1096.13864428
0.39300002 16709.04116720  1283.75569370
0.39400002 16521.51661475  978.89990580
0.39500002 16338.64162793  1358.72150215
0.39600002 16161.80931844  1154.92294861
0.39700002 15990.62337383  1336.49636491
0.39800002 15825.20917861  1325.99433990
0.39900002 15665.24909264  1315.88098613
0.40000002 15510.52859530  1026.25417313
0.40100002 15361.45691644  1018.92548554
0.40200002 15217.66858648  1103.88973157
0.40300002 15078.33822956  1187.87154201
0.40400002 14944.64146927  998.67571350
0.40500002 14815.61327650  992.49798042
0.40600002 14691.62436924  1345.38556536
0.40700002 14571.97292729  1337.70717811
0.40800002 14457.26787724  1064.34411155
0.40900002 14346.70206094  1235.25110597
0.41000002 14240.95805814  1053.54612706
0.41100002 14139.31810526  961.19089034
0.41200002 14041.54231557  956.86094643
0.41300002 13948.60717496  1299.31281991
0.41400002 13859.28159375  1121.56241612
0.41500002 13774.00783173  859.49812943
0.41600002 13692.09769683  1113.37297697
0.41700002 13614.28467435  1109.70039639
0.41800002 13541.10867929  1021.27046498
0.41900002 13469.54695094  1018.29779774
0.42000002 13402.79086643  1438.85668165
0.42100002 13339.48302483  1097.70611013
0.42200002 13279.71867495  1011.11782782
0.42300002 13222.54484718  1009.14467056
0.42400002 13168.37848055  923.43258471
0.42500002 13117.94494932  1173.53141078
0.42600002 13069.50947244  1590.49403062
0.42700002 13025.37740877  1254.34390390
0.42800002 12982.90005643  1002.53958986
0.42900002 12944.54723530  1252.38500436
0.43000002 12908.27315721  917.97188908
0.43100002 12873.70953873  917.63805941
0.43200002 12842.83201077  1084.38457222
0.43300002 12814.12296418  917.61938895
0.43400002 12787.92943586  1335.05989637
0.43500002 12763.79177765  1085.17762836
0.43600002 12742.40772552  1085.84432579
0.43700002 12722.61585757  1086.63867189
0.43800002 12705.03200807  1087.61431659
0.43900002 12690.19251554  921.30802029
0.44000002 12676.81740120  922.42866191
0.44100002 12665.78191343  923.71551872
0.44200002 12656.46553704  1093.32882723
0.44300002 12649.02995119  1095.15306507
0.44400002 12643.84076697  1181.56697567
0.44500002 12639.06492719  1014.66418044
0.44600002 12636.32499393  931.99219410
0.44700002 12636.28981570  934.07458744
0.44800002 12636.21797053  1106.36411684
0.44900002 12639.17328914  938.45866119
0.45000002 12643.16030140  1368.49573588
0.45100002 12648.16197037  943.29996446
0.45200002 12654.60283923  1031.85636441
0.45300002 12662.16976152  1034.75256195
0.45400002 12671.30658521  1037.78005851
0.45500002 12681.64242883  1301.13657486
0.45600002 12692.93949160  957.11114773
0.45700002 12705.41674079  960.14838861
0.45800002 12718.45691970  875.66580042
0.45900002 12732.88402135  1229.99665476
0.46000002 12748.82342159  969.73929952
0.46100002 12764.52635644  1149.95623395
0.46200002 12782.18107354  1154.03927292
0.46300002 12800.45236044  1514.54959507
0.46400002 12818.79882266  894.11126026
0.46500002 12838.50273832  897.41138394
0.46600002 12858.70682578  900.75245584
0.46700002 12879.41260193  1356.20221126
0.46800002 12901.56374045  907.62505216
0.46900002 12923.23087808  1002.19660210
0.47000002 12945.88497978  1097.55218061
0.47100002 12969.17008912  1560.96938591
0.47200002 12993.03102939  1198.41227380
0.47300002 13017.48485869  1203.20618252
0.47400002 13041.64270968  1115.06050453
0.47500002 13066.58567238  1306.13596572
0.47600002 13092.49140282  1405.15170641
0.47700002 13117.66858651  1222.69794690
