# SAXS profile: number of points = 501, q_min = 0, q_max = 0.5, delta_q = 0.001
#    q    intensity    error
0.00000000 1646666.22097350 419.89988635
0.00100000 1646580.88884058 691.56398974
0.00200000 1646324.84783282 1185.35392797
0.00300000 1645898.33494547 1185.04684338
0.00400000 1645301.18420170 1604.16871555
0.00500000 1644534.08939174 1480.08073904
0.00600000 1643596.85110728 1898.35444031
0.00700000 1642490.24466921 2168.08721307
0.00800000 1641214.03587462 2215.63904197
0.00900000 1639769.57625228 2951.58536343
0.01000000 1638156.34258983 3513.84550658
0.01100000 1636375.88437936 3240.02439214
0.01200000 1634427.97418882 3824.56162729
0.01300000 1632314.06822201 5827.36148057
0.01400000 1630034.31708380 4034.33511363
0.01500000 1627590.20389291 4687.45999594
0.01600000 1624981.38651468 4558.07299294
0.01700000 1622210.09547810 5693.95769055
0.01800000 1619276.82595388 5076.43307779
0.01900000 1616182.44704190 4848.54755990
0.02000000 1612927.78640933 5080.72275702
0.02100000 1609515.49948517 6373.68166693
0.02200000 1605944.31363324 5540.50813375
0.02300000 1602217.20770676 8651.97331544
0.02400000 1598334.86383276 7192.50721521
0.02500000 1594299.34510379 8704.87482182
0.02600000 1590111.66790735 9659.92882437
0.02700000 1585773.00625844 6660.24693133
0.02800000 1581284.25719235 9630.02156793
0.02900000 1576648.64651581 8513.90308209
0.03000000 1571866.62663865 11694.68823974
0.03100000 1566940.09773331 9025.57537824
0.03200000 1561870.01606328 8504.38262916
0.03300000 1556660.44289842 8732.86548725
0.03400000 1551310.11810712 13845.44344294
0.03500000 1545822.93579207 10851.67751037
0.03600000 1540199.47713307 10257.72899175
0.03700000 1534442.75834516 9620.95653977
0.03800000 1528554.38058362 9836.24789427
0.03900000 1522536.66583466 10962.26450167
0.04000000 1516389.81356396 11190.95734268
0.04100000 1510117.83793299 12367.86566613
0.04200000 1503722.23015734 9699.00883448
0.04300000 1497204.77945582 9881.55200309
0.04400000 1490567.96059991 12073.60104158
0.04500000 1483814.77354689 13309.81913715
0.04600000 1476945.27415040 14577.45053352
0.04700000 1469963.77877709 10583.73969942
0.04800000 1462871.25343906 12902.52505566
0.04900000 1455671.00787623 12009.28637398
0.05000000 1448364.60896835 13295.98772947
0.05100000 1440955.85769701 13487.34745634
0.05200000 1433443.63110215 11395.87739832
0.05300000 1425833.94786721 16168.95772258
0.05400000 1418126.99797733 15209.41276258
0.05500000 1410327.03705828 13031.42243032
0.05600000 1402434.43756457 17986.22250108
0.05700000 1394454.50066675 14558.10566651
0.05800000 1386386.26239417 14723.42279410
0.05900000 1378233.69423236 13644.51421018
0.06000000 1370000.42730668 15042.60539460
0.06100000 1361687.78633126 12663.69700467
0.06200000 1353298.54473684 14067.53903011
0.06300000 1344836.09245298 12910.42709118
0.06400000 1336299.53684263 14331.81320289
0.06500000 1327695.97965589 14458.60989479
0.06600000 1319025.57299041 15907.44915455
0.06700000 1310290.15637814 13364.96022052
0.06800000 1301493.41826998 18858.64051349
0.06900000 1292639.54439898 13572.71585165
0.07000000 1283727.62012056 15038.86977396
0.07100000 1274762.26886724 13767.43314860
0.07200000 1265745.17104980 15245.90129952
0.07300000 1256679.59930795 15344.05862651
0.07400000 1247568.88805870 23859.75610229
0.07500000 1238413.02772571 16941.49101338
0.07600000 1229215.70394924 18456.67466006
0.07700000 1219980.51377408 18555.90448456
0.07800000 1210708.84112114 17216.28052812
0.07900000 1201402.01912689 17300.18988687
0.08000000 1192065.92443737 18828.68215976
0.08100000 1182700.66472299 17456.66263035
0.08200000 1173308.25725442 16068.45733711
0.08300000 1163891.27481950 17598.03690118
0.08400000 1154453.73692996 16191.21442044
0.08500000 1144996.70923300 20678.64153951
0.08600000 1135522.70442562 16300.42918736
0.08700000 1126034.08004017 16350.01560994
0.08800000 1116532.56732018 16396.28152113
0.08900000 1107021.63729135 14944.79280539
0.09000000 1097503.45945019 17977.10751028
0.09100000 1087979.13322320 18016.93529263
0.09200000 1078451.42920646 21062.15740204
0.09300000 1068924.08147615 16579.01328278
0.09400000 1059395.92499385 27173.50675318
0.09500000 1049871.16126753 24189.03269255
0.09600000 1040351.67418074 19678.25284216
0.09700000 1030841.45256682 21214.71809119
0.09800000 1021340.14783577 25783.73324441
0.09900000 1011850.95080074 16695.54147328
0.10000000 1002374.23176711 22778.95548814
0.10100000 992912.75570960 18229.87905221
0.10200000 983469.00870538 21272.43565887
0.10300000 974044.66088753 15195.09742463
0.10400000 964641.54678398 16712.41558427
0.10500000 955263.38290383 16707.55735307
0.10600001 945906.44747954 18218.15903568
0.10700001 936578.98267661 16689.83825668
0.10800001 927277.59872720 16677.08839796
0.10900001 918007.73589993 15147.12835526
0.11000001 908769.44302865 19670.31552023
0.11100001 899563.39615132 15112.66576675
0.11200001 890393.44364427 16601.38653829
0.11300001 881258.74306056 18083.43025899
0.11400001 872162.41974325 15044.80244895
0.11500001 863105.56556464 16519.84130279
0.11600001 854090.05944046 19486.06562376
0.11700001 845116.56509350 17950.27668795
0.11800001 836185.80959218 16418.50914463
0.11900001 827299.43104118 16380.52950617
0.12000001 818458.76635319 16340.53003996
0.12100001 809666.97916942 16298.59705848
0.12200001 800923.27183526 22165.55259229
0.12300001 792229.49622935 17682.56318894
0.12400001 783585.91232915 19099.90751296
0.12500001 774993.76934075 17576.85951688
0.12600001 766456.13034963 18981.28696257
0.12700001 757971.56100152 17463.66558847
0.12800001 749541.82517496 14503.63500068
0.12900001 741168.05449163 23124.44439004
0.13000001 732851.01935649 15840.57553003
0.13100001 724590.83264439 17216.27899517
0.13200001 716389.12134925 15721.16000911
0.13300001 708247.55746377 14235.77657614
0.13400001 700164.71790718 15596.16982667
0.13500001 692143.42054765 15531.69908938
0.13600001 684182.38092076 15465.94344994
0.13700001 676284.32411162 18198.81201998
0.13800001 668447.19025376 22299.39931841
0.13900001 660674.14839221 19423.82087872
0.14000001 652964.25573874 15191.21412619
0.14100001 645318.50691666 16494.34181471
0.14200001 637736.54255670 15047.39443134
0.14300001 630221.15553857 16335.33312206
0.14400001 622767.88731417 17608.76284441
0.14500001 615382.60510212 21563.00749995
0.14600001 608062.55896346 20111.67008647
0.14700001 600810.52130916 14671.79362253
0.14800001 593621.51671067 18574.41813419
0.14900001 586500.66603640 19794.39841264
0.15000001 579446.48406205 14436.90983158
0.15100001 572459.27742491 18272.90099761
0.15200001 565539.62124820 18170.78888813
0.15300001 558688.09890539 19358.54354058
0.15400001 551901.36242005 15398.04873817
0.15500001 545183.53006326 12757.29520554
0.15600001 538530.62065576 15218.87605799
0.15700001 531948.56959758 17650.05437227
0.15800001 525429.92289156 15037.80510292
0.15900001 518980.79291985 13701.09357978
0.16000001 512596.49818011 14855.04721845
0.16100001 506282.21024696 13532.92411871
0.16200001 500032.99682773 12225.80734957
0.16300001 493850.33180445 13363.59060949
0.16400001 487734.21366350 13278.56459386
0.16500001 481684.05998371 11993.93365984
0.16600001 475700.74849899 13107.93474375
0.16700001 469781.24865639 14206.18563011
0.16800001 463927.07552650 14112.66230387
0.16900001 458140.10965849 11682.57334792
0.17000001 452416.17347255 15085.81801679
0.17100001 446756.89524468 13831.59412992
0.17200001 441162.12250479 14882.60490550
0.17300001 435631.21648390 14780.96787332
0.17400001 430163.31615823 14679.32385715
0.17500001 424758.40996935 13456.34706334
0.17600001 419414.73459339 15589.64642112
0.17700001 414134.99646774 15480.36689911
0.17800001 408914.85177281 12077.30071755
0.17900001 403757.02062006 11991.58407882
0.18000001 398659.80843748 16235.42146550
0.18100001 393624.27205868 10745.94313480
0.18200001 388645.57966975 11735.15383247
0.18300001 383727.30809172 16945.39872582
0.18400001 378867.25872260 11564.92361884
0.18500001 374066.85286851 14611.05196330
0.18600001 369322.32252569 15539.23745440
0.18700001 364634.95662774 14395.78876779
0.18800001 360004.07043746 13267.95064283
0.18900001 355430.59080237 10129.77231647
0.19000001 350909.02496200 16085.67046429
0.19100001 346446.48200436 11973.19098380
0.19200001 342034.69881107 9901.90499846
0.19300001 337679.51897848 9826.47446660
0.19400001 333374.71781611 10726.33205259
0.19500001 329123.91061165 10643.86777216
0.19600001 324924.23578491 9601.51162118
0.19700001 320775.80066775 11432.45007607
0.19800001 316678.40491415 11343.42100010
0.19900001 312631.22575881 17819.98071042
0.20000001 308632.36102950 9305.26612482
0.20100001 304683.75794603 12924.68562292
0.20200001 300781.89472814 12822.33277829
0.20300001 296929.21243219 17263.46522676
0.20400001 293122.76446496 14421.64069333
0.20500001 289362.69994506 9835.43863602
0.20600001 285648.64357977 10643.26896287
0.20700001 281980.05744551 13196.66731224
0.20800001 278355.21398895 12217.01091948
0.20900001 274776.26047136 9520.99787540
0.21000001 271239.16326785 10301.66390790
0.21100001 267745.62525930 9365.74241432
0.21200001 264293.99185932 8444.19343910
0.21300001 260883.15564085 10886.65459956
0.21400001 257514.67560950 10796.30328534
0.21500001 254187.44156752 10706.37554500
0.21600001 250899.29029955 8983.44951390
0.21700001 247650.79917547 8907.99966751
0.21800001 244441.27103353 12044.84419966
0.21900001 241268.99304710 8758.06486170
0.22000001 238134.48806260 9472.99038304
0.22100001 235038.79015782 8609.47129057
0.22200001 231979.93173034 9311.67489995
0.22300001 228955.45139993 9231.48423696
0.22400001 225966.79096013 12202.20728884
0.22500001 223015.30179257 10584.30672358
0.22600001 220096.47262728 11241.42787103
0.22700001 217213.63751850 7428.70675443
0.22800001 214363.43267705 8099.72268674
0.22900001 211545.46528049 8757.98267679
0.23000001 208761.61629226 8680.30841594
0.23100001 206010.31898603 9319.90727169
0.23200001 203289.27856933 12078.43305743
0.23300001 200600.31904320 7745.17868456
0.23400001 197943.00645495 9070.73869980
0.23500001 195314.07095000 8988.35397023
0.23600001 192716.82391863 9591.51678008
0.23700001 190148.71016835 8145.97112890
0.23800001 187609.73231556 6725.80922163
0.23900001 185099.16905697 7329.92744136
0.24000001 182616.97676378 7261.76442450
0.24100001 180163.90969764 6539.95023137
0.24200001 177737.52410574 7126.38636611
0.24300001 175339.12293722 8342.63586398
0.24400001 172966.70565971 8263.48475379
0.24500001 170620.76716471 7555.08792744
0.24600001 168301.76630157 8729.81303103
0.24700001 166008.36610646 7410.61381356
0.24800001 163740.19239332 10396.68400785
0.24900001 161496.31633669 9084.16822369
0.25000001 159278.50108468 6596.51943449
0.25100001 157083.82806718 7125.32277822
0.25200001 154915.52237144 9406.47096341
0.25300001 152770.30758126 5820.54899422
0.25400001 150648.60438025 6914.77126820
0.25500001 148549.95421228 6845.18221396
0.25600001 146474.82418091 6211.26521326
0.25700001 144421.65418529 9501.50107840
0.25800001 142392.18358672 6638.32391290
0.25900001 140384.70122660 7117.50468895
0.26000001 138399.08367604 6501.98925875
0.26100001 136434.85316126 6434.26797953
0.26200001 134493.16886912 6897.48249182
0.26300001 132572.02390002 7349.79335279
0.26400001 130672.32143311 5713.64752502
0.26500001 128793.86335466 6166.65046922
0.26600001 126935.09833011 6100.50111442
0.26700001 125098.18109306 6537.63125329
0.26800001 123281.59486951 6466.73636489
0.26900001 121484.04614421 6888.14574233
0.27000001 119707.30216250 7785.76330109
0.27100001 117949.80980945 4812.35246796
0.27200001 116213.37577593 7138.40694485
0.27300001 114495.11475550 4705.74943915
0.27400001 112794.63332362 6048.61249823
0.27500001 111116.03062592 5060.22427418
0.27600001 109453.99554484 5002.59510313
0.27700001 107812.44700435 4945.35717814
0.27800001 106188.50317005 5777.18578838
0.27900001 104584.39309528 5271.05366147
0.28000001 102996.97233198 4775.45484819
0.28100001 101428.50029410 8151.80895445
0.28200001 99878.82774787  5087.82772628
0.28300001 98346.48419656  4608.51646757
0.28400001 96831.89758063  4553.52019925
0.28500001 95335.21428108  4089.88088624
0.28600001 93856.16947092  6060.76243045
0.28700001 92394.43804805  5987.15986890
0.28800001 90949.61894487  5125.46601824
0.28900001 89523.43162443  4283.69640599
0.29000001 88112.97202154  5769.19711619
0.29100001 86720.53456293  3798.35959365
0.29200001 85344.81384611  4501.08569530
0.29300001 83985.96377079  4444.53741314
0.29400001 82643.15203129  4388.35158059
0.29500001 81318.00314167  3971.57146144
0.29600001 80008.78740664  4633.70914200
0.29700001 78716.09601144  4222.33158993
0.29800001 77439.62327464  4167.80072194
0.29900001 76179.93840800  4799.33634690
0.30000001 74935.84089667  4398.35938965
0.30100001 73708.62799603  3672.90110692
0.30200001 72495.75890281  3953.91887774
0.30300001 71300.17903939  4226.67481355
0.30400001 70120.46769537  3528.81270383
0.30500001 68956.14248926  3798.10450812
0.30600001 67806.39585482  3434.73314464
0.30700001 66673.45413069  4312.43921734
0.30800001 65555.40709650  3646.19191533
0.30900001 64452.88327234  3296.76513546
0.31000001 63365.75209066  3251.61372248
0.31100001 62292.99875016  4081.43747135
0.31200001 61236.11633751  3737.54653762
0.31300001 60193.55004343  3402.13960953
0.31400001 59167.26394087  3913.91469500
0.31500001 58154.46922542  3583.47856334
0.31600002 57156.99832849  4348.50463872
0.31700002 56173.99064147  3215.39937656
0.31800002 55205.63498593  4490.70259056
0.31900002 54251.61083711  3645.70842087
0.32000002 53312.58240813  2823.70106095
0.32100002 52386.89005476  3795.43036418
0.32200002 51476.69222871  3990.47337052
0.32300002 50578.85106570  3441.38518946
0.32400002 49695.83439968  2664.93924587
0.32500002 48826.57743830  3103.90567473
0.32600002 47971.51806209  3529.50460855
0.32700002 47129.74043756  2782.54000719
0.32800002 46302.14187326  2513.51189061
0.32900002 45487.42222342  3377.44126002
0.33000002 44687.26935610  2440.59533145
0.33100002 43897.68889641  2623.32601268
0.33200002 43124.64625185  3015.70665520
0.33300002 42363.18555174  2122.39569665
0.33400002 41615.32346047  2300.28711321
0.33500002 40879.11953225  2678.40003859
0.33600002 40157.15531264  2232.93872690
0.33700002 39446.73523619  2999.92435678
0.33800002 38749.77424862  2758.59655940
0.33900002 38064.54971746  2135.42134028
0.34000002 37392.08925258  2103.86600143
0.34100002 36731.85304111  2638.08181035
0.34200002 36084.38478117  2227.85002190
0.34300002 35447.75713499  2012.01479027
0.34400002 34824.49007167  2523.03442518
0.34500002 34212.15370876  2485.85520621
0.34600002 33612.66839380  2099.44736731
0.34700002 33022.86751613  1896.17314258
0.34800002 32446.42253971  1868.42733044
0.34900002 31880.55834950  2175.84821041
0.35000002 31325.85866939  3133.68242041
0.35100002 30783.18867680  1625.35243912
0.35200002 30249.99584329  1761.91109134
0.35300002 29728.46133149  2367.87205720
0.35400002 29218.15016352  1711.45322689
0.35500002 28718.29762602  1533.55716586
0.35600002 28228.13853070  1662.77857891
0.35700002 27749.03798907  1937.16043377
0.35800002 27280.93756187  1615.98641302
0.35900002 26822.41406658  1738.09251384
0.36000002 26374.30993612  2427.88721617
0.36100002 25935.49204916  1971.61619897
0.36200002 25507.81846337  1527.79085923
0.36300002 25088.58511454  1643.80417457
0.36400002 24679.13472763  1486.30095937
0.36500002 24278.98531599  2132.66617118
0.36600002 23888.68680762  1709.59395237
0.36700002 23506.92218313  1427.34038257
0.36800002 23135.82282230  1792.79499542
0.36900002 22772.49246491  1263.87339167
0.37000002 22417.90569411  1746.57911536
0.37100002 22071.89613452  1354.77304891
0.37200002 21735.39080731  1216.09517328
0.37300002 21406.75866839  1200.91921818
0.37400002 21086.43710098  1541.94578605
0.37500002 20774.88491116  1991.89605964
0.37600002 20471.37301916  1736.48429861
0.37700002 20175.49374964  1258.34560478
0.37800002 19887.50051775  1356.72534959
0.37900002 19607.72698497  1229.40454020
0.38000002 19335.52333429  1105.02521090
0.38100002 19069.89796869  1201.97572591
0.38200002 18812.78224583  1621.19158684
0.38300002 18562.04378160  1389.92590421
0.38400002 18319.53877358  1057.95341429
0.38500002 18082.66189868  1151.68479089
0.38600002 17854.03682164  1243.71226392
0.38700002 17631.55808698  1334.00374806
0.38800002 17415.64522976  1727.54501041
0.38900002 17206.07656261  1107.21107926
0.39000002 17003.98993146  1396.19767942
0.39100002 16806.92272862  1284.72123424
0.39200002 16616.91108228  1371.39373659
0.39300002 16432.60881267  1262.51739489
0.39400002 16255.61171982  1348.40305604
0.39500002 16083.11540421  1241.93823035
0.39600002 15916.63635631  1326.97003589
0.39700002 15755.76578155  1222.80504024
0.39800002 15600.54045706  1307.16934683
0.39900002 15450.75175470  1019.74966412
0.40000002 15305.97205349  1104.78511516
0.40100002 15166.83070418  1006.01592827
0.40200002 15032.93526782  1090.48917599
0.40300002 14903.36483952  1174.08713769
0.40400002 14779.32133451  1077.41257633
0.40500002 14659.95539789  1071.34959124
0.40600002 14545.43013115  976.79840674
0.40700002 14435.08741408  1060.11286992
0.40800002 14329.77723353  1406.61099989
0.40900002 14228.42831046  1312.57257383
0.41000002 14131.68557724  1393.94953139
0.41100002 14039.11502704  1041.14081974
0.41200002 13950.21210530  1037.05881705
0.41300002 13865.98075042  1119.40067902
0.41400002 13785.34065742  858.13749659
0.41500002 13708.68451652  940.96414980
0.41600002 13635.25496905  852.88523873
0.41700002 13565.75700284  935.63030482
0.41800002 13500.91552589  1018.23909721
0.41900002 13437.38377039  846.55521765
0.42000002 13378.67800495  1098.32262286
0.42100002 13323.28390376  1602.39143103
0.42200002 13271.26573155  1010.47422068
0.42300002 13221.81406321  1177.27037997
0.42400002 13175.15113193  839.91592446
0.42500002 13132.14812859  1006.97316622
0.42600002 13090.99376526  1006.17382848
0.42700002 13054.06874637  1089.49262920
0.42800002 13018.59841120  1340.39495593
0.42900002 12987.22403380  837.67598987
0.43000002 12957.77139539  1089.03594853
0.43100002 12929.88209136  1005.42767907
0.43200002 12905.60676379  838.21919903
0.43300002 12883.33541869  922.57569305
0.43400002 12863.43479961  839.33916045
0.43500002 12845.54622960  840.09876323
0.43600002 12830.14961846  1429.72779049
0.43700002 12816.33048624  1178.84613399
0.43800002 12804.56294918  1349.08881626
0.43900002 12795.39407389  1013.39525868
0.44000002 12787.56548296  1015.07699614
0.44100002 12781.97405480  1101.67839599
0.44200002 12777.97410574  849.09641957
0.44300002 12775.66671314  1106.11727644
0.44400002 12775.49688832  852.76445771
0.44500002 12775.66894990  940.16152258
0.44600002 12777.64805692  1113.76374566
0.44700002 12782.32897147  944.86980235
0.44800002 12786.67489056  1377.89215151
0.44900002 12794.02866765  1122.67606879
0.45000002 12802.26067644  1039.28757097
0.45100002 12811.29849187  868.60607891
0.45200002 12821.78269196  871.24017521
0.45300002 12833.20741346  1048.72975953
0.45400002 12846.04149395  1052.09084822
0.45500002 12859.96402294  967.58373894
0.45600002 12874.67540488  1147.32675308
0.45700002 12890.44489745  1239.80304900
0.45800002 12906.74553320  977.49241928
0.45900002 12924.23644289  980.94959251
0.46000002 12943.12457837  984.51881771
0.46100002 12961.61213083  1167.71169221
0.46200002 12981.97914678  1172.07804282
0.46300002 13002.75761967  1085.99036787
0.46400002 13023.51682229  1090.06840969
0.46500002 13045.50802270  1003.06915941
0.46600002 13067.95019292  915.40995440
0.46700002 13090.63183168  1102.75487777
0.46800002 13114.69942201  1107.14297768
0.46900002 13138.17519305  926.24139501
0.47000002 13162.44795107  1115.91239018
0.47100002 13187.36355304  1120.39846057
0.47200002 13212.56302613  1124.91766936
0.47300002 13238.26109796  1035.36444954
0.47400002 13263.58556411  1134.03661948
0.47500002 13289.61080779  1328.42955931
0.47600002 13316.41733313  1048.06867588
0.47700002 13342.38073375  1243.64336714
0.47800002 13368.94188982  1440.83778047
