# SAXS profile: number of points = 501, q_min = 0, q_max = 0.5, delta_q = 0.001
#    q    intensity    error
0.00000000 1664650.74656089 349.57665678
0.00100000 1664564.85707682 699.11725658
0.00200000 1664307.14652727 1048.51353551
0.00300000 1663877.84403977 1098.15941619
0.00400000 1663276.80577769 1621.69494725
0.00500000 1662504.68362748 1795.50512939
0.00600000 1661561.34969009 2093.56738584
0.00700000 1660447.51182027 2191.79080669
0.00800000 1659162.94455033 2687.84408365
0.00900000 1657709.10661991 3481.18927271
0.01000000 1656085.32251980 3279.04908018
0.01100000 1654293.19230221 3871.04623853
0.01200000 1652332.55991023 3222.04863309
0.01300000 1650204.82957271 3811.97332444
0.01400000 1647910.13861720 4078.57777388
0.01500000 1645450.06650878 3949.08033547
0.01600000 1642824.16488142 4608.12198849
0.01700000 1640034.74390866 4428.09400719
0.01800000 1637082.20847404 6531.95830573
0.01900000 1633967.54419714 5392.09313916
0.02000000 1630691.55587994 5650.34649672
0.02100000 1627256.88123708 8591.91672248
0.02200000 1623662.23845183 8962.61596345
0.02300000 1619910.66121791 7581.18223958
0.02400000 1616002.70327516 6666.01145496
0.02500000 1611940.81581273 7543.88336254
0.02600000 1607725.39115616 7813.54575840
0.02700000 1603358.29462780 8080.92617504
0.02800000 1598839.93020468 9736.93562148
0.02900000 1594173.67619042 7173.78187224
0.03000000 1589360.18961059 12563.89287637
0.03100000 1584401.03991973 12168.20054648
0.03200000 1579297.46172244 10944.53191382
0.03300000 1574053.57194592 12844.27773921
0.03400000 1568667.73377753 9059.05658055
0.03500000 1563144.24156482 10129.17515309
0.03600000 1557483.49151782 14694.85742157
0.03700000 1551688.54753319 9729.08764298
0.03800000 1545761.00888353 14468.32371274
0.03900000 1539703.27141292 12009.68607319
0.04000000 1533515.41434633 12260.45630584
0.04100000 1527201.59088507 11545.64456242
0.04200000 1520763.34455425 12751.60123567
0.04300000 1514202.23334591 11992.48224477
0.04400000 1507521.34116074 11193.34647796
0.04500000 1500722.70897481 10354.98717307
0.04600000 1493807.19616364 12637.60946703
0.04700000 1486778.60571668 11775.28710492
0.04800000 1479638.71481208 17400.55209580
0.04900000 1472390.03770411 15460.09611552
0.05000000 1465034.39255813 11207.51362496
0.05100000 1457575.48784592 13642.90720178
0.05200000 1450012.61060670 12680.36087068
0.05300000 1442351.25714087 12851.35030023
0.05400000 1434592.44502704 14202.46586808
0.05500000 1426739.48683698 15579.99592306
0.05600000 1418793.36441015 13343.75221495
0.05700000 1410759.12216128 13500.96542929
0.05800000 1402635.87199201 14895.99365609
0.05900000 1394427.77262546 17569.79075569
0.06000000 1386138.23676513 13951.48200484
0.06100000 1377768.73875752 12813.24986923
0.06200000 1369322.06190203 15528.11290781
0.06300000 1360801.60841787 16982.80486709
0.06400000 1352206.44837461 17139.21753469
0.06500000 1343543.41381755 18621.51258658
0.06600000 1334813.18039342 14756.36039968
0.06700000 1326017.51940115 14877.91726395
0.06800000 1317160.17229979 14995.86926358
0.06900000 1308244.83409781 21978.51424185
0.07000000 1299270.90809648 15220.95940112
0.07100000 1290242.95510928 16721.54948142
0.07200000 1281162.93650948 16834.48177438
0.07300000 1272034.34128480 24003.28914473
0.07400000 1262859.73892065 25572.91091160
0.07500000 1253639.91433353 14291.49569328
0.07600000 1244377.95206457 17247.07922417
0.07700000 1235077.92388692 18785.53610315
0.07800000 1225740.73425694 18882.53689675
0.07900000 1216368.33729303 16056.06280536
0.08000000 1206966.15876078 14664.63951688
0.08100000 1197534.60960559 16202.64402816
0.08200000 1188075.27666626 20708.15304403
0.08300000 1178591.47208741 17820.30389430
0.08400000 1169086.33620675 20868.19208082
0.08500000 1159561.69778095 17950.01592432
0.08600000 1150019.90476628 21010.86464657
0.08700000 1140463.05288998 15054.11300505
0.08800000 1130893.33394552 16607.16938893
0.08900000 1121313.74597422 25734.15167883
0.09000000 1111726.79053533 19727.59282476
0.09100000 1102133.52989503 19772.27645524
0.09200000 1092536.65529943 15240.88705755
0.09300000 1082939.97436933 16796.39979177
0.09400000 1073342.33068578 22942.69339666
0.09500000 1063747.93974070 16849.76815748
0.09600000 1054158.49058134 15338.00675896
0.09700000 1044578.60920840 16890.83690499
0.09800000 1035007.31424281 18443.83120699
0.09900000 1025448.19753789 18458.06842363
0.10000000 1015900.91493266 16929.98954352
0.10100000 1006369.59268220 26175.67433675
0.10200000 996855.83517671 26182.41974244
0.10300000 987360.79676944 16943.11206958
0.10400000 977887.70107695 15401.73201654
0.10500000 968439.14193591 16938.00138938
0.10600001 959011.89634725 16931.35582669
0.10700001 949614.01524403 23075.62165631
0.10800001 940242.67048791 19984.85890174
0.10900001 930902.58402146 19967.86136706
0.11000001 921594.00485169 19947.90317395
0.11100001 912318.25928732 16859.64222527
0.11200001 903078.07409511 22960.76111479
0.11300001 893873.47066146 15285.23706795
0.11400001 884707.25077355 18313.44095329
0.11500001 875581.11796502 21329.15703797
0.11600001 866495.58576839 19769.09772026
0.11700001 857452.53787897 15176.91063521
0.11800001 848452.38977589 18173.85104496
0.11900001 839496.83646143 18133.13252167
0.12000001 830587.36681734 22612.74212677
0.12100001 821726.95397735 16541.36436280
0.12200001 812914.44123240 19497.75379152
0.12300001 804152.19686735 16452.95472308
0.12400001 795440.56760596 19388.86474895
0.12500001 786780.09251339 19331.18778395
0.12600001 778174.47939005 20753.91434333
0.12700001 769622.38521649 22165.12573880
0.12800001 761125.21212117 19146.10561325
0.12900001 752684.11967042 16145.07512788
0.13000001 744300.33534013 17550.60273457
0.13100001 735973.45735799 14572.27514259
0.13200001 727705.38346586 24680.12924367
0.13300001 719497.75091182 15908.09602262
0.13400001 711349.07513008 18726.26528566
0.13500001 703262.11380097 20085.16691714
0.13600001 695236.01460021 18573.23100579
0.13700001 687272.61466073 15649.19817374
0.13800001 679370.83225190 21247.32378061
0.13900001 671533.48736782 15512.42428973
0.14000001 663759.72233700 15442.37066844
0.14100001 656050.15934001 20960.80357949
0.14200001 648404.94871441 15299.11548650
0.14300001 640826.37852158 17994.40555764
0.14400001 633310.79846795 20661.76577463
0.14500001 625862.95508362 15077.03929918
0.14600001 618480.58441659 23183.74580053
0.14700001 611166.63063591 16281.47980824
0.14800001 603916.53091616 18896.54914388
0.14900001 596734.79480952 18797.14692336
0.15000001 589619.73627058 13354.88765665
0.15100001 582572.41547222 14610.91686946
0.15200001 575592.63720842 17172.80714145
0.15300001 568681.58016885 14450.19963398
0.15400001 561835.55634363 15675.21276172
0.15500001 555058.90820733 14287.21697151
0.15600001 548347.61328908 16787.66297314
0.15700001 541707.44352252 14122.31371916
0.15800001 535131.10747009 14039.16526711
0.15900001 528624.67503511 12686.99279968
0.16000001 522183.32480743 21438.23741191
0.16100001 515812.29476276 12534.23935440
0.16200001 509507.10370865 18686.17391062
0.16300001 503268.66890896 14856.49180754
0.16400001 497097.29540609 14763.79037055
0.16500001 490991.92664993 19561.11928124
0.16600001 484953.86735079 14577.71394082
0.16700001 478980.27217221 16898.42480009
0.16800001 473072.22245328 15590.09582706
0.16900001 467231.80338082 15488.73501342
0.17000001 461454.85894619 11836.31769088
0.17100001 455742.72232998 12933.97907048
0.17200001 450095.71583571 16351.97812850
0.17300001 444512.53806836 11601.77779147
0.17400001 438993.24020080 16133.00233928
0.17500001 433537.07082640 11445.37921035
0.17600001 428142.36756191 13640.61647476
0.17700001 422811.99864260 13546.89707634
0.17800001 417541.99542475 16816.50466001
0.17900001 412334.34304926 22266.05557637
0.18000001 407187.57755652 12160.65757813
0.18100001 402102.98201578 18661.60027686
0.18200001 397075.65836671 13079.67280446
0.18300001 392109.00829020 14068.87188206
0.18400001 387201.05624661 16117.24472766
0.18500001 382353.20426193 12801.18588344
0.18600001 377561.33229833 15885.89380696
0.18700001 372826.92366709 11565.09171854
0.18800001 368149.29726884 13568.14299189
0.18900001 363529.93976356 10360.60377277
0.19000001 358962.14769318 16454.82562773
0.19100001 354454.08312528 12249.93369162
0.19200001 349997.27005055 13172.14788075
0.19300001 345596.65162048 11062.54934111
0.19400001 341247.70046012 9981.49571012
0.19500001 336952.16326098 9906.39406800
0.19600001 332708.64144894 13764.15714719
0.19700001 328516.39288806 11708.32479584
0.19800001 324375.56871747 12587.39453895
0.19900001 320285.41968059 11530.27565342
0.20000001 316243.76538838 12395.17497021
0.20100001 312252.52781636 13245.75285600
0.20200001 308308.48310349 12204.39188047
0.20300001 304413.78778836 11178.07481592
0.20400001 300565.84244337 9242.40009198
0.20500001 296764.19758271 11004.01696649
0.20600001 293008.90846952 12737.09785323
0.20700001 289299.45469958 9026.14341328
0.20800001 285633.63019259 8954.61472982
0.20900001 282014.85288962 9771.81511455
0.21000001 278437.31656467 12337.55808021
0.21100001 274903.63547267 11364.51682768
0.21200001 271412.40815687 12140.27759078
0.21300001 267962.06432724 8601.58267155
0.21400001 264554.19395708 11091.43510601
0.21500001 261187.95606745 12693.73526501
0.21600001 257860.91011375 8393.37302103
0.21700001 254573.78098675 11654.38824459
0.21800001 251325.63048505 10732.86155732
0.21900001 248115.39558313 10644.15097379
0.22000001 244942.75412259 8119.85268309
0.22100001 241809.20613698 10467.92102863
0.22200001 238712.34586401 10380.40685073
0.22300001 235650.62951487 12668.57844176
0.22400001 232624.46446942 8636.18365180
0.22500001 229635.81201696 10120.05071414
0.22600001 226679.72787428 8490.28960902
0.22700001 223760.20648464 8417.85936603
0.22800001 220873.17409277 9863.09205554
0.22900001 218018.70380222 11282.46845532
0.23000001 215198.33127052 11184.93379674
0.23100001 212410.83160353 7391.89728939
0.23200001 209653.63197522 10991.09217611
0.23300001 206928.39422481 9442.14307504
0.23400001 204234.99903372 8639.14086772
0.23500001 201570.17992992 8562.70164841
0.23600001 198937.26812043 9901.10830265
0.23700001 196333.41220876 8410.92377684
0.23800001 193758.85827102 6946.25539757
0.23900001 191212.88988929 7572.03079777
0.24000001 188695.28542659 6821.33489082
0.24100001 186206.85220685 8787.10177128
0.24200001 183745.60387066 7367.28033568
0.24300001 181311.52075205 9290.40276280
0.24400001 178904.08928475 7889.67071067
0.24500001 176523.29030097 7816.45166428
0.24600001 174168.87209567 10324.73122624
0.24700001 171840.56258153 9588.70384565
0.24800001 169537.82815554 7598.68581740
0.24900001 167259.29730782 7526.66873492
0.25000001 165006.68696964 7455.00246997
0.25100001 162777.29179797 6768.28011316
0.25200001 160574.19127256 6703.16993180
0.25300001 158394.50971464 10259.21287959
0.25400001 156238.07149931 7171.32782110
0.25500001 154104.71703952 5917.62141429
0.25600001 151994.97604345 8789.10990555
0.25700001 149907.55842744 5801.42278563
0.25800001 147843.28873496 6318.08324302
0.25900001 145801.36266801 6823.50409572
0.26000001 143781.42672490 6754.85174714
0.26100001 141782.51690876 7243.66913161
0.26200001 139806.46013482 7721.51115860
0.26300001 137850.59732383 8188.32586849
0.26400001 135916.48803736 5402.68065513
0.26500001 134003.57102338 8554.78837894
0.26600001 132110.42892782 11640.25044364
0.26700001 130238.88111452 10471.20653711
0.26800001 128387.86769558 8806.76620132
0.26900001 126555.68854375 6150.60675428
0.27000001 124744.52205504 7606.29759225
0.27100001 122952.46742190 7023.04527149
0.27200001 121181.52730257 5458.62215567
0.27300001 119428.93539987 4908.52947723
0.27400001 117693.84537653 5340.35848669
0.27500001 115980.69603171 6722.24146013
0.27600001 114283.90846327 6173.04560779
0.27700001 112607.91355519 5165.32523923
0.27800001 110949.29808715 5107.55117917
0.27900001 109310.34550635 5968.34514712
0.28000001 107688.39540936 4539.06608133
0.28100001 106085.24658523 6282.36860012
0.28200001 104500.80577075 4879.66535642
0.28300001 102933.70069623 4384.97585720
0.28400001 101384.24380407 6934.68260442
0.28500001 99852.94806544  5140.43000971
0.28600001 98339.06577187  5503.54607642
0.28700001 96842.34643724  4183.58956411
0.28800001 95362.45402819  4547.35883557
0.28900001 93901.65194857  5310.13866904
0.29000001 92456.25027351  5650.00172165
0.29100001 91028.92795913  4385.77395667
0.29200001 89618.18440797  4332.59133029
0.29300001 88224.41817170  5057.90613320
0.29400001 86846.53849041  4995.84736315
0.29500001 85486.50677911  5313.84151293
0.29600001 84142.22068924  4123.38972007
0.29700001 82814.42168705  4071.98530711
0.29800001 81502.85872361  6214.18575755
0.29900001 80208.22853589  3609.37045498
0.30000001 78928.83526037  3563.63708071
0.30100001 77666.58288720  3870.12600848
0.30200001 76418.63594115  4167.87260154
0.30300001 75188.04927432  4457.14777199
0.30400001 73973.01573006  4399.54531883
0.30500001 72773.51419763  5010.45668971
0.30600001 71588.62175796  3296.65618803
0.30700001 70420.58759526  3904.11756111
0.30800001 69267.42722245  3852.65448451
0.30900001 68129.71667475  3484.83517290
0.31000001 67007.66314733  3125.90763382
0.31100001 65899.75951242  4317.75244768
0.31200001 64807.70943779  3955.53873281
0.31300001 63730.16452717  3001.69089135
0.31400001 62668.60858889  4145.52865443
0.31500001 61620.76212982  3212.90668957
0.31600002 60588.28070218  3457.16746056
0.31700002 59570.21759590  3409.79941664
0.31800002 58566.84428400  3643.15072118
0.31900002 57578.24699835  2763.75598678
0.32000002 56604.03199997  4088.22640477
0.32100002 55643.38092245  3225.09051097
0.32200002 54698.41316399  3445.17971626
0.32300002 53765.65639317  2874.31212688
0.32400002 52847.95471107  2833.97170557
0.32500002 51944.09278815  3810.09938643
0.32600002 51054.35197720  2754.63769137
0.32700002 50177.79469595  3456.24666232
0.32800002 49315.77042633  2920.48006294
0.32900002 48466.56372250  2878.91402144
0.33000002 47631.73698930  3074.39060956
0.33100002 46808.02622991  2797.24777996
0.33200002 46000.54938884  2987.04581602
0.33300002 45204.86981051  3397.14612713
0.33400002 44422.71292930  2901.91385953
0.33500002 43652.68119659  3080.13333109
0.33600002 42896.51152679  2818.94438848
0.33700002 42152.20950723  2137.11712322
0.33800002 41421.68486662  2527.55133026
0.33900002 40702.64044725  3113.75214167
0.34000002 39996.68655045  2864.16285952
0.34100002 39302.85487667  3024.35482599
0.34200002 38621.97731285  2583.23107491
0.34300002 37952.12431798  3133.32753208
0.34400002 37295.76320352  2316.06700463
0.34500002 36650.28237031  2282.57969413
0.34600002 36017.68888490  2624.60911335
0.34700002 35395.24604037  2032.39512389
0.34800002 34785.98323156  2185.25557010
0.34900002 34187.47409897  1974.32672272
0.35000002 33600.54021752  2122.88223149
0.35100002 33025.43761506  1918.11750753
0.35200002 32460.34266871  2234.40779343
0.35300002 31906.71555296  2202.52067894
0.35400002 31364.36281357  1837.16763882
0.35500002 30832.93982558  2140.42278407
0.35600002 30311.24873103  1623.16744643
0.35700002 29800.84036476  2080.39676440
0.35800002 29301.17187952  2209.01545263
0.35900002 28811.82055705  2022.58989891
0.36000002 28333.02088152  1841.07978409
0.36100002 27863.45858981  1664.28446040
0.36200002 27405.10383629  1790.64956948
0.36300002 26955.60501126  1766.13132399
0.36400002 26516.02244479  1742.10275714
0.36500002 26085.88349284  1432.11507159
0.36600002 25665.78248541  1554.19153202
0.36700002 25254.54518582  1533.45605632
0.36800002 24853.88791820  2063.49414215
0.36900002 24461.58839290  1493.38004213
0.37000002 24077.86995957  1741.91358474
0.37100002 23703.13088216  2116.21562540
0.37200002 23337.95258804  1697.48606190
0.37300002 22980.88117046  1289.22749473
0.37400002 22632.47271070  1654.99964537
0.37500002 22292.94769172  1257.32230937
0.37600002 21961.77903824  1241.93866345
0.37700002 21638.35687618  1349.58438230
0.37800002 21323.10391048  1212.21851474
0.37900002 21016.37631724  2036.48696161
0.38000002 20717.39093038  1183.99894776
0.38100002 20425.13991526  1521.46874436
0.38200002 20141.55536741  1388.55889281
0.38300002 19864.83913469  1373.05774604
0.38400002 19596.35670739  1131.68965346
0.38500002 19334.00924815  1231.38310735
0.38600002 19080.08864651  1439.87895792
0.38700002 18832.23466260  1205.63972022
0.38800002 18591.70310574  1627.23889142
0.38900002 18357.33663189  1073.90424384
0.39000002 18130.88467882  1063.37643679
0.39100002 17909.86918012  2000.89067960
0.39200002 17695.94563247  1356.12885779
0.39300002 17487.99562026  1343.60276716
0.39400002 17287.61425516  1126.72031246
0.39500002 17092.11574453  1116.79889566
0.39600002 16902.87002689  1610.50553246
0.39700002 16719.43178799  1297.59516254
0.39800002 16542.02159611  1089.04404338
0.39900002 16370.07419816  982.20449843
0.40000002 16203.68283746  1656.90766705
0.40100002 16043.14274199  1451.10232976
0.40200002 15887.95342201  1152.51219584
0.40300002 15737.51999191  953.69375670
0.40400002 15592.74342489  1136.71104953
0.40500002 15453.05642719  1129.30941721
0.40600002 15318.35185451  935.18542503
0.40700002 15188.42516435  1115.43799692
0.40800002 15063.31696717  1293.78835561
0.40900002 14942.79594356  1010.88019348
0.41000002 14827.21523616  1096.91743515
0.41100002 14715.82942784  1091.32596208
0.41200002 14608.53267601  995.49850638
0.41300002 14506.33623709  990.92787531
0.41400002 14407.73426232  1255.63410046
0.41500002 14313.49787129  1339.74346423
0.41600002 14222.68779973  1067.55499683
0.41700002 14136.31836639  1152.25136464
0.41800002 14054.53504835  1148.32584054
0.41900002 13974.66544915  968.44436152
0.42000002 13899.76023082  1228.87786024
0.42100002 13828.54611057  1137.95111336
0.42200002 13760.82903761  1396.99943010
0.42300002 13695.96761936  958.16994005
0.42400002 13634.35932432  1216.86662736
0.42500002 13576.57119325  1214.56011650
0.42600002 13520.90892558  952.61568349
0.42700002 13469.69502767  951.22990793
0.42800002 13420.57774687  1295.42132840
0.42900002 13375.40564388  1035.25644589
0.43000002 13332.55752954  948.14487364
0.43100002 13291.59680418  1033.55461647
0.43200002 13254.44008373  1033.05110908
0.43300002 13219.65657732  1118.77958916
0.43400002 13187.44985430  860.48114377
0.43500002 13157.56250479  1376.80740575
0.43600002 13130.51434507  946.77578172
0.43700002 13105.17245623  1119.31283253
0.43800002 13082.11429685  1119.89444745
0.43900002 13061.99384885  1034.50996185
0.44000002 13043.49945502  1207.95854177
0.44100002 13027.50050843  1036.46798957
0.44200002 13013.23100097  1210.62093739
0.44300002 13001.10831462  1039.04862575
0.44400002 12991.20059407  1127.31148497
0.44500002 12981.90382509  1042.18728847
0.44600002 12974.81931300  1043.95401140
0.44700002 12970.51394980  1307.42786810
0.44800002 12966.38321111  960.61454572
0.44900002 12965.39560110  1050.19709346
0.45000002 12965.42078032  964.82183309
0.45100002 12966.60145840  1142.87630671
0.45200002 12969.50941911  1145.66166883
0.45300002 12973.46220861  1148.54066376
0.45400002 12979.15435428  1062.99279199
0.45500002 12986.13465723  1065.90198318
0.45600002 12994.24632124  1336.13344131
0.45700002 13003.57242933  982.68001506
0.45800002 13013.63251566  985.58750528
0.45900002 13025.01284637  1168.34370769
0.46000002 13038.08068313  901.58332197
0.46100002 13051.05572708  1085.32584570
0.46200002 13065.97966213  1724.12142803
0.46300002 13081.71605665  1365.73122104
0.46400002 13097.56199401  1004.91049162
0.46500002 13114.91759869  1008.40606196
0.46600002 13132.75365141  1195.93426795
0.46700002 13151.05922708  1107.84528180
0.46800002 13171.04346392  1389.87442740
0.46900002 13190.66957182  1115.93069867
0.47000002 13211.34097531  933.38128414
0.47100002 13232.56962914  1124.23916898
0.47200002 13254.60667687  1222.53870479
0.47300002 13277.22545142  944.01077434
0.47400002 13299.63199197  1231.87847164
0.47500002 13322.93959183  1236.63531153
0.47600002 13347.13404629  1623.47872667
0.47700002 13370.80809870  1054.55568473
