# SAXS profile: number of points = 501, q_min = 0, q_max = 0.5, delta_q = 0.001
#    q    intensity    error
0.00000000 1646666.22097350 296.39991978
0.00100000 1646580.69636327 839.75617509
0.00200000 1646324.08632044 889.01503476
0.00300000 1645896.61376625 1481.30700516
0.00400000 1645298.13018102 1850.96046679
0.00500000 1644529.30589760 1924.09936406
0.00600000 1643589.99101437 2588.65434124
0.00700000 1642480.90164108 2168.07488027
0.00800000 1641201.82977966 3323.43384562
0.00900000 1639754.19471283 2951.55767666
0.01000000 1638137.35688257 2702.92675557
0.01100000 1636352.87011951 4123.60941224
0.01200000 1634400.64367467 3187.08139490
0.01300000 1632282.04747370 3770.57169596
0.01400000 1629997.20993991 4400.99266194
0.01500000 1627547.68638944 4296.72608340
0.01600000 1624933.08589291 4557.93750969
0.01700000 1622155.66546377 6569.73073984
0.01800000 1619215.86160076 5537.71849586
0.01900000 1616114.64365286 5333.17856470
0.02000000 1612852.82028245 6604.63259782
0.02100000 1609433.00634415 5842.24207791
0.02200000 1605853.94752072 6094.21600772
0.02300000 1602118.65664277 6344.39016909
0.02400000 1598227.74568555 7791.36061548
0.02500000 1594183.53437018 9947.70570879
0.02600000 1589986.52597780 7083.39029721
0.02700000 1585638.55817629 7325.65047430
0.02800000 1581139.97793374 8253.55106332
0.02900000 1576494.25128792 7803.64690217
0.03000000 1571702.00508184 9500.93905743
0.03100000 1566764.76163575 9776.61256246
0.03200000 1561683.77367986 8503.36853934
0.03300000 1556463.07752638 9525.55447359
0.03400000 1551101.16755460 8957.60965594
0.03500000 1545602.37712565 13354.00515503
0.03600000 1539966.91632519 12820.22517088
0.03700000 1534198.03586369 9619.42212974
0.03800000 1528297.09487631 14304.86147007
0.03900000 1522266.67857775 14613.76079111
0.04000000 1516106.82442275 11188.86888272
0.04100000 1509821.71917585 14267.81590776
0.04200000 1503412.73345595 13575.81761293
0.04300000 1496881.61441194 11855.30293644
0.04400000 1490231.34084908 13076.78062326
0.04500000 1483464.00365838 14330.26294119
0.04600000 1476580.31740819 11450.88089382
0.04700000 1469584.34997835 15871.51171792
0.04800000 1462477.65627033 15048.89578322
0.04900000 1455262.76168738 10914.47122070
0.05000000 1447941.57126534 15507.45495037
0.05100000 1440517.70851141 13483.24637977
0.05200000 1432990.55882725 12531.50302093
0.05300000 1425365.49282672 12700.00713313
0.05400000 1417643.58597472 18712.89620752
0.05500000 1409828.14898631 13026.81270432
0.05600000 1401920.11392312 15582.34279339
0.05700000 1393924.58841151 18190.71672789
0.05800000 1385840.64354049 13491.15929480
0.05900000 1377672.44155089 19838.48408491
0.06000000 1369423.44038356 15036.27007789
0.06100000 1361095.00400296 12658.18412876
0.06200000 1352689.93860884 15339.50462085
0.06300000 1344211.68744498 16775.76264367
0.06400000 1335659.29580086 15627.21449170
0.06500000 1327039.60507938 13137.69270484
0.06600000 1318353.28481336 15899.34135876
0.06700000 1309601.99758379 18701.11740069
0.06800000 1300789.61828996 16155.80781540
0.06900000 1291919.74150506 16278.18950509
0.07000000 1282991.98351333 23228.57094927
0.07100000 1274010.65626322 15135.24730531
0.07200000 1264977.67663899 18006.95807052
0.07300000 1255896.64860880 13940.45345275
0.07400000 1246770.11456018 16831.39733535
0.07500000 1237598.92975499 15519.49130656
0.07600000 1228386.19036225 19863.00562935
0.07700000 1219135.82326662 17116.66776124
0.07800000 1209848.75483959 15770.37925891
0.07900000 1200526.84442105 17287.58737052
0.08000000 1191175.86946217 21709.18123935
0.08100000 1181795.88327481 14536.09004629
0.08200000 1172388.46879458 18975.10825785
0.08300000 1162957.22848767 17583.91411998
0.08400000 1153505.01116343 22060.78437400
0.08500000 1144033.79905743 20661.25138092
0.08600000 1134545.69036899 17766.98634537
0.08700000 1125043.25314217 14850.57163883
0.08800000 1115528.18574110 16381.53217695
0.08900000 1106003.86087773 17917.26338779
0.09000000 1096472.31463920 19456.90213727
0.09100000 1086935.03017027 14999.70412105
0.09200000 1077394.46657833 21041.51492095
0.09300000 1067854.60016652 16562.42562689
0.09400000 1058314.15977852 16589.07523417
0.09500000 1048777.28650960 19633.11172627
0.09600000 1039245.67870153 15121.02533591
0.09700000 1029724.33159867 21191.72774058
0.09800000 1020211.60685584 19695.18599637
0.09900000 1010711.50175578 19708.87521100
0.10000000 1001223.67954193 18202.24735007
0.10100000 991752.16315823 28830.23673895
0.10200000 982298.35116481 19729.46331115
0.10300000 972863.87673180 15176.67719094
0.10400000 963451.50671638 16691.79813913
0.10500000 954064.15579676 19720.50702816
0.10600001 944698.35876811 19711.13218318
0.10700001 935362.06781113 18183.43945392
0.10800001 926052.68558125 15140.96212181
0.10900001 916775.07314242 19664.82624444
0.11000001 907529.14285108 15110.36093971
0.11100001 898316.30398616 22637.57192608
0.11200001 889139.35059273 22606.36905306
0.11300001 879998.23857354 19562.36176450
0.11400001 870895.81914611 21032.13502266
0.11500001 861833.53983358 14995.90429923
0.11600001 852812.35786116 20953.60061939
0.11700001 843833.80906590 17923.03094864
0.11800001 834898.51005980 19373.82083841
0.11900001 826007.96716815 16354.95852027
0.12000001 817163.58051169 14831.51968492
0.12100001 808368.64077358 16272.46150534
0.12200001 799621.81806117 14753.02323826
0.12300001 790925.46481051 23537.94294174
0.12400001 782279.97033652 16134.52514841
0.12500001 773685.80696440 19009.46117285
0.12600001 765146.76199286 20406.46510397
0.12700001 756661.20197024 14527.89576248
0.12800001 748230.83203830 15926.09401052
0.12900001 739856.84879246 18755.37200087
0.13000001 731540.18917365 20124.67155274
0.13100001 723280.80031450 17185.15262554
0.13200001 715080.18417150 17119.02041606
0.13300001 706940.15343049 18472.34707998
0.13400001 698859.36949599 15567.09318944
0.13500001 690840.25525468 15502.45605883
0.13600001 682882.34508725 22453.17256515
0.13700001 674986.99131518 13972.23137906
0.13800001 667153.64953648 20865.23137317
0.13900001 659384.70441656 15231.78739033
0.14000001 651679.35370356 15161.32087893
0.14100001 644038.45133958 15089.82162657
0.14200001 636461.97470837 13652.11000140
0.14300001 628952.11864657 13585.36640356
0.14400001 621505.44802175 16221.29295852
0.14500001 614126.53549365 14794.30893792
0.14600001 606813.24162919 13380.23260913
0.14700001 599568.42565523 17303.54558073
0.14800001 592387.41568604 14563.84530174
0.14900001 585275.01560703 18436.16386145
0.15000001 578229.14577417 17025.95800065
0.15100001 571251.18214847 15629.43308106
0.15200001 564340.63079538 15541.94170548
0.15300001 557498.73982216 18029.51009664
0.15400001 550722.17132576 19206.43663136
0.15500001 544015.09872385 12729.95391090
0.15600001 537373.14908158 15186.16590976
0.15700001 530802.40774068 12580.01765719
0.15800001 524295.48758127 16255.78235971
0.15900001 517858.52614760 14914.32625702
0.16000001 511486.49120577 12352.39934568
0.16100001 505184.84167146 12275.99223210
0.16200001 498948.93858199 13419.23233663
0.16300001 492779.95808082 15759.10380338
0.16400001 486677.86008167 13249.80536624
0.16500001 480641.71902387 17951.96905308
0.16600001 474672.87263385 14268.66722504
0.16700001 468768.51573532 11812.96715428
0.16800001 462929.47850297 16429.36796781
0.16900001 457158.13915939 16320.54633861
0.17000001 451450.24520389 17369.54900440
0.17100001 445806.97907294 13802.18472386
0.17200001 440228.92339398 12566.33521170
0.17300001 434714.37256362 12480.65022569
0.17400001 429263.78605071 15775.44488238
0.17500001 423876.27709123 15666.46794118
0.17600001 418550.22978447 12223.76003817
0.17700001 413288.15878739 13241.75323296
0.17800001 408086.52964575 15339.97337392
0.17900001 402947.10291149 11967.52952174
0.18000001 397868.53717676 10802.13129459
0.18100001 392851.87209145 11797.34227617
0.18200001 387892.44246139 13841.94246310
0.18300001 382993.46269499 13741.80609065
0.18400001 378153.23725617 12592.50339551
0.18500001 373372.76074204 12500.52062019
0.18600001 368648.27437204 14476.81841853
0.18700001 363981.03765261 10264.26574674
0.18800001 359370.48132246 11206.96898953
0.18900001 354818.00909358 13146.00785803
0.19000001 350317.11746390 11040.24447851
0.19100001 345875.60857751 18926.31419563
0.19200001 341485.22419521 10874.59747834
0.19300001 337150.92489948 12754.42009163
0.19400001 332868.00081702 12657.30632917
0.19500001 328638.48799181 10628.16920389
0.19600001 324460.68836433 9587.81379425
0.19700001 320334.06527416 11416.70662590
0.19800001 316258.57556183 12272.41460466
0.19900001 312233.64938055 10303.71091651
0.20000001 308256.95543389 12082.13193925
0.20100001 304330.57820308 9221.21695537
0.20200001 300451.12208647 12808.23193991
0.20300001 296620.96119411 9984.26202570
0.20400001 292837.17968972 9004.74370107
0.20500001 289099.56612309 13399.76552317
0.20600001 285407.93185461 11520.49171386
0.20700001 281762.09177114 9670.07544668
0.20800001 278159.66698785 9592.33656951
0.20900001 274603.89966621 10380.02789806
0.21000001 271089.38185836 8579.97934141
0.21100001 267618.42133094 9361.29282070
0.21200001 264189.58588344 12661.28650202
0.21300001 260801.50381046 10883.24726852
0.21400001 257455.67957830 9963.53527072
0.21500001 254151.22276775 9057.95000768
0.21600001 250885.59022346 9799.59161744
0.21700001 247659.71708692 11337.86238429
0.21800001 244472.56034464 10440.20118314
0.21900001 241323.07839760 9556.39435639
0.22000001 238211.00298050 13424.38170770
0.22100001 235137.74795703 9396.10485264
0.22200001 232100.91382652 10869.28630844
0.22300001 229098.87318607 10776.81150426
0.22400001 226132.32256507 11447.94937119
0.22500001 223202.81446807 8323.23334510
0.22600001 220305.65258582 7501.40782528
0.22700001 217444.71256686 10411.25333004
0.22800001 214616.21029245 9583.68732382
0.22900001 211819.86420982 8769.34279300
0.23000001 209057.23153197 7243.83341516
0.23100001 206327.36778266 10770.28910761
0.23200001 203627.50897517 9963.49448536
0.23300001 200959.24798210 9169.77091910
0.23400001 198322.62801291 9787.22215533
0.23500001 195714.40769553 10392.43554016
0.23600001 193137.60569015 7552.64642773
0.23700001 190589.60855914 8845.26415159
0.23800001 188070.72972657 8765.03677348
0.23900001 185580.10372351 8017.06086006
0.24000001 183117.51599605 8605.60807128
0.24100001 180683.80784700 7870.58704210
0.24200001 178277.01359506 9097.47643408
0.24300001 175897.08594109 8369.18374496
0.24400001 173543.49300892 7653.26840372
0.24500001 171216.26423625 6949.66849410
0.24600001 168915.06645658 10013.28561323
0.24700001 166639.77463228 6818.89990053
0.24800001 164389.58585793 6753.94645448
0.24900001 162163.38011374 7905.46515453
0.25000001 159962.85798144 6022.60188792
0.25100001 157785.28714784 7157.14096362
0.25200001 155633.51516277 7087.55061582
0.25300001 153504.99003206 8187.95655569
0.25400001 151399.33086551 7528.33208346
0.25500001 149316.55722768 5733.75606882
0.25600001 147257.00400829 6812.10932772
0.25700001 145219.42736433 7305.98973637
0.25800001 143204.77219701 7788.90792832
0.25900001 141212.08601310 7710.18026112
0.26000001 139241.16586598 6541.55028190
0.26100001 137290.78911351 6474.63392095
0.26200001 135363.13800516 6942.09886107
0.26300001 133455.38832894 5813.31699068
0.26400001 131568.84725337 5752.84811837
0.26500001 129703.37206768 7762.74718558
0.26600001 127857.27706212 5120.68418865
0.26700001 126032.53449018 6586.46056413
0.26800001 124228.05190669 6516.38277113
0.26900001 122441.90759862 5950.67699089
0.27000001 120676.62085327 7848.80779172
0.27100001 118929.98923957 5822.81254872
0.27200001 117204.19212457 5759.41427356
0.27300001 115496.45632735 5221.59503767
0.27400001 113805.92417959 4694.49459457
0.27500001 112137.05792549 5570.96930139
0.27600001 110484.29602244 5967.80953208
0.27700001 108851.76950441 5900.85470410
0.27800001 107236.39310524 6282.98056939
0.27900001 105640.51934355 5767.97262914
0.28000001 104061.19537672 4824.79755199
0.28100001 102500.39976003 5202.92053807
0.28200001 100957.97718075 4714.23296758
0.28300001 99432.61642466  4659.41262619
0.28400001 97924.50862864  5023.52753042
0.28500001 96434.33296264  4964.43969589
0.28600001 94961.18904549  5314.50319648
0.28700001 93504.97443911  5251.23961306
0.28800001 92065.17789506  4390.12821572
0.28900001 90644.21902986  4731.62845732
0.29000001 89238.38435394  4674.30679371
0.29100001 87850.11003171  4232.61850168
0.29200001 86478.40293064  4560.87118645
0.29300001 85123.13054019  7132.46744558
0.29400001 83783.53647171  4819.64816368
0.29500001 82461.45354424  4393.54645281
0.29600001 81154.85030131  5061.62825290
0.29700001 79864.34706063  3569.93648260
0.29800001 78589.87755125  4934.65864504
0.29900001 77331.88731403  4175.92211264
0.30000001 76088.92419170  5840.20565281
0.30100001 74862.83385150  4408.67249422
0.30200001 73650.56011841  4351.64355061
0.30300001 72455.57224808  3634.37167602
0.30400001 71275.79876487  3913.04153744
0.30500001 70111.21283305  4183.53626781
0.30600001 68960.88446276  3810.77865582
0.30700001 67827.12772578  3446.97479422
0.30800001 66707.91323139  3710.29430959
0.30900001 65603.90671378  3660.69816794
0.31000001 64515.26493075  3912.52842696
0.31100001 63440.45281195  3562.81599860
0.31200001 62381.31324690  3514.56335473
0.31300001 61336.16341008  3755.61346341
0.31400001 60306.70767514  3134.44127982
0.31500001 59290.88415427  3091.42684617
0.31600002 58290.08377669  3603.20169926
0.31700002 57303.38161795  2733.37143260
0.31800002 56331.02354040  4582.24732686
0.31900002 55373.07287920  2923.69838646
0.32000002 54429.35542877  3144.92830558
0.32100002 53498.93772998  2842.39869618
0.32200002 52583.79644890  3566.75908202
0.32300002 51680.78969238  2762.85514778
0.32400002 50792.35660622  2476.12750180
0.32500002 49917.49902115  2685.06239949
0.32600002 49056.48800739  3368.70919098
0.32700002 48208.43318698  3083.41153265
0.32800002 47374.68174929  3506.91098255
0.32900002 46553.39998633  4378.34747604
0.33000002 45746.24379580  2725.56133442
0.33100002 44949.81576072  3581.60148942
0.33200002 44169.59477879  2426.89850005
0.33300002 43400.71726488  2391.81364173
0.33400002 42645.10475332  2142.91661533
0.33500002 41901.44692962  2323.01632779
0.33600002 41171.26009831  2289.32802618
0.33700002 40452.76845527  3281.52873249
0.33800002 39747.62727024  2223.28363665
0.33900002 39053.90328147  2589.27391018
0.34000002 38372.90018543  2355.32872493
0.34100002 37703.81135839  3481.57010572
0.34200002 37047.33410880  2668.51960224
0.34300002 36401.76682937  2629.66376029
0.34400002 35769.24720233  2036.16449343
0.34500002 35147.53072352  2006.57262404
0.34600002 34538.44937874  1797.72637530
0.34700002 33939.15877439  2480.27384070
0.34800002 33352.81989618  2269.82626554
0.34900002 32777.01560638  1720.79340083
0.35000002 32212.48558325  2543.98116943
0.35100002 31659.68032467  2340.28368044
0.35200002 31116.41499193  2141.89852742
0.35300002 30584.56146619  1624.04029077
0.35400002 30063.71612022  1600.89295923
0.35500002 29553.44674676  1735.96954413
0.35600002 29052.72144241  2022.50529901
0.35700002 28563.13231587  2454.14444482
0.35800002 28084.02610232  1966.02234041
0.35900002 27614.93634322  1789.44795980
0.36000002 27156.15480579  1617.55643762
0.36100002 26706.46862055  3045.33876105
0.36200002 26267.65882425  1859.35631795
0.36300002 25837.55752346  1692.87684912
0.36400002 25417.10772739  2087.38007099
0.36500002 25005.93424429  1510.10844054
0.36600002 24604.55620123  1625.37705964
0.36700002 24211.77186935  1737.43683164
0.36800002 23829.37299456  2110.32937236
0.36900002 23455.08156558  1692.28421512
0.37000002 23089.23940961  1284.91623401
0.37100002 22732.08814697  1395.29563656
0.37200002 22384.32249679  1377.64319332
0.37300002 22044.46565214  1360.36403983
0.37400002 21713.03919985  1587.76606670
0.37500002 21390.27959964  1809.61773985
0.37600002 21075.73357946  1906.93246460
0.37700002 20768.67245289  1648.61729741
0.37800002 20469.52782757  1629.16979697
0.37900002 20178.73009538  1380.22520391
0.38000002 19895.55381870  1705.54643190
0.38100002 19618.86254658  1686.24131576
0.38200002 19350.68589151  1222.86665285
0.38300002 19089.14199405  1539.34848332
0.38400002 18835.59304631  1414.08221494
0.38500002 18588.12648247  1183.87783175
0.38600002 18348.65327260  1384.68118482
0.38700002 18115.34939134  1054.31338452
0.38800002 17888.96069624  1461.34926851
0.38900002 17668.63580667  1653.78438985
0.39000002 17456.01762193  1126.17503023
0.39100002 17248.74811659  1318.49436850
0.39200002 17048.33310598  1205.99914105
0.39300002 16853.75898565  1294.87436421
0.39400002 16666.48324373  1086.23809687
0.39500002 16483.91634153  1272.88808020
0.39600002 16307.48392374  1165.33285640
0.39700002 16136.63962377  1059.69317430
0.39800002 15971.73008486  955.90809087
0.39900002 15812.10990837  1043.59930340
0.40000002 15657.79085838  1224.36101418
0.40100002 15509.21128013  935.20548450
0.40200002 15365.76949602  928.86081004
0.40300002 15226.97832362  1199.58140917
0.40400002 15093.67160476  1008.63465278
0.40500002 14965.33389781  1367.08331634
0.40600002 14841.78049378  1177.91796470
0.40700002 14722.78596533  1171.34490690
0.40800002 14608.53801215  1075.48061941
0.40900002 14498.72877630  1159.17342059
0.41000002 14393.65119692  1153.57922984
0.41100002 14292.69393734  1236.60393805
0.41200002 14195.62805643  967.36111974
0.41300002 14103.49652633  1138.57532852
0.41400002 14014.81674033  1395.87581348
0.41500002 13930.34456607  1303.88031317
0.41600002 13849.27624791  952.89949739
0.41700002 13772.38100671  1295.29249506
0.41800002 13700.08868175  1033.26073734
0.41900002 13629.39750097  1373.84333320
0.42000002 13563.48247131  856.53395865
0.42100002 13501.34096513  940.09841595
0.42200002 13442.47189802  938.21737058
0.42300002 13386.34944515  1021.64623806
0.42400002 13333.27945447  1019.99592660
0.42500002 13284.00565311  1103.50240189
0.42600002 13236.60531717  1271.70691611
0.42700002 13193.67420959  1016.44070927
0.42800002 13152.54408340  1100.27612744
0.42900002 13115.36579311  1184.31758724
0.43000002 13080.38685756  1014.77646050
0.43100002 13047.11813196  1014.54395402
0.43200002 13017.51752444  930.03658361
0.43300002 12990.23385811  1099.36354351
0.43400002 12965.33626623  930.58705461
0.43500002 12942.75549337  1185.03874913
0.43600002 12922.78250295  1185.92380650
0.43700002 12904.49970367  1102.17337192
0.43800002 12888.38834234  933.57045382
0.43900002 12875.04079337  849.75273263
0.44000002 12863.23966179  1021.08401274
0.44100002 12853.82374883  937.42941043
0.44200002 12846.06412585  1195.06940226
0.44300002 12840.33972864  940.68333310
0.44400002 12836.69925965  1028.21965943
0.44500002 12833.56820952  1116.13548008
0.44600002 12832.63576513  1118.55674948
0.44700002 12834.25978989  1207.44721826
0.44800002 12836.04409406  864.50761071
0.44900002 12840.90423712  1126.78940021
0.45000002 12846.53359902  955.97484308
0.45100002 12853.32083177  1045.74623243
0.45200002 12861.72453072  873.95422328
0.45300002 12871.15386363  1139.48330555
0.45400002 12882.19911988  1142.97317108
0.45500002 12894.40951353  970.17541778
0.45600002 12907.67035095  1238.74918229
0.45700002 12922.03855130  1331.61613582
0.45800002 12937.08307996  979.79003350
0.45900002 12953.40620042  1251.29909827
0.46000002 12971.31292674  1166.05623081
0.46100002 12989.08809797  1260.20138699
0.46200002 13008.61312639  1355.17233667
0.46300002 13028.98784367  1088.18111628
0.46400002 13049.30921126  1274.26510487
0.46500002 13071.10282258  1370.50519590
0.46600002 13093.27892612  917.18423225
0.46700002 13115.95335693  1012.81396623
0.46800002 13140.12858458  1109.28970769
0.46900002 13163.87698659  1113.66404585
0.47000002 13188.56453108  1118.12655394
0.47100002 13213.87575711  1216.20518233
0.47200002 13239.77142992  1033.29801022
0.47300002 13266.26199813  1320.52378188
0.47400002 13292.49120245  1041.79904737
0.47500002 13319.52513639  1046.11555380
0.47600002 13347.30748856  1050.49988568
0.47700002 13374.61005717  1630.23129714
