# SAXS profile: number of points = 501, q_min = 0, q_max = 0.5, delta_q = 0.001
#    q    intensity    error
0.00000000 1664650.74656090 299.63713438
0.00100000 1664564.81046067 549.30640050
0.00200000 1664306.96832221 898.72579135
0.00300000 1663877.43829848 1297.82444811
0.00400000 1663276.08981263 1496.94853771
0.00500000 1662503.56789436 1496.25327033
0.00600000 1661559.74318728 2442.49292192
0.00700000 1660445.31179766 2391.04134836
0.00800000 1659160.08929362 2687.83945814
0.00900000 1657705.48519983 2735.21416750
0.01000000 1656080.84397119 2732.53351054
0.01100000 1654287.78309538 3275.48995314
0.01200000 1652326.14162155 3544.23972917
0.01300000 1650197.30997862 3811.95595418
0.01400000 1647901.40745118 4449.33399736
0.01500000 1645440.05827593 5528.67884199
0.01600000 1642812.79996955 4608.09010991
0.01700000 1640021.88247993 5313.67113760
0.01800000 1637067.84673394 5598.77228776
0.01900000 1633951.56080303 4901.85490359
0.02000000 1630673.87198085 6163.94751492
0.02100000 1627237.38163737 8054.82540430
0.02200000 1623640.86621175 5601.56124292
0.02300000 1619887.29401000 6414.75397627
0.02400000 1615977.33145444 6665.90679620
0.02500000 1611913.33351498 7543.75474538
0.02600000 1607695.68177252 10417.86849438
0.02700000 1603326.32358921 9427.55921450
0.02800000 1598805.60146043 9041.24609089
0.02900000 1594136.88353540 10760.42445792
0.03000000 1589320.91936064 11824.54818356
0.03100000 1584359.11565533 9125.90892609
0.03200000 1579252.87614468 12507.68335515
0.03300000 1574006.24053650 8830.17541648
0.03400000 1568617.58739034 13176.38834204
0.03500000 1563091.19548580 10972.90069902
0.03600000 1557427.49113700 12101.21216538
0.03700000 1551629.57243976 9728.71786913
0.03800000 1545698.82547858 13563.50782129
0.03900000 1539638.00443875 10161.61129988
0.04000000 1533446.89665199 12259.90850684
0.04100000 1527129.79168681 10583.00994709
0.04200000 1520688.13742393 11770.12672971
0.04300000 1514123.66793836 13990.50334116
0.04400000 1507439.20848831 11192.73664284
0.04500000 1500637.08619390 16567.03420137
0.04600000 1493717.88842650 12636.85392354
0.04700000 1486685.68095811 11774.55114080
0.04800000 1479542.06739138 10874.63470130
0.04900000 1472289.53581187 15459.04084560
0.05000000 1464930.10531453 17930.74532402
0.05100000 1457467.20816134 12505.06922856
0.05200000 1449900.44390668 17290.06359933
0.05300000 1442235.15495860 15186.73688969
0.05400000 1434472.24798639 14201.27591733
0.05500000 1426615.13414380 15578.63799158
0.05600000 1418664.92934724 13342.54428313
0.05700000 1410626.47102319 15954.18613199
0.05800000 1402499.02160271 14894.54030488
0.05900000 1394286.54611993 18822.86925176
0.06000000 1385992.72315356 16486.38421214
0.06100000 1377618.89669938 12811.85633802
0.06200000 1369167.75301981 15526.36304500
0.06300000 1360643.00457044 20899.47752736
0.06400000 1352043.39520021 15818.90846364
0.06500000 1343375.78799126 14629.36301555
0.06600000 1334641.06643719 20119.71501791
0.06700000 1325840.74625802 22990.07961603
0.06800000 1316978.84660876 23172.24389075
0.06900000 1308058.82295787 15108.08011251
0.07000000 1299080.36760623 20752.80984433
0.07100000 1290047.67002041 15325.76703767
0.07200000 1280962.97944625 15429.19981024
0.07300000 1271829.67375177 19764.23405617
0.07400000 1262650.27917969 17045.77956776
0.07500000 1253425.78720018 17146.86557261
0.07600000 1244159.09989147 14370.03827742
0.07700000 1234854.30381239 18782.13484165
0.07800000 1225512.31799271 17426.78597911
0.07900000 1216135.11289862 14593.62203928
0.08000000 1206728.19217953 17594.09786734
0.08100000 1197291.80693303 20617.36588272
0.08200000 1187827.64746713 19224.99137639
0.08300000 1178339.07146793 14847.07299730
0.08400000 1168829.21972009 16392.83057603
0.08500000 1159299.68841417 17945.96001913
0.08600000 1149753.10708085 21005.99025263
0.08700000 1140191.51076744 16555.58151376
0.08800000 1130616.94946345 22640.60547629
0.08900000 1121032.68040217 19674.12446515
0.09000000 1111440.84002137 16688.28499686
0.09100000 1101842.92994979 16725.97646244
0.09200000 1092241.27664510 15236.76652512
0.09300000 1082639.80812847 15265.22201196
0.09400000 1073037.50192699 25994.33470585
0.09500000 1063438.47667043 15313.51478383
0.09600000 1053844.28038476 18400.12200047
0.09700000 1044259.97031604 18420.74674239
0.09800000 1034683.93942938 18438.06866755
0.09900000 1025120.25581943 19989.84592845
0.10000000 1015568.37096228 21540.20616109
0.10100000 1006032.56427125 16931.52885301
0.10200000 996514.27003475 27713.06315319
0.10300000 987014.90669350 20016.66324934
0.10400000 977537.35354797 18475.45685124
0.10500000 968084.47789251 15392.54392270
0.10600001 958652.90087420 23079.56967452
0.10700001 949250.71861543 23066.79354782
0.10800001 939875.09236445 23050.43772503
0.10900001 930530.84350989 18424.51156866
0.11000001 921218.18621406 23007.42528365
0.11100001 911938.34495064 15320.56491636
0.11200001 902693.95417432 16830.72956792
0.11300001 893485.43719973 16806.46186499
0.11400001 884315.34041608 15254.44034042
0.11500001 875185.31242935 16751.04766867
0.11600001 866095.99247513 16719.98392210
0.11700001 857049.25469898 19720.70427937
0.11800001 848045.34797036 16651.37119165
0.11900001 839086.23769089 16613.90828882
0.12000001 830173.08219889 16574.40636684
0.12100001 821309.25560724 21041.94411990
0.12200001 812493.24674892 17988.60133049
0.12300001 803727.70396905 23918.93759705
0.12400001 795012.76399321 14906.49002723
0.12500001 786349.17696331 14862.00014491
0.12600001 777740.39934114 20742.33742788
0.12700001 769185.30259935 23629.37360942
0.12800001 760684.96940815 19135.03130728
0.12900001 752241.09414486 17602.44243263
0.13000001 743854.49858845 14616.74158622
0.13100001 735524.91084183 16019.73331327
0.13200001 727254.14391208 14508.72085499
0.13300001 719043.98266417 21679.17709935
0.13400001 710892.87823656 17274.69775557
0.13500001 702803.52478035 15770.91183964
0.13600001 694775.11835810 18560.91816210
0.13700001 686809.53113776 14216.95796493
0.13800001 678905.59767781 19817.25533071
0.13900001 671066.26998777 18320.11003461
0.14000001 663290.62484060 15431.45711467
0.14100001 655579.13004180 16756.60335416
0.14200001 647932.29626569 16677.77809249
0.14300001 640351.86580519 15214.76104918
0.14400001 632834.85631561 17893.40640635
0.14500001 625385.47330083 19174.31951590
0.14600001 618001.89147510 19077.71928982
0.14700001 610686.83390098 14912.97318740
0.14800001 603435.58639105 16184.14319055
0.14900001 596252.84448175 13415.68963380
0.15000001 589136.76302898 14678.34314343
0.15100001 582088.72180150 18580.27287661
0.15200001 575108.16415540 18478.22618625
0.15300001 568196.42323956 18375.47319469
0.15400001 561349.91731085 18271.94067074
0.15500001 554573.02699560 18167.81322177
0.15600001 547861.53286671 15482.56764951
0.15700001 541221.16364129 16675.02483880
0.15800001 534644.69255126 12751.27651919
0.15900001 528138.36603983 21548.04635151
0.16000001 521697.19596724 15118.78545277
0.16100001 515326.52929039 16279.16582873
0.16200001 509021.69564364 17423.81346439
0.16300001 502783.76196507 17315.87357952
0.16400001 496613.04816720 17207.64293136
0.16500001 490508.35907258 19541.85394805
0.16600001 484471.13631671 14563.20304525
0.16700001 478498.61220749 12058.16559695
0.16800001 472591.62650656 11980.19829760
0.16900001 466752.43122847 13092.40631416
0.17000001 460976.81174416 17736.08366935
0.17100001 455266.03670978 15269.62359230
0.17200001 449620.51030789 15167.94863151
0.17300001 444039.06428044 17384.13018754
0.17400001 438521.59775377 11511.19248466
0.17500001 433067.25348034 13719.57123820
0.17600001 427674.70506157 12490.24035123
0.17700001 422346.48612395 15787.31239696
0.17800001 417078.54650058 21277.26305470
0.17900001 411873.42880150 12232.64141320
0.18000001 406729.04920761 14355.50246987
0.18100001 401647.06638537 14254.45505935
0.18200001 396622.38979545 10887.28511418
0.18300001 391658.55506449 19457.59793477
0.18400001 386753.60799449 11805.65444174
0.18500001 381908.68363960 10655.25277692
0.18600001 377119.99905860 12693.85976801
0.18700001 372388.89210835 12601.64070431
0.18800001 367714.58047592 12509.65061882
0.18900001 363098.69874268 14487.63876434
0.19000001 358534.51260963 11299.21569877
0.19100001 354030.12599583 11215.67492149
0.19200001 349577.11756636 11132.28383492
0.19300001 345180.40108177 10044.75014612
0.19400001 340835.29178536 12960.26258256
0.19500001 336544.01398421 10883.83392657
0.19600001 332304.72329586 13747.44705240
0.19700001 328116.87451117 13643.10028691
0.19800001 323980.40435710 19341.63105418
0.19900001 319894.78477996 11516.21279633
0.20000001 315857.67061584 12380.04198488
0.20100001 311871.17345601 14174.54550350
0.20200001 307931.92084487 15002.44389263
0.20300001 304042.16321146 13025.16688761
0.20400001 300199.15280188 14769.79901596
0.20500001 296402.70537222 10990.61283469
0.20600001 292652.49000763 13630.29036638
0.20700001 288948.37619092 11719.74669229
0.20800001 285287.91902473 9838.15435262
0.20900001 281674.59031367 12421.85002003
0.21000001 278102.58062484 15843.50476716
0.21100001 274574.53555650 9604.61770781
0.21200001 271089.00915267 8661.29425189
0.21300001 267644.41535809 8591.38613916
0.21400001 264242.43392344 11078.36456599
0.21500001 260882.23734913 9297.84337870
0.21600001 257561.06082137 9221.97421871
0.21700001 254280.06557039 8314.95853728
0.21800001 251038.06972621 9895.92117649
0.21900001 247833.99979992 9814.22685611
0.22000001 244667.71073977 12166.10249178
0.22100001 241540.57281853 9651.96174621
0.22200001 238450.18345292 8773.77491501
0.22300001 235394.89138134 10282.04934173
0.22400001 232375.37929370 9411.20330642
0.22500001 229393.29661497 9331.71974757
0.22600001 226443.88572389 8481.45614086
0.22700001 223531.10241489 12996.09890898
0.22800001 220650.79501014 9853.16171713
0.22900001 217803.14581347 9768.47155169
0.23000001 214989.62859485 8939.26917973
0.23100001 212209.08385366 8123.36411409
0.23200001 209458.78551298 8052.64338989
0.23300001 206740.59999348 8707.91448356
0.23400001 204054.29990426 7192.91441182
0.23500001 201396.61741557 9268.27277182
0.23600001 198770.79233325 9186.19260216
0.23700001 196174.08402918 9104.43967041
0.23800001 193606.70227733 9023.04078641
0.23900001 191067.99004797 10317.67195061
0.24000001 188557.55924522 6816.35608913
0.24100001 186076.41499822 7430.03160233
0.24200001 183622.40911320 8700.94826740
0.24300001 181195.66890148 6631.76179550
0.24400001 178795.56373281 7884.88473360
0.24500001 176422.11714431 7160.97407363
0.24600001 174075.04624395 9029.27307580
0.24700001 171754.09455691 7028.17788174
0.24800001 169458.67921097 6962.21016474
0.24900001 167187.52331689 9404.29863147
0.25000001 164942.31468530 8073.10197420
0.25100001 162720.30821827 6150.82794164
0.25200001 160524.59311973 6091.90859710
0.25300001 158352.24557695 6636.54292611
0.25400001 156203.20399132 6572.25011888
0.25500001 154077.17054454 6508.21999172
0.25600001 151974.78758031 5858.62833841
0.25700001 149894.75605778 6381.02006729
0.25800001 147837.77792151 8040.89712160
0.25900001 145803.06013724 7392.21549872
0.26000001 143790.42542537 6192.33496394
0.26100001 141798.76759847 9473.57611151
0.26200001 139829.95970492 6619.55060565
0.26300001 137881.32892557 7644.14123734
0.26400001 135954.33223817 6485.02195462
0.26500001 134048.67155065 7487.95914714
0.26600001 132162.57190606 5822.42238084
0.26700001 130298.07580783 9428.36921161
0.26800001 128454.11876876 7256.37351263
0.26900001 126628.89938492 7179.85893489
0.27000001 124824.65329400 7611.18359478
0.27100001 123039.53679508 5522.01467268
0.27200001 121275.42676611 5959.47475331
0.27300001 119529.60838817 5403.93385097
0.27400001 117801.26335556 4859.30234338
0.27500001 116094.82872552 6728.85659138
0.27600001 114404.66527808 4753.51406727
0.27700001 112735.32443011 5641.27590147
0.27800001 111083.16469562 6043.47986129
0.27900001 109450.63522971 5056.61958693
0.28000001 107835.12808712 5454.30103679
0.28100001 106238.33069097 5392.65792110
0.28200001 104660.04743377 4887.10114622
0.28300001 103099.18589171 7027.24084298
0.28400001 101555.86458300 4775.66475805
0.28500001 100030.53679569 4720.44125481
0.28600001 98522.61716825  5513.81853080
0.28700001 97031.84553081  5868.48629547
0.28800001 95557.73031672  5385.15614689
0.28900001 94102.69099913  4093.46725222
0.29000001 92662.87604968  5258.15515033
0.29100001 91241.07385498  3996.35922401
0.29200001 89835.85245318  4343.11449243
0.29300001 88447.39441898  3900.53027851
0.29400001 87074.83208342  4623.67380250
0.29500001 85719.98393889  5328.35445387
0.29600001 84380.73977634  3759.16213499
0.29700001 83057.93266009  5940.30362505
0.29800001 81751.33945095  5133.16684712
0.29900001 80461.51565272  3982.84521335
0.30000001 79186.84364362  3932.81477574
0.30100001 77929.08249411  3883.20636451
0.30200001 76685.71708794  3485.36600665
0.30300001 75459.53442059  4473.24141222
0.30400001 74248.77125086  4755.63402376
0.30500001 73053.49779579  5029.73356136
0.30600001 71872.72419487  3640.71301645
0.30700001 70708.65502833  4246.76202206
0.30800001 69559.35710054  3868.89162510
0.30900001 68425.34486862  3499.95655573
0.31000001 67306.95269791  3453.85644122
0.31100001 66202.56377992  5576.90423686
0.31200001 65113.95114444  3668.52018117
0.31300001 64039.74460965  4826.03538228
0.31400001 62981.39627908  4166.21956112
0.31500001 61936.55729574  3229.37225030
0.31600002 60907.04891928  3475.35637588
0.31700002 59891.83047868  3428.20853892
0.31800002 58891.27266704  3381.53703665
0.31900002 57905.12453976  3335.33533142
0.32000002 56933.44236159  4112.01806927
0.32100002 55975.13941205  2973.95929778
0.32200002 55032.47781959  4799.38261790
0.32300002 54101.79863000  2892.28229171
0.32400002 53186.14231963  3889.23684128
0.32500002 52284.14507793  3579.37274152
0.32600002 51396.14446558  2773.07910595
0.32700002 50521.22323093  2982.77316080
0.32800002 49660.75721715  3185.98603013
0.32900002 48812.93213832  2416.24025526
0.33000002 47979.40718249  3096.83098324
0.33100002 47156.86211778  2348.41184467
0.33200002 46350.42390204  3704.32605367
0.33300002 45555.64130858  2738.80528517
0.33400002 44774.30561467  2474.89986005
0.33500002 44004.94944091  2439.63451254
0.33600002 43249.32387659  2623.50411059
0.33700002 42505.46939108  2370.53014020
0.33800002 41775.25799331  2761.55356043
0.33900002 41056.32693880  2512.64732765
0.34000002 40350.51953820  3508.67959261
0.34100002 39656.60542475  2848.13753649
0.34200002 38975.57196250  2205.82259968
0.34300002 38305.43346839  2569.52859875
0.34400002 37648.71782180  2727.64973537
0.34500002 37002.71118095  2688.61712174
0.34600002 36369.45381700  2271.63619300
0.34700002 35746.24294003  2239.14476381
0.34800002 35136.15549770  2023.31561016
0.34900002 34536.64714557  2538.44368542
0.35000002 33948.64406652  2144.87543371
0.35100002 33372.31108414  2290.67554131
0.35200002 32805.80172910  1910.77401221
0.35300002 32250.83826374  2226.27547079
0.35400002 31706.94834117  2194.91360288
0.35500002 31173.86925975  2497.02704598
0.35600002 30650.46516911  1969.59898506
0.35700002 30138.10635492  1618.41638791
0.35800002 29636.50290479  2553.48121122
0.35900002 29145.07347138  2203.36765880
0.36000002 28664.08907930  2328.24074575
0.36100002 28192.21088390  1990.08826056
0.36200002 27731.54817802  1811.97944378
0.36300002 27279.56462967  2383.14287893
0.36400002 26837.38009247  1763.21595559
0.36500002 26404.53340293  1594.56984773
0.36600002 25981.69539419  1859.38011896
0.36700002 25567.60176846  1693.59802137
0.36800002 25164.03042116  1671.39497975
0.36900002 24768.56729017  1512.12110469
0.37000002 24381.75872976  1492.52943134
0.37100002 24003.78221131  1473.35222192
0.37200002 23635.31824761  1851.35456603
0.37300002 23274.84552401  1305.71889575
0.37400002 22922.97267962  1418.35900174
0.37500002 22579.84726419  1782.90482444
0.37600002 22245.05746175  1509.54967086
0.37700002 21917.86291403  1367.01717471
0.37800002 21598.84289531  1227.89427677
0.37900002 21288.24066258  1698.80168535
0.38000002 20985.32111860  1199.31115874
0.38100002 20689.05095910  1422.57921134
0.38200002 20401.37225215  1523.67655883
0.38300002 20120.45175809  1738.40711425
0.38400002 19847.79145852  1146.21001103
0.38500002 19581.17459230  1360.50007513
0.38600002 19322.91399664  1458.20377384
0.38700002 19070.63161564  1442.88405640
0.38800002 18825.59759664  1208.32103899
0.38900002 18586.69844620  1087.32191062
0.39000002 18355.70156440  1291.87433731
0.39100002 18130.08022278  1172.65364437
0.39200002 17911.46964347  1267.05742261
0.39300002 17698.75274786  1673.59413913
0.39400002 17493.60428930  1554.74415487
0.39500002 17293.30048147  1540.83314590
0.39600002 17099.19679238  1221.90866068
0.39700002 16910.83769621  1211.49246995
0.39800002 16728.49461146  1501.80067490
0.39900002 16551.59606177  1092.40539183
0.40000002 16380.18727343  1280.84880453
0.40100002 16214.58613921  1173.28750862
0.40200002 16054.28637595  970.48165741
0.40300002 15898.78295337  1541.54606820
0.40400002 15748.91196437  1052.42109188
0.40500002 15604.03736552  1045.31451264
0.40600002 15464.12870216  1793.76169380
0.40700002 15329.03716354  1407.20567829
0.40800002 15198.69230103  1212.17176190
0.40900002 15072.92713218  1668.57311259
0.41000002 14952.14376385  1106.15964806
0.41100002 14835.43898015  1283.56224138
0.41200002 14722.92555188  1459.33644985
0.41300002 14615.43149218  1179.90384027
0.41400002 14511.52917649  993.67700744
0.41500002 14411.96916202  989.23761015
0.41600002 14315.93688176  985.00808382
0.41700002 14224.26286273  1248.60585325
0.41800002 14137.24525696  1066.23108780
0.41900002 14052.04664025  973.80687831
0.42000002 13971.81913035  1147.01654586
0.42100002 13895.34634757  1055.49055858
0.42200002 13822.38945846  964.73371797
0.42300002 13752.28520468  1311.96807070
0.42400002 13685.46361714  1046.93801632
0.42500002 13622.38885623  1044.56482699
0.42600002 13561.56413549  955.48004644
0.42700002 13505.12461563  953.73194555
0.42800002 13450.86040098  1125.23178016
0.42900002 13400.54050065  1382.93584520
0.43000002 13352.57815707  1035.89306251
0.43100002 13306.53075854  948.48955742
0.43200002 13264.33113645  1378.42935702
0.43300002 13224.48801569  1033.09705274
0.43400002 13187.24347547  946.51444531
0.43500002 13152.39204580  1118.21642472
0.43600002 13120.41697752  860.04337363
0.43700002 13090.17700613  1290.03700509
0.43800002 13062.25318709  946.16435445
0.43900002 13037.30812163  946.50861449
0.44000002 13014.04679963  1033.05508391
0.44100002 12993.26898500  1033.74452944
0.44200002 12974.34546772  948.35982691
0.44300002 12957.54610130  1121.86439462
0.44400002 12943.07525905  1123.13540883
0.44500002 12929.19167990  1124.45185369
0.44600002 12917.60149102  866.12522102
0.44700002 12908.86077486  954.22303370
0.44800002 12900.31977369  955.72023573
0.44900002 12895.04213808  957.45692413
0.45000002 12890.71066784  959.26227981
0.45100002 12887.70200499  1048.54348482
0.45200002 12886.41897288  1050.75865285
0.45300002 12886.23421375  1404.08414647
0.45400002 12887.95259956  1143.48364859
0.45500002 12890.88886889  1498.95262872
0.45600002 12895.06136650  972.35214842
0.45700002 12900.54915643  974.89454596
0.45800002 12906.81583759  1066.36117504
0.45900002 12914.43943207  1158.42527196
0.46000002 12923.85878029  1251.15882782
0.46100002 12933.23631680  1165.15531500
0.46200002 12944.62735159  1438.40705948
0.46300002 12956.92508120  991.98223123
0.46400002 12969.39833329  1176.00024961
0.46500002 12983.43097928  1089.05024216
0.46600002 12998.00849917  1092.61264623
0.46700002 13013.17166275  1278.93457163
0.46800002 13030.09980222  1191.66783389
0.46900002 13046.68478747  1011.77045322
0.47000002 13064.38992209  1107.59903009
0.47100002 13082.75756581  926.25927956
0.47200002 13102.03134480  1115.50700157
0.47300002 13121.95263152  1026.26796395
0.47400002 13141.73550564  1404.52304874
0.47500002 13162.47394557  939.80068426
0.47600002 13184.18477135  943.32846510
0.47700002 13205.49998035  1136.20127216
