# SAXS profile: number of points = 501, q_min = 0, q_max = 0.5, delta_q = 0.001
#    q    intensity    error
0.00000000 1664650.74656090 324.60689558
0.00100000 1664564.88515983 549.30642515
0.00200000 1664307.25359303 748.93828783
0.00300000 1663878.09202863 1297.82495801
0.00400000 1663277.24274219 2245.42436302
0.00500000 1662505.37298915 1945.13136339
0.00600000 1661562.32431664 1919.10456272
0.00700000 1660448.84204882 1992.53869327
0.00800000 1659164.69617412 2687.84692128
0.00900000 1657711.28970109 2735.22374493
0.01000000 1656088.00755649 3552.30892960
0.01100000 1654296.49233333 3871.05396060
0.01200000 1652336.46688202 3866.46750202
0.01300000 1650209.40001575 3465.43989288
0.01400000 1647915.43261844 4078.59087654
0.01500000 1645456.16828204 4344.00447770
0.01600000 1642831.08739368 6702.75113620
0.01700000 1640042.52555344 6199.36102469
0.01800000 1637090.97751161 4665.70949585
0.01900000 1633977.25047645 5392.12516988
0.02000000 1630702.34732323 5136.71262643
0.02100000 1627268.70894357 6443.98437958
0.02200000 1623675.25630580 6161.84787763
0.02300000 1619924.81978894 7581.24850170
0.02400000 1616018.12935220 6666.07508753
0.02500000 1611957.52616507 6286.63463916
0.02600000 1607743.46957104 9115.90588941
0.02700000 1603377.70720821 8081.02401445
0.02800000 1598860.81465518 6955.04486271
0.02900000 1594196.00490288 7173.88235145
0.03000000 1589383.98026535 9607.82660233
0.03100000 1584426.43765587 8365.77197576
0.03200000 1579324.43802314 7817.65632828
0.03300000 1574082.19123937 9633.38345449
0.03400000 1568698.13958423 12353.49841922
0.03500000 1563176.32405255 10129.38304762
0.03600000 1557517.33580812 10373.06593586
0.03700000 1551724.22837186 10613.79421293
0.03800000 1545798.58613018 9042.92214736
0.03900000 1539742.74478900 11086.14827588
0.04000000 1533556.86683090 12260.78771847
0.04100000 1527245.00625633 12508.13718120
0.04200000 1520808.80139776 19618.43444819
0.04300000 1514249.83421832 10993.45430672
0.04400000 1507570.81983024 13228.93455839
0.04500000 1500774.42184198 13461.94718943
0.04600000 1493861.10584728 13691.23767155
0.04700000 1486834.76489642 13916.77404667
0.04800000 1479697.10106444 14138.50645851
0.04900000 1472450.62320437 14356.39424450
0.05000000 1465097.33640597 13449.59417450
0.05100000 1457640.78746560 18191.35787500
0.05200000 1450080.21003624 13833.76584842
0.05300000 1442421.42319771 14020.33688708
0.05400000 1434664.93623591 13019.58490349
0.05500000 1426814.46593683 13183.76628027
0.05600000 1418870.73542870 15770.74896022
0.05700000 1410839.02549652 14729.16011372
0.05800000 1402718.33373812 12414.05783322
0.05900000 1394512.76816387 16315.80014956
0.06000000 1386225.77882747 16489.15640951
0.06100000 1377858.91215959 20502.54157105
0.06200000 1369414.74976379 19411.45498526
0.06300000 1360897.01573840 16983.99555051
0.06400000 1352304.54815814 15821.96395339
0.06500000 1343644.18117944 21283.32482547
0.06600000 1334916.71472162 13415.91361066
0.06700000 1326123.68610495 17584.40090068
0.06800000 1317268.96281156 17723.85472427
0.06900000 1308356.38350461 20606.61400498
0.07000000 1299385.28639868 17989.99013263
0.07100000 1290360.06533482 19510.24510168
0.07200000 1281282.96162407 19642.06872187
0.07300000 1272157.18297176 16945.13447116
0.07400000 1262985.34674302 18471.16156175
0.07500000 1253768.40619966 15722.25655068
0.07600000 1244509.16243746 14374.08150002
0.07700000 1235211.86419647 17342.37538648
0.07800000 1225877.67847096 24695.30699091
0.07900000 1216508.00321411 20437.33541258
0.08000000 1207108.66955907 16133.00812547
0.08100000 1197679.91116517 17677.75631821
0.08200000 1188223.57131984 20710.73781996
0.08300000 1178742.45311172 16337.37116687
0.08400000 1169240.42122323 16398.59767738
0.08500000 1159718.51243561 17952.44341528
0.08600000 1150179.62323997 16510.82926682
0.08700000 1140625.57416048 25595.63908607
0.08800000 1131058.68916837 19629.52447239
0.08900000 1121481.97587028 15140.00738537
0.09000000 1111897.86814520 21248.36925841
0.09100000 1102307.36424076 16733.02657531
0.09200000 1092713.36163781 22865.02816662
0.09300000 1083119.44952903 16799.18345163
0.09400000 1073524.56657446 22946.58868896
0.09500000 1063933.08981586 21448.89209884
0.09600000 1054346.48682497 15340.74210444
0.09700000 1044769.34768435 15358.11013299
0.09800000 1035200.84286043 21521.82653497
0.09900000 1025644.50753977 20000.06883748
0.10000000 1016099.98045404 18472.69851337
0.10100000 1006571.29180151 20020.70393554
0.10200000 997060.30140247 16945.04061937
0.10300000 987568.04146161 18487.27460582
0.10400000 978097.71940751 15405.03980540
0.10500000 968651.73319549 15401.56328244
0.10600001 959227.09099700 15395.59553492
0.10700001 949831.98676174 18464.73469156
0.10800001 940463.16384079 19989.54548818
0.10900001 931125.60667672 18436.28787991
0.11000001 921819.74456551 21487.61925723
0.11100001 912546.41753550 32194.63912616
0.11200001 903308.72277944 21435.51700068
0.11300001 894106.69424333 19875.99274881
0.11400001 884943.01358029 15265.26770302
0.11500001 875819.30677522 15239.25665547
0.11600001 866736.34193472 18253.46822073
0.11700001 857695.69392954 15181.21449751
0.11800001 848697.86985999 15149.25769051
0.11900001 839744.73063624 25696.18996780
0.12000001 830837.56693966 19603.61331537
0.12100001 821979.45571067 24067.55959699
0.12200001 813169.33588668 15002.97495392
0.12300001 804409.22824040 16458.21358522
0.12400001 795699.75074788 14919.37102949
0.12500001 787041.63202635 19337.61381009
0.12600001 778438.10520756 17795.09592361
0.12700001 769888.17388423 14781.85363519
0.12800001 761393.10912588 19152.84456272
0.12900001 752954.21629907 17619.12949182
0.13000001 744572.33449355 21946.27059363
0.13100001 736247.45521886 24782.09051084
0.13200001 727981.36564389 18880.19760799
0.13300001 719775.73186268 21701.23933872
0.13400001 711628.97781048 20174.68247207
0.13500001 703543.87245739 18657.98437726
0.13600001 695519.51446850 15722.21936587
0.13700001 687558.14429363 15655.69968378
0.13800001 679658.09406922 17005.04631550
0.13900001 671822.37350948 19751.57871263
0.14000001 664050.50355770 16853.60257512
0.14100001 656342.48591774 16776.11473127
0.14200001 648698.98257232 13914.59383246
0.14300001 641121.81546764 15233.05505402
0.14400001 633607.83204171 17915.26229604
0.14500001 626161.49582794 15084.23114605
0.14600001 618780.74129436 21830.58558271
0.14700001 611468.34622418 14932.05771924
0.14800001 604219.61333899 17555.60169381
0.14900001 597039.14001438 18806.73379777
0.15000001 589925.48910116 21378.90073374
0.15100001 582879.37364995 17276.54545018
0.15200001 575900.98431598 13216.92821372
0.15300001 568991.22577608 15772.43752280
0.15400001 562146.41200037 16990.87610453
0.15500001 555370.81651360 18193.94880761
0.15600001 548660.70018518 15505.15211900
0.15700001 542021.66204445 14130.50539641
0.15800001 535446.31267477 15324.47419205
0.15900001 528940.84492224 13964.03896506
0.16000001 522500.55684936 13880.22794788
0.16100001 516130.64427436 13796.17277269
0.16200001 509826.27120571 12465.25291942
0.16300001 503588.68349395 21060.07973792
0.16400001 497418.10673350 12311.09872286
0.16500001 491313.54878544 14680.44953079
0.16600001 485276.26797701 14587.40530410
0.16700001 479303.35625365 12078.44514787
0.16800001 473395.94084516 14400.70520046
0.16900001 467556.29771132 14307.22338553
0.17000001 461779.86763022 13029.11958042
0.17100001 456068.32286697 14119.87594272
0.17200001 450421.82472725 11688.44690363
0.17300001 444839.27792412 15093.39741274
0.17400001 439320.44134612 13838.59455594
0.17500001 433864.64904500 13744.83273088
0.17600001 428470.49697515 15926.24912475
0.17700001 423140.59533901 13557.42531499
0.17800001 417870.62359912 15707.75748300
0.17900001 412663.41884784 15598.67796923
0.18000001 407516.81437520 12170.49023619
0.18100001 402432.55126020 12085.05008520
0.18200001 397405.41355074 11999.65702900
0.18300001 392439.04828387 12997.58189316
0.18400001 387531.21793850 15055.58852815
0.18500001 382683.41285539 13879.92803998
0.18600001 377891.64177927 12719.83326322
0.18700001 373157.35787513 12627.64558709
0.18800001 368479.79135627 11491.04283635
0.18900001 363860.30870489 14518.02700326
0.19000001 359292.48318922 13381.84916866
0.19100001 354784.39189934 11239.57006644
0.19200001 350327.37347599 16227.16470616
0.19300001 345926.78272323 14093.05779408
0.19400001 341577.46309369 14986.71190142
0.19500001 337281.97879971 11899.30877436
0.19600001 333038.11054925 12793.65962133
0.19700001 328845.72166593 10743.39023453
0.19800001 324704.61394897 10661.67650287
0.19900001 320614.08677704 11542.10766945
0.20000001 316572.14429925 11453.58072206
0.20100001 312580.54067107 10418.30991296
0.20200001 308636.10719667 10337.76689915
0.20300001 304740.93033635 9325.07290904
0.20400001 300892.61343903 10177.69313063
0.20500001 297090.53258039 10098.10767971
0.20600001 293334.82319750 14572.87470528
0.20700001 289624.81315664 13554.44189644
0.20800001 285958.58834923 8964.80216852
0.20900001 282339.19806905 9783.05367555
0.21000001 278761.10707361 9705.06840155
0.21100001 275226.84486242 9627.43548841
0.21200001 271735.03096411 11286.51504466
0.21300001 268284.02424864 12917.87637827
0.21400001 264875.47869045 10250.68150994
0.21500001 261508.62025033 11014.74360569
0.21600001 258180.88940298 12605.68252108
0.21700001 254893.15164411 10835.50838869
0.21800001 251644.24995085 10746.46820225
0.21900001 248433.19041154 10657.78437257
0.22000001 245259.82480538 10569.47264974
0.22100001 242125.40292545 10481.60918825
0.22200001 239027.95378791 8795.03397549
0.22300001 235965.28778747 7928.43404456
0.22400001 232938.45177786 11006.34236695
0.22500001 229948.82975635 9354.31883683
0.22600001 226991.94308924 11593.61404152
0.22700001 224071.58220565 9195.89816859
0.22800001 221183.62687311 7597.65794238
0.22900001 218328.26781235 9038.79071488
0.23000001 215507.00277627 9707.51339914
0.23100001 212718.49852337 8883.12491844
0.23200001 209960.26269073 8805.73383370
0.23300001 207234.16527901 7273.91954531
0.23400001 204539.88968887 9373.04088829
0.23500001 201874.04421089 7860.97565337
0.23600001 199240.19589025 12041.08180813
0.23700001 196635.36398807 9125.84767432
0.23800001 194059.72650647 10435.56228647
0.23900001 191512.78568803 8273.35273305
0.24000001 188994.16040216 8881.78098821
0.24100001 186504.69262906 6770.12066267
0.24200001 184042.22943142 8050.00749611
0.24300001 181607.34699591 13293.65842893
0.24400001 179198.80132770 8561.22313841
0.24500001 176816.88380554 7176.99765317
0.24600001 174461.56264263 7756.56144202
0.24700001 172132.18540933 10885.63992024
0.24800001 169828.29390218 7611.70449278
0.24900001 167548.63457320 7539.68891248
0.25000001 165294.87640952 9957.36382597
0.25100001 163064.31446974 6780.21451642
0.25200001 160860.30110845 6104.64871587
0.25300001 158679.38050638 8463.95855664
0.25400001 156521.89293260 7783.05149430
0.25500001 154387.43715369 7114.17344063
0.25600001 152276.53177674 6457.28663550
0.25700001 150187.89725380 8718.40784808
0.25800001 148122.59076790 7480.93180069
0.25900001 146079.49332745 5697.10050933
0.26000001 144058.35740034 6203.87345499
0.26100001 142058.40438022 6141.18511193
0.26200001 140081.14089148 6631.44152358
0.26300001 138124.17049152 6563.66089233
0.26400001 136188.96260703 8120.26727968
0.26500001 134274.91709369 5893.32639011
0.26600001 132380.56913830 5832.02624936
0.26700001 130507.89598451 5771.05943352
0.26800001 128655.61894412 6229.50536406
0.26900001 126822.44609246 5649.94024078
0.27000001 125010.04899182 6606.15635159
0.27100001 123216.91519721 6535.42549133
0.27200001 121444.85465057 6465.11714327
0.27300001 119690.96257564 5903.15855359
0.27400001 117954.69898986 6811.88418903
0.27500001 116240.35427148 5774.82107350
0.27600001 114542.37628469 7138.85393980
0.27700001 112865.28043295 6118.42714183
0.27800001 111205.59352822 5584.74517130
0.27900001 109565.43587793 5982.27308206
0.28000001 107942.27483256 7734.60406919
0.28100001 106337.96622565 4947.90580266
0.28200001 104752.35152127 4891.41128579
0.28300001 103184.08582324 4395.64226412
0.28400001 101633.53008902 6517.25042543
0.28500001 100100.98049644 5582.63194652
0.28600001 98585.98803542  5517.36508155
0.28700001 97088.11122342  5033.04792405
0.28800001 95607.18402027  4973.48594814
0.28900001 94145.12108312  4914.37555315
0.29000001 92698.55092307  5260.17952112
0.29100001 91270.13052378  6795.97424049
0.29200001 89858.15725765  4344.19281825
0.29300001 88463.27978555  4681.47698785
0.29400001 87084.28838696  5780.21991530
0.29500001 85723.07014110  4947.93584276
0.29600001 84377.57857096  4510.82556393
0.29700001 83048.74200239  4825.96262621
0.29800001 81736.01913222  4399.03275794
0.29900001 80440.28793549  5067.73837984
0.30000001 79159.80160550  3574.06521168
0.30100001 77896.29918639  3528.70252019
0.30200001 76647.27304630  4528.70434233
0.30300001 75415.49497870  3782.84140722
0.30400001 74199.31190003  4752.46615219
0.30500001 72998.77550202  3685.70834959
0.30600001 71812.74181447  3637.67460883
0.30700001 70643.56114526  4895.59901914
0.30800001 69489.32040787  3542.91316873
0.30900001 68350.43946408  3813.95470266
0.31000001 67227.19103333  3449.76347120
0.31100001 66118.13774844  4022.62769107
0.31200001 65024.99153334  3358.21584674
0.31300001 63946.34906570  3614.24782031
0.31400001 62883.75213350  3268.38317189
0.31500001 61834.77742678  3810.25916544
0.31600002 60801.12525618  3469.31237138
0.31700002 59781.90949201  3707.07638312
0.31800002 58777.44082599  5062.50121804
0.31900002 57787.61591711  4160.70854304
0.32000002 56812.38800626  2735.51661203
0.32100002 55850.58126131  4046.37480398
0.32200002 54904.57365252  3192.15206331
0.32300002 53970.53797802  3409.85875091
0.32400002 53051.80539248  2844.90319888
0.32500002 52146.78926654  5354.95404335
0.32600002 51255.91906700  4022.56471886
0.32700002 50378.28518318  3222.19527290
0.32800002 49515.07372167  2932.28280465
0.32900002 48664.76299516  2890.68705880
0.33000002 47828.90649662  3799.52851201
0.33100002 47004.04435015  2808.96182338
0.33200002 46195.40320834  3461.19074929
0.33300002 45398.57525317  2956.80934626
0.33400002 44615.34673018  2690.30553523
0.33500002 43844.07842893  3093.63832045
0.33600002 43086.87081360  3267.06213416
0.33700002 42341.41533887  2576.05183121
0.33800002 41609.74165027  2327.44100943
0.33900002 40889.47923368  3128.04530951
0.34000002 40182.40797300  2671.92934470
0.34100002 39487.43696726  2633.41729606
0.34200002 38805.47951271  2795.15882168
0.34300002 38134.41792969  2951.60408754
0.34400002 37476.96534364  2327.31965806
0.34500002 36830.22826288  2484.93561858
0.34600002 36196.55494705  2637.64308391
0.34700002 35572.86078979  2042.59376329
0.34800002 34962.52708437  3111.49024524
0.34900002 34362.82757796  2706.07279993
0.35000002 33774.70969703  3023.00553461
0.35100002 33198.42907878  1928.16485222
0.35200002 32632.06112071  1900.65449000
0.35300002 32077.30790584  1703.30513047
0.35400002 31533.85678489  1847.09574866
0.35500002 31001.21291257  1986.55781753
0.35600002 30478.38642382  1795.32943733
0.35700002 29966.67897072  1770.13181064
0.35800002 29465.92119796  2062.76191117
0.35900002 28975.24251695  2034.06212103
0.36000002 28495.24832653  1851.62132396
0.36100002 28024.41883571  1826.07121783
0.36200002 27564.96535630  1651.00367822
0.36300002 27114.13862238  1924.56165058
0.36400002 26673.31662813  1752.43698548
0.36500002 26241.93020280  1440.68203638
0.36600002 25820.60389882  1705.70917435
0.36700002 25408.09934573  1402.52715032
0.36800002 25006.21795593  1384.09422942
0.36900002 24612.55365827  1775.79583056
0.37000002 24227.61325425  2022.40011220
0.37100002 23851.64194134  2262.56686173
0.37200002 23485.20833843  1445.39721566
0.37300002 23126.84104899  1686.64059760
0.37400002 22777.10678005  1665.57601219
0.37500002 22436.30998743  2151.19350350
0.37600002 22103.75511336  1624.95763414
0.37700002 21779.05383247  1234.87241080
0.37800002 21462.53654248  1830.21789036
0.37900002 21154.44648638  1326.38385753
0.38000002 20854.09804833  1668.53646389
0.38100002 20560.52729791  1178.11826998
0.38200002 20275.56502458  1281.31439243
0.38300002 19997.49627016  1267.04142370
0.38400002 19727.73059046  1367.13179469
0.38500002 19463.93370289  1239.65799627
0.38600002 19208.65980732  1338.07530557
0.38700002 18959.46183976  1324.12887762
0.38800002 18717.46060859  1201.38026608
0.38900002 18481.77263362  1297.42050035
0.39000002 18253.89952058  1284.70950912
0.39100002 18031.39734998  1060.24621441
0.39200002 17816.10141654  1050.25922826
0.39300002 17606.67873490  1664.88762005
0.39400002 17404.88745100  1340.61151943
0.39500002 17207.97856244  1431.01556505
0.39600002 17017.23697309  1114.71416073
0.39700002 16832.37281816  1205.87124583
0.39800002 16653.38932838  996.70539853
0.39900002 16480.02429434  1087.68165496
0.40000002 16312.18926756  1079.29605402
0.40100002 16150.08113194  1460.77490759
0.40200002 15993.47338328  1063.48606301
0.40300002 15841.47892897  1055.99303544
0.40400002 15695.23885211  1144.18296653
0.40500002 15553.97093392  1136.68424971
0.40600002 15417.83132641  1223.63624120
0.40700002 15286.25855240  1029.07097451
0.40800002 15159.68172971  1116.05582182
0.40900002 15037.52328527  1479.69236138
0.41000002 14920.37126359  1287.77730478
0.41100002 14807.41574797  1281.13767122
0.41200002 14698.52715921  1001.63118072
0.41300002 14594.73130008  1268.86599935
0.41400002 14494.59485312  992.51742960
0.41500002 14398.74513546  1168.02626073
0.41600002 14306.35025948  894.86225113
0.41700002 14218.39343156  980.64264144
0.41800002 14134.95443972  1421.41108581
0.41900002 14053.42898783  973.90267500
0.42000002 13976.90329281  970.90563324
0.42100002 13903.98378286  1144.15887971
0.42200002 13834.64828466  965.58932278
0.42300002 13768.13398458  875.65336291
0.42400002 13704.88180429  1135.79213335
0.42500002 13645.38519131  959.13417055
0.42600002 13588.11274398  1305.47799374
0.42700002 13535.13593483  1042.74692183
0.42800002 13484.25402825  954.48296662
0.42900002 13437.43613506  953.38613896
0.43000002 13392.85661046  952.43304299
0.43100002 13350.17700875  1124.61896451
0.43200002 13311.30647969  951.02633651
0.43300002 13274.76792307  1123.44366257
0.43400002 13240.88465785  1036.76131784
0.43500002 13209.17576578  1295.82020403
0.43600002 13180.39050172  950.37210216
0.43700002 13153.25514098  1037.00268446
0.43800002 13128.48882606  1037.41323620
0.43900002 13106.61905744  1124.54796842
0.44000002 13086.31769093  1125.35794316
0.44100002 13068.54457430  1126.37791024
0.44200002 13052.51499783  954.07362898
0.44300002 13038.54865040  868.36738127
0.44400002 13026.94306738  956.50334005
0.44500002 13015.86049727  957.83721939
0.44600002 13006.91172877  1220.95886184
0.44700002 13000.84607008  1223.11965624
0.44800002 12994.84514959  1137.76372099
0.44900002 12991.97826677  964.65443202
0.45000002 12990.23161547  1054.54705252
0.45100002 12989.60308772  880.69513109
0.45200002 12990.65811359  1324.07289098
0.45300002 12992.75718717  1061.76816766
0.45400002 12996.61289649  1064.42264667
0.45500002 13001.75134805  1156.11578466
0.45600002 13007.98296988  891.69727485
0.45700002 13015.49111984  1162.41356700
0.45800002 13023.63402147  1076.01269385
0.45900002 13033.19986879  989.21991692
0.46000002 13044.44108521  1353.03471569
0.46100002 13055.50536700  1085.69587778
0.46200002 13068.60236277  1270.66026795
0.46300002 13082.42087380  1365.80480396
0.46400002 13096.41294314  1096.16981529
0.46500002 13111.91454389  916.52287006
0.46600002 13127.84674094  1195.48742012
0.46700002 13144.33741268  1015.00578311
0.46800002 13162.46290678  1018.57724032
0.46900002 13180.18799174  1207.96428670
0.47000002 13198.96421359  1492.01098542
0.47100002 13218.30721240  935.85619499
0.47200002 13238.47717732  1127.12400030
0.47300002 13259.20905997  1131.27577062
0.47400002 13279.72843239  1324.65297392
0.47500002 13301.11790000  1139.63983569
0.47600002 13323.56445600  1334.62151482
0.47700002 13345.28232844  956.85678830
