# SAXS profile: number of points = 501, q_min = 0, q_max = 0.5, delta_q = 0.001
#    q    intensity    error
0.00000000 1664650.74656090 349.57665678
0.00100000 1664564.77640850 599.24333374
0.00200000 1664306.82187567 823.83190292
0.00300000 1663877.11919132 1098.15893779
0.00400000 1663275.51098119 1372.20234870
0.00500000 1662502.67596515 1795.50296111
0.00600000 1661558.43487217 2268.02735594
0.00700000 1660443.55425939 2391.03881751
0.00800000 1659157.79765868 2463.84943355
0.00900000 1657702.52857136 2983.86467898
0.01000000 1656077.21291086 3005.78027122
0.01100000 1654283.44139208 2977.71032415
0.01200000 1652320.93454559 3222.02596363
0.01300000 1650191.21411703 3465.40170249
0.01400000 1647894.35055924 4449.31494375
0.01500000 1645431.95268670 5133.74792098
0.01600000 1642803.56815415 4189.14928606
0.01700000 1640011.47839068 4870.83430932
0.01800000 1637056.21004594 5598.73249029
0.01900000 1633938.54226506 6372.36060237
0.02000000 1630659.47868622 5650.23534924
0.02100000 1627221.49210652 7517.76363438
0.02200000 1623623.46319181 6721.80144300
0.02300000 1619868.27080159 8164.13645646
0.02400000 1615956.71655054 6059.83796338
0.02500000 1611890.80720542 8172.28676576
0.02600000 1607671.45779805 9766.60455283
0.02700000 1603300.08313021 8754.01885483
0.02800000 1598777.46312476 8345.61874024
0.02900000 1594106.74249602 10760.22100590
0.03000000 1589288.57308528 8129.21142499
0.03100000 1584324.74630732 9886.18687185
0.03200000 1579216.18420616 10162.25661342
0.03300000 1573967.13759227 10435.40260331
0.03400000 1568576.16311183 9058.52775993
0.03500000 1563047.31749705 9284.50149467
0.03600000 1557381.05459347 12100.85135342
0.03700000 1551580.49439559 8844.00922707
0.03800000 1545647.25444249 9946.24054265
0.03900000 1539583.57146663 11085.00222791
0.04000000 1533389.73572167 14145.52096752
0.04100000 1527069.71800822 11544.64760343
0.04200000 1520625.20291881 10788.83631523
0.04300000 1514057.79604853 13989.89468487
0.04400000 1507370.02795067 12209.69779344
0.04500000 1500564.85010606 11389.28774151
0.04600000 1493642.50678831 11583.19817861
0.04700000 1486607.11066479 18196.07188080
0.04800000 1479460.01413242 10874.03160982
0.04900000 1472204.11026842 15458.14387736
0.05000000 1464841.17724100 11206.03552772
0.05100000 1457374.88735584 12504.27711601
0.05200000 1449804.41150316 12678.54016943
0.05300000 1442135.61872955 14017.55886752
0.05400000 1434368.80126459 13016.89747850
0.05500000 1426508.03649967 14379.20167870
0.05600000 1418553.73125916 14554.36196189
0.05700000 1410511.44350991 14725.74015762
0.05800000 1402380.03223250 18616.59579714
0.05900000 1394163.55592677 16311.71436620
0.06000000 1385865.55314336 15216.80448443
0.06100000 1377487.57395875 16653.82554742
0.06200000 1369032.13958961 16818.56062102
0.06300000 1360502.96068430 15672.99483988
0.06400000 1351898.98913550 14499.11733655
0.06500000 1343227.06522621 13297.94856779
0.06600000 1334487.90947754 14752.76452953
0.06700000 1325683.11235001 14874.16521666
0.06800000 1316816.34960186 16354.85982761
0.06900000 1307891.74289359 20599.29591501
0.07000000 1298908.52024324 17983.38930490
0.07100000 1289871.20681440 16716.73162329
0.07200000 1280781.80077299 15427.01751302
0.07300000 1271643.42239044 19761.33970988
0.07400000 1262459.21082438 17043.20014484
0.07500000 1253229.52127260 25716.27098190
0.07600000 1243957.74991970 20114.79775920
0.07700000 1234647.71049018 15889.91677906
0.07800000 1225300.77479022 18875.75932085
0.07900000 1215918.18082125 18968.32451050
0.08000000 1206505.95742113 20522.66729847
0.08100000 1197064.16733053 17668.66793878
0.08200000 1187594.64632648 16264.10944464
0.08300000 1178100.50558813 17812.88048049
0.08400000 1168585.25587296 14899.46271174
0.08500000 1159050.21107567 20932.44779470
0.08600000 1149497.94818844 16501.04382099
0.08700000 1139930.71513343 19561.21199024
0.08800000 1130350.40563988 18108.21434878
0.08900000 1120760.35202291 15130.26546297
0.09000000 1111162.77694779 22751.05892675
0.09100000 1101558.81068126 18241.81476190
0.09200000 1091951.31995541 16755.99379202
0.09300000 1082343.87449771 19839.36415184
0.09400000 1072735.44230479 18343.77692552
0.09500000 1063130.40819442 16839.98645732
0.09600000 1053530.27031444 16861.75276902
0.09700000 1043939.61203288 16880.50432017
0.09800000 1034357.42005245 18432.25009198
0.09900000 1024787.47236350 16908.99408910
0.10000000 1015229.56068416 19994.94713798
0.10100000 1005687.19205193 16925.71623828
0.10200000 996162.48055921 18468.85325827
0.10300000 986656.87297470 18470.21753094
0.10400000 977172.75513150 16929.51877910
0.10500000 967713.32619658 18463.97113255
0.10600001 958275.22336362 27684.57250563
0.10700001 948866.66768620 18445.96888784
0.10800001 939484.27674953 16896.62551252
0.10900001 930133.30746095 23020.80044315
0.11000001 920814.01567939 21464.17571580
0.11100001 911527.25521598 18376.39033019
0.11200001 902276.40024590 19881.66141539
0.11300001 893060.95193476 19852.74589619
0.11400001 883884.15095322 24395.20371494
0.11500001 874746.99941252 19786.77805843
0.11600001 865651.04551563 19749.82953349
0.11700001 856597.40081972 22742.66206283
0.11800001 847586.60702442 22694.13247193
0.11900001 838620.45810025 16604.68585249
0.12000001 829700.35927938 21082.68712239
0.12100001 820829.20955055 24033.88038783
0.12200001 812006.42380330 14981.51922497
0.12300001 803233.65067643 17928.17592777
0.12400001 794511.46397421 16386.79971657
0.12500001 785840.90407565 16337.63316557
0.12600001 777225.06918123 17767.36591874
0.12700001 768662.66722808 25089.15064069
0.12800001 760155.25031393 16179.90526548
0.12900001 751704.32778602 17589.88209924
0.13000001 743310.33684610 18987.86344972
0.13100001 734973.55669503 18918.22024109
0.13200001 726695.44551278 15947.33230354
0.13300001 718478.01279171 17329.69048551
0.13400001 710319.44531797 15822.36639041
0.13500001 702222.94005915 20055.48811367
0.13600001 694187.08326329 22824.87237391
0.13700001 686214.42184099 21306.95880286
0.13800001 678303.06086832 16971.14338321
0.13900001 670456.38998011 15487.54333890
0.14000001 662673.23063800 19621.75528456
0.14100001 654954.42786957 16740.63596588
0.14200001 647300.18269291 15273.04853100
0.14300001 639712.48566313 15199.56937628
0.14400001 632187.82851213 17875.11169435
0.14500001 624731.16231862 15049.77441019
0.14600001 617340.29140665 20418.53110151
0.14700001 610017.94648545 17605.11876612
0.14800001 602759.13956636 20207.50110733
0.14900001 595568.94298498 16080.36221928
0.15000001 588445.69448395 15993.95473071
0.15100001 581390.05159196 14581.26318194
0.15200001 574402.31856077 15819.04059962
0.15300001 567483.34249873 15730.63899638
0.15400001 560629.53458217 15641.56475298
0.15500001 553845.19492425 15551.97380742
0.15600001 547126.22443616 18038.75247100
0.15700001 540478.68613817 16652.14910585
0.15800001 533894.96739724 12733.39557342
0.15900001 527381.29346577 17720.01229685
0.16000001 520932.93407123 16354.69023715
0.16100001 514555.08029769 17505.16465805
0.16200001 508242.95272560 13669.19485882
0.16300001 501997.74482248 13584.05961617
0.16400001 495819.79494318 18407.31075627
0.16500001 489708.07529530 18290.59747580
0.16600001 483663.72827397 20596.82084099
0.16700001 477683.98006195 16852.69161228
0.16800001 471769.89109587 13155.30403435
0.16900001 465923.62658428 14257.26364668
0.17000001 460140.84241303 14163.13579825
0.17100001 454423.19832016 18758.59051246
0.17200001 448770.72333025 16303.84114850
0.17300001 443182.42850047 13880.47431613
0.17400001 437657.92659077 12637.37322712
0.17500001 432196.78685431 14832.99442537
0.17600001 426797.43449734 16997.20863162
0.17700001 421462.47291999 12378.35341430
0.17800001 416187.76814262 14527.03473316
0.17900001 410975.82241946 11096.34772945
0.18000001 405824.84069399 16527.21741793
0.18100001 400736.28192514 15316.14141866
0.18200001 395705.14140923 11948.31730927
0.18300001 390734.84238675 12941.13859118
0.18400001 385823.28181068 12847.91589124
0.18500001 380971.94268798 12754.94124376
0.18600001 376176.97571046 11606.94113390
0.18700001 371439.52765111 11522.05469209
0.18800001 366759.16963670 11437.38524549
0.18900001 362136.89727083 12385.08247183
0.19000001 357566.64534471 10244.28487316
0.19100001 353056.17197167 15252.02734984
0.19200001 348596.99151220 14128.63673359
0.19300001 344194.68739066 14022.49222690
0.19400001 339843.49538262 12922.54952256
0.19500001 335546.56979863 10851.57658008
0.19600001 331301.34108181 10768.95060077
0.19700001 327107.94653219 15544.17035379
0.19800001 322965.81756252 14460.79516476
0.19900001 318874.64443652 14349.35967779
0.20000001 314832.05529802 14238.28037377
0.20100001 310840.30082568 11302.15387219
0.20200001 306895.55064180 13082.95794221
0.20300001 303000.61903644 13907.72907112
0.20400001 299152.35088531 10118.82874697
0.20500001 295350.84157485 14602.14629766
0.20600001 291595.80458130 14486.48025635
0.20700001 287886.72283949 13473.09926575
0.20800001 284221.56617711 11583.45047710
0.20900001 280603.09974377 14142.39689562
0.21000001 277026.59298328 9644.68129064
0.21100001 273494.04163016 11306.24421548
0.21200001 270003.95656380 12939.94023005
0.21300001 266555.01972682 13690.26646038
0.21400001 263148.78519997 10183.85846870
0.21500001 259784.30409076 10942.11540562
0.21600001 256459.13956336 10017.29446495
0.21700001 253174.03439902 11590.30784277
0.21800001 249928.24112888 9852.17173112
0.21900001 246720.23911704 9770.12193098
0.22000001 243550.15564662 9688.42564972
0.22100001 240419.27400523 11208.34708409
0.22200001 237325.60103381 7938.54172995
0.22300001 234266.80772955 9445.63813430
0.22400001 231243.81883093 7804.47925459
0.22500001 228258.60046860 11606.95038269
0.22600001 225306.23894577 9206.01335866
0.22700001 222390.35664095 8366.32561247
0.22800001 219507.14674805 9802.09210158
0.22900001 216656.68085722 9717.05259597
0.23000001 213840.54022423 11114.36260377
0.23100001 211057.35406246 8079.27589560
0.23200001 208304.51413790 7280.24311343
0.23300001 205584.10603191 8659.20295560
0.23400001 202895.58234023 10728.10442363
0.23500001 200235.76090020 7088.34627112
0.23600001 197607.94048019 7727.45887796
0.23700001 195009.38171905 8354.20230798
0.23800001 192440.28415082 7588.88296443
0.23900001 189899.84840925 7520.03435270
0.24000001 187387.95077641 10838.51958557
0.24100001 184905.46032344 8725.68908540
0.24200001 182449.85362228 7315.32722701
0.24300001 180022.32968484 7906.58109376
0.24400001 177621.10631083 7180.33356227
0.24500001 175246.62560377 6466.60079068
0.24600001 172899.10010573 7687.09435434
0.24700001 170577.47381440 6345.48232607
0.24800001 168281.34678329 6285.30859969
0.24900001 166009.77546010 6847.90356169
0.25000001 163764.22729950 7398.86813942
0.25100001 161542.08561287 9159.43668757
0.25200001 159346.36572206 7861.35332482
0.25300001 157174.05853436 10778.99744425
0.25400001 155025.33660154 8301.60716777
0.25500001 152899.70537632 7045.61875708
0.25600001 150797.79149745 6394.58065099
0.25700001 148718.19442796 8633.09159500
0.25800001 146662.15683375 6837.39007509
0.25900001 144628.34396233 7332.65738583
0.26000001 142616.58422396 6141.78349021
0.26100001 140626.18048833 7737.25281656
0.26200001 138658.49061455 7111.10102764
0.26300001 136711.42315507 9203.41344228
0.26400001 134786.02633958 6965.06824067
0.26500001 132881.90836383 7952.98259190
0.26600001 130997.60941960 6295.74540662
0.26700001 129135.10722829 5710.35471185
0.26800001 127293.13279719 5649.90596656
0.26900001 125470.26514845 6097.85517477
0.27000001 123668.24350167 5529.82576986
0.27100001 121885.58835794 5967.51868840
0.27200001 120124.06383747 6394.80484101
0.27300001 118380.89068039 5352.00032094
0.27400001 116655.30750284 5293.23482844
0.27500001 114951.85594358 5710.80847354
0.27600001 113264.91785338 5176.77331548
0.27700001 111598.65639061 5584.39703008
0.27800001 109949.94187750 5521.68634241
0.27900001 108320.99666377 7279.17132031
0.28000001 106708.95835541 7196.45249209
0.28100001 105115.85397298 4891.04091685
0.28200001 103541.53878948 6593.00779446
0.28300001 101984.69423253 4344.54817993
0.28400001 100445.52815287 4723.45118495
0.28500001 98924.42682530  5092.62973401
0.28600001 97420.89563248  5871.55765768
0.28700001 95934.64014850  4558.81431564
0.28800001 94465.30861087  5323.59271875
0.28900001 93014.84713571  5664.60445869
0.29000001 91579.93512758  4796.95722904
0.29100001 90163.16338908  5923.72011506
0.29200001 88763.00341645  4681.36102178
0.29300001 87379.81204550  5394.82985106
0.29400001 86012.67459015  6850.90985540
0.29500001 84663.26448351  4134.95403311
0.29600001 83329.60435023  4083.56745449
0.29700001 82012.63655262  5498.94754116
0.29800001 80711.76065841  4705.89942796
0.29900001 79427.83481017  4646.52855636
0.30000001 78159.34710371  5293.34203318
0.30100001 76907.81016969  4180.70875874
0.30200001 75670.69226642  5846.69631475
0.30300001 74450.78844267  3394.95611371
0.30400001 73246.66356448  5361.65602675
0.30500001 72058.03029993  3638.21012208
0.30600001 70883.95996192  3264.20651078
0.30700001 69726.64799151  4187.78267663
0.30800001 68584.27981772  4132.54597607
0.30900001 67457.36123185  3136.76744579
0.31000001 66345.93464825  3714.04559745
0.31100001 65248.82108397  3359.00946844
0.31200001 64167.58926265  3313.93530437
0.31300001 63100.66799978  4755.26656561
0.31400001 62049.94500443  3225.04604430
0.31500001 61012.84076364  3470.41054695
0.31600002 59990.96369133  3137.82750444
0.31700002 58983.56260423  3657.57089027
0.31800002 57990.78242787  3884.80269878
0.31900002 57012.51983779  3283.92129815
0.32000002 56049.02816828  3238.51300091
0.32100002 55098.91563172  2927.40552613
0.32200002 54164.40238552  3149.11850381
0.32300002 53242.06999989  2846.32119697
0.32400002 52334.68985708  3571.84275188
0.32500002 51441.08264357  3270.10977850
0.32600002 50561.63823981  2480.04847310
0.32700002 49695.40642082  3423.01975636
0.32800002 48843.46302581  2410.42501446
0.32900002 48004.43901164  2613.84182796
0.33000002 47179.83518325  2342.47892777
0.33100002 46366.05210705  2770.83540513
0.33200002 45568.60807475  2958.99770546
0.33300002 44782.78819566  2467.97957433
0.33400002 44010.59383608  2653.83893399
0.33500002 43250.15966976  2179.80815058
0.33600002 42503.87126982  2578.28495333
0.33700002 41769.14458626  2964.77402314
0.33800002 41048.09941654  2713.48474043
0.33900002 40338.51725662  2468.71737302
0.34000002 39641.95795184  2838.76074337
0.34100002 38957.53926070  2398.22623047
0.34200002 38285.99868229  2757.74061569
0.34300002 37625.22804413  2135.60804493
0.34400002 36977.96988371  2296.33203853
0.34500002 36341.49856592  2829.18579735
0.34600002 35717.97841622  1859.12086461
0.34700002 35104.27546170  2382.17624565
0.34800002 34503.87107560  1806.27773636
0.34900002 33914.06489477  1958.53734043
0.35000002 33335.62129228  2106.14465300
0.35100002 32769.12748711  2076.25201592
0.35200002 32212.23767865  1705.63806587
0.35300002 31667.00550308  1849.66987904
0.35400002 31132.98919689  1989.39810391
0.35500002 30609.64398966  1798.01057311
0.35600002 30095.99599321  2578.62505883
0.35700002 29593.38349495  1589.16476895
0.35800002 29101.79480636  2350.69758682
0.35900002 28620.03838196  1854.57857499
0.36000002 28148.78046778  1676.68218798
0.36100002 27686.71101931  1804.06617547
0.36200002 27235.90355346  2669.39103371
0.36300002 26793.61462847  1901.81085641
0.36400002 26361.20447620  1587.60361478
0.36500002 25938.14933040  2136.00669854
0.36600002 25525.08843997  1545.67180370
0.36700002 25120.60691010  1525.32332383
0.36800002 24726.85481498  1505.49462672
0.36900002 24341.04516293  2026.39210580
0.37000002 23963.94794269  1466.95314280
0.37100002 23595.58588203  2501.60413371
0.37200002 23236.84763036  1820.14236111
0.37300002 22885.96304557  2054.24414028
0.37400002 22543.58313294  1521.69193356
0.37500002 22210.07166169  1503.17772127
0.37600002 21884.71211644  1732.61274033
0.37700002 21567.07326694  1345.13842338
0.37800002 21257.42782361  1450.18179482
0.37900002 20956.17848986  1552.85289966
0.38000002 20662.55490592  1180.86506881
0.38100002 20375.62476229  1634.53269586
0.38200002 20097.22181018  1270.04399246
0.38300002 19825.49861447  1256.14365172
0.38400002 19562.04844659  1581.59169183
0.38500002 19304.36148109  1229.49484098
0.38600002 19055.11847784  1216.76464805
0.38700002 18811.98687227  1423.31499419
0.38800002 18575.71771363  1300.67181593
0.38900002 18345.79380444  1287.87478609
0.39000002 18123.52612590  1169.23934341
0.39100002 17906.51902970  1263.48404260
0.39200002 17696.62413223  1251.85925042
0.39300002 17492.49308331  1654.09022432
0.39400002 17295.90196398  1127.26046391
0.39500002 17104.03112403  1015.97949690
0.39600002 16918.17551751  1410.46835972
0.39700002 16738.13667177  1498.90020997
0.39800002 16563.93583074  1189.62192773
0.39900002 16395.21220166  1475.56916806
0.40000002 16231.79459340  1269.24523837
0.40100002 16074.03822024  1260.04391578
0.40200002 15921.78763057  1154.96652944
0.40300002 15773.96007298  1051.49222828
0.40400002 15631.80663052  1234.52198714
0.40500002 15494.53634366  1132.34076965
0.40600002 15362.19388331  1125.43437722
0.40700002 15234.32779062  1398.51135744
0.40800002 15111.48295393  1112.50742778
0.40900002 14992.88532291  1198.68123836
0.41000002 14879.10817279  1100.75647478
0.41100002 14769.51600959  1460.40981223
0.41200002 14663.87193940  1271.79767357
0.41300002 14563.09624791  1085.24198382
0.41400002 14465.98956485  1440.81262893
0.41500002 14373.06973286  1076.25551259
0.41600002 14283.50886201  1072.12022598
0.41700002 14198.21141229  1424.36463637
0.41800002 14117.48040155  1064.74042234
0.41900002 14038.38199094  884.41810734
0.42000002 13964.28711418  1058.21372766
0.42100002 13893.69987516  1231.25974128
0.42200002 13826.63357561  1052.75993033
0.42300002 13762.28992848  1050.33801711
0.42400002 13701.02763239  960.78460825
0.42500002 13643.44930857  1046.17974256
0.42600002 13588.01099119  1044.37457427
0.42700002 13536.83128200  955.97107043
0.42800002 13487.52310130  1128.29879851
0.42900002 13442.33691669  1040.43692665
0.43000002 13399.26202052  866.26233068
0.43100002 13357.91518732  1644.62659580
0.43200002 13320.36959946  951.67385113
0.43300002 13285.06301666  951.34340771
0.43400002 13252.33287451  951.18623714
0.43500002 13221.68106661  1210.57717583
0.43600002 13193.80777523  864.85414065
0.43700002 13167.64407183  1124.64853347
0.43800002 13143.67458779  1298.26651893
0.43900002 13122.52013230  1299.12955466
0.44000002 13102.86850097  866.75479241
0.44100002 13085.66741069  1301.36968567
0.44200002 13070.20330403  955.36655578
0.44300002 13056.63189667  1130.44324319
0.44400002 13045.36956074  957.85630539
0.44500002 13034.57395642  959.21434291
0.44600002 13025.83625958  873.38236260
0.44700002 13019.93198630  1137.42131223
0.44800002 13013.94713479  964.13831917
0.44900002 13011.12396582  1053.90109118
0.45000002 13009.30184054  1056.09517347
0.45100002 13008.48759380  1234.76570092
0.45200002 13009.35651068  1237.58014351
0.45300002 13011.20420800  1063.27565827
0.45400002 13014.74478932  888.25637397
0.45500002 13019.51848256  979.58861705
0.45600002 13025.27058776  1250.03527755
0.45700002 13032.22787322  1163.90832652
0.45800002 13039.87852796  1077.35481504
0.45900002 13048.84659618  900.37045781
0.46000002 13059.44252205  1264.28469048
0.46100002 13069.78870477  996.31004018
0.46200002 13082.14903229  1271.97741069
0.46300002 13095.11114621  1002.56175687
0.46400002 13108.22268293  914.29857547
0.46500002 13122.79615720  1467.65359178
0.46600002 13137.80440729  1564.51551199
0.46700002 13153.28353778  1015.69660293
0.46800002 13170.35387749  1482.45510271
0.46900002 13186.97789190  1301.55477962
0.47000002 13204.57846220  1119.48421508
0.47100002 13222.82991320  1217.02932289
0.47200002 13241.71339050  1127.39953150
0.47300002 13261.17615918  1037.15663657
0.47400002 13280.39477772  946.22817276
0.47500002 13300.45573822  1139.58310166
0.47600002 13321.50386946  1048.46901174
0.47700002 13341.84198304  1147.93213863
