# SAXS profile: number of points = 501, q_min = 0, q_max = 0.5, delta_q = 0.001
#    q    intensity    error
0.00000000 1646666.22097350 321.09991309
0.00100000 1646580.59437950 543.37160905
0.00200000 1646323.67048036 814.93024269
0.00300000 1645895.68653581 1086.29119181
0.00400000 1645296.47603538 1233.97240391
0.00500000 1644526.72276456 2072.10375270
0.00600000 1643586.26688387 2070.91878059
0.00700000 1642475.84504051 2759.35953435
0.00800000 1641195.22448717 2437.17501126
0.00900000 1639745.83078241 3443.46639184
0.01000000 1638127.05157125 2973.20072698
0.01100000 1636340.41280795 4123.57801981
0.01200000 1634385.83270669 4461.87351891
0.01300000 1632264.65497316 4113.30711195
0.01400000 1629977.07608537 4400.93830053
0.01500000 1627524.53948858 5859.08860306
0.01600000 1624906.82612739 4972.21511023
0.01700000 1622126.03932652 4817.71455292
0.01800000 1619182.68535131 5999.07211917
0.01900000 1616077.74529341 8241.99687290
0.02000000 1612811.95489243 6096.42946527
0.02100000 1609388.05225677 5842.07889456
0.02200000 1605804.60465474 8864.04182041
0.02300000 1602064.83444931 5767.43366654
0.02400000 1598169.22987140 6592.44837382
0.02500000 1594120.10526137 7460.48243335
0.02600000 1589918.04698863 8370.91890027
0.02700000 1585564.79129714 11320.93312837
0.02800000 1581060.78013325 8253.13765078
0.02900000 1576409.47918349 9221.99587664
0.03000000 1571611.43077958 10231.19088465
0.03100000 1566668.24563904 9776.01030261
0.03200000 1561581.11860301 9275.79227173
0.03300000 1556354.11106630 11112.36886530
0.03400000 1550985.67741305 13028.28029140
0.03500000 1545480.21458846 9180.15289858
0.03600000 1539837.99383698 9400.71138682
0.03700000 1534062.14392160 11367.40101217
0.03800000 1528154.05937847 9833.67182720
0.03900000 1522116.33301060 16438.85715780
0.04000000 1515949.06321608 10255.39588788
0.04100000 1509656.43776048 9510.83599888
0.04200000 1503239.65446439 10665.48584323
0.04300000 1496700.73556447 11853.87037590
0.04400000 1490042.34486707 13075.12218344
0.04500000 1483266.90207687 10234.54209988
0.04600000 1476374.93181496 13530.97687910
0.04700000 1469370.58692102 15869.20307679
0.04800000 1462255.25611782 11822.33429578
0.04900000 1455031.65895716 12004.01174515
0.05000000 1447701.60502459 16612.37669123
0.05100000 1440268.83242525 11234.09741625
0.05200000 1432732.74286747 18224.36133855
0.05300000 1425098.45917721 17314.94708619
0.05400000 1417367.15409888 12862.60752328
0.05500000 1409542.37909883 13024.17219044
0.05600000 1401624.78485425 11983.89246972
0.05700000 1393619.68626887 15761.83938744
0.05800000 1385525.99402543 13488.09618163
0.05900000 1377347.96103798 17354.58511964
0.06000000 1369089.17236159 31317.91628091
0.06100000 1360750.69722346 16451.47669823
0.06200000 1352335.55412193 16613.44305896
0.06300000 1343847.08525526 15481.11914596
0.06400000 1335284.42500738 15622.82850321
0.06500000 1326654.46619507 14447.26781268
0.06600000 1317957.71781759 17219.11838894
0.06700000 1309195.95900833 14689.17934751
0.06800000 1300373.06343252 16150.63420383
0.06900000 1291492.59596476 17628.87476028
0.07000000 1282554.20481665 24586.56525769
0.07100000 1273562.27372747 15129.92052053
0.07200000 1264518.42500235 18000.42062317
0.07300000 1255426.52200798 15328.75855196
0.07400000 1246289.18799906 14020.75402206
0.07500000 1237107.09419759 21154.53230234
0.07600000 1227883.42026358 18436.67041958
0.07700000 1218622.07781396 17109.45477474
0.07800000 1209324.02217892 14330.49033487
0.07900000 1199991.15698064 17279.87347101
0.08000000 1190629.01550946 18805.98618218
0.08100000 1181237.99648021 15982.15084223
0.08200000 1171819.54706194 17506.98485462
0.08300000 1162377.11311077 17575.14277507
0.08400000 1152913.73522650 22049.47622118
0.08500000 1143431.39702947 23600.42514261
0.08600000 1133932.14104549 22196.72270314
0.08700000 1124418.64302757 16326.55946342
0.08800000 1114892.39777100 23814.10273479
0.08900000 1105356.97739546 16414.55188531
0.09000000 1095814.31030962 20941.01245373
0.09100000 1086265.98557563 20986.65982730
0.09200000 1076714.29873963 21028.23124243
0.09300000 1067163.44822991 19561.10692527
0.09400000 1057611.82821668 24113.55081662
0.09500000 1048063.98645765 16601.33432580
0.09600000 1038521.49567764 18132.58616690
0.09700000 1028989.24068128 18151.37105896
0.09800000 1019465.37843448 21194.68621418
0.09900000 1009954.52522730 19694.11416800
0.10000000 1000456.07029816 15156.91017780
0.10100000 990973.55584912 18194.27534110
0.10200000 981509.01050270 16680.74641809
0.10300000 972063.98657269 15164.19890387
0.10400000 962640.79201877 15161.59318757
0.10500000 953242.97304447 18187.87678142
0.10600001 943866.71342528 21208.68604861
0.10700001 934520.04148729 19680.99299986
0.10800001 925200.28964828 24203.24071624
0.10900001 915912.43635881 16623.81150232
0.11000001 906656.26006644 16605.41018473
0.11100001 897433.10139100 18092.25217571
0.11200001 888246.24756348 16561.35206548
0.11300001 879095.00525373 16535.77782734
0.11400001 869982.71836308 15007.20259837
0.11500001 860910.47392782 16477.82724689
0.11600001 851879.66849947 20930.68444069
0.11700001 842891.56002939 19394.93570968
0.11800001 833946.74348268 17863.14008672
0.11900001 825046.73099167 22276.26278602
0.12000001 816192.95903602 19258.07377560
0.12100001 807388.61962544 22162.81865277
0.12200001 798632.60700224 16208.24952270
0.12300001 789927.32829263 16161.91389833
0.12400001 781272.76942917 20508.41116382
0.12500001 772669.89714180 20444.84644174
0.12600001 764122.12661231 17467.83263750
0.12700001 755627.84722950 21762.08302578
0.12800001 747189.03102064 14458.10843165
0.12900001 738806.74482528 14406.73220311
0.13000001 730481.82024919 17224.76213336
0.13100001 722214.32105925 14299.84423103
0.13200001 714005.58284958 19942.17686907
0.13300001 705857.71114069 14187.74066278
0.13400001 697769.10197464 19781.75497360
0.13500001 689742.44346325 16884.89581207
0.13600001 681776.88800424 16812.61885091
0.13700001 673874.26850501 22318.71682529
0.13800001 666033.55132390 15275.48021994
0.13900001 658257.62441967 19352.77507058
0.14000001 650545.21932000 15134.93524125
0.14100001 642897.51965376 15063.08959591
0.14200001 635314.26775190 16352.99002323
0.14300001 627797.76774726 16272.51890754
0.14400001 620344.51645219 17540.24203006
0.14500001 612959.29640062 17450.95199172
0.14600001 605639.92009934 20031.54130226
0.14700001 598389.09015514 15941.08611378
0.14800001 591202.09467500 15856.04092725
0.14900001 584083.94732196 15770.26732175
0.15000001 577032.51895670 16990.72332235
0.15100001 570048.99581974 14296.82948975
0.15200001 563133.22323820 15508.68969979
0.15300001 556286.15219879 12850.21072218
0.15400001 549504.54957244 14053.57951852
0.15500001 542792.52150862 15241.61472326
0.15600001 536145.85775303 17676.72976437
0.15700001 529570.41699238 12550.81947508
0.15800001 523059.05544154 12474.95906108
0.15900001 516617.83362135 14878.59431057
0.16000001 510241.62156500 14786.80289093
0.16100001 503935.89542868 18368.46425545
0.16200001 497696.04666397 14602.40269844
0.16300001 491523.29161632 15718.91560795
0.16400001 485417.51816505 14416.90097012
0.16500001 479378.03721421 14323.81642821
0.16600001 473405.81279311 17788.22425554
0.16700001 467498.34719380 16493.34246773
0.16800001 461656.15374072 15213.87926487
0.16900001 455881.82793529 16274.98202576
0.17000001 450171.24200333 15010.96077341
0.17100001 444525.40573589 13762.50721147
0.17200001 438944.80928613 14807.80384053
0.17300001 433428.06554681 14706.21495850
0.17400001 427975.18598952 15728.08882789
0.17500001 422585.65789431 12271.88808482
0.17600001 417257.66291849 15509.46806318
0.17700001 411993.83320971 15400.33021275
0.17800001 406790.60588398 12014.56111226
0.17900001 401649.54878904 14097.89982839
0.18000001 396569.73054750 11843.55556223
0.18100001 391551.71342151 10689.36228133
0.18200001 386591.22254856 16979.08729639
0.18300001 381691.24317025 12641.61457098
0.18400001 376850.12147924 14640.62791110
0.18500001 372068.89872704 12456.86731787
0.18600001 367343.83038747 10303.99492916
0.18700001 362676.18690241 14318.45653538
0.18800001 358065.32363986 11166.26764527
0.18900001 353512.50431762 10075.10684908
0.19000001 349011.51093281 11999.01631281
0.19100001 344569.99471364 14885.42447497
0.19200001 340179.63672687 11817.84113830
0.19300001 335845.78393377 10750.42405171
0.19400001 331563.12913066 9698.22198535
0.19500001 327334.07777317 9623.62234130
0.19600001 323156.97224340 11459.14677727
0.19700001 319031.01136282 11370.26578230
0.19800001 314956.40852639 10341.59416270
0.19900001 310932.35749565 13991.95674856
0.20000001 306956.61555407 11105.69087561
0.20100001 303031.53533609 11018.22714557
0.20200001 299153.23988716 10020.13824361
0.20300001 295324.45989311 12651.70045980
0.20400001 291542.06009899 11654.39440331
0.20500001 287805.93486897 9782.52418859
0.20600001 284116.04352100 10586.16428198
0.20700001 280471.90131687 8750.72373473
0.20800001 276871.34257883 13019.87550022
0.20900001 273317.28816144 13775.19197451
0.21000001 269804.90217677 9393.25811333
0.21100001 266336.15636582 10163.38820738
0.21200001 262909.36445132 8399.95459132
0.21300001 259523.75593253 9996.85555113
0.21400001 256180.28904967 8261.81471244
0.21500001 252878.26927931 8193.25631201
0.21600001 249615.09361417 12999.95469004
0.21700001 246391.75053406 12891.21699743
0.21800001 243207.45565793 8788.30182572
0.21900001 240060.61859477 11090.80110347
0.22000001 236951.38463985 8640.43264943
0.22100001 233880.96367589 7788.23645866
0.22200001 230847.20370939 7721.83932920
0.22300001 227848.18318197 9186.83918030
0.22400001 224884.59088825 9866.81189179
0.22500001 221958.39738535 10534.14603804
0.22600001 219064.52349630 9696.89159111
0.22700001 216206.79874456 9612.55472675
0.22800001 213381.68753790 9528.55970761
0.22900001 210588.69616533 9444.90346967
0.23000001 207829.48375477 8641.55034320
0.23100001 205103.11544065 8565.10650587
0.23200001 202406.88085246 8488.94498442
0.23300001 199742.29383640 7712.05032976
0.23400001 197109.34252356 7642.91511783
0.23500001 194504.88423501 9639.66251861
0.23600001 191931.87582216 10234.76776229
0.23700001 189387.61828558 9465.59360962
0.23800001 186872.56601294 8709.19635097
0.23900001 184385.81620904 7965.46763699
0.24000001 181927.21936680 9207.33700766
0.24100001 179497.50753338 6515.75983166
0.24200001 177094.57755244 7746.11718855
0.24300001 174718.89220305 9592.06763568
0.24400001 172369.36533475 6968.03192327
0.24500001 170046.18970146 8784.58657553
0.24600001 167749.26222443 8701.15464319
0.24700001 165478.19499453 8002.52588850
0.24800001 163232.10424584 6706.39132020
0.24900001 161010.10108093 7849.24279902
0.25000001 158813.86443549 10164.88187408
0.25100001 156640.68322778 5921.01810613
0.25200001 154493.15743124 6449.31716208
0.25300001 152368.96053007 7546.83497210
0.25400001 150267.66658294 6322.51237060
0.25500001 148189.27964823 6259.51546849
0.25600001 146134.24903102 5633.47556668
0.25700001 144100.95013891 5576.70703423
0.25800001 142090.88323634 5520.23107492
0.25900001 140102.58038129 6556.80107208
0.26000001 138136.11479992 7571.24081042
0.26100001 136190.35304010 7493.19357882
0.26200001 134267.07784506 5826.52011878
0.26300001 132363.96729727 6289.93602359
0.26400001 130481.86727879 8298.64715161
0.26500001 128620.94653091 6671.56881225
0.26600001 126779.39261021 7108.52088003
0.26700001 124959.25553120 6028.03477207
0.26800001 123159.34325898 6460.32365636
0.26900001 121377.77728978 5407.38023415
0.27000001 119617.09717939 4862.43523044
0.27100001 117875.06815097 5290.23330896
0.27200001 116153.81149338 5707.79856690
0.27300001 114450.70829183 5644.70920008
0.27400001 112764.79781710 6977.32219513
0.27500001 111100.51026582 5519.47361122
0.27600001 109452.48950929 6821.62673151
0.27700001 107824.47273211 4945.90879830
0.27800001 106213.71212311 4445.04406272
0.27900001 104622.63184361 4394.15074540
0.28000001 103047.82278142 6080.85231013
0.28100001 101491.69595766 6439.64841330
0.28200001 99953.98895587  4667.35173520
0.28300001 98433.23176558  4193.25587168
0.28400001 96929.77101402  4143.74790698
0.28500001 95444.25053525  6551.29366682
0.28600001 93975.73682049  5259.35236009
0.28700001 92524.25679894  5595.86731607
0.28800001 91089.16664561  5133.33022929
0.28900001 89672.80732541  4680.92076395
0.29000001 88271.65765813  4623.66964699
0.29100001 86888.02070754  3805.69548713
0.29200001 85520.98812698  5262.10664854
0.29300001 84170.37943356  5567.87086309
0.29400001 82835.48580072  3665.47042019
0.29500001 81518.04793068  4705.22194929
0.29600001 80216.10410473  3930.99036774
0.29700001 78930.31627233  4586.64089571
0.29800001 77660.49243641  3831.38057572
0.29900001 76407.12048480  3782.15264304
0.30000001 75168.85517417  4412.03616331
0.30100001 73947.53632102  3684.80590932
0.30200001 72739.88403848  3636.63067466
0.30300001 71549.54779175  4241.45739389
0.30400001 70374.57647274  4185.52813387
0.30500001 69214.64847719  3494.64776706
0.30600001 68069.01315730  3448.03602472
0.30700001 66939.96217823  3711.15167886
0.30800001 65825.48009259  3356.11226141
0.30900001 64726.22900615  3310.74677041
0.31000001 63642.23036503  3562.69222451
0.31100001 62572.17346042  2928.37785659
0.31200001 61517.71954614  2888.25706944
0.31300001 60477.22727366  2848.47753945
0.31400001 59452.57740622  3651.87474008
0.31500001 58441.52804969  3878.17998500
0.31600002 57445.47546242  2731.53248757
0.31700002 56463.62558451  3501.30958828
0.31800002 55495.98044389  2655.48278997
0.31900002 54542.72882984  3403.46644013
0.32000002 53603.80890229  2581.02352086
0.32100002 52678.28241027  2798.79727698
0.32200002 51767.86430945  3009.78377347
0.32300002 50869.77619832  2719.49836433
0.32400002 49986.05489955  2924.18435009
0.32500002 49115.96487516  3362.47911457
0.32600002 48259.86298235  2367.14639137
0.32700002 47416.69058675  2566.19141607
0.32800002 46587.74843684  2988.83714250
0.32900002 45771.37114874  2718.81957498
0.33000002 44969.21548246  3349.08248165
0.33100002 44177.58362464  3080.06127616
0.33200002 43402.40136138  3035.13007093
0.33300002 42638.45983066  3204.28040801
0.33400002 41887.81168355  2104.86263678
0.33500002 41149.07386653  2903.47878952
0.33600002 40423.96325086  2860.80401474
0.33700002 39710.40082983  3019.97612613
0.33800002 39010.20887510  2182.03613676
0.33900002 38321.62411852  2540.72379938
0.34000002 37645.58003991  2503.24296330
0.34100002 36981.63966073  2086.87402489
0.34200002 36330.19836726  2243.02655342
0.34300002 35689.69967013  2209.90630823
0.34400002 35062.28640330  2358.81542950
0.34500002 34445.78610645  1787.73638359
0.34600002 33841.90575533  2289.91266139
0.34700002 33247.75619346  2429.74613769
0.34800002 32666.63932468  2736.15783942
0.34900002 32096.06995500  1853.54812769
0.35000002 31536.70529166  1660.40761225
0.35100002 30989.26201811  1799.85642326
0.35200002 30451.18512433  2579.82452592
0.35300002 29924.64530244  1747.89861490
0.35400002 29409.18614080  1879.24708341
0.35500002 28904.21402920  1697.83361249
0.35600002 28408.85038988  2434.07041669
0.35700002 27924.58388587  1499.55022570
0.35800002 27451.01919179  1478.23745349
0.35900002 26987.30755010  1894.50907975
0.36000002 26533.88288222  1867.85277397
0.36100002 26089.74611309  1416.67328104
0.36200002 25656.40071569  1676.38930217
0.36300002 25231.85088054  1515.42503567
0.36400002 24816.86700686  1902.21294618
0.36500002 24411.28430010  2144.28731449
0.36600002 24015.43240056  1718.66450116
0.36700002 23628.19504728  1304.27642839
0.36800002 23251.49587514  1544.36442918
0.36900002 22882.77733979  1396.99362277
0.37000002 22522.61655439  1880.07550594
0.37100002 22171.05630281  1484.57400036
0.37200002 21829.04355640  1587.73555829
0.37300002 21494.97423055  1326.45492260
0.37400002 21169.20840162  1428.92163480
0.37500002 20852.22361497  1293.67201436
0.37600002 20543.45358705  1161.73235538
0.37700002 20242.19871691  1147.73272162
0.37800002 19948.79257275  1814.54225838
0.37900002 19663.83131858  1345.00612591
0.38000002 19386.46329728  1994.28557387
0.38100002 19115.68677316  1095.32890399
0.38200002 18853.42040957  1408.06776999
0.38300002 18597.70996778  1285.47377387
0.38400002 18350.08776586  1271.66114242
0.38500002 18108.46708782  1363.02438227
0.38600002 17874.84083816  1141.39801579
0.38700002 17647.59938696  1540.63549947
0.38800002 17427.05129813  1118.55534056
0.38900002 17212.79710664  1611.11788551
0.39000002 17006.10977009  1097.14922380
0.39100002 16804.80949554  1185.74741418
0.39200002 16610.37173675  1077.09960630
0.39300002 16421.86128943  1164.63845782
0.39400002 16240.59348955  1154.70625181
0.39500002 16064.00213446  1145.04212639
0.39600002 15893.51783222  1041.10493493
0.39700002 15728.71308712  939.00421579
0.39800002 15569.83303888  1304.59637214
0.39900002 15416.26433310  1017.47349419
0.40000002 15267.90997578  1193.87427712
0.40100002 15125.34649089  912.05843661
0.40200002 14988.00803440  996.62764147
0.40300002 14855.23678153  990.25013077
0.40400002 14727.98533747  894.72515164
0.40500002 14605.63602614  1512.12156943
0.40600002 14488.11195262  972.94920428
0.40700002 14375.08590653  1231.65741883
0.40800002 14266.95962619  1137.86141890
0.40900002 14163.07537924  958.13209480
0.41000002 14063.94791888  1040.45091634
0.41100002 13969.06440849  1035.94586562
0.41200002 13877.93506409  945.71192975
0.41300002 13791.71998973  1199.05219272
0.41400002 13709.01438939  1280.07927926
0.41500002 13630.52781367  1020.65397105
0.41600002 13555.38005827  847.88906282
0.41700002 13484.31201920  930.01304403
0.41800002 13417.97349874  1011.98360923
0.41900002 13353.13485447  925.37228926
0.42000002 13293.08415302  1175.24162566
0.42100002 13236.79599246  1005.46707123
0.42200002 13183.74959228  1254.76342690
0.42300002 13133.44037009  1002.34421654
0.42400002 13086.11948953  1251.36023548
0.42500002 13042.55128206  1083.44478634
0.42600002 13000.88595791  1249.06017759
0.42700002 12963.67415754  1248.40188053
0.42800002 12928.10508291  915.11596166
0.42900002 12896.62443184  831.83231527
0.43000002 12867.19012831  831.86388121
0.43100002 12839.44622270  1164.79461652
0.43200002 12815.38614814  915.59530674
0.43300002 12793.62078208  999.43770286
0.43400002 12774.15006477  1333.62132996
0.43500002 12757.01641764  917.73980458
0.43600002 12742.38488126  1419.94772653
0.43700002 12729.49147568  1087.22591846
0.43800002 12718.67262918  1005.02955879
0.43900002 12710.58108246  922.78823032
0.44000002 12703.99024271  1092.47969269
0.44100002 12699.71444879  926.19021864
0.44200002 12697.12648142  1181.21373254
0.44300002 12696.46116666  1352.93496604
0.44400002 12697.84901510  1271.37219289
0.44500002 12699.71959183  1104.49466524
0.44600002 12703.71225521  1192.49752591
0.44700002 12710.27072175  939.54325628
0.44800002 12716.76565785  1284.71131147
0.44900002 12726.46431879  1202.65093512
0.45000002 12736.78901401  947.80819940
0.45100002 12748.23571531  1037.19650695
0.45200002 12761.23597449  1040.55123067
0.45300002 12775.20734605  1130.98915995
0.45400002 12790.77079940  1134.86119296
0.45500002 12807.41408390  1226.43803080
0.45600002 12825.03792399  967.07203049
0.45700002 12843.69802324  1058.83451522
0.45800002 12863.01258598  1151.30399607
0.45900002 12883.50993823  1066.75467344
0.46000002 12905.58202739  1517.11576713
0.46100002 12927.42865242  1164.63210249
0.46200002 12950.96875737  989.38930511
0.46300002 12975.25116878  993.38527656
0.46400002 12999.48337134  1269.39961137
0.46500002 13025.01438980  1092.53825880
0.46600002 13050.95172888  1554.17266030
0.46700002 13077.27719073  918.02490230
0.46800002 13105.10610921  1014.13868433
0.46900002 13132.40596323  1203.58506358
0.47000002 13160.49669341  1487.66261673
0.47100002 13189.22982449  1120.55701900
0.47200002 13218.41389741  1219.20046361
0.47300002 13248.12014593  941.94138702
0.47400002 13277.49684309  1040.62386440
0.47500002 13307.62851090  1615.28002521
0.47600002 13338.46011999  1431.55030023
0.47700002 13368.69225107  1437.80291975
0.47800002 13399.42906694  1444.12353614
