# SAXS profile: number of points = 501, q_min = 0, q_max = 0.5, delta_q = 0.001
#    q    intensity    error
0.00000000 1664650.74656090 274.66737318
0.00100000 1664564.64654423 649.18022757
0.00200000 1664306.29744683 823.83164332
0.00300000 1663875.94063745 1297.82327993
0.00400000 1663273.41199706 1496.94612768
0.00500000 1662499.39231932 1795.49941477
0.00600000 1661553.72060931 2093.55777320
0.00700000 1660437.14503013 2191.77712253
0.00800000 1659149.40331354 2911.80732575
0.00900000 1657691.94431541 2735.19182504
0.01000000 1656064.17704135 4098.75901516
0.01100000 1654267.62227431 3573.21821969
0.01200000 1652302.14060718 4188.58611008
0.01300000 1650169.16801817 3811.89094624
0.01400000 1647868.82328628 4449.24602011
0.01500000 1645402.59160855 5923.44959356
0.01600000 1642770.25389476 5026.87720164
0.01700000 1639973.93096178 4870.72279345
0.01800000 1637014.10675650 4665.49041419
0.01900000 1633891.76116513 5882.01060561
0.02000000 1630607.61653018 5650.05564686
0.02100000 1627164.48434577 5906.60734597
0.02200000 1623560.86140293 5601.28522632
0.02300000 1619800.02641628 9330.04857685
0.02400000 1615882.48178791 7877.42745791
0.02500000 1611810.34975955 6914.66671627
0.02600000 1607584.57816904 9115.00497512
0.02700000 1603206.53527943 7406.81453223
0.02800000 1598676.99539207 9040.51882354
0.02900000 1593999.23362373 7172.99688065
0.03000000 1589173.75702289 13301.38495768
0.03100000 1584202.35047677 8364.58879540
0.03200000 1579086.04192159 10943.06677453
0.03300000 1573829.00555720 13645.09810723
0.03400000 1568429.70366413 13174.81011867
0.03500000 1562892.46948811 9283.58169746
0.03600000 1557217.62820571 9506.81405954
0.03700000 1551408.24225329 9727.33012879
0.03800000 1545465.91201947 12657.36640522
0.03900000 1539393.02761976 10159.99445280
0.04000000 1533189.72039372 12257.85238256
0.04100000 1526860.21737458 12504.98576011
0.04200000 1520405.80032225 9806.61786704
0.04300000 1513828.41364407 12988.64839197
0.04400000 1507130.60683818 14242.38489606
0.04500000 1500315.05050367 12422.60919539
0.04600000 1493382.17062240 10528.34479232
0.04700000 1486336.11459782 13912.10667966
0.04800000 1479178.10548183 15220.74341360
0.04900000 1471911.25080711 11039.33489491
0.05000000 1464537.07214742 15685.19277310
0.05100000 1457059.45993543 11365.06431693
0.05200000 1449477.69446652 20742.02677442
0.05300000 1441797.06665377 14014.26814119
0.05400000 1434018.49060096 18929.04495867
0.05500000 1426145.81082155 13177.58790672
0.05600000 1418179.53927555 16975.60987728
0.05700000 1410125.08828577 17175.32437704
0.05800000 1401981.30363327 14889.04213979
0.05900000 1393752.41452329 16306.90401155
0.06000000 1385442.02162175 12676.79509008
0.06100000 1377051.31086407 14087.23556846
0.06200000 1368583.22947679 12933.11212309
0.06300000 1360041.06667162 14362.03433555
0.06400000 1351424.08701747 19764.57819695
0.06500000 1342739.15449615 14622.43007647
0.06600000 1333986.72703286 14747.22395735
0.06700000 1325168.72867368 20275.08249756
0.06800000 1316288.80487703 16348.30772182
0.06900000 1307350.79708159 24708.93122169
0.07000000 1298354.05659854 15210.21848532
0.07100000 1289303.35020373 15316.92451783
0.07200000 1280200.09684492 21027.28757574
0.07300000 1271047.98190306 21162.94989029
0.07400000 1261850.11768012 15615.39593809
0.07500000 1252606.56906427 24275.51644632
0.07600000 1243321.12773235 17232.43163824
0.07700000 1233997.26908839 18769.09934289
0.07800000 1224636.27969169 18865.52277337
0.07900000 1215239.97060061 16041.16836432
0.08000000 1205813.63274504 19045.82722267
0.08100000 1196357.92479744 16186.72348196
0.08200000 1186874.34246683 20687.22075995
0.08300000 1177366.23372169 16318.29676523
0.08400000 1167836.69782025 17867.90231535
0.08500000 1158287.74598977 14941.91262472
0.08600000 1148721.30300183 19488.05782042
0.08700000 1139140.17610642 19547.64633990
0.08800000 1129545.75849321 16587.38024248
0.08900000 1119941.63690337 16631.13408917
0.09000000 1110330.00582684 21218.40740810
0.09100000 1100712.24293255 21265.76153255
0.09200000 1091090.63453432 15220.71506693
0.09300000 1081469.38092075 16773.59088631
0.09400000 1071846.92496755 18328.58327834
0.09500000 1062228.01086744 19884.90929808
0.09600000 1052613.97807709 19910.19433126
0.09700000 1043009.59023432 19931.91420643
0.09800000 1033413.48624410 19950.04828995
0.09900000 1023829.89781267 18428.93902720
0.10000000 1014258.51364212 16902.61892473
0.10100000 1004702.45922143 16909.14318396
0.10200000 995164.13561040 27675.51591308
0.10300000 985645.12314327 16913.67110877
0.10400000 976147.33432920 16911.75336287
0.10500000 966674.79845239 16907.14302040
0.10600001 957223.57874301 19972.47091025
0.10700001 947801.75784848 26102.46163947
0.10800001 938406.37755272 16877.23949456
0.10900001 929042.51712841 18395.04270492
0.11000001 919710.24737845 21438.44687549
0.11100001 910410.71354645 18353.88084908
0.11200001 901147.30604001 27494.00560162
0.11300001 891919.11857445 16776.99941026
0.11400001 882729.80621478 18272.50784900
0.11500001 873580.20960464 18240.35563545
0.11600001 864472.00645652 16688.63287054
0.11700001 855406.30948999 22711.03858653
0.11800001 846383.60636600 16618.74289371
0.11900001 837405.48407115 15073.29942326
0.12000001 828473.61200162 18044.15611936
0.12100001 819590.71070990 19498.06392631
0.12200001 810756.24340171 14958.45339547
0.12300001 801972.35157031 17900.02373040
0.12400001 793238.81264691 19335.19696929
0.12500001 784557.20746468 17793.75830375
0.12600001 775930.38856476 16259.62205858
0.12700001 767357.06287623 25046.53571263
0.12800001 758838.93978328 19088.59442988
0.12900001 750377.59243432 21948.54561318
0.13000001 741973.21425550 17495.72921680
0.13100001 733626.23009916 15978.38004474
0.13200001 725337.98812826 17364.59225436
0.13300001 717110.62932116 23062.27892619
0.13400001 708942.25305002 17227.29756131
0.13500001 700836.25600757 15726.76632630
0.13600001 692790.93720629 15660.53987395
0.13700001 684808.92216077 14175.54535715
0.13800001 676888.37623119 19758.37263391
0.13900001 669032.98412823 14049.69332925
0.14000001 661240.84567490 13985.24454558
0.14100001 653513.61219998 15311.82465600
0.14200001 645850.80864285 20780.25074819
0.14300001 638254.97452342 15164.93890997
0.14400001 630722.01537445 17833.66582592
0.14500001 623257.58166391 13649.34168231
0.14600001 615858.87505542 14937.65771914
0.14700001 608528.85066530 18913.07757093
0.14800001 601262.62561386 13438.22031647
0.14900001 594065.36942763 16039.76573131
0.15000001 586935.00302037 14623.48629023
0.15100001 579872.54443396 15865.31356432
0.15200001 572878.15870309 18406.57610768
0.15300001 565952.63968125 14380.85725292
0.15400001 559092.50741590 12998.90141085
0.15500001 552302.06412430 16801.02958355
0.15600001 545577.10283725 15418.00965383
0.15700001 538923.72380746 14049.74214276
0.15800001 532334.51406056 13965.79663555
0.15900001 525815.48617911 16405.44394313
0.16000001 519361.84654381 12542.58918607
0.16100001 512978.69832217 14958.45954918
0.16200001 506661.81614595 18581.82298433
0.16300001 500411.92401054 16003.17408533
0.16400001 494229.41490601 18348.26789460
0.16500001 488113.39736906 17015.63383562
0.16600001 482064.95204915 14490.87314276
0.16700001 476081.21530110 22794.76966487
0.16800001 470163.29221872 13110.50402255
0.16900001 464313.28262212 15391.98604570
0.17000001 458527.12611058 12937.34347411
0.17100001 452806.33831987 12850.64448834
0.17200001 447150.73027361 11603.56199855
0.17300001 441559.48467905 18439.52495099
0.17400001 436032.21895413 12590.43091690
0.17500001 430568.59900340 13640.41386063
0.17600001 425166.68451801 12416.99360779
0.17700001 419829.52981924 12330.39387316
0.17800001 414552.98312434 12243.82293488
0.17900001 409338.99281239 14367.79932636
0.18000001 404186.53235455 10973.66487177
0.18100001 399096.18476256 14163.92426628
0.18200001 394063.75292664 15143.87074034
0.18300001 389092.17319634 11812.83893627
0.18400001 384179.57230211 15991.47545252
0.18500001 379327.23719142 11641.55345938
0.18600001 374531.63206072 14707.85788587
0.18700001 369793.60947743 17727.90647590
0.18800001 365112.77403002 13456.23192263
0.18900001 360490.23096848 11301.36927482
0.19000001 355919.86385943 15295.65687206
0.19100001 351409.41167422 14168.82814818
0.19200001 346950.43274778 13057.48015345
0.19300001 342548.46121076 9968.16069225
0.19400001 338197.82913770 9892.28696973
0.19500001 333901.32540521 12761.70926004
0.19600001 329656.96273175 9741.36370906
0.19700001 325464.38142378 9666.29258509
0.19800001 321323.38640375 12468.95459866
0.19900001 317233.46204489 15227.20689779
0.20000001 313192.03701569 10387.01439853
0.20100001 309201.86254017 11242.58025331
0.20200001 305258.66877171 12083.66497444
0.20300001 301365.52112010 12910.49953499
0.20400001 297518.99607052 12808.19338622
0.20500001 293719.42153342 13613.89583156
0.20600001 289966.51691522 9003.46077579
0.20700001 286259.60513280 12503.82014325
0.20800001 282596.63872348 14175.04806843
0.20900001 278980.51244667 14060.61849198
0.21000001 275406.65238846 10459.94515218
0.21100001 271876.84271490 9510.25240775
0.21200001 268389.38626041 11147.55368532
0.21300001 264943.51942826 8504.68737571
0.21400001 261540.28278401 9278.14197040
0.21500001 258178.78256484 11710.99013081
0.21600001 254856.75960754 11613.82308440
0.21700001 251574.85453668 8226.49813229
0.21800001 248332.57171783 10605.04297662
0.21900001 245128.06450118 9707.07181321
0.22000001 241961.50359637 11229.43391286
0.22100001 238834.33318413 7953.18367109
0.22200001 235744.30228799 7885.64728440
0.22300001 232689.38155149 10163.87266677
0.22400001 229670.10162308 10851.91281484
0.22500001 226689.11263499 9990.18966623
0.22600001 223740.82767684 9903.88820545
0.22700001 220828.98961330 12083.76288307
0.22800001 217950.00859071 9732.55809387
0.22900001 215103.84905602 9647.40808640
0.23000001 212291.92265052 11033.87320157
0.23100001 209513.18045746 7291.05902473
0.23200001 206764.98966445 8671.72407664
0.23300001 204049.15095085 11459.40085937
0.23400001 201365.25247382 9937.37567957
0.23500001 198710.12707494 7737.77271427
0.23600001 196087.08050435 7667.98564580
0.23700001 193493.20729901 7598.47861002
0.23800001 190928.98111942 10267.20644532
0.23900001 188393.44155491 8138.59706012
0.24000001 185886.54847613 8063.75885431
0.24100001 183409.00056163 10652.39525649
0.24200001 180958.50738907 7255.53169697
0.24300001 178536.03349085 7187.86104835
0.24400001 176140.01985642 7120.46063952
0.24500001 173770.70073642 7053.35307655
0.24600001 171428.35981482 8256.84734107
0.24700001 169112.05075676 10065.54973720
0.24800001 166821.21590867 6230.77270895
0.24900001 164554.85524288 7404.96883624
0.25000001 162314.79779653 7333.38291138
0.25100001 160098.18891980 6656.88301022
0.25200001 157907.70401600 7191.11718110
0.25300001 155740.92902345 6527.10264417
0.25400001 153597.64606350 8812.66535983
0.25500001 151477.53861877 6980.08530979
0.25600001 149381.32068508 5758.65018487
0.25700001 147307.15043675 6270.86569079
0.25800001 145256.73899464 9029.15932311
0.25900001 143228.56522270 6703.09716958
0.26000001 141222.48733168 9951.94915314
0.26100001 139237.79489824 7660.86383778
0.26200001 137275.72917137 5957.08054926
0.26300001 135334.33052331 5895.16371654
0.26400001 133414.50155672 6894.19469416
0.26500001 131516.13102845 6296.99265161
0.26600001 129637.53813120 5191.98364784
0.26700001 127780.84083524 6677.82705805
0.26800001 125944.76191206 6606.43279872
0.26900001 124127.49439586 6032.59651311
0.27000001 122331.32734797 5967.32243042
0.27100001 120554.34064355 5410.47906412
0.27200001 118798.60715793 7297.20479000
0.27300001 117061.32366306 5292.34269326
0.27400001 115341.59943756 7136.76180294
0.27500001 113643.93305651 7998.26038704
0.27600001 111962.91101005 5582.47100716
0.27700001 110302.33242470 5059.56822777
0.27800001 108659.37198452 4547.39493277
0.27900001 107036.45575907 5394.63762557
0.28000001 105430.14846391 4888.26906488
0.28100001 103843.00024998 4392.55911847
0.28200001 102274.50656744 4775.70831020
0.28300001 100723.54518606 6436.23484202
0.28400001 99190.11065843  5512.49066075
0.28500001 97674.97577934  6285.38498890
0.28600001 96177.21625726  4968.51522702
0.28700001 94696.95871201  6136.36321499
0.28800001 93233.34543118  4445.83228732
0.28900001 91788.83707643  4392.09606200
0.29000001 90359.79166618  4733.04611151
0.29100001 88948.82829639  5064.74652293
0.29200001 87554.60096388  6156.83983122
0.29300001 86177.24085450  4560.49980190
0.29400001 84815.96433116  4128.41725924
0.29500001 83472.41675186  3706.17547922
0.29600001 82144.73285543  5123.36723072
0.29700001 80833.48750784  3613.25706265
0.29800001 79538.53617503  3567.30351632
0.29900001 78260.39848708  3521.71809863
0.30000001 76997.81015659  3476.45129314
0.30100001 75752.26857120  4461.05130734
0.30200001 74520.90630557  3386.97535193
0.30300001 73306.98056731  3677.07831933
0.30400001 72108.76038166  4288.66872673
0.30500001 70925.92350336  6185.45008156
0.30600001 69757.74363456  3212.34424645
0.30700001 68606.37509180  4437.46055102
0.30800001 67469.94123752  3439.95511686
0.30900001 66348.95949808  3085.22676273
0.31000001 65243.49261398  3043.60907454
0.31100001 64152.27875879  3302.55946686
0.31200001 63076.95102021  3553.75558873
0.31300001 62015.90986879  4673.51918899
0.31400001 60971.01550504  3745.14480472
0.31500001 59939.93867151  4261.72984133
0.31600002 58924.00833577  3362.20407483
0.31700002 57922.61340916  3315.49054852
0.31800002 56935.78548722  2996.81521101
0.31900002 55963.47802889  3223.49648709
0.32000002 55005.92759222  3443.09620066
0.32100002 54061.89728110  4177.90361971
0.32200002 53133.26778141  3604.02972427
0.32300002 52217.12046428  4314.17869704
0.32400002 51315.61396182  2751.79992900
0.32500002 50428.03204174  3205.71014869
0.32600002 49554.73067215  3889.05544731
0.32700002 48694.48550068  2874.92256010
0.32800002 47848.66450382  2597.46487559
0.32900002 47015.71823057  3025.46161140
0.33000002 46197.23877540  3440.53952072
0.33100002 45389.47648044  3616.63365722
0.33200002 44598.27910821  3564.29463511
0.33300002 43818.59788162  2634.37422939
0.33400002 43052.54453574  3028.74665152
0.33500002 42298.38379664  2771.39023760
0.33600002 41558.26496980  2100.77039371
0.33700002 40829.72764142  3519.11439207
0.33800002 40114.84539787  2243.82398359
0.33900002 39411.71836751  2411.99727832
0.34000002 38721.33387727  2970.89448243
0.34100002 38043.30168963  1951.62146910
0.34200002 37377.94249856  3076.95237220
0.34300002 36723.56779034  2652.91066281
0.34400002 36082.58914930  2054.00148460
0.34500002 35452.64864043  2575.98957221
0.34600002 34835.54629550  2538.46637878
0.34700002 34228.28452331  2144.05984409
0.34800002 33634.29088160  2288.98177436
0.34900002 33050.98119900  2255.72957367
0.35000002 32479.00556941  1710.01972422
0.35100002 31919.14205101  2527.99617017
0.35200002 31368.78111972  1827.07474285
0.35300002 30830.11617474  1964.49509570
0.35400002 30302.68635123  2097.70356202
0.35500002 29785.94463122  1749.62647051
0.35600002 29278.91787547  1724.67473914
0.35700002 28782.98443983  2163.90487268
0.35800002 28298.12426405  1676.23947018
0.35900002 27823.12221557  1502.44867081
0.36000002 27358.56239744  1629.61284639
0.36100002 26903.39387315  1606.93979216
0.36200002 26459.29857755  1872.92153853
0.36300002 26023.93873418  1847.17925885
0.36400002 25598.34480984  1401.50944472
0.36500002 25182.23585577  1382.50481397
0.36600002 24776.02861724  1636.70452798
0.36700002 24378.44545327  1480.25927804
0.36800002 23991.69483608  1726.32248370
0.36900002 23612.92527022  1834.72438040
0.37000002 23242.84232786  1681.50350786
0.37100002 22881.40453790  1787.49540717
0.37200002 22529.76421577  1512.64844110
0.37300002 22186.10110852  1493.56839738
0.37400002 21850.77893527  1597.83828533
0.37500002 21524.43767821  1820.96751384
0.37600002 21206.33868031  1439.06221102
0.37700002 20895.87312601  1184.79606237
0.37800002 20593.32999005  1287.80395193
0.37900002 20299.33161314  1504.18054379
0.38000002 20013.01811006  1258.11844309
0.38100002 19733.44013354  1130.72617322
0.38200002 19462.43954598  1453.55236635
0.38300002 19197.97725174  1216.38389630
0.38400002 18941.83107722  1640.83619480
0.38500002 18691.53730368  1406.91207950
0.38600002 18449.59368883  1178.09886081
0.38700002 18213.96855060  1696.08483178
0.38800002 17985.14215972  1049.43309474
0.38900002 17762.70461150  1143.03009590
0.39000002 17547.88603322  1440.85699045
0.39100002 17338.41735308  1121.44888753
0.39200002 17135.99860297  1313.21731515
0.39300002 16939.49551091  1001.12423212
0.39400002 16750.40129039  1190.95358817
0.39500002 16566.03335358  1476.03364174
0.39600002 16387.74867096  1561.42476735
0.39700002 16215.29878969  1258.46939869
0.39800002 16048.74882480  1056.56942894
0.39900002 15887.58752487  1048.58082632
0.40000002 15731.72684193  1324.76878012
0.40100002 15581.64414173  939.57318626
0.40200002 15437.01714226  1399.75159569
0.40300002 15296.87194958  1019.68953247
0.40400002 15162.34493150  1565.89124699
0.40500002 15032.71811287  1190.14034939
0.40600002 14907.93878983  910.12970624
0.40700002 14787.76974398  1086.01386145
0.40800002 14672.64661433  990.18360368
0.40900002 14561.67197751  1164.20572976
0.41000002 14455.51942004  980.30109592
0.41100002 14353.66500091  1153.17350081
0.41200002 14255.61461107  971.44890370
0.41300002 14162.48739623  1231.28671257
0.41400002 14073.00937240  1226.46282492
0.41500002 13987.76246130  872.83641894
0.41600002 13905.81429320  1043.77047031
0.41700002 13828.04398076  1040.42207841
0.41800002 13755.00927888  1037.40284897
0.41900002 13683.52873677  1206.88729177
0.42000002 13616.96505239  1289.86707571
0.42100002 13554.04474898  1201.15950257
0.42200002 13494.53308695  941.85098143
0.42300002 13437.71866144  1025.56673684
0.42400002 13383.96745195  1023.87355859
0.42500002 13333.90751428  1448.46244191
0.42600002 13285.90872260  1021.15499281
0.42700002 13242.28724805  1105.20134609
0.42800002 13200.38467805  1104.27823257
0.42900002 13162.62376942  933.88820069
0.43000002 13126.92298642  933.52117242
0.43100002 13092.92626980  1187.79032748
0.43200002 13062.70036845  848.42242914
0.43300002 13034.77389740  933.42020303
0.43400002 13009.24758649  1443.05085691
0.43500002 12985.94517649  1528.70553862
0.43600002 12965.22402620  1189.81866527
0.43700002 12946.27232903  935.62714556
0.43800002 12929.45303455  1106.82587947
0.43900002 12915.36100703  1108.13802692
0.44000002 12902.83698368  1280.28406038
0.44100002 12892.61910604  1025.73682469
0.44200002 12884.15427515  1027.38251059
0.44300002 12877.57614618  1029.17593438
0.44400002 12873.14119817  1288.92332355
0.44500002 12869.24159224  1205.33322465
0.44600002 12867.36069272  1035.30789040
0.44700002 12868.19956880  864.74305200
0.44800002 12868.87185683  866.71856063
0.44900002 12872.83590788  1042.69975795
0.45000002 12877.57376057  1393.86864990
0.45100002 12883.30962543  1048.18612080
0.45200002 12890.73126632  1401.48036969
0.45300002 12899.02162125  1493.31980386
0.45400002 12908.98594919  1321.55749918
0.45500002 12920.12393062  972.11017061
0.45600002 12932.14924405  1063.79864723
0.45700002 12945.34228720  1422.95209165
0.45800002 12959.20757325  981.46563208
0.45900002 12974.23917928  1074.26705496
0.46000002 12990.90623286  988.15332944
0.46100002 13007.31414663  901.40691308
0.46200002 13025.56753541  1266.47599149
0.46300002 13044.44782257  998.68297263
0.46400002 13063.40438402  1093.40699876
0.46500002 13083.62789730  1006.00019670
0.46600002 13104.36375910  1009.75679732
0.46700002 13125.37018697  1289.96144311
0.46800002 13148.03026327  1109.95676743
0.46900002 13170.14754696  1021.34499068
0.47000002 13193.12762069  1025.30396164
0.47100002 13216.75739301  1216.47040811
0.47200002 13240.84514797  1127.32560933
0.47300002 13265.45304917  1320.44325910
0.47400002 13289.76900911  1325.65452149
0.47500002 13314.90307653  1045.75253720
0.47600002 13340.84539554  954.53753329
0.47700002 13366.11566164  1533.36086138
