# SAXS profile: number of points = 501, q_min = 0, q_max = 0.5, delta_q = 0.001
#    q    intensity    error
0.00000000 1682732.95097188 403.85590823
0.00100000 1682646.32077913 605.75268987
0.00200000 1682386.38262315 1514.14779231
0.00300000 1681953.37651077 1412.84088660
0.00400000 1681347.14390766 1639.31352760
0.00500000 1680568.36959744 1512.51159250
0.00600000 1679616.86190843 2116.31733216
0.00700000 1678493.41659926 2014.19218363
0.00800000 1677197.75327540 3622.74730003
0.00900000 1675731.29279585 2513.59704664
0.01000000 1674093.47916002 3590.93066785
0.01100000 1672285.86617775 3311.12615920
0.01200000 1670308.25668951 3582.81136768
0.01300000 1668162.09881603 3503.14056202
0.01400000 1665847.53779262 4497.78855143
0.01500000 1663366.04980409 7185.74165513
0.01600000 1660717.41152783 5081.79550645
0.01700000 1657903.76813419 7162.14459962
0.01800000 1654925.60334960 5659.84581814
0.01900000 1651783.85886219 6441.95734024
0.02000000 1648479.31229668 6231.25208236
0.02100000 1645014.73620788 5971.40376317
0.02200000 1641388.71259892 6795.34957889
0.02300000 1637604.39126923 5895.37607692
0.02400000 1633662.41465111 8576.72806800
0.02500000 1629564.82526984 8261.89404144
0.02600000 1625312.62230765 11190.27791641
0.02700000 1620907.09607064 8169.37213836
0.02800000 1616349.17639669 9140.45501170
0.02900000 1611641.99193349 7977.62822636
0.03000000 1606786.07403086 9713.02226398
0.03100000 1601783.33873426 9226.27245564
0.03200000 1596634.67972739 10274.34463726
0.03300000 1591344.34810811 9739.02785940
0.03400000 1585910.95766939 10823.84278551
0.03500000 1580338.45907532 11093.97649501
0.03600000 1574627.50934011 10487.01969685
0.03700000 1568781.05204599 9836.25765123
0.03800000 1562800.77529109 11885.10044613
0.03900000 1556689.02185902 10274.14802007
0.04000000 1550445.99032215 9535.24328233
0.04100000 1544075.70124568 16537.05152711
0.04200000 1537579.77796168 11900.86803354
0.04300000 1530959.99102218 14146.07097368
0.04400000 1524218.66070134 11317.32408131
0.04500000 1517358.96180093 10469.77732290
0.04600000 1510381.04305696 12777.82421826
0.04700000 1503288.99289997 12988.41750272
0.04800000 1496084.18502490 12095.84119872
0.04900000 1488769.69595012 15632.08253511
0.05000000 1481347.02945633 14731.99689396
0.05100000 1473820.25046749 13794.95818700
0.05200000 1466188.34151833 11656.19785826
0.05300000 1458456.95989492 12994.85211846
0.05400000 1450626.60951622 13164.43709527
0.05500000 1442701.56928430 16966.17124624
0.05600000 1434681.98336673 14719.83783623
0.05700000 1426573.56916437 17375.66688349
0.05800000 1418375.09733372 15063.14423702
0.05900000 1410090.63263713 16498.06117241
0.06000000 1401723.94925333 20521.23957580
0.06100000 1393276.40975584 15548.96545950
0.06200000 1384750.60003024 18320.25129475
0.06300000 1376150.09321978 19816.56226889
0.06400000 1367474.17421186 14666.16120431
0.06500000 1358729.34123006 17486.84743963
0.06600000 1349916.60083520 13566.66247316
0.06700000 1341037.46412230 15046.44105161
0.06800000 1332095.74369926 15165.91075192
0.06900000 1323095.47481387 16671.00376317
0.07000000 1314035.80687276 18192.82659810
0.07100000 1304921.35766475 18321.09671973
0.07200000 1295754.01714485 15607.35786766
0.07300000 1286536.99460028 18564.72970194
0.07400000 1277273.77770957 18680.12987443
0.07500000 1267964.21624320 18791.23056552
0.07600000 1258612.22567879 15990.66907690
0.07700000 1249221.24749108 14615.88928096
0.07800000 1239792.74674720 16160.69921173
0.07900000 1230328.19071865 14763.93898111
0.08000000 1220833.07659489 20766.37160705
0.08100000 1211308.25337846 20858.72910183
0.08200000 1201755.02424320 17954.22090470
0.08300000 1192176.71359442 19527.85548516
0.08400000 1182576.63755555 21108.99397119
0.08500000 1172956.57041587 18157.36856244
0.08600000 1163318.59507907 19735.70089214
0.08700000 1153665.58274326 16751.22504803
0.08800000 1143998.63278688 24435.81194393
0.08900000 1134321.67122042 22970.01492111
0.09000000 1124636.80211629 21491.81029803
0.09100000 1114945.48866226 20002.12300632
0.09200000 1105249.95948975 20043.70895713
0.09300000 1095554.34111497 20081.51201631
0.09400000 1085857.09647338 17020.81078716
0.09500000 1076163.13263342 20145.77478980
0.09600000 1066473.83467056 17068.91452627
0.09700000 1056793.70619138 20195.32867476
0.09800000 1047121.51066536 18659.70619739
0.09900000 1037461.70951048 21786.69692418
0.10000000 1027813.59806197 15571.37674292
0.10100000 1018180.61082386 17135.98048610
0.10200000 1008565.42606368 28048.20581811
0.10300000 998969.06147103 29609.44437485
0.10400000 989393.48059593 32724.19091022
0.10500000 979843.09114289 21811.30823505
0.10600001 970313.83074204 20245.59903106
0.10700001 960813.93934951 15565.18654992
0.10800001 951339.93180799 18665.29034049
0.10900001 941897.37964471 18649.56899472
0.11000001 932486.39416427 15525.89919363
0.11100001 923107.87096814 17059.03425852
0.11200001 913765.35190122 20134.82047703
0.11300001 904457.79984008 18559.47492651
0.11400001 895189.27169837 16986.21723026
0.11500001 885960.06647063 16957.27647073
0.11600001 876772.33199616 21542.29721160
0.11700001 867627.03094470 16892.69908805
0.11800001 858524.45374685 24519.45955384
0.11900001 849466.61146020 19877.51964443
0.12000001 840454.80472622 22881.38313650
0.12100001 831491.92743369 16737.93328773
0.12200001 822577.46107886 15176.55487189
0.12300001 813713.46943641 22702.60686690
0.12400001 804899.77707709 19619.43299067
0.12500001 796138.22504157 15047.01316231
0.12600001 787431.36424069 24000.90911306
0.12700001 778778.03596582 16447.79289472
0.12800001 770179.85313879 19373.87511878
0.12900001 761638.56055124 17822.34315690
0.13000001 753154.21382010 14799.48099914
0.13100001 744727.27508451 22118.40111262
0.13200001 736359.09525056 19097.47403558
0.13300001 728051.92264572 19023.99763558
0.13400001 719803.80685701 16033.63055366
0.13500001 711618.38291138 14517.01569584
0.13600001 703493.26495891 17348.14473186
0.13700001 695432.05294070 18714.07742706
0.13800001 687432.07683611 15766.25542571
0.13900001 679497.51103912 14269.44840474
0.14000001 671626.40216607 17045.87889087
0.14100001 663820.13843344 15553.30657704
0.14200001 656078.57130928 16887.46322200
0.14300001 648404.31422950 16806.64061756
0.14400001 640792.63159190 22299.58463127
0.14500001 633250.05508449 27736.35372108
0.14600001 625773.27565039 17937.79179272
0.14700001 618365.39512919 19218.79738729
0.14800001 611021.44023086 16387.59580014
0.14900001 603746.70989429 20376.45242031
0.15000001 596538.96383189 14862.76898514
0.15100001 589399.40224720 21501.29120852
0.15200001 582328.36886396 16037.32403527
0.15300001 575326.29867245 15948.04575177
0.15400001 568389.76502883 15858.07519266
0.15500001 561523.10295915 18395.49772108
0.15600001 554722.18956682 24821.04554359
0.15700001 547993.41685130 12987.44459234
0.15800001 541328.77742536 14201.76114606
0.15900001 534734.55350116 17967.08184570
0.16000001 528206.20727015 16583.03466001
0.16100001 521748.64855320 13946.34203415
0.16200001 515357.53007777 16380.63986679
0.16300001 509033.58633242 16278.89485940
0.16400001 502777.55415922 13688.11955820
0.16500001 496588.10904404 13601.54894886
0.16600001 490466.85484655 12286.19529397
0.16700001 484410.24329793 13427.85257821
0.16800001 478420.06266765 18191.92374189
0.16900001 472498.04470490 19277.92113423
0.17000001 466640.26965284 16757.05287450
0.17100001 460848.06640134 19023.80907938
0.17200001 455121.37064740 17715.60018903
0.17300001 449459.59195270 15250.16467514
0.17400001 443862.02933733 18642.20611257
0.17500001 438328.44183197 12729.05855196
0.17600001 432856.86040244 12641.58520510
0.17700001 427450.64830510 12554.22613366
0.17800001 422105.10028182 19266.98821238
0.17900001 416822.64055950 12379.63300935
0.18000001 411602.07214406 11174.99678656
0.18100001 406444.02056829 13315.10674278
0.18200001 401344.17173100 13220.27764132
0.18300001 396305.85009747 15313.25877115
0.18400001 391326.50499286 14117.10433452
0.18500001 386407.88840915 11858.85865551
0.18600001 381546.59694171 16053.57382475
0.18700001 376743.20485138 13811.40654237
0.18800001 371997.51938168 12655.35620728
0.18900001 367310.23714595 12562.01070391
0.19000001 362675.66859113 13507.85591491
0.19100001 358101.47153012 18563.98116127
0.19200001 353579.13191906 15354.17452909
0.19300001 349114.27112356 12191.07092369
0.19400001 344700.92458254 11090.75277252
0.19500001 340342.38125048 11006.67312976
0.19600001 336036.25889483 11915.84630351
0.19700001 331782.50070507 10839.33481028
0.19800001 327580.66252298 13689.59653379
0.19900001 323430.20377632 14554.35985777
0.20000001 319328.73197789 15404.41875864
0.20100001 315278.88387613 11463.54075953
0.20200001 311276.54590415 10426.20839784
0.20300001 307324.57343332 13165.78534816
0.20400001 303419.64604969 11196.18546843
0.20500001 299562.16619061 17587.29560835
0.20600001 295751.87176054 9183.09605223
0.20700001 291987.92348222 10932.02837192
0.20800001 288268.31196335 16266.98161304
0.20900001 284595.81972004 12550.67624294
0.21000001 280966.21137296 10671.09721239
0.21100001 277381.13814642 14995.22503707
0.21200001 273838.69349364 10498.97600488
0.21300001 270338.27416044 10413.43081296
0.21400001 266881.02120463 9467.60467483
0.21500001 263465.82801004 10243.55187732
0.21600001 260090.64052357 10159.14089916
0.21700001 256755.85898678 9235.50868441
0.21800001 253461.31921087 11656.68662164
0.21900001 250204.75694891 10733.78458062
0.22000001 246986.57076738 9825.12624968
0.22100001 243808.37436246 11366.34695022
0.22200001 240667.67535975 10465.43435787
0.22300001 237562.44731723 8780.30846803
0.22400001 234493.16320931 11871.21694882
0.22500001 231462.83030409 8631.24935019
0.22600001 228465.68073919 8557.18247674
0.22700001 225505.24893960 10025.96384197
0.22800001 222577.87720254 8410.10548781
0.22900001 219683.93851137 7579.09623706
0.23000001 216824.74012678 13523.35968125
0.23100001 213998.98883584 8936.59819642
0.23200001 211204.19224273 8857.90424158
0.23300001 208442.37726301 9511.22612434
0.23400001 205712.73724371 12327.33636235
0.23500001 203012.18204172 7905.29474260
0.23600001 200344.20472107 8546.68417763
0.23700001 197705.83644992 9881.33817313
0.23800001 195097.52052898 10491.36966267
0.23900001 192518.13816896 9702.91462266
0.24000001 189967.84672697 9614.27317761
0.24100001 187447.47558859 7484.77805429
0.24200001 184954.20921364 8089.89749367
0.24300001 182489.62175345 8682.85661375
0.24400001 180051.89519462 11910.43343053
0.24500001 177641.09658515 9832.43516111
0.24600001 175257.87736258 7791.96559614
0.24700001 172900.84085186 8361.48505914
0.24800001 170569.62499748 7007.85337454
0.24900001 168263.36930646 6309.87664750
0.25000001 165983.78318623 6874.21870586
0.25100001 163727.92427153 8045.59057933
0.25200001 161498.57105514 7354.64527380
0.25300001 159293.32155243 6069.07583828
0.25400001 157112.04277640 7812.39669667
0.25500001 154954.17441227 6545.26463684
0.25600001 152820.52796765 7658.60112145
0.25700001 150709.33936591 5832.45170941
0.25800001 148622.24026254 5773.97430739
0.25900001 146557.79921117 8573.63165951
0.26000001 144515.52323269 6223.56130249
0.26100001 142495.36674195 7280.08863131
0.26200001 140497.85201005 6651.16862887
0.26300001 138521.49790206 6582.54189178
0.26400001 136567.14141052 6514.25295352
0.26500001 134634.38952718 5909.10363596
0.26600001 132721.78480939 7441.71082640
0.26700001 130831.36475971 8415.07377955
0.26800001 128961.95851323 7285.06138115
0.26900001 127111.72216377 5148.02499124
0.27000001 125282.70212553 7639.11312360
0.27100001 123473.34768330 6045.25538865
0.27200001 121685.57422947 5481.32695056
0.27300001 119916.37339624 7392.84476974
0.27400001 118165.14823723 5361.74385501
0.27500001 116436.25037676 5302.50709310
0.27600001 114724.43625681 5243.48060727
0.27700001 113033.14931736 4713.48254961
0.27800001 111359.90078470 5592.49448208
0.27900001 109706.93787079 4607.69160865
0.28000001 108070.98576405 5010.71149210
0.28100001 106454.31174193 4503.01759981
0.28200001 104856.59164179 7121.86004139
0.28300001 103276.82593004 6159.43018999
0.28400001 101714.84215121 5652.80262010
0.28500001 100171.26134256 5586.55150949
0.28600001 98645.39164392  4671.35274240
0.28700001 97137.38695791  4196.33531521
0.28800001 95646.27673987  7048.65269798
0.28900001 94174.44359958  4915.90618859
0.29000001 92718.30723223  4451.86973248
0.29100001 91280.58914638  4797.70799263
0.29200001 89859.84273815  3949.34027528
0.29300001 88456.15643200  4291.00835164
0.29400001 87068.91478644  3852.79966168
0.29500001 85699.53682322  4566.07153809
0.29600001 84346.35780839  4509.15650189
0.29700001 83009.68988616  4452.63997627
0.29800001 81689.66966021  4030.16004347
0.29900001 80386.78228638  5064.36752378
0.30000001 79099.63845564  3928.48372987
0.30100001 77829.65102906  3878.25169437
0.30200001 76574.26770355  4872.42088464
0.30300001 75336.31655120  5153.00429605
0.30400001 74114.35193950  4747.02446646
0.30500001 72907.99839275  4350.42047005
0.30600001 71716.69051578  3632.80913006
0.30700001 70542.17005051  3584.95325169
0.30800001 69382.87153661  3537.48587277
0.30900001 68239.29404740  4125.06552046
0.31000001 67111.31881438  3756.89180510
0.31100001 65997.88928696  3397.57150135
0.31200001 64900.50848060  3351.78691917
0.31300001 63817.67400320  3306.39384665
0.31400001 62751.22186285  4447.49306010
0.31500001 61698.59784594  3801.86777927
0.31600002 60661.48435788  4038.23520490
0.31700002 59639.00281664  3698.21473976
0.31800002 58631.35050922  3647.16333111
0.31900002 57638.20910661  2766.63416811
0.32000002 56660.31000401  2728.19405587
0.32100002 55695.93953472  3228.13680828
0.32200002 54747.22114648  2917.75328916
0.32300002 53811.13225469  3399.78749683
0.32400002 52889.68900607  2836.20970725
0.32500002 51982.45547901  3050.33063195
0.32600002 51089.76881249  3007.14393470
0.32700002 50210.26980535  3211.44900882
0.32800002 49345.27804536  2678.70854554
0.32900002 48493.40677073  2640.46612370
0.33000002 47656.22419209  2839.35797182
0.33100002 46829.87602360  3964.61749190
0.33200002 46020.09599007  3218.18546498
0.33300002 45222.13706540  2492.19209169
0.33400002 44438.07880963  2456.31492252
0.33500002 43665.82022624  2640.90893235
0.33600002 42907.92680318  2602.79496314
0.33700002 42161.64670914  2565.11470726
0.33800002 41429.28817722  2317.34734394
0.33900002 40708.63070452  3529.43844923
0.34000002 40001.08498268  2659.87227189
0.34100002 39305.98954207  2822.95630260
0.34200002 38623.72315641  2185.90971556
0.34300002 37952.40667021  3133.35084309
0.34400002 37294.84231419  2895.01227175
0.34500002 36648.31399390  2662.86662091
0.34600002 36014.87456112  2249.48917162
0.34700002 35391.32147962  1847.42706873
0.34800002 34781.19968746  1820.79588987
0.34900002 34181.90554358  1794.55012603
0.35000002 33594.03642687  1768.72610165
0.35100002 33018.39481639  2092.04559465
0.35200002 32452.46959435  2405.70168497
0.35300002 31898.29382903  1863.17943080
0.35400002 31355.52929530  2337.55481968
0.35500002 30823.64133343  2139.77728272
0.35600002 30301.45808210  1784.90747287
0.35700002 29790.50223678  2079.67505965
0.35800002 29290.88754715  2523.70299060
0.35900002 28801.07864059  2021.83581633
0.36000002 28321.86061301  1533.62882484
0.36100002 27852.14738546  1966.08317707
0.36200002 27393.75501581  2237.38504689
0.36300002 26944.03641808  1765.37334973
0.36400002 26504.38024732  1596.22637600
0.36500002 26074.13889017  1574.61732216
0.36600002 25654.02694358  1835.93052518
0.36700002 25242.53586900  1811.40445976
0.36800002 24842.14509962  1787.51663532
0.36900002 24449.73699441  1628.35256096
0.37000002 24066.18175908  1874.99630967
0.37100002 23691.27791996  1850.76271878
0.37200002 23326.43860596  1566.13716219
0.37300002 22969.51748888  1546.30799060
0.37400002 22621.18314794  1781.41825729
0.37500002 22281.78848017  1256.69292981
0.37600002 21950.82487516  1365.45112604
0.37700002 21627.58537839  1471.54097885
0.37800002 21312.36815187  1332.76900551
0.37900002 21005.85634045  1436.80064175
0.38000002 20707.06062302  1538.43114187
0.38100002 20415.09720112  1637.69917506
0.38200002 20131.88283427  1272.23439598
0.38300002 19855.15422607  1143.65693760
0.38400002 19587.04185266  1470.49723675
0.38500002 19324.62355198  1454.56448367
0.38600002 19070.94571999  1439.18898694
0.38700002 18823.42607974  1533.73282964
0.38800002 18582.87780424  1409.60426262
0.38900002 18348.84738550  1288.08914749
0.39000002 18122.58135617  1169.17839158
0.39100002 17901.60700725  1263.13745027
0.39200002 17687.86110694  1146.96940782
0.39300002 17480.08295524  1239.68754192
0.39400002 17279.83844138  1126.21352377
0.39500002 17084.43236835  1217.77839691
0.39600002 16895.09554009  1307.93388320
0.39700002 16711.77015466  997.69272550
0.39800002 16534.45468395  989.58715972
0.39900002 16362.53579022  1374.45307150
0.40000002 16195.99948997  974.18941548
0.40100002 16035.29515501  1353.69968112
0.40200002 15880.33575793  959.96634205
0.40300002 15729.72571716  953.22142362
0.40400002 15584.92001666  1136.14072304
0.40500002 15445.10931217  1410.91080252
0.40600002 15310.14830265  1121.62151780
0.40700002 15179.95033488  929.01300451
0.40800002 15054.87558993  923.61666120
0.40900002 14934.03093724  918.44294616
0.41000002 14818.08846849  1096.24223684
0.41100002 14706.42172357  1090.62828670
0.41200002 14598.79717766  1175.71418641
0.41300002 14496.01586724  900.20262801
0.41400002 14397.05589384  1165.08180341
0.41500002 14302.47751186  892.47463903
0.41600002 14211.12244904  1066.68690157
0.41700002 14124.13321029  1151.25815252
0.41800002 14041.91665052  1412.05520528
0.41900002 13961.29833283  1055.47420398
0.42000002 13885.74497792  964.57332060
0.42100002 13813.83904305  1311.62407929
0.42200002 13745.45943431  959.36438668
0.42300002 13679.83236984  1044.04485594
0.42400002 13617.43690871  954.92280847
0.42500002 13558.63944599  1472.87507281
0.42600002 13502.07762495  951.28892414
0.42700002 13449.90655543  1813.31648773
0.42800002 13399.56884052  1034.71475490
0.42900002 13353.44877931  947.42723579
0.43000002 13309.46590336  860.45701143
0.43100002 13267.26356434  945.69059168
0.43200002 13228.92235623  1031.06225730
0.43300002 13192.89646134  1030.62912040
0.43400002 13159.42095776  944.51748400
0.43500002 13128.15278106  1202.01372560
0.43600002 13099.57897234  1288.01616349
0.43700002 13072.87770309  858.88810580
0.43800002 13048.25147456  945.15014035
0.43900002 13026.58727806  1375.60768175
0.44000002 13006.48236413  946.41673408
0.44100002 12988.75966971  1033.38576829
0.44200002 12972.92825362  1206.87157263
0.44300002 12958.93361138  949.37152136
0.44400002 12947.20462804  1123.49373484
0.44500002 12936.11662324  1038.51149173
0.44600002 12927.01781235  953.43224393
0.44700002 12920.84677381  1041.93713322
0.44800002 12914.40858123  956.76400508
0.44900002 12911.41292465  1045.82449646
0.45000002 12909.28190931  1571.96333259
0.45100002 12908.16690454  1225.24326065
0.45200002 12908.85580490  1052.58815222
0.45300002 12910.46111156  967.12268770
0.45400002 12913.80120729  969.50367158
0.45500002 12918.36576039  1325.42438983
0.45600002 12923.87785107  885.93186868
0.45700002 12930.66086917  1154.83737696
0.45800002 12938.18498558  1158.03230202
0.45900002 12946.91202437  982.67066922
0.46000002 12957.42666552  1254.40853494
0.46100002 12967.59409358  1078.38517593
0.46200002 12979.82093827  991.59346758
0.46300002 12992.61295028  904.28590420
0.46400002 13005.63194180  1088.57144512
0.46500002 13019.93850838  1274.13124282
0.46600002 13034.89456073  1004.40384798
0.46700002 13050.08664080  1190.95096329
0.46800002 13067.03894105  919.26623307
0.46900002 13083.54037103  1106.86756785
0.47000002 13100.90701475  1110.69494935
0.47100002 13119.02529931  1486.12325634
0.47200002 13137.71944380  1025.33336259
0.47300002 13156.94464341  1216.09645103
0.47400002 13175.90958035  1032.66196231
0.47500002 13195.78561991  1130.61496550
0.47600002 13216.59224844  1229.34138626
0.47700002 13236.70344837  1043.97885046
