# SAXS profile: number of points = 501, q_min = 0, q_max = 0.5, delta_q = 0.001
#    q    intensity    error
0.00000000 1664650.74656090 324.60689558
0.00100000 1664564.60836901 599.24327324
0.00200000 1664306.14955023 898.72534922
0.00300000 1663875.60933065 1098.15794128
0.00400000 1663272.82114843 2744.40025918
0.00500000 1662498.47554039 2393.99789954
0.00600000 1661552.38124986 2268.01909274
0.00700000 1660435.32947648 2191.77472600
0.00800000 1659147.04805410 3135.78805322
0.00900000 1657688.94421584 2735.18687488
0.01000000 1656060.46726075 3278.99986676
0.01100000 1654263.18060879 4466.51078211
0.01200000 1652296.84942058 3221.97899763
0.01300000 1650162.94113796 3811.87656215
0.01400000 1647861.62421787 3707.68881886
0.01500000 1645394.36564997 5923.41998010
0.01600000 1642760.86429187 5026.84846945
0.01700000 1639963.37877684 4427.90132133
0.01800000 1637002.32785282 6531.63958204
0.01900000 1633878.62053432 6372.12690761
0.02000000 1630593.12823864 8731.82659671
0.02100000 1627148.48758731 8591.34440398
0.02200000 1623543.39399589 6161.34746014
0.02300000 1619780.96708037 5831.21174692
0.02400000 1615861.76758724 7271.37828570
0.02500000 1611788.00065759 6285.97348965
0.02600000 1607560.46875707 8463.80625513
0.02700000 1603180.57111191 7406.69457777
0.02800000 1598649.21369657 9040.36171804
0.02900000 1593969.49825256 9324.72199291
0.03000000 1589142.00136948 11084.26596904
0.03100000 1584168.54039753 7604.00934379
0.03200000 1579050.18477785 7816.29877465
0.03300000 1573791.00537581 8828.96794718
0.03400000 1568389.67676931 9880.85541955
0.03500000 1562850.08959991 8439.39087355
0.03600000 1557172.94453397 9506.54126571
0.03700000 1551361.21729276 9727.03528228
0.03800000 1545416.61526599 9944.75637948
0.03900000 1539341.25727260 12006.86236276
0.04000000 1533135.60105951 10371.66282178
0.04100000 1526803.58345640 11542.63562612
0.04200000 1520346.69678316 10786.86031411
0.04300000 1513766.78300136 12988.11960103
0.04400000 1507066.27191864 12207.23736947
0.04500000 1500248.23575815 11386.88463849
0.04600000 1493312.76532956 14738.99767897
0.04700000 1486263.97556014 12841.32134606
0.04800000 1479103.31397411 10871.40986354
0.04900000 1471833.68810804 14350.37912703
0.05000000 1464456.77835552 11203.09487610
0.05100000 1456976.58350070 13637.30145685
0.05200000 1449391.89834896 13827.19935461
0.05300000 1441708.69166412 12845.62504156
0.05400000 1433927.28885126 17744.85102705
0.05500000 1426051.85780256 15572.48701365
0.05600000 1418082.73896867 13337.06878236
0.05700000 1410025.42331005 13493.94393095
0.05800000 1401878.90166074 14887.95463079
0.05900000 1393647.16995578 16305.67265005
0.06000000 1385333.90353770 12675.80580957
0.06100000 1376940.48615238 16647.21125553
0.06200000 1368469.58224242 15518.44578802
0.06300000 1359924.63309727 14360.80479695
0.06400000 1351304.95634531 18445.31351674
0.06500000 1342617.11324340 13291.91004288
0.06600000 1333862.04261671 16086.37698662
0.06700000 1325041.21772992 17570.04736936
0.06800000 1316158.40529390 16346.68815892
0.06900000 1307217.75827160 17843.52323582
0.07000000 1298218.44699463 16591.23252953
0.07100000 1289165.04803150 15315.28148795
0.07200000 1280059.23460293 21024.97391331
0.07300000 1270904.45484669 19749.85615371
0.07400000 1261703.93778534 15613.58696181
0.07500000 1252457.93742765 14278.02115592
0.07600000 1243169.84142720 18666.19604411
0.07700000 1233843.50779441 18766.76063350
0.07800000 1224480.27869736 17412.11037964
0.07900000 1215081.33419345 17497.17203307
0.08000000 1205652.65559870 19043.28458852
0.08100000 1196194.63469599 17655.83363649
0.08200000 1186708.91690197 19206.88472135
0.08300000 1177198.41332693 14832.70070405
0.08400000 1167666.89596820 19354.07970913
0.08500000 1158115.80968698 19421.60304020
0.08600000 1148547.36578688 19485.10697543
0.08700000 1138964.20544690 18041.19386145
0.08800000 1129367.66123080 21107.88257971
0.08900000 1119761.73776418 16628.46258683
0.09000000 1110148.19265053 19699.58060398
0.09100000 1100528.67328676 21262.21496682
0.09200000 1090905.39581220 22827.19647995
0.09300000 1081282.49750524 21344.51750378
0.09400000 1071658.45595984 15271.13371513
0.09500000 1062037.94429720 19881.35125172
0.09600000 1052422.76142301 18375.30227823
0.09700000 1042816.87771811 18395.29058776
0.09800000 1033219.59104214 24549.29863741
0.09900000 1023634.66686613 16889.97279750
0.10000000 1014062.09716839 18435.64979350
0.10100000 1004504.99407245 16905.81984535
0.10200000 994965.83305180 16909.44512807
0.10300000 985445.97314341 15372.95790419
0.10400000 975947.43105477 23056.75914338
0.10500000 966474.02878914 18440.32533690
0.10600001 957022.16837211 18432.24783015
0.10700001 947599.99030125 15351.12056527
0.10800001 938203.93805963 16873.59862010
0.10900001 928839.76105433 22988.78516808
0.11000001 919507.22520518 29088.61243855
0.11100001 910207.40287479 24466.37614099
0.11200001 900943.89876312 18325.19976354
0.11300001 891715.68521215 19822.84061554
0.11400001 882526.65666038 22835.37831628
0.11500001 873377.13304865 18236.11539676
0.11600001 864269.28549558 19718.30467715
0.11700001 855203.97679445 19678.24443279
0.11800001 846181.65175856 21146.08047339
0.11900001 837204.20128432 18083.61159951
0.12000001 828272.89703173 31569.62295745
0.12100001 819390.92349294 20992.79644882
0.12200001 810557.33442682 14954.78352471
0.12300001 801774.31070343 14913.00288170
0.12400001 793041.75627519 20817.34708308
0.12500001 784361.43789863 20754.20462475
0.12600001 775735.90275006 14777.76964377
0.12700001 767163.98235699 23567.27864865
0.12800001 758647.46875010 19083.77797581
0.12900001 750187.51473111 21942.98584010
0.13000001 741784.88251079 24779.32516824
0.13100001 733439.60703645 26139.78882695
0.13200001 725153.31939872 15913.49034437
0.13300001 716927.88631179 21615.37679131
0.13400001 708761.62547225 25834.36246644
0.13500001 700657.86843176 17152.10542790
0.13600001 692614.64606188 14233.23164768
0.13700001 684635.22745052 15589.14486413
0.13800001 676717.32254706 18342.42389259
0.13900001 668864.29981173 16855.38115012
0.14000001 661074.95173389 16778.08306627
0.14100001 653350.42846220 22266.18365213
0.14200001 645690.47024666 16620.07348804
0.14300001 638097.80684514 20674.36991694
0.14400001 630567.84291162 17829.30659933
0.14500001 623106.58151654 20469.05216839
0.14600001 615711.30908004 17649.36550738
0.14700001 608384.66532666 18908.59629039
0.14800001 601121.94446413 16122.09131115
0.14900001 593928.08956660 20045.07396862
0.15000001 586801.48859508 18607.47608130
0.15100001 579742.81662485 15861.76421129
0.15200001 572752.39977268 15773.60183405
0.15300001 565830.82788960 13070.69274104
0.15400001 558974.71761297 16895.01163714
0.15500001 552188.24764569 15505.44672564
0.15600001 545467.52191977 12845.76074747
0.15700001 538818.56118625 15324.00060338
0.15800001 532233.62743517 13963.14987480
0.15900001 525719.02915161 13878.98302470
0.16000001 519269.98663811 15048.44492310
0.16100001 512891.68985664 21187.55670812
0.16200001 506579.35707341 14863.03903816
0.16300001 500334.16666172 12308.22108092
0.16400001 494156.53486538 15899.48725990
0.16500001 488045.53581112 17013.26818159
0.16600001 482002.18527414 12074.15531117
0.16700001 476023.30139321 15594.52408993
0.16800001 470110.64453509 16684.22756232
0.16900001 464265.90988585 15390.41563942
0.17000001 458485.08437708 15288.18586046
0.17100001 452769.55691205 12849.60063194
0.17200001 447119.31193363 15083.57070037
0.17300001 441533.71889702 13828.83672891
0.17400001 436011.95053332 11445.31424202
0.17500001 430553.91162644 17049.93570563
0.17600001 425157.75979726 18060.70248918
0.17700001 419826.33032416 15693.10896871
0.17800001 414555.28496195 14470.05290505
0.17900001 409347.21790978 12157.61294617
0.18000001 404200.63443049 16461.07161472
0.18100001 399116.33226544 14164.63930119
0.18200001 394089.62856804 14063.08905976
0.18300001 389124.23513997 12887.79527665
0.18400001 384217.59163654 13860.65027307
0.18500001 379371.32113945 11642.90639581
0.18600001 374581.73437550 10507.01814562
0.18700001 369849.98063327 17730.60890924
0.18800001 365175.34512939 14493.81013296
0.18900001 360558.80154247 11303.51896242
0.19000001 355994.85638705 12239.10374087
0.19100001 351490.61593822 10122.93021733
0.19200001 347037.86262528 13060.77057704
0.19300001 342642.21374287 11965.06666928
0.19400001 338297.73434697 10884.73011696
0.19500001 334007.77406527 10801.81192371
0.19600001 329769.68140954 10719.16400077
0.19700001 325583.49812784 9669.83035137
0.19800001 321448.91324063 9595.25051369
0.19900001 317365.17473290 11425.14683034
0.20000001 313330.29444550 10391.59970640
0.20100001 309346.36215481 13122.47330281
0.20200001 305409.63109712 13949.58555967
0.20300001 301522.65789076 11071.91252106
0.20400001 297682.53797372 10984.48617042
0.20500001 293889.32744515 10897.41677675
0.20600001 290142.84018747 9909.82917502
0.20700001 286442.19224798 10724.39618470
0.20800001 282785.72066439 12411.46586665
0.20900001 279175.74464693 14070.45819533
0.21000001 275608.20147871 10467.59998699
0.21100001 272084.70348067 9517.52337768
0.21200001 268603.44878716 10298.25671334
0.21300001 265163.83326307 8511.75945014
0.21400001 261766.70884653 10974.56978723
0.21500001 258411.42584241 10047.03671175
0.21600001 255095.56888140 12455.04173949
0.21700001 251819.79105553 8234.50755684
0.21800001 248583.52130431 8982.56596703
0.21900001 245384.94407660 8907.47389114
0.22000001 242224.34242550 9635.68479729
0.22100001 239103.09849652 15128.05375718
0.22200001 236019.05753939 8684.32163280
0.22300001 232969.84709413 7827.78723250
0.22400001 229956.41128043 10089.33802202
0.22500001 226981.10226003 9233.59167657
0.22600001 224038.60865549 8391.36648400
0.22700001 221132.34251311 13612.90764885
0.22800001 218258.94704834 11995.51229704
0.22900001 215418.22377343 11147.89360747
0.23000001 212611.80738890 11787.19915908
0.23100001 209838.40233487 10953.56511990
0.23200001 207095.55828281 8685.58812515
0.23300001 204384.99148042 8608.69624830
0.23400001 201706.25105045 8532.17482297
0.23500001 199056.17545362 8455.90673320
0.23600001 196438.19493447 8380.05379226
0.23700001 193849.35766823 6920.42239608
0.23800001 191289.98190998 8229.29541100
0.23900001 188759.23090999 8154.39916101
0.24000001 186257.06711741 8753.15128321
0.24100001 183784.28231451 8005.64371630
0.24200001 181338.19982109 7931.73323536
0.24300001 178920.32378977 7203.33257651
0.24400001 176528.76225912 10379.89171184
0.24500001 174163.69344784 8997.29682913
0.24600001 171825.70569916 8912.59977623
0.24700001 169513.60763356 8828.26910319
0.24800001 167226.71325827 8744.28524994
0.24900001 164964.29047216 7423.39342243
0.25000001 162728.07219957 9802.73953305
0.25100001 160515.18734456 7280.96924240
0.25200001 158328.45210394 9012.84756241
0.25300001 156165.16235695 6544.88226402
0.25400001 154025.44228391 7658.91547992
0.25500001 151908.80093252 6999.95787815
0.25600001 149815.80712481 8663.09945687
0.25700001 147744.78809615 6289.49592683
0.25800001 145697.56244124 8490.52585298
0.25900001 143672.32208711 7844.50915712
0.26000001 141668.94208264 6100.97327946
0.26100001 139687.19492425 8783.53123244
0.26200001 137727.74272662 5976.69567842
0.26300001 135788.97232358 6452.69227014
0.26400001 133871.66907247 5853.53900717
0.26500001 131975.65496025 5792.41177030
0.26600001 130099.31862060 7294.66914024
0.26700001 128244.78035297 6702.07253839
0.26800001 126410.62184007 6630.86948240
0.26900001 124595.36059240 5550.72357706
0.27000001 122801.00704573 5491.04728990
0.27100001 121025.74343821 5431.63562255
0.27200001 119271.64518247 5372.59151149
0.27300001 117535.76680330 6279.93631749
0.27400001 115817.45588172 6688.45839370
0.27500001 114120.96033420 7559.37277029
0.27600001 112441.17306832 6073.51025072
0.27700001 110781.60401319 6005.47103777
0.27800001 109139.65103522 5937.74299559
0.27900001 107517.53622099 4967.31040850
0.28000001 105912.00474331 5803.44857458
0.28100001 104325.35375425 5736.85147447
0.28200001 102757.38914838 5234.46165096
0.28300001 101206.77002075 6467.11291042
0.28400001 99673.77987469  4687.15972045
0.28500001 98158.68113591  5474.30990606
0.28600001 96661.03031069  7074.13783812
0.28700001 95180.72292058  4522.98816727
0.28800001 93717.12009214  4468.90108312
0.28900001 92272.18384006  4415.22420574
0.29000001 90842.81841245  5551.40489596
0.29100001 89431.41844738  5483.93483877
0.29200001 88036.59391749  4643.05018299
0.29300001 86658.54841344  6878.95589868
0.29400001 85296.49695427  5661.55525334
0.29500001 83952.01793958  5218.45768215
0.29600001 82623.33762917  4785.13082531
0.29700001 81311.00853177  4361.52270411
0.29800001 80014.86681321  3947.53364110
0.29900001 78735.47265681  4251.71572474
0.30000001 77471.50522942  5246.75794004
0.30100001 76224.40203223  4488.85524818
0.30200001 74991.50596871  3749.20051840
0.30300001 73775.78904649  4373.42898172
0.30400001 72575.77783923  4316.44459134
0.30500001 71391.08711407  4587.59147514
0.30600001 70221.00742516  3557.04529952
0.30700001 69067.49300342  3829.10199339
0.30800001 67928.88999774  3463.35462050
0.30900001 66805.67068964  3417.11021756
0.31000001 65697.73686569  5210.15926881
0.31100001 64604.05577949  3023.46995363
0.31200001 63526.20010794  4473.83285442
0.31300001 62462.56350590  3530.38425650
0.31400001 61415.12461827  5223.35659609
0.31500001 60381.11719745  2862.06509067
0.31600002 59362.38067170  3104.94946805
0.31700002 58358.04387184  3062.04670694
0.31800002 57368.17028855  3019.57378611
0.31900002 56392.67110143  2977.53317514
0.32000002 55432.00496483  2669.05116543
0.32100002 54484.71033014  3684.25628697
0.32200002 53552.73565494  3113.55619841
0.32300002 52633.16811798  3325.36371915
0.32400002 51728.24377022  2773.92720353
0.32500002 50836.97212296  2734.52085998
0.32600002 49960.04677654  2450.54041043
0.32700002 49096.24853552  2657.08909656
0.32800002 48246.57231786  3333.35583929
0.32900002 47409.77281447  2816.14063853
0.33000002 46587.46717225  4626.13570927
0.33100002 45775.77149504  2735.56023408
0.33200002 44980.49217083  2246.77569033
0.33300002 44196.78156253  2435.68474725
0.33400002 43426.66794986  2400.40918460
0.33500002 42668.22306487  2580.57425317
0.33600002 41923.90648014  2331.17893022
0.33700002 41191.11116709  2714.90626559
0.33800002 40471.85154635  2469.59249831
0.33900002 39764.24269093  2027.97647328
0.34000002 39069.48107653  2398.08486205
0.34100002 38386.96079384  2166.17630018
0.34200002 37717.10706320  1940.54525030
0.34300002 37058.09838843  2103.41776414
0.34400002 36412.56013016  2449.65509877
0.34500002 35777.92215658  2785.31137180
0.34600002 35156.15597292  1829.87800505
0.34700002 34544.11959905  2344.16406701
0.34800002 33945.44295076  3198.67924074
0.34900002 33357.35836545  1926.38753684
0.35000002 32780.49413238  2416.25033694
0.35100002 32215.75037936  2211.28921077
0.35200002 31660.49737191  2011.70809829
0.35300002 31116.87798826  2147.99818927
0.35400002 30584.58677748  1628.62932304
0.35500002 30062.91798071  2568.57583393
0.35600002 29550.87745026  1898.93947490
0.35700002 29049.93707122  2027.97620300
0.35800002 28560.10097557  1691.75766142
0.35900002 28080.01439830  1971.21710413
0.36000002 27610.35201410  1644.61069562
0.36100002 27150.05638559  1621.67294472
0.36200002 26700.99323895  1744.64298087
0.36300002 26260.39186504  1577.19921012
0.36400002 25829.78319159  1979.85297542
0.36500002 25408.48358185  1534.41839619
0.36600002 24997.17289619  1651.31331974
0.36700002 24594.42288777  1629.13464926
0.36800002 24202.57091160  1607.53483610
0.36900002 23818.57867674  1454.12429710
0.37000002 23443.38144915  1435.08666339
0.37100002 23076.83263792  1416.45605441
0.37200002 22720.04936644  1525.42418672
0.37300002 22371.16664752  1631.52926089
0.37400002 22030.80688114  1611.00282950
0.37500002 21699.26768475  2080.52588417
0.37600002 21375.96135003  1571.45387309
0.37700002 21060.36885186  2388.24594094
0.37800002 20752.80777135  1651.71604877
0.37900002 20453.70836200  1282.44757505
0.38000002 20162.25956723  1497.95514551
0.38100002 19877.55965033  1138.98422192
0.38200002 19601.53908607  1463.94101600
0.38300002 19331.97334101  1447.57823235
0.38400002 19070.90990382  1211.47960903
0.38500002 18815.48725705  1089.41676379
0.38600002 18568.60853027  1077.90777625
0.38700002 18327.95180435  1706.69895288
0.38800002 18094.09406562  1266.94852650
0.38900002 17866.74568044  1149.72513901
0.39000002 17647.02340218  1241.99756589
0.39100002 17432.60700158  1230.04480831
0.39200002 17225.31632867  1320.06217939
0.39300002 17023.94074654  1307.94942952
0.39400002 16830.01665053  997.17853379
0.39500002 16640.85408571  1383.85349133
0.39600002 16457.76950860  1176.07226480
0.39700002 16280.60345783  1457.92810872
0.39800002 16109.25536148  1253.38067278
0.39900002 15943.47466027  1339.25193491
0.40000002 15782.90620233  1234.14440896
0.40100002 15628.15840984  1130.85359612
0.40200002 15478.99744912  935.70544013
0.40300002 15334.26691832  1208.03360506
0.40400002 15195.19901128  1384.66257551
0.40500002 15061.05761478  917.21845220
0.40600002 14931.85398558  1002.74870191
0.40700002 14807.23427559  996.82305866
0.40800002 14687.75220789  991.20300471
0.40900002 14572.38607565  985.82196473
0.41000002 14461.91349674  1069.89241118
0.41100002 14355.74902703  1242.05946467
0.41200002 14253.49332871  971.30434891
0.41300002 14156.08630249  879.09300104
0.41400002 14062.48443903  1313.08454671
0.41500002 13973.11023839  1220.69096827
0.41600002 13887.07422558  955.50018737
0.41700002 13805.27330905  1125.26788074
0.41800002 13728.23676130  949.10169347
0.41900002 13652.78779195  1376.20107464
0.42000002 13582.34549073  1200.81522174
0.42100002 13515.44448483  1026.63321171
0.42200002 13452.12807687  1024.24508031
0.42300002 13391.53509717  936.87183979
0.42400002 13334.02745811  935.04871981
0.42500002 13280.24659108  1442.63325555
0.42600002 13228.58643208  932.02010124
0.42700002 13181.31134267  1184.73631962
0.42800002 13135.76052836  1014.34347607
0.42900002 13094.48642793  1097.97273901
0.43000002 13055.28709539  1012.82922086
0.43100002 13017.85788120  927.91295374
0.43200002 12984.25605848  1180.65845935
0.43300002 12952.90716782  843.23429658
0.43400002 12924.09457025  927.62693174
0.43500002 12897.49127540  843.49596938
0.43600002 12873.55633902  843.86165801
0.43700002 12851.41744291  928.77198261
0.43800002 12831.40450805  844.94802690
0.43900002 12814.28531810  1184.04001950
0.44000002 12798.66163252  1185.28410996
0.44100002 12785.46212024  932.44379662
0.44200002 12774.08762145  1188.37342774
0.44300002 12764.53740561  1190.16552410
0.44400002 12757.28037793  936.70335614
0.44500002 12750.55580072  1108.91589054
0.44600002 12745.84728021  1281.91365096
0.44700002 12744.01024255  856.39752888
0.44800002 12741.95358969  943.98767643
0.44900002 12743.18989446  1118.21496623
0.45000002 12745.36649725  1207.11371816
0.45100002 12748.52762692  1037.22025688
0.45200002 12753.37678899  1213.22879143
0.45300002 12759.28458340  1042.68878557
0.45400002 12766.76949834  1045.59847147
0.45500002 12775.48523223  961.22755443
0.45600002 12785.14847985  876.42196983
0.45700002 12796.05263577  1230.72440084
0.45800002 12807.61566794  1146.34569469
0.45900002 12820.47841191  1061.53566282
0.46000002 12834.99749534  1420.06419019
0.46100002 12849.18285339  1068.53809673
0.46200002 12865.40493995  1250.90338160
0.46300002 12882.18435848  1075.92008861
0.46400002 12899.12489817  1349.57100643
0.46500002 12917.37499651  1083.50946606
0.46600002 12936.21323376  1359.27266996
0.46700002 12955.36720296  1273.25354905
0.46800002 12976.13530182  1004.15827792
0.46900002 12996.45248279  1191.12492650
0.47000002 13017.62038879  1011.66441646
0.47100002 13039.54352257  1107.83967019
0.47200002 13061.96652389  1204.77053943
0.47300002 13084.94736153  1023.37378165
0.47400002 13107.64984138  1027.31210501
0.47500002 13131.18177655  1125.07970794
0.47600002 13155.63046133  941.28540412
0.47700002 13179.35051273  1417.43921483
