# SAXS profile: number of points = 501, q_min = 0, q_max = 0.5, delta_q = 0.001
#    q    intensity    error
0.00000000 1682732.95097187 277.65093691
0.00100000 1682646.43776991 656.23212631
0.00200000 1682386.85366740 984.19634056
0.00300000 1681954.43421023 1311.92450542
0.00400000 1681349.03280637 1513.21418702
0.00500000 1680571.30544739 2117.51992868
0.00600000 1679621.11031279 1939.96246139
0.00700000 1678499.17952721 2417.03891897
0.00800000 1677205.27604717 2264.22721826
0.00900000 1675740.82443483 3016.33361292
0.01000000 1674105.23405061 3590.95588209
0.01100000 1672300.08037353 4515.21041360
0.01200000 1670325.15844549 3908.56104213
0.01300000 1668181.93065580 4203.81865066
0.01400000 1665870.48746183 4123.02963925
0.01500000 1663392.40569625 5588.99873201
0.01600000 1660747.36606562 6352.35895917
0.01700000 1657937.51440750 4476.43148971
0.01800000 1654963.40428583 6603.30428023
0.01900000 1651825.96466345 7433.21717639
0.02000000 1648525.90652061 6231.42820853
0.02100000 1645066.06118616 5971.59007285
0.02200000 1641444.93457893 6229.28380974
0.02300000 1637665.77578733 8253.83588567
0.02400000 1633729.13422043 7351.78143922
0.02500000 1629637.14069515 6991.14365287
0.02600000 1625390.67072527 7899.39902103
0.02700000 1620991.18040532 10893.06123124
0.02800000 1616439.43066995 10547.26776881
0.02900000 1611738.64520172 7252.82423642
0.03000000 1606889.35762507 8219.23944205
0.03100000 1601893.35679048 8457.99731303
0.03200000 1596751.72603128 10275.09783026
0.03300000 1591468.65543165 13798.03387869
0.03400000 1586042.56679494 12490.08578981
0.03500000 1580477.66509220 14508.78563553
0.03600000 1574774.49451017 15731.99792719
0.03700000 1568935.96983264 10731.52252996
0.03800000 1562963.76284459 12800.67381011
0.03900000 1556860.41469478 10275.27921283
0.04000000 1550625.76911078 10489.98381413
0.04100000 1544264.19745828 13620.41085311
0.04200000 1537776.99586652 12894.26070854
0.04300000 1531166.18989527 12126.83678687
0.04400000 1524434.10800189 12347.91684828
0.04500000 1517583.68032119 12565.59345692
0.04600000 1510615.19217751 14909.77263990
0.04700000 1503532.79923684 16238.15498696
0.04800000 1496337.76781979 12097.89141572
0.04900000 1489033.18567700 16751.62411861
0.05000000 1481620.62495044 19268.47712474
0.05100000 1474103.93914406 16097.21576533
0.05200000 1466482.40238188 11658.53564224
0.05300000 1458761.46676390 17723.95264743
0.05400000 1450941.78576684 11970.27029080
0.05500000 1443027.30109970 13333.57288416
0.05600000 1435018.78197384 14723.29339010
0.05700000 1426921.29017375 14897.05896479
0.05800000 1418733.84923490 18833.69272798
0.05900000 1410460.59844467 15232.97517467
0.06000000 1402105.25137329 20526.82183909
0.06100000 1393669.02774492 18145.57158921
0.06200000 1385154.76696073 13089.71315964
0.06300000 1376565.99504868 17179.54442144
0.06400000 1367901.65118137 14670.74589502
0.06500000 1359168.69054075 17492.50186552
0.06600000 1350367.75578076 14928.31623863
0.06700000 1341500.53634179 16419.96733326
0.06800000 1332570.98965436 15171.32142737
0.06900000 1323582.73644562 18066.90519836
0.07000000 1314535.14898743 20999.69998846
0.07100000 1305432.97991628 14098.67684345
0.07200000 1296277.90607204 17033.09248373
0.07300000 1287073.35068609 18572.46932062
0.07400000 1277822.52172492 17250.60485172
0.07500000 1268525.45670292 15907.30997267
0.07600000 1259185.96339426 20361.03798262
0.07700000 1249807.55357632 17547.29887498
0.07800000 1240391.47658536 17638.36762422
0.07900000 1230939.71026917 16248.40493766
0.08000000 1221457.30789607 25229.20187812
0.08100000 1211945.05429488 25341.77227430
0.08200000 1202404.62855304 19460.91982634
0.08300000 1192839.00298926 19538.70378595
0.08400000 1183251.64592460 19612.39695178
0.08500000 1173644.27245138 22710.01773806
0.08600000 1164019.20279207 19747.58670255
0.08700000 1154378.74124428 21332.92013994
0.08800000 1144724.68300413 22923.11285371
0.08900000 1135060.53870679 16855.64979150
0.09000000 1125388.37823398 15361.55208451
0.09100000 1115709.86576184 18476.15624505
0.09200000 1106027.03769219 16971.98569084
0.09300000 1096344.04119861 18550.14204879
0.09400000 1086659.57219409 17033.38959467
0.09500000 1076978.32799032 17059.33751720
0.09600000 1067301.56831249 20188.01011362
0.09700000 1057634.00879472 15547.22066020
0.09800000 1047974.46319187 15562.42151011
0.09900000 1038327.15189426 20247.38041402
0.10000000 1028691.53359212 15584.67746682
0.10100000 1019071.00665922 26506.03812983
0.10200000 1009468.09179636 15596.28275185
0.10300000 999883.96534763 15598.19059317
0.10400000 990320.93718770 23396.33324174
0.10500000 980782.69264144 17153.89010138
0.10600001 971265.51342689 17147.69344641
0.10700001 961777.67357923 17138.87894970
0.10800001 952315.84179943 21798.51064466
0.10900001 942885.15993721 23336.40880679
0.11000001 933486.01913560 24868.06872030
0.11100001 924119.32393777 24840.32859677
0.11200001 914788.33081040 29460.75958068
0.11300001 905492.60202044 24774.27875767
0.11400001 896235.41552024 17006.06781022
0.11500001 887017.93252099 21607.75785368
0.11600001 877841.40233702 18487.34080381
0.11700001 868707.36177719 18451.34523311
0.11800001 859615.91061833 18412.97367266
0.11900001 850569.10536563 21434.34246481
0.12000001 841568.17943541 16801.90949388
0.12100001 832616.23575453 15236.87783209
0.12200001 823712.47683983 18236.99509640
0.12300001 814859.27432205 16672.02153812
0.12400001 806056.10150128 15113.55261526
0.12500001 797304.84872341 16575.96858603
0.12600001 788608.18844585 19529.88270718
0.12700001 779965.14500542 14975.33148984
0.12800001 771376.94910872 16418.75913558
0.12900001 762845.50167662 19338.13437895
0.13000001 754371.02403288 19270.40871723
0.13100001 745953.67706663 16246.87185235
0.13200001 737595.09004934 16186.52501417
0.13300001 729297.41841046 14658.87880111
0.13400001 721058.68095550 14601.43897774
0.13500001 712882.24660534 23268.47762627
0.13600001 704766.21304765 23172.71417762
0.13700001 696713.72238377 15864.17220673
0.13800001 688722.56984372 24411.77263927
0.13900001 680796.56227834 18585.74702667
0.14000001 672933.98474169 19925.57622790
0.14100001 665135.98123668 15584.13677537
0.14200001 657402.66415029 14101.28781112
0.14300001 649736.09468511 21051.45046074
0.14400001 642132.69578940 13966.38679221
0.14500001 634597.64493961 16677.22689571
0.14600001 627128.41974398 15211.00053846
0.14700001 619727.98270668 17885.35042468
0.14800001 612391.41128412 15055.64355673
0.14900001 605123.68702314 13615.28360040
0.15000001 597922.90439091 16251.54530814
0.15100001 590790.31846578 16164.02387592
0.15200001 583725.68542306 16075.80613512
0.15300001 576730.17455991 13322.46766101
0.15400001 569799.90367601 14572.63322421
0.15500001 562939.62079938 15807.34529804
0.15600001 556144.83970507 24884.70202703
0.15700001 549421.72178432 16927.68404711
0.15800001 542762.83375059 18122.85187431
0.15900001 536174.31379576 14155.00255233
0.16000001 529651.34950982 12791.08069443
0.16100001 523199.07727556 15256.48581353
0.16200001 516813.04169675 13899.68741258
0.16300001 510494.12392753 13813.97164561
0.16400001 504242.78493180 18720.01427436
0.16500001 498057.99894514 18602.46713885
0.16600001 491941.12436964 14787.75089673
0.16700001 485889.02876618 14693.28492363
0.16800001 479903.12859298 14598.65386109
0.16900001 473985.03507213 15712.60465456
0.17000001 468131.09290983 16810.58834018
0.17100001 462342.59962199 15506.97152358
0.17200001 456619.39459791 11849.27384937
0.17300001 450961.00196987 15301.10751942
0.17400001 445366.77583521 17536.31762668
0.17500001 439836.22522371 13934.01227316
0.17600001 434367.64644272 12685.70771349
0.17700001 428964.16954037 11453.34386768
0.17800001 423621.20406309 15923.92181285
0.17900001 418341.36261683 11295.21732417
0.18000001 413122.95790948 13459.54660445
0.18100001 407967.16268772 14478.75528771
0.18200001 402869.30316329 11058.76289423
0.18300001 397832.80396921 12078.20449907
0.18400001 392855.29392067 13082.08190557
0.18500001 387938.42885177 16235.22401443
0.18600001 383078.43654769 12894.42078337
0.18700001 378276.38437245 17067.83126925
0.18800001 373531.70281488 10589.62427512
0.18900001 368845.59926143 11563.31008318
0.19000001 364211.85873334 11478.13727031
0.19100001 359638.38500318 15536.37896623
0.19200001 355116.59462131 12336.75108007
0.19300001 350652.15818393 16326.36525651
0.19400001 346239.19258437 12152.99623399
0.19500001 341880.87818329 16082.07726970
0.19600001 337574.79835389 10972.86933903
0.19700001 333320.87306846 13859.48255715
0.19800001 329118.81426971 13753.87589832
0.19900001 324967.97651501 9749.03975619
0.20000001 320866.09070543 10641.52440118
0.20100001 316815.62386479 10559.46524248
0.20200001 312812.54489350 16192.74215174
0.20300001 308859.65922202 10396.21662079
0.20400001 304953.83911113 9377.33099589
0.20500001 301095.30673864 10234.22995979
0.20600001 297283.66784981 11999.85581997
0.20700001 293518.35119039 10073.55028902
0.20800001 289797.24323131 11810.68720619
0.20900001 286123.40966580 9012.88783052
0.21000001 282491.96384150 21458.09058777
0.21100001 278905.07207467 11529.93622463
0.21200001 275360.67631541 9677.55142661
0.21300001 271858.19572367 14835.30244199
0.21400001 268398.71274799 10387.03067441
0.21500001 264981.34846310 9443.93570571
0.21600001 261603.67311516 8515.19996248
0.21700001 258266.55934972 10978.91195703
0.21800001 254969.25805834 8375.74052323
0.21900001 251710.07037267 10798.36252955
0.22000001 248489.20392227 9884.90099941
0.22100001 245308.02708122 8985.63345686
0.22200001 242164.38059975 9720.47869690
0.22300001 239056.04688238 11245.19697708
0.22400001 235983.73084649 8760.89642195
0.22500001 232949.98293886 9476.40575407
0.22600001 229949.37329219 13310.62010245
0.22700001 226985.53024641 8539.19605168
0.22800001 224054.64845811 8465.90529234
0.22900001 221157.05211701 9918.89425652
0.23000001 218294.14574015 9076.67100913
0.23100001 215464.61816844 9747.61978693
0.23200001 212665.85048730 9662.47337386
0.23300001 209899.96130905 10314.48458654
0.23400001 207166.31283310 11684.18059639
0.23500001 204461.60310775 8685.52931081
0.23600001 201789.39626050 8608.33605162
0.23700001 199146.70941834 10664.30679375
0.23800001 196533.90748038 7750.31500807
0.23900001 193950.17550952 9775.08930804
0.24000001 191395.31146969 7610.83492059
0.24100001 188870.21479192 8227.18694549
0.24200001 186372.40328669 9510.58418959
0.24300001 183903.01338193 6730.85060817
0.24400001 181460.38966283 8002.40356267
0.24500001 179044.76915485 8588.77798264
0.24600001 176656.45814696 7199.63429236
0.24700001 174294.33794744 8428.87458187
0.24800001 171958.10971180 7064.89927173
0.24900001 169646.74025781 6997.92836669
0.25000001 167361.84872614 7561.40868316
0.25100001 165100.73358559 7488.96962974
0.25200001 162866.11391481 6798.84624703
0.25300001 160655.44638898 7345.16735641
0.25400001 158468.65297660 7273.71151575
0.25500001 156305.19791196 7802.75584893
0.25600001 154165.98398671 6537.40886026
0.25700001 152049.25490254 5884.30644313
0.25800001 149956.44527770 6990.96980962
0.25900001 147886.08953852 8651.33664734
0.26000001 145838.15905414 6280.52061683
0.26100001 143812.01837604 7347.35636648
0.26200001 141808.73298145 7832.09669316
0.26300001 139826.34233168 6644.54810201
0.26400001 137865.96015623 7672.24104573
0.26500001 135927.21085712 7050.54476078
0.26600001 134008.51947951 8050.56218868
0.26700001 132111.98117067 7435.26265212
0.26800001 130236.31444171 6831.54619731
0.26900001 128379.81177989 5719.32088544
0.27000001 126544.56329325 5144.03674130
0.27100001 124728.95065079 7124.51799833
0.27200001 122934.78545035 5537.59767267
0.27300001 121159.26834315 5477.61078102
0.27400001 119401.60389116 7387.97459040
0.27500001 117666.22466273 5845.65831789
0.27600001 115947.71223851 8671.72980872
0.27700001 114250.11842630 5240.65318024
0.27800001 112570.25233462 5182.17181148
0.27900001 110910.58179818 5589.89358719
0.28000001 109267.92796093 7369.02941045
0.28100001 107644.61017921 5919.37739391
0.28200001 106040.09876448 6301.96336784
0.28300001 104453.49714429 6674.57878343
0.28400001 102884.71741834 4398.32187781
0.28500001 101334.33331785 5651.41603663
0.28600001 99801.65531095  5155.75375740
0.28700001 98286.64844360  5519.77843786
0.28800001 96788.53120443  5454.51793420
0.28900001 95309.76217026  6218.96227598
0.29000001 93846.70538699  4096.40888404
0.29100001 92401.97131627  6475.53045636
0.29200001 90974.09759071  5997.46766756
0.29300001 89563.38777509  4739.69470542
0.29400001 88169.01393705  6242.36648223
0.29500001 86792.51400787  5009.66414568
0.29600001 85432.07105013  4947.79862908
0.29700001 84088.34129189  5262.24864715
0.29800001 82761.03438121  5196.56559479
0.29900001 81450.94661650  4031.82204838
0.30000001 80156.43193981  5066.68830277
0.30100001 78879.10812370  3573.22376716
0.30200001 77616.43799400  4233.20072860
0.30300001 76371.16927619  5920.29332256
0.30400001 75141.78519985  3781.51051921
0.30500001 73928.06884384  3393.29852058
0.30600001 72729.26889843  4353.93788873
0.30700001 71547.36478866  4958.23261459
0.30800001 70380.69701774  4893.21819182
0.30900001 69229.50192292  4184.92358937
0.31000001 68094.10561489  3811.90821280
0.31100001 66973.06318908  5328.37715960
0.31200001 65868.17288753  5257.26846793
0.31300001 64777.80001604  3356.13797773
0.31400001 63703.81493202  3612.00647766
0.31500001 62643.50129393  3563.16252230
0.31600002 61598.71713870  2929.01913863
0.31700002 60568.54150437  3178.03152321
0.31800002 59553.29380121  3419.55029198
0.31900002 58552.57041770  2810.52351313
0.32000002 57566.93169381  3049.03268153
0.32100002 56594.78904558  3553.58697243
0.32200002 55638.38528754  2965.24788431
0.32300002 54694.34632179  2923.95989281
0.32400002 53765.36646798  2883.16791337
0.32500002 52850.40205893  3101.26173967
0.32600002 51949.89974686  3822.21405487
0.32700002 51062.60050832  3265.96408316
0.32800002 50189.76554551  2724.55155165
0.32900002 49330.04522238  2686.02108955
0.33000002 48485.00190309  3370.19264188
0.33100002 47650.84700720  2610.31352266
0.33200002 46833.17786454  3976.83948669
0.33300002 46027.32271217  2536.56587479
0.33400002 45235.32381485  2727.69015521
0.33500002 44455.20343263  2688.65083093
0.33600002 43689.42903829  2650.20089097
0.33700002 42935.23788691  3265.22499593
0.33800002 42195.02721812  2789.30240635
0.33900002 41466.39932815  3383.65834542
0.34000002 40750.93107080  2501.29226758
0.34100002 40047.79278247  3081.67780056
0.34200002 39357.61679678  2227.44442810
0.34300002 38678.37761153  2394.96525513
0.34400002 38012.95200718  2557.32146740
0.34500002 37358.38404329  1938.90022367
0.34600002 36716.90593201  3440.00707969
0.34700002 36085.37452327  3578.94761472
0.34800002 35467.37492823  2970.74746469
0.34900002 34860.01543486  2013.16598671
0.35000002 34264.32197160  2164.81996470
0.35100002 33680.58422149  2489.66890357
0.35200002 33106.75785208  2103.60349355
0.35300002 32544.64085073  1900.93256213
0.35400002 31993.86593545  2725.87750681
0.35500002 31453.98336206  2687.42846574
0.35600002 30923.93931580  2152.77013743
0.35700002 30404.97360068  1632.74715969
0.35800002 29897.28228604  2092.95934557
0.35900002 29399.58027025  2222.60837371
0.36000002 28912.51819193  1565.61293425
0.36100002 28434.79282805  2161.61305318
0.36200002 27968.50582218  1979.75077840
0.36300002 27510.89999501  1802.51425305
0.36400002 27063.26758845  1778.05676478
0.36500002 26625.13099499  2631.09556955
0.36600002 26197.15226615  1874.79929073
0.36700002 25777.87768824  1565.23280737
0.36800002 25369.52751031  1404.20341421
0.36900002 24969.30190859  2217.27411451
0.37000002 24577.87352964  1914.86221740
0.37100002 24195.29074831  1485.10701648
0.37200002 23822.57999920  1866.02277973
0.37300002 23457.89437043  1579.18552382
0.37400002 23101.79094634  1949.21370343
0.37500002 22754.70628737  1540.03859448
0.37600002 22415.94785131  1521.14629325
0.37700002 22085.00244339  1878.32954679
0.37800002 21762.21391351  1732.05468743
0.37900002 21448.04007100  1589.29984455
0.38000002 21141.58324756  1449.88984780
0.38100002 20841.96568550  1671.94256650
0.38200002 20551.11891035  1770.99275600
0.38300002 20266.91429620  1751.06147815
0.38400002 19991.22171765  1385.39173066
0.38500002 19721.42399433  1484.43165438
0.38600002 19460.25870780  1694.50210726
0.38700002 19205.21271126  1564.84080585
0.38800002 18957.36466474  1438.01096477
0.38900002 18715.87318144  1423.34222288
0.39000002 18482.29329853  1192.38520864
0.39100002 18254.02680177  1824.67260555
0.39200002 18033.01061487  1275.65523133
0.39300002 17817.92068577  1053.03916242
0.39400002 17610.55990259  1356.45344076
0.39500002 17408.01385868  1551.05410829
0.39600002 17211.65367129  1127.44942715
0.39700002 17021.21868539  1219.40016439
0.39800002 16836.81114864  1309.98815349
0.39900002 16657.94921292  1299.32010017
0.40000002 16484.52445539  1090.69861227
0.40100002 16316.95275807  1377.47721710
0.40200002 16155.05771359  1269.54527057
0.40300002 15997.69312381  1260.29832401
0.40400002 15846.13475117  1155.18327809
0.40500002 15699.57296203  956.10403869
0.40600002 15557.96492691  1139.77656455
0.40700002 15421.20892802  943.77803111
0.40800002 15289.53370631  1125.61552479
0.40900002 15162.17555877  1025.72122515
0.41000002 15039.83321331  1298.08806615
0.41100002 14921.77197424  1198.81521721
0.41200002 14807.77939034  1192.54456971
0.41300002 14698.80010824  1186.63418896
0.41400002 14593.63045985  1180.98960092
0.41500002 14492.79572921  1266.09069489
0.41600002 14395.36994478  990.47347598
0.41700002 14302.36418103  986.43410431
0.41800002 14214.13984402  1161.36635099
0.41900002 14127.65019635  979.04620500
0.42000002 14046.28826813  1241.83240463
0.42100002 13968.51451582  1326.31051612
0.42200002 13894.44512158  1322.40387711
0.42300002 13823.13524460  1406.64230915
0.42400002 13755.11876838  876.88886304
0.42500002 13690.80446816  962.32669167
0.42600002 13628.81462439  1047.51074167
0.42700002 13571.23400402  958.40059078
0.42800002 13515.64784255  1043.67837586
0.42900002 13464.21937895  955.28641020
0.43000002 13415.06556569  867.28402992
0.43100002 13367.82233829  866.23492857
0.43200002 13324.40538359  865.42017067
0.43300002 13283.37896605  951.22281284
0.43400002 13245.02890549  1037.08581245
0.43500002 13208.94432596  1036.63799983
0.43600002 13175.69875395  1381.86735080
0.43700002 13144.27219295  1468.08383080
0.43800002 13115.09574008  1122.71782403
0.43900002 13088.86736958  1295.79793100
0.44000002 13064.36742387  950.62874065
0.44100002 13042.28192836  1124.11433268
0.44200002 13022.15287513  951.85430952
0.44300002 13003.93874715  1039.27483392
0.44400002 12988.15336326  953.65520589
0.44500002 12972.96810924  954.68076840
0.44600002 12959.94704473  1390.34318485
0.44700002 12949.84309587  957.25244701
0.44800002 12939.67984228  1307.23121802
0.44900002 12932.94037125  872.97351643
0.45000002 12927.17660350  961.97589254
0.45100002 12922.55635752  1401.83898010
0.45200002 12919.75339173  1229.05619840
0.45300002 12917.97755127  1055.65717552
0.45400002 12917.95713561  969.81567792
0.45500002 12919.33071084  1237.15516750
0.45600002 12921.72731606  885.78444950
0.45700002 12925.51130781  976.78093582
0.45800002 12930.01739793  979.25491404
0.45900002 12935.83626628  1249.60184255
0.46000002 12943.53675855  1074.05473113
0.46100002 12950.96104063  1166.75213545
0.46200002 12960.52572175  1260.15197565
0.46300002 12970.79803044  993.04434428
0.46400002 12981.34269538  1086.53843510
0.46500002 12993.26646543  1180.69817967
0.46600002 13005.85662480  1184.37838967
0.46700002 13018.86056613  1188.10127158
0.46800002 13033.71089915  1191.99808678
0.46900002 13048.10560781  1103.86978674
0.47000002 13063.53906892  1476.70252634
0.47100002 13079.70944894  1203.85651474
0.47200002 13096.62112629  1207.96690684
0.47300002 13114.12854070  1491.86333350
0.47400002 13131.47973904  1122.74157090
0.47500002 13149.76691586  1032.78274252
0.47600002 13169.09896405  1319.14870575
0.47700002 13187.82107185  945.56681567
