# SAXS profile: number of points = 501, q_min = 0, q_max = 0.5, delta_q = 0.001
#    q    intensity    error
0.00000000 1664650.74656090 299.63713438
0.00100000 1664564.72482632 549.30637224
0.00200000 1664306.61802576 898.72560219
0.00300000 1663876.66106191 1297.82384186
0.00400000 1663274.70078890 1496.94728759
0.00500000 1662501.39666140 2394.00210595
0.00600000 1661556.60941862 2093.56141310
0.00700000 1660441.06248037 2191.78229357
0.00800000 1659154.53404038 2463.84458707
0.00900000 1657698.42968276 2983.85730098
0.01000000 1656072.16362125 4372.03070074
0.01100000 1654277.32101132 5955.39861493
0.01200000 1652313.66556829 3222.01178912
0.01300000 1650182.67447877 4158.46052309
0.01400000 1647884.45897573 6673.93235471
0.01500000 1645420.58475060 4343.91053717
0.01600000 1642790.66835689 4608.02803074
0.01700000 1639996.96189904 4427.99199576
0.01800000 1637039.93574390 4665.56402681
0.01900000 1633920.51907272 5391.93795624
0.02000000 1630639.48127944 6677.46897790
0.02100000 1627199.54698643 7517.66224792
0.02200000 1623599.33389567 6161.55975207
0.02300000 1619842.04069289 9330.29057909
0.02400000 1615928.14471092 7877.65006467
0.02500000 1611859.94861310 9429.38113003
0.02600000 1607638.11169602 7813.12158020
0.02700000 1603264.22315040 10773.93607303
0.02800000 1598739.00974692 8345.41801360
0.02900000 1594065.66227387 9325.28455247
0.03000000 1589244.75316157 8128.98728607
0.03100000 1584277.98493516 7604.53467760
0.03200000 1579166.62126910 10943.62518944
0.03300000 1573914.66607784 10435.05471716
0.03400000 1568520.60794422 13175.57371466
0.03500000 1562988.58008380 8440.13872220
0.03600000 1557319.17105779 10371.74615856
0.03700000 1551515.32954923 9728.00156617
0.03800000 1545578.75119863 9945.79972425
0.03900000 1539511.75152721 12008.19221801
0.04000000 1533314.44701438 12258.84957194
0.04100000 1526991.08820048 10582.04873188
0.04200000 1520542.87395161 12749.75258958
0.04300000 1513971.89116486 9992.21494551
0.04400000 1507280.57349029 10174.14434357
0.04500000 1500471.77149655 12423.90684527
0.04600000 1493545.66967751 13688.34669892
0.04700000 1486506.48523435 10702.84719145
0.04800000 1479355.55405904 10873.26382825
0.04900000 1472095.76914110 16561.07817371
0.05000000 1464728.91425840 12325.69438744
0.05100000 1457258.75980255 12503.28074156
0.05200000 1449684.38293029 13829.98965765
0.05300000 1442011.57955505 14016.35320669
0.05400000 1434240.78287552 14198.98441262
0.05500000 1426375.82671305 13179.71325365
0.05600000 1418417.70992089 16978.46078004
0.05700000 1410371.25048608 12270.23045199
0.05800000 1402235.71762720 17373.70135262
0.05900000 1394015.12613966 13800.75039336
0.06000000 1385713.13182778 21554.76877259
0.06100000 1377330.94384544 15371.01405162
0.06200000 1368871.53423817 12935.83660322
0.06300000 1360338.25095937 14365.17260178
0.06400000 1351730.07640305 14497.30574741
0.06500000 1343054.04661751 18614.72995687
0.06600000 1334310.68293566 17432.76988821
0.06700000 1325501.72577119 14872.13005915
0.06800000 1316630.98934522 20440.69706639
0.06900000 1307702.29308221 15103.96219225
0.07000000 1298715.00139659 20746.97311886
0.07100000 1289673.78442402 18107.02078141
0.07200000 1280580.15518108 15424.58869175
0.07300000 1271437.76585035 19758.14380709
0.07400000 1262249.54871463 18460.40051508
0.07500000 1253015.96231832 18569.69743197
0.07600000 1243740.27747127 22984.32140519
0.07700000 1234426.44816595 14442.79012074
0.07800000 1225075.54662402 21775.71886244
0.07900000 1215689.30869003 21882.40858279
0.08000000 1206273.25833775 16121.84285398
0.08100000 1196827.69688840 19137.27577113
0.08200000 1187354.72202284 14782.56698286
0.08300000 1177856.81158161 17809.19582694
0.08400000 1168337.91948616 17875.57100719
0.08500000 1158799.45125467 16443.36498524
0.08600000 1149243.79529048 17997.15867924
0.08700000 1139673.08897092 21061.15967317
0.08800000 1130089.35499761 21121.37103684
0.08900000 1120496.12764785 27228.05718074
0.09000000 1110895.21955309 18196.46455107
0.09100000 1101288.40144914 15197.78065401
0.09200000 1091677.74300395 21320.46732265
0.09300000 1082067.35445388 18308.58049772
0.09400000 1072456.00044943 21395.49821450
0.09500000 1062848.12766748 16835.51513357
0.09600000 1053245.37635160 19922.13723019
0.09700000 1043651.94527192 16875.85274843
0.09800000 1034067.17877919 15355.89832687
0.09900000 1024494.65231541 18440.90460881
0.10000000 1014934.46733528 16913.88369355
0.10100000 1005389.75261970 23073.69590782
0.10200000 995862.76472214 16924.68848253
0.10300000 986355.04513467 29235.56491305
0.10400000 976868.92273045 15385.68625683
0.10500000 967407.54869755 21534.49304719
0.10600001 957967.62444710 21525.53353418
0.10700001 948557.40894389 18439.95689761
0.10800001 939173.41614131 15355.48607657
0.10900001 929821.02522574 15342.04763831
0.11000001 920500.22365865 21456.86122345
0.11100001 911212.13423892 19900.87394858
0.11200001 901960.05005149 16817.04592491
0.11300001 892743.51925655 21372.28085723
0.11400001 883565.76853551 18289.81226985
0.11500001 874427.81176966 16736.54910536
0.11600001 865331.04013914 16705.21651656
0.11700001 856276.88094299 16671.71165711
0.11800001 847265.58078450 21173.16786103
0.11900001 838299.04753182 25651.95206272
0.12000001 829378.56316035 22579.83244566
0.12100001 820507.38405869 21021.40016986
0.12200001 811684.37839729 17970.69298434
0.12300001 802911.94152744 19414.41166083
0.12400001 794189.83539495 17869.27213834
0.12500001 785519.72024962 19300.22043597
0.12600001 776904.23309253 17760.03160541
0.12700001 768342.53148597 14752.17729975
0.12800001 759835.85323617 17643.38934366
0.12900001 751385.65386374 16117.22303502
0.13000001 742992.73797743 21899.71198412
0.13100001 734656.93344949 18910.07035837
0.13200001 726380.10336623 20287.79724339
0.13300001 718164.04114883 25983.17623369
0.13400001 710007.05853523 15815.40797450
0.13500001 701912.16264285 20046.61231024
0.13600001 693877.90822336 22814.70669811
0.13700001 685907.11016872 14198.27784999
0.13800001 677997.83898687 25445.26009707
0.13900001 670153.27755224 18295.18533994
0.14000001 662372.33674026 22414.68093238
0.14100001 654655.92649342 15338.58908115
0.14200001 647004.16421241 20817.35996539
0.14300001 639419.04113120 16573.74232786
0.14400001 631897.21855508 17866.89469742
0.14500001 624443.37479007 16410.37266360
0.14600001 617055.52715313 16327.29001870
0.14700001 609736.15944323 18950.60072952
0.14800001 602480.71193816 14811.98900181
0.14900001 595293.75685170 16072.93219333
0.15000001 588173.95550619 18650.99700911
0.15100001 581122.12711147 19874.37768498
0.15200001 574138.01051145 15811.76155560
0.15300001 567222.85157620 13102.84848972
0.15400001 560372.95847473 14331.53908931
0.15500001 553592.67475237 15544.88304066
0.15600001 546877.89739218 14166.87260055
0.15700001 540234.55114108 14083.91541296
0.15800001 533655.14185322 16545.97845411
0.15900001 527146.17740019 13916.65974024
0.16000001 520702.39461781 18862.44513538
0.16100001 514329.23197434 17497.48129772
0.16200001 508021.90264335 12421.13610598
0.16300001 501781.57705585 12343.82737830
0.16400001 495608.52591516 17172.83623368
0.16500001 489502.03403799 14626.32146758
0.16600001 483462.92949384 13321.82165117
0.16700001 477488.42207728 14439.25056536
0.16800001 471579.85969107 17931.82501143
0.16900001 465739.00676363 15439.24880323
0.17000001 459961.85609236 11798.02216587
0.17100001 454249.91247238 16407.50761329
0.17200001 448603.08433612 12805.37564708
0.17300001 443020.69295992 19656.82907491
0.17400001 437502.12828394 12632.87455080
0.17500001 432046.98658398 13687.24918140
0.17600001 426653.70281138 15858.71888249
0.17700001 421324.90619472 15749.12573740
0.17800001 416056.32379837 16756.66923243
0.17900001 410850.74329276 14420.86177072
0.18000001 405706.15913131 15420.89183699
0.18100001 400623.98587984 15311.84946361
0.18200001 395599.15771290 14116.95660984
0.18300001 390635.45649748 14016.00084124
0.18400001 385730.51590941 10704.02232215
0.18500001 380885.78373543 13814.72802872
0.18600001 376097.45962319 14769.34793716
0.18700001 371366.89493991 11519.80162529
0.18800001 366693.18241127 13514.47787627
0.18900001 362077.69288963 13414.97915538
0.19000001 357514.39343506 16388.46056940
0.19100001 353010.74786243 12200.05202258
0.19200001 348558.42501386 11099.84356905
0.19300001 344163.08081479 11016.66073745
0.19400001 339818.84199832 12921.61207758
0.19500001 335528.99327681 12823.91872904
0.19600001 331290.85137271 9789.64512069
0.19700001 327104.41122121 14572.50220857
0.19800001 322969.39824562 12532.82809121
0.19900001 318885.20409868 11479.86789009
0.20000001 314849.76203712 13289.80908368
0.20100001 310865.07443357 11303.05464061
0.20200001 306927.47281239 11215.13038663
0.20300001 303039.48684019 9273.00873560
0.20400001 299198.36020400 11040.42001336
0.20500001 295403.92872218 12779.17456055
0.20600001 291655.97253122 9961.51021266
0.20700001 287953.88996502 8984.16179158
0.20800001 284295.78371175 11586.47521287
0.20900001 280684.33355420 9725.71261740
0.21000001 277114.85532618 11401.89126139
0.21100001 273589.35687631 12180.19874393
0.21200001 270106.13240537 9492.88047216
0.21300001 266664.24183110 11127.89933769
0.21400001 263264.81651284 11886.40702750
0.21500001 259907.19141778 8420.99340006
0.21600001 256588.76872568 9187.16129858
0.21700001 253310.52408582 8283.25452924
0.21800001 250071.39852533 9857.81499595
0.21900001 246870.09995704 9776.05642053
0.22000001 243706.68730803 12118.31559938
0.22100001 240582.39288426 10414.81228041
0.22200001 237495.23041651 12710.74533291
0.22300001 234442.80533256 9452.73435799
0.22400001 231426.25302770 13278.08189534
0.22500001 228447.39636403 8518.80381325
0.22600001 225501.32009216 9981.81640590
0.22700001 222591.58205030 8373.89571273
0.22800001 219714.50453536 9811.35166401
0.22900001 216870.04235340 8230.21849653
0.23000001 214059.78902354 8900.60644852
0.23100001 211282.48065088 8087.89374181
0.23200001 208535.55798146 10203.64533460
0.23300001 205820.86287246 7224.31262849
0.23400001 203137.97953735 10024.85976430
0.23500001 200483.65288188 8516.54597722
0.23600001 197861.34751307 9144.16260781
0.23700001 195268.09890476 6971.07146062
0.23800001 192704.16632313 8290.13362733
0.23900001 190168.94878325 6846.08248001
0.24000001 187662.10488945 7462.38395390
0.24100001 185184.49968483 10083.29648479
0.24200001 182733.73824378 6660.64507405
0.24300001 180310.95569835 8579.19567795
0.24400001 177914.42205984 8499.86191598
0.24500001 175544.45146903 8420.86773531
0.24600001 173201.28525593 8983.95109121
0.24700001 170883.96130505 8899.63712577
0.24800001 168591.99931553 7556.29376679
0.24900001 166324.38124678 6237.16459182
0.25000001 164082.79055293 6177.71735657
0.25100001 161864.49305656 7954.02156510
0.25200001 159672.38868504 7271.48092473
0.25300001 157503.62735534 7801.15503199
0.25400001 155358.32373222 5942.45616390
0.25500001 153236.03279127 5884.26393758
0.25600001 151137.36112858 8156.88376603
0.25700001 149060.72166340 7499.24526170
0.25800001 147007.61685388 6853.49542199
0.25900001 144976.47835754 6219.49121581
0.26000001 142967.33454143 7276.32283577
0.26100001 140979.56304164 8310.74563454
0.26200001 139014.21945851 6032.52233884
0.26300001 137069.33953911 5970.74071284
0.26400001 135145.98270053 5372.05306654
0.26500001 133243.87927487 5848.07413810
0.26600001 131361.35518758 5787.12477663
0.26700001 129500.57022781 5726.51548645
0.26800001 127660.13877535 6181.30421201
0.26900001 125838.59427990 7135.04863331
0.27000001 124037.87682301 5042.13993146
0.27100001 122256.27877530 6983.27897411
0.27200001 120495.78494738 6908.02367794
0.27300001 118753.45571953 6344.99743937
0.27400001 117028.65927439 6275.66215058
0.27500001 115325.64361050 6684.27462000
0.27600001 113639.07147830 4721.70364338
0.27700001 111973.14773954 5136.20852989
0.27800001 110324.50362058 6002.20490355
0.27900001 108695.57970953 5021.73602025
0.28000001 107083.38332579 4513.56482080
0.28100001 105490.02124403 4462.22810982
0.28200001 103915.15145226 4852.31822672
0.28300001 102357.72303526 5668.57096999
0.28400001 100817.85194859 6033.94872471
0.28500001 99295.90543638  4259.79454484
0.28600001 97791.39945121  4630.91194020
0.28700001 96304.05706382  4576.36900828
0.28800001 94833.35850169  4522.12891420
0.28900001 93381.50289028  4874.51468160
0.29000001 91945.11938572  4414.74511627
0.29100001 90526.66825992  5551.09556046
0.29200001 89124.69568735  5092.13972913
0.29300001 87739.56621402  6190.90408511
0.29400001 86370.31984419  4204.07551742
0.29500001 85018.71418413  3774.83108846
0.29600001 83682.73681764  4473.67932204
0.29700001 82363.24308917  4049.80085440
0.29800001 81059.86006303  6180.40932308
0.29900001 79773.19747145  4307.75286738
0.30000001 78501.86277952  3544.35927228
0.30100001 77247.39024820  4549.09902707
0.30200001 76007.19241893  4145.43247078
0.30300001 74784.10580226  3751.17092463
0.30400001 73576.65668319  5049.19830392
0.30500001 72384.60543735  3986.94425624
0.30600001 71207.00570679  3606.99104484
0.30700001 70046.06081714  3559.74097926
0.30800001 68900.02789571  3193.51644416
0.30900001 67769.20123400  3466.39480723
0.31000001 66653.83592058  3109.40159291
0.31100001 65552.55450977  3681.43163557
0.31200001 64467.19808689  3632.08211218
0.31300001 63396.02626961  4478.92946801
0.31400001 62340.96410532  3240.17176279
0.31500001 61299.28299533  3196.14476670
0.31600002 60272.88691457  3152.57349933
0.31700002 59260.83643198  3109.41623481
0.31800002 58263.36436133  4181.85317504
0.31900002 57280.26582142  3299.34346753
0.32000002 56311.90264227  4067.12736091
0.32100002 55356.77368580  3208.47875475
0.32200002 54417.17569259  2900.16351586
0.32300002 53489.69847685  3379.47930979
0.32400002 52577.14851277  3332.07694478
0.32500002 51678.22536530  4043.30454404
0.32600002 50793.44771364  2989.70247399
0.32700002 49921.82341328  3192.99997671
0.32800002 49064.36195105  3147.72429002
0.32900002 48219.74907241  2625.56546132
0.33000002 47389.58588985  3294.05027119
0.33100002 46570.11823983  2319.19199817
0.33200002 45766.91613128  2514.66332591
0.33300002 44975.35037982  2478.59167681
0.33400002 44197.34270747  2887.19154909
0.33500002 43431.04788308  2845.60239206
0.33600002 42678.86848289  3020.38366557
0.33700002 41938.17495215  2338.89212784
0.33800002 41211.10216990  2933.81850241
0.33900002 40495.51788455  2891.38011389
0.34000002 39792.88235716  3256.64964634
0.34100002 39102.38197394  2607.73797734
0.34200002 38424.68163008  2965.42494524
0.34300002 37757.75776830  2532.79051105
0.34400002 37104.40078060  2304.18339760
0.34500002 36461.73389195  2270.83689434
0.34600002 35831.98988190  2051.56067785
0.34700002 35212.04159646  1838.06865839
0.34800002 34605.47331546  1992.75627525
0.34900002 34009.37380110  2678.23831368
0.35000002 33424.75166460  2463.73856189
0.35100002 32851.95044650  2428.41629202
0.35200002 32288.85824491  1880.66463755
0.35300002 31737.36115918  1853.77935311
0.35400002 31197.08030036  1993.49352561
0.35500002 30667.49646013  1637.64438854
0.35600002 30147.62697837  2098.72715150
0.35700002 29638.74376765  2705.72104670
0.35800002 29140.89986582  1883.08503852
0.35900002 28652.95329783  1701.98550651
0.36000002 28175.54810982  1830.84720290
0.36100002 27707.31815447  2106.31042587
0.36200002 27250.41377219  1632.16361020
0.36300002 26801.99348143  1609.72780474
0.36400002 26363.48954730  1876.42145741
0.36500002 25934.37031035  1993.31579647
0.36600002 25515.26400625  1966.46149011
0.36700002 25104.77653982  1662.94047677
0.36800002 24705.04080884  1777.65129561
0.36900002 24313.34265785  1484.32963957
0.37000002 23930.34685027  1464.89625183
0.37100002 23556.17532353  1840.20850344
0.37200002 23191.61992175  1816.59967452
0.37300002 22835.03239659  1409.14991595
0.37400002 22486.98272617  1644.36068975
0.37500002 22147.84448824  1748.79388363
0.37600002 21816.83141172  1480.49024973
0.37700002 21493.64642657  1218.68981012
0.37800002 21178.57303083  1324.40212722
0.37900002 20871.90112682  1784.54763088
0.38000002 20572.90220136  1410.88969981
0.38100002 20280.66307111  1859.33127844
0.38200002 19997.07905788  1378.59869556
0.38300002 19720.15333262  1135.88088577
0.38400002 19451.60550931  1684.99540707
0.38500002 19188.87655582  1111.03600522
0.38600002 18934.62778158  1538.81727271
0.38700002 18686.56808532  1522.58163972
0.38800002 18445.50955119  1937.33195994
0.38900002 18210.83980220  1278.40101468
0.39000002 17983.87473514  1265.70516382
0.39100002 17762.28884061  1044.42263331
0.39200002 17547.84174319  1034.44531977
0.39300002 17339.27227499  1332.17635200
0.39400002 17138.31956582  1218.53457886
0.39500002 16942.18122769  1408.91185765
0.39600002 16752.12854419  1396.62502290
0.39700002 16567.96968565  1384.75097193
0.39800002 16389.70926656  1079.01656069
0.39900002 16217.04561191  1264.92961766
0.40000002 16049.74357923  1351.54897084
0.40100002 15888.25039288  1437.09231612
0.40200002 15732.29717851  1046.11915045
0.40300002 15580.91734987  1321.88509059
0.40400002 15435.25392544  1406.53758060
0.40500002 15294.45854951  931.43256980
0.40600002 15158.78108060  1017.98799170
0.40700002 15027.71972365  1195.60543786
0.40800002 14901.75585848  1097.06731828
0.40900002 14780.03264712  1636.14969156
0.41000002 14663.29984474  1265.58946957
0.41100002 14550.84574211  899.24230947
0.41200002 14442.38867185  1073.64722474
0.41300002 14338.95410303  1068.53891039
0.41400002 14239.24545272  975.03237858
0.41500002 14143.78620187  970.82953090
0.41600002 14051.80726893  1230.51682085
0.41700002 13964.13552816  1050.66160692
0.41800002 13881.23369258  872.43557892
0.41900002 13800.04710335  869.40300871
0.42000002 13723.92111975  1126.66535771
0.42100002 13651.33912873  1036.95576935
0.42200002 13582.46671484  1034.16906467
0.42300002 13516.33281716  1031.56656949
0.42400002 13453.41378222  1372.24827081
0.42500002 13394.25304088  1112.66065283
0.42600002 13337.31953105  854.25535644
0.42700002 13284.78441978  1023.45984020
0.42800002 13234.15538255  1021.94152707
0.42900002 13187.72305757  935.66899527
0.43000002 13143.53704914  934.70268154
0.43100002 13101.19665589  1018.74910024
0.43200002 13062.69782170  933.26449010
0.43300002 13026.52944403  932.82981769
0.43400002 12993.00952617  1017.35269411
0.43500002 12961.71428557  847.69615445
0.43600002 12933.28999581  1017.33263928
0.43700002 12906.61252220  847.96448289
0.43800002 12882.21360092  1102.78194757
0.43900002 12860.70758505  1273.21011126
0.44000002 12840.86472421  1019.30789011
0.44100002 12823.46251328  1105.25428640
0.44200002 12807.93991845  936.19641271
0.44300002 12794.37509267  1107.73704802
0.44400002 12783.22103270  1194.59206212
0.44500002 12772.59997733  939.93567688
0.44600002 12764.12177869  855.83440582
0.44700002 12758.54997484  1714.74919788
0.44800002 12752.93960986  1116.58368046
0.44900002 12750.60044872  1463.13147083
0.45000002 12749.34082221  1121.24083175
0.45100002 12749.16983256  1037.27250674
0.45200002 12750.73107916  953.05343968
0.45300002 12753.40928632  1129.05937763
0.45400002 12757.75768458  1044.86040389
0.45500002 12763.44099592  960.32134605
0.45600002 12770.18800897  1225.55500130
0.45700002 12778.26631166  877.86693722
0.45800002 12786.99973104  1056.46196785
0.45900002 12797.15870357  1059.60479088
0.46000002 12809.03773934  974.31950182
0.46100002 12820.69959795  1066.16942910
0.46200002 12834.43233219  1069.62164126
0.46300002 12848.88138202  1251.99506120
0.46400002 12863.54356677  1166.40186820
0.46500002 12879.59328121  1080.34033563
0.46600002 12896.28319234  1084.06161653
0.46700002 12913.42679373  997.17486427
0.46800002 12932.26615633  1091.74196066
0.46900002 12950.68827339  1278.23299317
0.47000002 12970.12740608  1099.60745360
0.47100002 12990.28976141  1195.62632631
0.47200002 13011.14808910  1292.39740095
0.47300002 13032.60669826  1482.58940826
0.47400002 13053.86449343  1023.09667816
0.47500002 13076.01387172  1120.35292163
0.47600002 13099.22352412  1218.42433385
0.47700002 13121.73595749  940.82851275
