# SAXS profile: number of points = 501, q_min = 0, q_max = 0.5, delta_q = 0.001
#    q    intensity    error
0.00000000 1682732.95097188 302.89193117
0.00100000 1682646.54625019 555.27337345
0.00200000 1682387.28512690 832.78173251
0.00300000 1681955.40765046 1211.00793665
0.00400000 1681350.76615778 1765.41837155
0.00500000 1680574.00611527 1815.01999845
0.00600000 1679625.00255768 1939.96695693
0.00700000 1678504.47379872 2215.62599750
0.00800000 1677212.18878459 2717.08386055
0.00900000 1675749.59347909 3519.07429674
0.01000000 1674116.03854515 2762.29158287
0.01100000 1672313.14905192 3913.21293916
0.01200000 1670340.71371222 3582.88098800
0.01300000 1668200.13713728 3853.54248675
0.01400000 1665891.60466811 3748.25627667
0.01500000 1663416.66106434 3992.20016432
0.01600000 1660774.93816828 5505.46916614
0.01700000 1657968.60963215 6714.77317023
0.01800000 1654998.22542740 7546.79224754
0.01900000 1651864.72603008 6937.83216238
0.02000000 1648568.84743812 5712.29131477
0.02100000 1645113.35019743 5971.76173197
0.02200000 1641496.80990511 6229.48067661
0.02300000 1637722.41142370 7074.96113939
0.02400000 1633790.64665201 9190.07280646
0.02500000 1629703.96628043 6991.43033465
0.02600000 1625462.78112264 10532.99930344
0.02700000 1621068.91780403 6808.48976661
0.02800000 1616522.90227474 10547.81242106
0.02900000 1611828.03468510 10879.83973366
0.03000000 1606984.91899249 8966.97626015
0.03100000 1601995.20921909 8458.53509388
0.03200000 1596860.16062967 10275.79560694
0.03300000 1591583.87986378 8928.78597766
0.03400000 1586164.72468965 9160.10170773
0.03500000 1580606.86028080 11095.86067156
0.03600000 1574910.99682779 8740.75643634
0.03700000 1569079.93934444 9838.13167468
0.03800000 1563115.34789768 11887.49277091
0.03900000 1557019.81757295 14947.39094091
0.04000000 1550793.17914728 9537.37849371
0.04100000 1544439.75283627 13621.95925162
0.04200000 1537960.91503989 9919.84836222
0.04300000 1531358.54155787 12128.36021211
0.04400000 1524635.21758569 13378.67465565
0.04500000 1517793.60297159 13614.60925126
0.04600000 1510834.16287667 13846.79574646
0.04700000 1503760.82053686 12992.49409369
0.04800000 1496575.26885047 15399.76023299
0.04900000 1489280.10757155 13403.52159204
0.05000000 1481877.20599856 12469.99726916
0.05100000 1474370.29072406 12650.09768371
0.05200000 1466758.63453884 12826.80485679
0.05300000 1459047.75126856 17727.43100433
0.05400000 1451238.42247620 11972.71754376
0.05500000 1443334.26771104 13336.40925578
0.05600000 1435336.30291753 15953.76375140
0.05700000 1427249.41644230 17383.89870372
0.05800000 1419072.73293869 15070.55312749
0.05900000 1410810.41424174 21585.40034606
0.06000000 1402466.10791966 14115.82203569
0.06100000 1394041.01707921 14261.04027116
0.06200000 1385538.06799359 14402.66889002
0.06300000 1376960.74225198 13218.82374367
0.06400000 1368307.90687989 16009.20325919
0.06500000 1359586.55683155 17497.87980493
0.06600000 1350797.35403847 13575.51404326
0.06700000 1341941.95816703 15056.58947527
0.06800000 1333024.41559535 15176.48368195
0.06900000 1324048.25420366 15292.75805204
0.07000000 1315012.81126695 14004.88709582
0.07100000 1305922.74199841 18335.15615644
0.07200000 1296780.01808635 14199.74186326
0.07300000 1287588.06503214 21438.34228729
0.07400000 1278349.66015879 18695.86465599
0.07500000 1269065.38030855 21701.01902046
0.07600000 1259738.41092409 16004.97726111
0.07700000 1250372.79208377 17555.23482399
0.07800000 1240969.51082993 17646.58727156
0.07900000 1231530.65434230 20689.71596338
0.08000000 1222061.24045789 14848.04476810
0.08100000 1212562.04022126 20880.31931228
0.08200000 1203034.81811212 14977.78418833
0.08300000 1193482.24334844 18045.45236634
0.08400000 1183908.10297283 15094.82902143
0.08500000 1174313.92925830 16663.51543845
0.08600000 1164702.29894151 30398.73142964
0.08700000 1155075.03374269 28969.28320660
0.08800000 1145434.44534973 19879.01573264
0.08900000 1135783.70575727 18399.69689750
0.09000000 1126125.06819393 18445.92948352
0.09100000 1116460.00909421 30814.29769869
0.09200000 1106790.72720299 16983.70450694
0.09300000 1097121.30242875 17016.35220031
0.09400000 1087450.41190281 17045.78600769
0.09500000 1077782.72623207 20176.09358339
0.09600000 1068119.65278844 17095.25584649
0.09700000 1058465.64310178 24895.11309614
0.09800000 1048819.75541201 17132.47151018
0.09900000 1039186.09574917 23381.68825382
0.10000000 1029563.93222050 20277.26259867
0.10100000 1019957.15737506 17165.87976596
0.10200000 1010368.00069044 17171.20497940
0.10300000 1000797.24929655 15612.43782345
0.10400000 991248.12309345 20295.80627516
0.10500000 981723.32939375 21853.16234048
0.10600001 972219.64267276 20285.36379887
0.10700001 962745.31131524 20275.41721041
0.10800001 953297.11248253 23379.61278392
0.10900001 943879.95290534 20246.22594272
0.11000001 934494.25335252 23338.99507604
0.11100001 925141.00889218 20205.08058533
0.11200001 915823.29686554 18627.84673519
0.11300001 906540.99060337 17052.03683607
0.11400001 897296.99599553 20121.88608263
0.11500001 888093.02016811 15452.81927857
0.11600001 878929.50610687 18510.25627029
0.11700001 869808.53642287 24632.97891158
0.11800001 860730.11272630 18436.83988294
0.11900001 851696.37078944 16863.58893593
0.12000001 842708.44795628 24472.25448141
0.12100001 833769.59807813 19835.37967269
0.12200001 824878.55639835 19784.71310730
0.12300001 816038.10616102 16696.14043868
0.12400001 807247.72941766 15135.89563975
0.12500001 798508.92415823 19619.36519104
0.12600001 789824.75066408 18055.39465101
0.12700001 781194.15841886 14998.92854849
0.12800001 772618.43428520 16445.18414881
0.12900001 764098.98141231 19369.91009175
0.13000001 755636.75780646 19302.74188800
0.13100001 747231.42976948 22192.77451027
0.13200001 738884.89329102 23585.20690566
0.13300001 730599.11981536 14685.04300059
0.13400001 722372.22223785 17553.64582796
0.13500001 714207.28699819 17483.79521005
0.13600001 706102.85795910 18863.53873981
0.13700001 698061.69189159 17339.85324422
0.13800001 690081.91919760 14388.20869376
0.13900001 682166.99304215 15758.05828239
0.14000001 674315.71423585 15687.95583155
0.14100001 666528.57512059 17036.47118357
0.14200001 658806.10162105 15544.53070091
0.14300001 651150.13690888 15471.32798270
0.14400001 643557.54982010 13997.37736884
0.14500001 636032.78283805 15322.03046134
0.14600001 628573.83726744 18018.06989526
0.14700001 621183.46259032 13790.27352008
0.14800001 613857.09583221 13719.70673913
0.14900001 606599.07865523 15013.32790506
0.15000001 599408.08844303 19007.23138134
0.15100001 592285.08045743 14854.51051878
0.15200001 585229.83162603 14774.12779655
0.15300001 578243.61474586 13357.42813095
0.15400001 571322.48598672 19924.87263906
0.15500001 564471.07326998 13208.62373787
0.15600001 557685.21409707 17073.53363537
0.15700001 550970.70004042 15669.60744871
0.15800001 544320.22396618 20771.26072693
0.15900001 537740.07638901 14196.33868675
0.16000001 531225.23001359 16677.81688351
0.16100001 524781.01203392 21678.70463045
0.16200001 518402.79389597 21547.41314545
0.16300001 512091.59816677 17636.43547344
0.16400001 505847.73508627 16275.65164477
0.16500001 499670.26833095 14930.14832260
0.16600001 493560.46770167 13600.05932962
0.16700001 487515.42923449 14742.46727611
0.16800001 481536.28473266 18310.41809151
0.16900001 475624.85845383 16979.80824856
0.17000001 469777.40472275 13254.77010014
0.17100001 463995.07169529 15562.39543954
0.17200001 458277.94880024 16649.23866614
0.17300001 452625.47318330 11813.52540797
0.17400001 447036.95438306 12908.19266741
0.17500001 441511.85675442 13987.09628256
0.17600001 436048.68548691 15050.22109039
0.17700001 430650.24770116 17247.54323504
0.17800001 425312.28283742 12561.59886691
0.17900001 420037.20014243 13609.20592743
0.18000001 414823.27775712 12388.69777540
0.18100001 409671.88703557 15657.66026211
0.18200001 404578.19681880 17769.07524366
0.18300001 399545.67952489 12130.20740340
0.18400001 394572.01360121 13139.24867363
0.18500001 389658.91389018 18481.52315892
0.18600001 384802.19062503 11873.07215266
0.18700001 380003.39122186 11787.70575261
0.18800001 375261.63679598 11702.53469638
0.18900001 370578.46644366 11617.63547191
0.19000001 365947.27839354 15726.58503202
0.19100001 361376.24815184 11448.40008239
0.19200001 356856.70772234 10331.00217672
0.19300001 352394.17215707 12305.60507320
0.19400001 347983.17590915 10178.50837632
0.19500001 343626.42223924 12123.14074948
0.19600001 339321.94463462 11029.66033157
0.19700001 335069.12947771 13932.17506208
0.19800001 330868.19155052 12839.34077989
0.19900001 326718.07101574 12742.00537180
0.20000001 322617.01322612 11672.28409017
0.20100001 318566.86066405 13513.60686805
0.20200001 314564.18314192 11494.17579526
0.20300001 310611.22565071 11405.64474498
0.20400001 306705.37762568 16033.02437320
0.20500001 302846.48986105 13101.13977064
0.20600001 299034.29884903 12999.02158540
0.20700001 295268.26313925 12897.31834357
0.20800001 291546.20185959 12795.96340448
0.20900001 287871.49066887 10881.54286167
0.21000001 284238.63425804 14393.84511926
0.21100001 280650.15672907 10709.61048706
0.21200001 277104.19948674 10624.17551057
0.21300001 273599.76436771 10539.06342168
0.21400001 270138.16386010 8711.95619636
0.21500001 266718.61560400 12962.52533119
0.21600001 263338.46154039 12000.33425975
0.21700001 259998.79597849 14453.33375179
0.21800001 256698.59407504 10962.31397828
0.21900001 253436.47391838 10872.42524516
0.22000001 250212.44648206 13271.26878891
0.22100001 247027.83298843 9871.23267296
0.22200001 243880.59508506 13052.49006613
0.22300001 240768.57154292 10516.77170228
0.22400001 237692.46123820 11230.96932458
0.22500001 234654.49885002 9545.74546461
0.22600001 231649.49823930 9465.19894565
0.22700001 228681.32888013 11731.35272632
0.22800001 225745.87933653 7754.37132191
0.22900001 222843.48387573 12300.96089166
0.23000001 219975.66045347 8384.37269470
0.23100001 217141.03762084 9823.46100655
0.23200001 214337.00758170 8989.29452311
0.23300001 211565.57424635 10396.33281015
0.23400001 208826.19649372 9569.46090692
0.23500001 206115.66326436 12404.04120191
0.23600001 203437.60910556 8678.64881492
0.23700001 200788.76361809 7168.15920020
0.23800001 198169.62493697 9235.69580702
0.23900001 195579.48087158 7744.94780885
0.24000001 193018.08474526 7675.36450294
0.24100001 190486.23532595 8297.58080328
0.24200001 187981.63389135 6851.93087945
0.24300001 185505.02034052 8826.32928531
0.24400001 183055.24619965 8072.73673927
0.24500001 180632.33693908 9331.46696769
0.24600001 178236.37506617 9245.12121202
0.24700001 175866.65394620 7196.46381991
0.24800001 173522.80216158 7129.18466407
0.24900001 171203.61686332 7704.16312331
0.25000001 168910.62529117 6995.43387738
0.25100001 166641.26572470 7558.84817087
0.25200001 164398.44449553 9358.38189565
0.25300001 162179.33322652 8032.74275474
0.25400001 159983.91011278 6731.32333646
0.25500001 157811.78609119 7271.96744713
0.25600001 155663.74902306 6000.83780875
0.25700001 153538.22175630 6536.12240941
0.25800001 151436.30334086 9413.28106105
0.25900001 149356.74678857 8154.87876050
0.26000001 147299.61319513 9226.84820712
0.26100001 145264.03281384 6279.76443568
0.26200001 143251.31729952 7346.64415533
0.26300001 141259.26595300 5593.86719643
0.26400001 139289.21995656 6090.42143079
0.26500001 137340.66442907 6027.88204702
0.26600001 135412.13779311 5965.58201276
0.26700001 133505.51840714 6440.30651272
0.26800001 131619.70738897 6904.11207780
0.26900001 129753.07344596 6305.99966788
0.27000001 127907.60159513 6239.33310107
0.27100001 126081.69430460 6172.96004528
0.27200001 124277.04534215 5089.14524760
0.27300001 122491.07507962 6544.69845123
0.27400001 120722.82888545 6473.76200535
0.27500001 118976.72556503 7388.45500725
0.27600001 117247.36326153 4871.62817407
0.27700001 115539.07706090 5781.57568975
0.27800001 113848.38145941 5241.01048853
0.27900001 112177.64310958 5653.75348030
0.28000001 110523.98117332 5590.30323233
0.28100001 108889.55325019 5066.63115253
0.28200001 107273.97830910 6375.29283265
0.28300001 105676.04773213 6302.51978504
0.28400001 104096.12407261 5785.14236915
0.28500001 102534.37935423 7037.96013199
0.28600001 100990.42946526 6086.69347197
0.28700001 99463.93030938  5156.21039129
0.28800001 97954.41085513  4246.32391156
0.28900001 96464.14978962  4196.19071447
0.29000001 94989.57012656  4560.92442551
0.29100001 93533.34935692  5325.78916448
0.29200001 92093.82059216  5666.53304926
0.29300001 90671.57150537  5997.92473900
0.29400001 89265.52235148  4344.99950613
0.29500001 87877.37871165  5462.45811929
0.29600001 86505.13079262  4624.56451109
0.29700001 85149.81163039  4567.43611207
0.29800001 83810.71089996  4510.69267417
0.29900001 82488.95933213  3712.00334567
0.30000001 81182.54587048  4765.00975544
0.30100001 79893.53137966  3619.17714283
0.30200001 78619.01996469  5717.17540249
0.30300001 77361.99126327  4938.78975606
0.30400001 76120.76793491  3830.77782768
0.30500001 74895.23409851  4125.22968944
0.30600001 73684.63174099  3732.49519755
0.30700001 72490.96764563  4018.89943654
0.30800001 71312.52618326  4296.93646861
0.30900001 70149.55196111  4892.93148094
0.31000001 69002.38702075  3540.85765761
0.31100001 67869.65484515  4129.18999628
0.31200001 66752.94591597  5014.48153462
0.31300001 65650.90975692  3092.15799595
0.31400001 64565.26594655  3050.70896042
0.31500001 63493.19569244  3009.57761832
0.31600002 62436.76640227  3562.64205960
0.31700002 61394.94609802  2928.53906754
0.31800002 60368.06293068  3466.33433761
0.31900002 59355.94445672  3988.71965635
0.32000002 58358.66030714  3371.96355221
0.32100002 57374.96503292  3879.69531923
0.32200002 56407.17441945  3006.22050303
0.32300002 55451.63807308  4042.42460694
0.32400002 54511.38455845  2923.17313536
0.32500002 53585.10260932  3406.40513417
0.32600002 52673.22359022  3100.34608733
0.32700002 51774.70122737  3566.24158941
0.32800002 50890.70800648  2762.60221495
0.32900002 50019.79546282  2475.97999266
0.33000002 49163.61304121  2685.07085339
0.33100002 48318.49140742  3368.76538045
0.33200002 47489.77079202  2846.53699607
0.33300002 46673.04670635  2805.98370086
0.33400002 45870.12410234  2304.97384530
0.33500002 45079.23422021  2499.19286352
0.33600002 44302.62683744  2911.34726049
0.33700002 43537.83856219  2428.10537160
0.33800002 42787.07011213  3046.01166553
0.33900002 42047.88471660  2144.44222210
0.34000002 41321.98304256  2113.61953272
0.34100002 40608.42941832  2083.21252782
0.34200002 39907.93817798  2053.26351650
0.34300002 39218.45397252  3237.87571331
0.34400002 38542.93116077  2194.05646024
0.34500002 37878.23435440  2359.05654732
0.34600002 37226.64846982  2712.70600247
0.34700002 36585.26644156  2673.65139818
0.34800002 35957.37007584  3200.02630146
0.34900002 35340.22467845  2968.57901359
0.35000002 34734.94353586  2377.43332291
0.35100002 34141.53168216  2704.00943730
0.35200002 33558.26975174  1776.91046751
0.35300002 32986.70515559  2101.91295207
0.35400002 32426.53016722  2244.72665714
0.35500002 31877.46076554  2212.93343116
0.35600002 31338.28176562  1678.16506803
0.35700002 30810.33751086  1819.96672297
0.35800002 30293.55885709  1631.30822172
0.35900002 29787.05453601  1930.20122536
0.36000002 29291.26016138  1586.12181287
0.36100002 28804.83373295  2033.33330952
0.36200002 28329.95633183  1542.56619533
0.36300002 27863.90570832  1521.36932374
0.36400002 27407.89521519  2100.81526775
0.36500002 26961.47753403  1924.24074275
0.36600002 26525.29624265  1606.23939006
0.36700002 26098.05814899  1440.61287806
0.36800002 25681.62566668  1847.92146238
0.36900002 25273.63467058  1823.49282786
0.37000002 24874.37628305  1522.68501630
0.37100002 24484.21013143  1912.70658607
0.37200002 24103.83068921  1753.19220823
0.37300002 23731.70751059  1597.61862529
0.37400002 23368.31422455  1708.80805862
0.37500002 23013.98127332  1297.98860530
0.37600002 22668.05366796  1281.87849565
0.37700002 22330.09569614  1392.72813454
0.37800002 22000.47099321  1751.01756930
0.37900002 21679.50012227  1482.87787861
0.38000002 21366.32141631  1465.30239215
0.38100002 21060.13022939  1448.09462317
0.38200002 20762.70832637  1669.94470980
0.38300002 20472.19131937  1415.03793103
0.38400002 20190.24015293  1282.58506648
0.38500002 19914.33031134  1268.34375762
0.38600002 19647.14675489  1710.77538473
0.38700002 19386.09334707  1241.09775488
0.38800002 19132.45985210  1228.01699378
0.38900002 18885.22336306  1436.22130480
0.39000002 18646.03453486  1202.94897501
0.39100002 18412.31133921  1190.90835384
0.39200002 18185.89345270  1393.67601078
0.39300002 17965.51974559  1061.76226727
0.39400002 17752.97033215  1051.86354201
0.39500002 17545.36864726  1250.63393643
0.39600002 17344.06573492  1549.25874517
0.39700002 17148.82013415  1228.54153262
0.39800002 16959.66796103  1218.04341067
0.39900002 16776.11312336  1006.56683509
0.40000002 16598.22776914  1297.89848190
0.40100002 16426.30652075  1287.65822917
0.40200002 16260.04301747  1179.50357637
0.40300002 16098.51503278  1268.24107437
0.40400002 15942.82070660  1065.37904420
0.40500002 15792.27234670  1250.27426093
0.40600002 15646.80103390  955.23724838
0.40700002 15506.32909167  1043.88612391
0.40800002 15370.85836229  1320.20308729
0.40900002 15239.95798279  937.25746035
0.41000002 15114.20164936  1024.96963342
0.41100002 14992.72582839  1389.82575014
0.41200002 14875.47223706  1382.30332313
0.41300002 14763.44488268  1008.49096772
0.41400002 14655.17626342  1003.51324219
0.41500002 14551.36659838  1271.20744627
0.41600002 14451.06317866  994.30544912
0.41700002 14355.31861279  990.08637164
0.41800002 14264.35208884  986.16602839
0.41900002 14175.35956850  1428.87631221
0.42000002 14091.55215848  1067.85787317
0.42100002 14011.36786502  1064.30355346
0.42200002 13934.95350749  972.59012614
0.42300002 13861.46457900  1410.54270240
0.42400002 13791.35698376  1142.95876419
0.42500002 13725.02407404  877.02907989
0.42600002 13661.12341492  962.49449581
0.42700002 13601.69884946  960.55201827
0.42800002 13544.46532462  1045.90366193
0.42900002 13491.34893025  957.21125196
0.43000002 13440.61127066  1129.61622777
0.43100002 13391.94610167  1214.91740792
0.43200002 13347.13926549  953.58641001
0.43300002 13304.75811783  1125.98173287
0.43400002 13265.18158727  952.10845354
0.43500002 13227.94713301  1038.12934019
0.43600002 13193.73116878  1124.30385483
0.43700002 13161.28356356  951.16600821
0.43800002 13131.17776724  864.68809695
0.43900002 13104.14666433  864.87372083
0.44000002 13078.86732002  865.16711422
0.44100002 13056.10979521  1038.74414453
0.44200002 13035.34526819  1126.05835436
0.44300002 13016.60169446  953.59628533
0.44400002 13000.37517353  954.55259235
0.44500002 12984.74843323  1129.28362476
0.44600002 12971.38990157  1304.59760118
0.44700002 12961.06723524  1306.47563923
0.44800002 12950.79697848  872.23621784
0.44900002 12943.89341846  961.08413187
0.45000002 12938.06726586  962.78632122
0.45100002 12933.48169048  964.57911019
0.45200002 12930.76217060  1054.37439736
0.45300002 12929.11686440  880.47290019
0.45400002 12929.29283168  1323.63641637
0.45500002 12930.89940021  1149.81562916
0.45600002 12933.66723067  1329.90439602
0.45700002 12937.82261896  977.71130165
0.45800002 12942.73711987  980.21824223
0.45900002 12949.01741111  1072.17869245
0.46000002 12957.16946488  1075.18597315
0.46100002 12965.19728856  1078.18585762
0.46200002 12975.37691206  991.25396618
0.46300002 12986.32784100  994.23330663
0.46400002 12997.60261758  997.24110810
0.46500002 13010.31223444  1091.30504195
0.46600002 13023.69156229  1094.77156461
0.46700002 13037.53735136  1372.85274817
0.46800002 13053.25036268  1285.61468915
0.46900002 13068.61567786  1013.47119385
0.47000002 13085.08377486  1201.79957626
0.47100002 13102.19028987  1298.68916309
0.47200002 13120.20835184  930.87882668
0.47300002 13138.85633132  934.17272943
0.47400002 13157.32092074  937.45916004
0.47500002 13176.75536756  1411.23056676
0.47600002 13197.29058040  1038.69280436
0.47700002 13217.23569301  947.67584411
