# SAXS profile: number of points = 501, q_min = 0, q_max = 0.5, delta_q = 0.001
#    q    intensity    error
0.00000000 1646666.22097350 271.69992646
0.00100000 1646580.63918323 740.96130523
0.00200000 1646323.84609853 740.84575420
0.00300000 1645896.08756273 1185.04522526
0.00400000 1645297.18707539 1480.76752463
0.00500000 1644527.83928493 2220.11267091
0.00600000 1643587.85662196 1898.34405168
0.00700000 1642478.00966939 2365.16843222
0.00800000 1641198.05350371 3101.86445208
0.00900000 1639749.36089374 2459.62414648
0.01000000 1638131.41614810 2973.20864869
0.01100000 1636345.78016350 3239.96478579
0.01200000 1634392.15664031 4461.89078325
0.01300000 1632272.07345314 3770.54865598
0.01400000 1629985.65867420 3667.46789460
0.01500000 1627534.43221960 4296.69109239
0.01600000 1624918.01890077 5800.95758680
0.01700000 1622138.68025806 4817.75209648
0.01800000 1619196.90494403 5999.12480276
0.01900000 1616093.49726088 6302.76492371
0.02000000 1612829.42248300 5080.41291064
0.02100000 1609407.23310196 5842.14852103
0.02200000 1605825.69174897 6094.10877706
0.02300000 1602087.84279145 6344.26814624
0.02400000 1598194.27971768 8390.52035110
0.02500000 1594147.18918823 6217.17432178
0.02600000 1589947.40171961 7083.21599863
0.02700000 1585596.26912037 10655.20741651
0.02800000 1581094.69190014 9628.86711525
0.02900000 1576445.79805299 7094.00641695
0.03000000 1571650.11891068 8038.99072774
0.03100000 1566709.52252386 9024.24726497
0.03200000 1561625.02101150 10822.06189405
0.03300000 1556400.71447575 11112.70161366
0.03400000 1551035.19653669 9771.52218904
0.03500000 1545532.49157718 10015.05100790
0.03600000 1539893.13747498 10255.68876954
0.03700000 1534120.20519395 11367.83124622
0.03800000 1528215.34887758 9834.06622514
0.03900000 1522180.70208962 10046.39309904
0.04000000 1516016.67569029 11188.20358504
0.04100000 1509727.29454177 12364.66711560
0.04200000 1503313.86774471 15514.19983487
0.04300000 1496778.37897903 18769.60174364
0.04400000 1490123.20446387 10058.33209726
0.04500000 1483351.43484083 11258.63791357
0.04600000 1476463.10114865 14572.69148578
0.04700000 1469462.43185218 12696.15600167
0.04800000 1462350.67384204 11823.10574812
0.04900000 1455130.81581823 14187.52611462
0.05000000 1447804.60380429 12183.27630834
0.05100000 1440375.86522129 13481.91872651
0.05200000 1432843.49063873 13669.32753770
0.05300000 1425213.48032588 13853.07567457
0.05400000 1417486.03780981 15202.53846446
0.05500000 1409665.34888124 17761.78422448
0.05600000 1401751.83851327 15580.47241212
0.05700000 1393750.90768898 13338.19680919
0.05800000 1385661.53576081 17168.34722971
0.05900000 1377487.76246493 16116.60757358
0.06000000 1369233.16896152 13781.33248945
0.06100000 1360899.08093592 16453.27065740
0.06200000 1352488.31229444 16615.31969320
0.06300000 1344004.26440934 15482.92984990
0.06400000 1335446.08725571 16926.77994758
0.06500000 1326820.67009623 19703.28787261
0.06600000 1318128.53916114 14571.91168222
0.06700000 1309371.32541190 24040.05865961
0.06800000 1300552.80980895 14806.79443277
0.06900000 1291677.05973643 20343.91464333
0.07000000 1282743.35233708 15027.33907634
0.07100000 1273756.30806623 13756.56877144
0.07200000 1264717.29810799 18003.25158196
0.07300000 1255630.07113974 15331.24388697
0.07400000 1246497.56988461 21034.64747757
0.07500000 1237320.26080633 18337.08712465
0.07600000 1228101.29542250 17021.48475253
0.07700000 1218844.71302686 14260.48381107
0.07800000 1209551.74336810 14333.18883108
0.07900000 1200223.60479198 20163.75750626
0.08000000 1190866.43117168 18809.73616274
0.08100000 1181480.09463244 18891.86759955
0.08200000 1172066.90004410 18969.90366738
0.08300000 1162629.14455848 20508.77907253
0.08400000 1153171.00479569 19113.81030167
0.08500000 1143693.66567399 19179.74367375
0.08600000 1134199.47726623 16281.43426059
0.08700000 1124690.81455565 16330.51139419
0.08800000 1115169.45157618 20842.51802880
0.08900000 1105639.08311921 14926.12832319
0.09000000 1096101.41485475 14961.78501560
0.09100000 1086558.01298512 17993.40154038
0.09200000 1077011.35606025 16526.74003528
0.09300000 1067465.43285879 19566.64230378
0.09400000 1057918.80796563 16582.87809421
0.09500000 1048375.98858934 16606.27643979
0.09600000 1038838.74104272 21161.14614978
0.09700000 1029311.07871559 15130.87356846
0.09800000 1019792.51588405 18172.70348749
0.09900000 1010286.38599220 16669.72615272
0.10000000 1000793.08068744 19710.62065107
0.10100000 991315.39023259 21233.97665745
0.10200000 981855.69034830 18203.60535529
0.10300000 972415.70340129 16686.65425532
0.10400000 962997.50512157 16683.93256113
0.10500000 953604.39684248 15162.31062317
0.10600001 944232.93564948 18185.92719632
0.10700001 934891.40610876 19688.81393916
0.10800001 925576.26012396 19673.12433479
0.10900001 916293.07459210 18142.60373082
0.11000001 907041.77449989 18122.69550753
0.11100001 897823.15574196 15083.42972649
0.11200001 888641.12421296 16568.71454096
0.11300001 879494.60336843 18047.23011080
0.11400001 870387.11198932 16515.59622762
0.11500001 861319.42477989 17984.35043625
0.11600001 852293.40083280 23932.39982240
0.11700001 843309.86064040 17911.90228356
0.11800001 834369.61779224 16382.84821696
0.11900001 825474.05798178 32688.77423577
0.12000001 816624.76881701 22232.61037831
0.12100001 807824.87111155 17739.83500530
0.12200001 799073.42311054 16217.19588604
0.12300001 790372.34025843 23521.48195429
0.12400001 781721.98060918 20520.20295785
0.12500001 773123.61395432 17534.44439072
0.12600001 764580.07264385 26217.45192641
0.12700001 756090.12367818 21775.39658813
0.12800001 747655.57032411 15913.84956436
0.12900001 739277.36823655 27390.22778412
0.13000001 730956.54053920 21544.94504791
0.13100001 722692.93511186 17171.18494767
0.13200001 714488.33001222 15679.44714125
0.13300001 706344.41743133 18456.78049759
0.13400001 698259.61623972 15553.73368503
0.13500001 690236.95088368 14080.83446191
0.13600001 682275.02491695 16824.90290776
0.13700001 674376.53284363 15355.55437691
0.13800001 666539.55435833 18066.55547282
0.13900001 658767.09171898 16600.93149419
0.14000001 651058.34751397 22031.81551891
0.14100001 643414.21830028 15075.19584577
0.14200001 635834.38980543 17730.24279598
0.14300001 628321.49904104 13571.74501943
0.14400001 620871.45754825 17555.14129025
0.14500001 613489.71442530 14778.96791766
0.14600001 606173.78310890 14702.74580290
0.14700001 598926.35558280 15955.39886545
0.14800001 591742.45597879 17193.07786961
0.14900001 584627.16255856 15784.93413383
0.15000001 577579.04063199 13082.16588757
0.15100001 570598.50226375 14310.61111202
0.15200001 563685.85681735 16817.56833172
0.15300001 556841.85019560 19294.57101977
0.15400001 550063.15168214 24299.04087225
0.15500001 543353.73543511 19071.71701382
0.15600001 536709.80658246 13903.46819569
0.15700001 530137.15345905 15077.10135597
0.15800001 523628.37448556 17483.95224929
0.15900001 517189.64537005 17377.57290467
0.16000001 510816.18495960 13569.83259398
0.16100001 504513.15177172 12259.67016676
0.16200001 498275.64857254 17055.97625578
0.16300001 492105.09868202 13316.36459897
0.16400001 486001.49635189 16839.95264360
0.16500001 479964.45987612 15536.45029969
0.16600001 473994.48248997 14248.27481635
0.16700001 468088.85806098 15334.59171410
0.16800001 462248.94321729 14061.61351661
0.16900001 456476.61195621 13968.18498541
0.17000001 450767.74060646 18499.50894803
0.17100001 445123.96581581 16077.87840449
0.17200001 439545.00010503 18249.90926617
0.17300001 434030.34228473 14726.65020918
0.17400001 428579.07367067 15750.28170122
0.17500001 423191.15133381 11172.24692285
0.17600001 417864.81709743 15532.03598508
0.17700001 412602.73593992 11016.49356991
0.17800001 407400.53119216 13126.44573500
0.17900001 402261.10443522 11947.15536603
0.18000001 397182.50573244 15096.90775599
0.18100001 392166.01625205 12847.35929928
0.18200001 387206.58728117 17006.11411672
0.18300001 382307.95937889 15827.55026597
0.18400001 377467.94712374 17807.05124678
0.18500001 372687.70538243 16636.77995423
0.18600001 367963.61302030 13417.79378269
0.18700001 363297.05804553 14342.96852927
0.18800001 358687.18343010 16270.05140909
0.18900001 354134.95627835 11102.13140387
0.19000001 349634.92522794 15025.56162161
0.19100001 345194.09814513 11929.90859558
0.19200001 340804.32732307 12826.17146486
0.19300001 336471.31675990 13707.84209253
0.19400001 332188.91356542 11659.83141712
0.19500001 327960.70178458 10606.24959691
0.19600001 323783.87771068 13394.93965389
0.19700001 319658.42861273 12342.01251199
0.19800001 315584.16355069 10362.20649989
0.19900001 311560.27012518 14020.21281823
0.20000001 307584.87883892 13910.52680292
0.20100001 303659.92379070 11041.07535086
0.20200001 299781.74899507 15518.20297017
0.20300001 295952.91348176 9056.15958058
0.20400001 292170.45899406 8984.24203871
0.20500001 288434.51543367 13368.94042226
0.20600001 284744.65687439 9725.45421525
0.20700001 281100.32273429 9647.36353226
0.20800001 277499.84506112 11309.50672007
0.20900001 273945.30174844 10355.13289559
0.21000001 270432.65248499 9415.11324134
0.21100001 266963.65328920 9338.38903351
0.21200001 263536.52637993 15155.98634860
0.21300001 260150.40315744 12526.24250422
0.21400001 256806.48371449 9938.41138960
0.21500001 253503.90869528 9034.87973305
0.21600001 250240.34036121 12217.98519579
0.21700001 247016.52638277 17770.36974815
0.21800001 243831.53700089 9611.83964303
0.21900001 240683.84574184 10325.33747052
0.22000001 237573.99717413 8663.13621657
0.22100001 234502.73136002 9370.72958823
0.22200001 231468.29668474 11613.92233531
0.22300001 228468.21170119 9211.83873138
0.22400001 225503.84072375 9893.98147960
0.22500001 222576.63659395 9054.41800480
0.22600001 219681.96090255 12716.29090817
0.22700001 216823.20423189 8156.88932894
0.22800001 213996.95405184 8085.87529123
0.22900001 211202.80055380 9472.44605280
0.23000001 208442.60474905 7944.79025573
0.23100001 205714.96206422 10738.32152760
0.23200001 203017.37083466 8514.54893549
0.23300001 200351.69163847 9845.28259274
0.23400001 197717.56662528 8363.45346380
0.23500001 195111.58695121 6906.95050475
0.23600001 192537.25203956 8213.63956049
0.23700001 189991.77806513 8139.24815728
0.23800001 187475.19802867 9409.38063411
0.23900001 184986.96494088 7325.48415815
0.24000001 182526.90745426 6598.34801658
0.24100001 180095.70870969 7844.96944247
0.24200001 177690.96445237 10362.93753705
0.24300001 175314.02568475 8983.09110101
0.24400001 172962.85766746 8263.30091595
0.24500001 170637.88080483 6926.19190951
0.24600001 168339.67740549 8731.77948008
0.24700001 166066.82602053 9884.29795233
0.24800001 163818.90524110 8566.09096029
0.24900001 161595.09003018 6665.79777909
0.25000001 159397.00228237 6601.42716183
0.25100001 157221.84611631 7131.58327722
0.25200001 155072.75078526 7062.01340486
0.25300001 152946.50862112 7575.44093040
0.25400001 150843.47350250 10962.54995545
0.25500001 148763.26366471 8568.76439249
0.25600001 146706.21387028 6786.62977473
0.25700001 144670.77218820 6718.51097830
0.25800001 142658.88226519 7759.21697352
0.25900001 140668.53050286 8229.10942378
0.26000001 138699.83369635 6516.11849537
0.26100001 136752.23225230 8061.54447271
0.26200001 134826.78641930 9042.15885906
0.26300001 132921.63369455 7369.17572072
0.26400001 131037.58278371 7292.24182697
0.26500001 129174.43639700 5154.06025612
0.26600001 127330.65110418 5609.55209984
0.26700001 125508.38494874 5549.98104506
0.26800001 123706.17147749 6489.00753192
0.26900001 121922.58620135 5925.43796979
0.27000001 120159.48976144 5861.38018794
0.27100001 118415.33413868 4831.34586149
0.27200001 116691.89157602 4778.53318617
0.27300001 114986.25252845 7088.90280385
0.27400001 113298.07802191 4673.54593958
0.27500001 111631.41227640 5083.69475566
0.27600001 109980.94490976 5026.67932499
0.27700001 108350.69382065 5873.69139000
0.27800001 106737.67058227 4913.66889781
0.27900001 105144.11346304 4857.65827189
0.28000001 103566.91138235 5674.94917778
0.28100001 102008.30576260 5609.43699937
0.28200001 100468.10289111 6397.30675437
0.28300001 98944.89541550  4636.55801862
0.28400001 97439.12511926  4582.07507561
0.28500001 95950.93015292  4527.92460823
0.28600001 94480.00063976  4067.36422006
0.28700001 93026.07046754  4822.47172130
0.28800001 91588.61294810  4764.43987108
0.28900001 90169.51257259  4706.84877908
0.29000001 88765.82147010  3874.62829057
0.29100001 87379.74010538  3827.23279778
0.29200001 86010.05639798  4158.15637339
0.29300001 84656.91737468  3733.37023295
0.29400001 83319.47529629  5530.33043458
0.29500001 81999.33988010  6553.38755344
0.29600001 80694.77624591  4673.43818751
0.29700001 79406.45633010  4614.30939577
0.29800001 78134.01354753  4906.03494289
0.29900001 76877.99098976  3459.50975831
0.30000001 75637.25440348  4781.03107718
0.30100001 74413.08248618  3708.00407582
0.30200001 73202.93298736  4325.19550032
0.30300001 72009.76653538  4925.46826420
0.30400001 70832.11464625  3564.62633833
0.30500001 69669.57055534  5116.53350381
0.30600001 68521.28754093  4417.56761690
0.30700001 67389.48495146  3424.73378737
0.30800001 66272.33147608  4914.75633495
0.30900001 65170.37901561  3636.50732124
0.31000001 64083.43325078  2989.49230269
0.31100001 63010.66536879  3833.56906254
0.31200001 61953.45987939  3781.32960277
0.31300001 60910.25855518  3155.76064516
0.31400001 59883.09149294  3395.37144841
0.31500001 58869.16578242  3348.47830825
0.31600002 57870.27992089  3026.90513458
0.31700002 56885.57368588  3527.47459128
0.31800002 55915.22371695  4013.31537231
0.31900002 54959.01723058  3693.24613277
0.32000002 54017.49510204  4941.79077340
0.32100002 53089.10026182  2820.62403047
0.32200002 52175.90895631  3539.09207208
0.32300002 51274.91797612  2741.15724480
0.32400002 50388.48389924  2456.43870640
0.32500002 49515.49451111  2663.43857587
0.32600002 48656.57348882  2625.26554690
0.32700002 47810.71035884  2822.74447325
0.32800002 46978.76518191  2782.08260581
0.32900002 46159.48697069  2970.36312722
0.33000002 45354.62249308  3152.59995878
0.33100002 44560.11371208  2662.91252153
0.33200002 43781.94603382  2405.59913874
0.33300002 43015.17633990  3448.09669869
0.33400002 42261.76173884  2973.11507912
0.33500002 41519.91763439  2720.38513223
0.33600002 40792.06410720  2474.44672592
0.33700002 40075.62617069  2844.56808031
0.33800002 39372.48384671  2002.09089842
0.33900002 38680.88465354  2367.27025291
0.34000002 38001.93797721  2526.93898547
0.34100002 37335.08478489  1915.28994017
0.34200002 36680.82780023  2075.95154767
0.34300002 36037.29074797  3347.14372319
0.34400002 35407.00531589  2565.23765663
0.34500002 34787.47706810  2347.11118894
0.34600002 34180.69212467  2490.74715309
0.34700002 33583.50388864  2103.67078322
0.34800002 32999.54654688  1727.52634355
0.34900002 32426.08712983  2723.79144791
0.35000002 31863.65041940  1845.38340144
0.35100002 31313.17760596  1984.00302708
0.35200002 30772.09324513  1955.25889740
0.35300002 30242.58267610  2408.82182424
0.35400002 29724.23450966  2215.94178765
0.35500002 29216.30165039  1560.15058203
0.35600002 28717.93891752  1691.63027206
0.35700002 28230.56702641  1515.98152112
0.35800002 27754.14716952  1793.47307504
0.35900002 27287.31612697  1768.21816878
0.36000002 26830.80908712  2034.04373324
0.36100002 26383.58161811  1575.89140469
0.36200002 25947.43106965  1836.68899526
0.36300002 25519.63981664  1672.04687999
0.36400002 25101.67131726  1649.17988366
0.36500002 24692.95354847  1626.77185683
0.36600002 24294.10825824  1604.86886756
0.36700002 23903.76440108  1451.43664319
0.36800002 23524.08072926  1822.88110206
0.36900002 23152.15573221  1670.42811521
0.37000002 22788.97149986  2282.77138327
0.37100002 22434.37652338  1627.38975010
0.37200002 22089.31266817  1359.48681256
0.37300002 21752.09967176  1952.46855903
0.37400002 21423.23890464  1687.08014366
0.37500002 21103.18245268  1785.32932007
0.37600002 20791.18718861  1175.74169121
0.37700002 20486.81901429  1858.56430902
0.37800002 20190.42594777  1262.60834646
0.37900002 19902.27824413  1474.75888775
0.38000002 19621.70485649  1233.51853424
0.38100002 19347.78469008  1552.07936137
0.38200002 19082.42518124  1315.54245432
0.38300002 18823.48716019  1517.92607651
0.38400002 18572.89098432  1501.61830722
0.38500002 18327.89812572  1804.01509798
0.38600002 18091.26908971  1365.25768653
0.38700002 17860.81364695  1143.44934385
0.38800002 17637.04534173  1337.85813778
0.38900002 17419.67535769  1426.67147938
0.39000002 17209.81431052  1009.35565713
0.39100002 17005.16597753  1099.89418754
0.39200002 16807.52663446  1387.12523886
0.39300002 16615.79372751  1374.79083815
0.39400002 16431.36098593  1070.91400299
0.39500002 16251.59090860  1158.41345485
0.39600002 16077.84041438  1244.66607465
0.39700002 15909.87990891  1044.80186312
0.39800002 15747.58675819  1225.24104577
0.39900002 15590.85849899  1028.99670969
0.40000002 15439.25146573  1021.53812163
0.40100002 15293.38515917  1014.41028567
0.40200002 15152.86418296  915.99068326
0.40300002 15016.78688437  1001.01906114
0.40400002 14886.30892645  1266.08063418
0.40500002 14760.64755542  1078.70817446
0.40600002 14639.89788264  1072.51896970
0.40700002 14523.49264980  1333.25668842
0.40800002 14412.21456980  1326.28410863
0.40900002 14304.95687461  967.73037842
0.41000002 14202.50527789  875.58449187
0.41100002 14104.28599168  958.80940714
0.41200002 14009.88767574  867.91258264
0.41300002 13920.25495121  1296.67181014
0.41400002 13834.34040249  1205.66282320
0.41500002 13752.50791606  943.97218809
0.41600002 13674.05646811  940.84349987
0.41700002 13599.63651246  1108.50642466
0.41800002 13529.96504855  935.39417795
0.41900002 13461.77838734  1187.32891002
0.42000002 13398.51231274  930.72770191
0.42100002 13338.67549771  928.77201892
0.42200002 13282.39125003  842.76776475
0.42300002 13228.73568691  1093.75191842
0.42400002 13178.01660953  924.10845853
0.42500002 13131.05282711  1006.88917850
0.42600002 13086.07341086  1005.79565002
0.42700002 13045.42820801  1172.52314290
0.42800002 13006.35925269  920.65518333
0.42900002 12971.55900406  836.66559541
0.43000002 12938.74229961  1171.08562103
0.43100002 12907.62444964  920.05551437
0.43200002 12880.25881284  1087.54470440
0.43300002 12855.00321047  1004.23289839
0.43400002 12832.24088168  1255.95563581
0.43500002 12811.59093040  1089.24151252
0.43600002 12793.56778348  1006.34208954
0.43700002 12777.24491389  1259.19754594
0.43800002 12763.02723804  1008.53446014
0.43900002 12751.60072840  1346.56910073
0.44000002 12741.56022414  927.13967365
0.44100002 12733.90609635  1097.53541846
0.44200002 12727.91203539  930.34677432
0.44300002 12723.78033300  1016.88457240
0.44400002 12721.88236443  1188.85996330
0.44500002 12720.37396311  1191.39028185
0.44600002 12720.86670337  938.22756817
0.44700002 12724.09824307  1111.57727519
0.44800002 12727.12854236  857.17214795
0.44900002 12733.23323799  1117.34126959
0.45000002 12740.31946463  948.07091789
0.45100002 12748.32365332  950.77002312
0.45200002 12757.83243171  953.58423030
0.45300002 12768.45817727  1217.34486031
0.45400002 12780.52961777  959.49830653
0.45500002 12793.78575960  1137.62348366
0.45600002 12807.91374390  1141.37728738
0.45700002 12823.18138686  969.04786333
0.45800002 12839.06832737  1060.76387548
0.45900002 12856.24771060  1153.20547430
0.46000002 12874.89291747  1068.35866493
0.46100002 12893.22818783  982.85083134
0.46200002 12913.49940853  1165.89534936
0.46300002 12934.23955752  990.24542746
0.46400002 12955.09296579  1445.78844351
0.46500002 12977.20698373  1360.66021673
0.46600002 12999.85104910  1001.70357006
0.46700002 13022.79181977  1097.04003489
0.46800002 13047.19809282  1376.80564400
0.46900002 13071.07528238  1013.66193619
0.47000002 13095.80269098  1202.78405516
0.47100002 13121.22574218  1114.77939189
0.47200002 13147.02435158  1492.45027513
0.47300002 13173.37135782  1404.94012190
0.47400002 13199.34979211  1222.58983244
0.47500002 13226.11558872  1510.95151647
0.47600002 13253.70590102  948.30270217
0.47700002 13280.51000700  1333.09765769
