# SAXS profile: number of points = 501, q_min = 0, q_max = 0.5, delta_q = 0.001
#    q    intensity    error
0.00000000 1664650.74656090 249.69761198
0.00100000 1664564.67333278 499.36941386
0.00200000 1664306.40234946 823.83169525
0.00300000 1663876.18178849 1397.65604249
0.00400000 1663273.84204040 1621.69205761
0.00500000 1662500.06842078 1795.50014496
0.00600000 1661554.67920203 2093.55898103
0.00700000 1660438.44831227 2191.77884286
0.00800000 1659151.12191742 3135.79575282
0.00900000 1657694.07533721 2735.19534123
0.01000000 1656066.80773814 3279.01242091
0.01100000 1654270.86126734 2977.68767993
0.01200000 1652305.97038392 3544.19646186
0.01300000 1650173.65139259 4851.51074907
0.01400000 1647874.01236986 5190.80336908
0.01500000 1645408.57602420 3948.98075830
0.01600000 1642777.03715356 4189.08163201
0.01700000 1639981.55699821 4427.95040253
0.01800000 1637022.70068839 4665.51490690
0.01900000 1633901.27004744 7352.55604698
0.02000000 1630618.17373585 6163.73697554
0.02100000 1627176.07927836 5369.68130507
0.02200000 1623573.62132684 6721.59509767
0.02300000 1619813.89522196 6414.46331706
0.02400000 1615897.60165892 7877.50116728
0.02500000 1611826.70998802 12572.24891209
0.02600000 1607602.28694469 7161.86851591
0.02700000 1603225.55236304 8753.61191683
0.02800000 1598697.44912204 9736.06791165
0.02900000 1594021.10738506 8607.71437510
0.03000000 1589197.06903170 10345.67339494
0.03100000 1584227.21984938 11406.43650776
0.03200000 1579112.45814021 8598.26773059
0.03300000 1573857.03762386 8829.33838811
0.03400000 1568459.49702041 9057.85401323
0.03500000 1562923.91519117 10971.72639130
0.03600000 1557250.80694814 12099.83932917
0.03700000 1551443.18414447 8843.22655860
0.03800000 1545502.71051584 11753.54865742
0.03900000 1539431.69622653 11083.90872613
0.04000000 1533230.35069757 10372.30380311
0.04100000 1526902.75183809 10581.43656086
0.04200000 1520450.33717151 10787.59564270
0.04300000 1513875.02046136 14987.36339825
0.04400000 1507179.08808783 10173.45931707
0.04500000 1500365.69879327 14493.53332378
0.04600000 1493434.98415804 15793.07569164
0.04700000 1486391.10469398 12842.41974183
0.04800000 1479235.25940741 13046.85559502
0.04900000 1471970.58656327 12143.75790441
0.05000000 1464598.67519760 12324.59842570
0.05100000 1457123.41642978 12502.11949537
0.05200000 1449543.87496473 12676.26177730
0.05300000 1441865.74369959 16350.75829579
0.05400000 1434089.43971386 17746.85764406
0.05500000 1426219.19952502 15574.31438534
0.05600000 1418255.31330544 15763.90854300
0.05700000 1410203.33552135 14722.52351007
0.05800000 1402062.05794865 17371.54970910
0.05900000 1393835.63844801 15053.42559832
0.06000000 1385527.68016091 17748.61041206
0.06100000 1377139.55232761 14088.13827867
0.06200000 1368673.96641427 16814.16046335
0.06300000 1360134.45734714 15668.74968124
0.06400000 1351520.10173222 19765.98241222
0.06500000 1342837.75448145 14623.50383036
0.06600000 1334088.05956248 13407.58562592
0.06700000 1325272.59050583 20276.67158367
0.06800000 1316395.26515135 17712.09912170
0.06900000 1307459.93843501 16473.99599558
0.07000000 1298465.96368753 16594.39579302
0.07100000 1289417.97639865 15318.28627709
0.07200000 1280317.54401521 18225.32109285
0.07300000 1271168.12794698 15520.96356948
0.07400000 1261973.03051870 17036.63671041
0.07500000 1252732.22774398 22849.83690508
0.07600000 1243449.46433348 14361.84198634
0.07700000 1234128.31160844 15883.23211514
0.07800000 1224770.20149340 17416.23308199
0.07900000 1215376.51428973 24793.68205443
0.08000000 1205953.03307178 20513.26205485
0.08100000 1196499.98572869 16188.64556645
0.08200000 1187019.33765225 16256.23059197
0.08300000 1177513.88584674 17804.01078958
0.08400000 1167987.28218024 16381.02240148
0.08500000 1158441.05321979 16438.27931689
0.08600000 1148877.46672539 17991.42197364
0.08700000 1139299.04426420 19550.37251761
0.08800000 1129707.35289449 18097.91264332
0.08900000 1120106.09660903 24194.29282315
0.09000000 1110497.19166138 21221.60232954
0.09100000 1100882.09925740 22788.26052525
0.09200000 1091263.32899025 18267.74898564
0.09300000 1081644.76796893 16776.31113955
0.09400000 1072025.03700455 16803.99324479
0.09500000 1062408.87637713 15298.68853891
0.09600000 1052797.64231201 16850.02705729
0.09700000 1043195.88236364 19935.47424919
0.09800000 1033602.52402283 19953.69766444
0.09900000 1024021.60143402 15360.32474379
0.10000000 1014452.88832501 19979.65057515
0.10100000 1004899.39928680 15374.96153220
0.10200000 995363.76772742 18454.04512168
0.10300000 985847.43264843 27682.59721098
0.10400000 976352.33917301 23066.32509812
0.10500000 966882.33771648 21522.80185020
0.10600001 957433.65271328 19976.85410384
0.10700001 948014.52322736 16893.61959889
0.10800001 938621.55151392 15346.46308948
0.10900001 929260.13760464 19932.63088976
0.11000001 919930.48881253 16848.52769565
0.11100001 910633.26189123 15298.63951993
0.11200001 901372.36325726 25973.04586999
0.11300001 892146.60550716 18306.84920691
0.11400001 882959.78138102 22846.58541895
0.11500001 873812.52479561 18245.20637686
0.11600001 864706.80119154 16693.16558311
0.11700001 855643.37671191 21202.84387347
0.11800001 846622.98545627 15112.22100215
0.11900001 837647.21407224 28647.53607062
0.12000001 828717.52906200 18049.46863319
0.12100001 819836.83218910 22504.52210374
0.12200001 811004.72482227 19451.94924127
0.12300001 802222.84560890 19397.74932074
0.12400001 793491.45709847 14877.96552161
0.12500001 784811.98063354 16316.24184620
0.12600001 776187.28292514 17743.64212381
0.12700001 767616.01448866 19159.69662456
0.12800001 759099.97283538 17626.30219995
0.12900001 750640.58129111 14637.49202507
0.13000001 742238.18436378 14584.98101021
0.13100001 733893.09309970 18890.40910684
0.13200001 725606.71952472 21713.78210537
0.13300001 717381.26067748 15861.30042133
0.13400001 709214.73240194 21542.39851234
0.13500001 701110.51094544 17163.18611716
0.13600001 693066.87460788 19939.53492263
0.13700001 685086.74715305 17017.55560172
0.13800001 677167.90537134 18354.63694062
0.13900001 669314.05108940 18272.27445643
0.14000001 661523.66770782 22385.96197097
0.14100001 653797.93198604 27851.79321618
0.14200001 646136.63942165 23561.37366779
0.14300001 638542.32828614 23447.27540062
0.14400001 631010.78135452 17841.83068440
0.14500001 623547.79163497 15021.26700907
0.14600001 616150.62373078 14944.73408360
0.14700001 608822.10322318 17570.60672794
0.14800001 601557.13547457 13444.80261216
0.14900001 594361.12993418 18722.37647626
0.15000001 587232.08677300 18621.13035017
0.15100001 580170.80679925 13227.89501918
0.15200001 573177.70252702 14469.87178308
0.15300001 566253.35889428 15696.54384925
0.15400001 559394.39128031 14306.51223213
0.15500001 552604.93511511 19396.43413792
0.15600001 545881.06863191 14141.04975030
0.15700001 539228.76447527 14057.69455335
0.15800001 532640.47729849 12703.47598316
0.15900001 526122.28384507 20203.09665325
0.16000001 519669.65331505 13805.02499195
0.16100001 513287.57695660 19956.62193411
0.16200001 506971.41439786 14874.54200060
0.16300001 500722.30255205 17244.87691399
0.16400001 494540.49421914 19583.80449562
0.16500001 488425.23353028 13377.96777799
0.16600001 482377.50099180 13291.91266738
0.16700001 476394.33733961 14406.16544133
0.16800001 470477.13160820 15504.57460422
0.16900001 464627.66455283 16587.20840775
0.17000001 458842.07527612 15300.08972255
0.17100001 453121.75902164 14028.65032176
0.17200001 447466.58879372 16256.46193855
0.17300001 441875.90025815 19606.03462034
0.17400001 436349.01999164 12599.57854729
0.17500001 430885.75615304 14787.99984957
0.17600001 425484.21871034 14685.58850237
0.17700001 420147.49867466 12339.73261889
0.17800001 414870.98643788 16708.92976798
0.17900001 409657.35500687 11060.74910762
0.18000001 404505.00332692 16473.46703861
0.18100001 399414.94944320 13084.83436184
0.18200001 394382.60620437 18403.86518789
0.18300001 389411.21876939 15046.85020405
0.18400001 384498.67781840 10669.83881351
0.18500001 379646.37406802 15888.20150534
0.18600001 374850.71806102 16823.30102137
0.18700001 370112.76209348 14612.05253779
0.18800001 365432.00265819 11395.99754131
0.18900001 360809.23408153 11311.37002289
0.19000001 356238.81163773 12247.49092278
0.19100001 351728.23870703 14181.68325475
0.19200001 347269.04450971 12064.12717631
0.19300001 342867.04702444 11972.91784785
0.19400001 338516.01760940 12872.07217785
0.19500001 334219.43724199 13756.47268694
0.19600001 329974.74800916 11700.90511735
0.19700001 325781.90510822 11610.86764676
0.19800001 321640.66293085 10561.07166644
0.19900001 317550.23100408 15242.41180855
0.20000001 313508.50607240 10397.51009529
0.20100001 309517.84948975 10316.23041106
0.20200001 305574.26277891 9304.73674139
0.20300001 301680.57426457 10154.56860970
0.20400001 297833.58677169 11905.89819394
0.20500001 294033.53416331 10902.76396211
0.20600001 290280.19187272 9013.20038368
0.20700001 286572.69088008 8941.06837809
0.20800001 282909.31859844 10643.04906877
0.20900001 279292.46446174 8797.71304642
0.21000001 275718.01802207 8726.47568292
0.21100001 272187.63262466 11252.23726463
0.21200001 268699.51832518 11160.43502124
0.21300001 265252.91676305 8514.61903063
0.21400001 261848.97291462 8444.62977573
0.21500001 258486.82545619 10887.46560295
0.21600001 255164.11051076 11627.82906572
0.21700001 251881.50897469 9883.83087947
0.21800001 248638.43407684 10618.10482928
0.21900001 245433.04343946 9719.14897974
0.22000001 242265.76850861 10440.44378753
0.22100001 239137.70163351 8759.61442502
0.22200001 236046.97283558 9474.92593764
0.22300001 232991.12095671 12525.60325491
0.22400001 229971.01886260 10089.97892972
0.22500001 226989.09700118 11542.39612832
0.22600001 224040.04302905 9917.13297364
0.22700001 221127.24527033 8318.80736046
0.22800001 218247.30825095 9745.83401083
0.22900001 215400.17078519 7431.30624352
0.23000001 212587.42131898 11049.23174559
0.23100001 209807.68076301 10951.96145378
0.23200001 207058.43134245 10855.03877650
0.23300001 204341.69011673 10041.35112724
0.23400001 201656.87483559 8530.08620898
0.23500001 199000.65409547 7044.62348816
0.23600001 196376.56455970 6981.18720029
0.23700001 193781.79300656 8301.61240505
0.23800001 191216.48618574 8911.64476020
0.23900001 188679.91793640 7471.72510369
0.24000001 186171.98491691 10095.17635962
0.24100001 183693.42819319 8668.49328647
0.24200001 181241.71327822 9909.39114222
0.24300001 178818.31870112 7199.22585145
0.24400001 176421.20812054 7780.17564615
0.24500001 174050.74083999 10275.95622529
0.24600001 171707.55690826 6997.94181283
0.24700001 169390.07489265 7561.57330091
0.24800001 167098.04839939 7489.33488356
0.24900001 164830.62067415 8035.49313800
0.25000001 162589.34777343 7957.93600325
0.25100001 160371.55877963 6668.24972952
0.25200001 158180.07019510 7203.52073748
0.25300001 156012.10129768 7132.87360879
0.25400001 153867.73887407 8239.61780653
0.25500001 151746.54385632 10488.72160759
0.25600001 149649.14864819 7499.66743933
0.25700001 147573.77294818 7424.43686830
0.25800001 145522.31696822 6784.25073805
0.25900001 143492.90516393 6715.46827941
0.26000001 141485.60780784 6646.99416932
0.26100001 139499.81579727 6030.57732226
0.26200001 137536.58078529 5968.40020558
0.26300001 135594.07714583 6980.38342176
0.26400001 133673.20531489 5844.86117896
0.26500001 131773.60832884 7360.87410956
0.26600001 129893.84304626 6242.69839220
0.26700001 128036.01161107 5661.75270136
0.26800001 126198.66884655 8147.38644627
0.26900001 124380.37670980 6548.62714366
0.27000001 122582.93780340 5979.59598902
0.27100001 120804.88768871 6900.37551132
0.27200001 119047.97813645 5850.01792247
0.27300001 117309.42482777 10124.97693604
0.27400001 115588.52172154 4768.02674666
0.27500001 113889.68977424 7072.55006969
0.27600001 112207.48595532 5128.44338830
0.27700001 110545.77842582 5531.71101423
0.27800001 108901.68869370 6380.55024254
0.27900001 107277.58927198 4956.22485893
0.28000001 105670.13883459 5344.79587521
0.28100001 104081.75756619 6163.72197479
0.28200001 102512.09106519 5221.96616601
0.28300001 100959.97730677 4300.89523683
0.28400001 99425.50247821  4675.48447533
0.28500001 97909.07807101  5460.38954247
0.28600001 96410.21797637  4565.50608837
0.28700001 94928.81041388  4100.92480399
0.28800001 93464.15379691  8103.34251775
0.28900001 92018.34330290  4403.07793546
0.29000001 90588.19004345  4745.00961908
0.29100001 89176.10920144  4687.09652149
0.29200001 87780.69877020  5786.94284035
0.29300001 86402.18942451  5715.50510098
0.29400001 85039.83653611  5268.21812279
0.29500001 83695.08318583  3716.06186936
0.29600001 82366.23605787  4036.35758909
0.29700001 81053.90446022  4710.04261115
0.29800001 79757.79358209  3577.13721149
0.29900001 78478.57957032  4237.84349741
0.30000001 77214.86847072  3486.25147649
0.30100001 75968.11151798  4473.76229908
0.30200001 74735.73346716  3396.73924689
0.30300001 73520.57979559  4023.04631687
0.30400001 72321.21388186  3639.56526091
0.30500001 71137.32707495  3591.72381405
0.30600001 69968.06210323  3222.02941239
0.30700001 68815.54422339  5086.84526982
0.30800001 67677.95981844  3450.56094471
0.30900001 66555.91100159  3713.82000972
0.31000001 65449.18288698  3663.84543148
0.31100001 64356.86690284  3313.09166502
0.31200001 63280.41980740  3268.11743568
0.31300001 62218.28893206  3516.57785694
0.31400001 61172.40422487  4046.55473107
0.31500001 60140.16109466  2850.64377086
0.31600002 59123.11069812  3935.82566553
0.31700002 58120.57467679  3881.29216069
0.31800002 57132.66236106  3553.93743044
0.31900002 56159.14808977  3773.89493032
0.32000002 55200.60157574  2923.70000089
0.32100002 54255.44175586  2882.59175698
0.32200002 53325.72440861  2841.99461693
0.32300002 52408.46944282  3311.16725618
0.32400002 51505.85282275  2510.91044400
0.32500002 50617.08060703  3960.28057422
0.32600002 49742.71487901  3171.84436445
0.32700002 48881.43296846  2645.46327752
0.32800002 48034.40062153  3318.69689609
0.32900002 47200.33348993  2803.69994207
0.33000002 46380.84967457  2993.65208401
0.33100002 45571.97931904  2496.43314531
0.33200002 44779.55491302  2460.41276121
0.33300002 43998.85266675  2204.34262299
0.33400002 43231.70918724  3041.35088535
0.33500002 42476.33622524  2568.96893656
0.33600002 41735.19327393  3164.57117986
0.33700002 41005.51001152  2702.67329285
0.33800002 40289.53324538  3073.08429382
0.33900002 39585.15879579  2018.84319419
0.34000002 38893.67331888  2785.17607827
0.34100002 38214.50800541  1960.40435352
0.34200002 37548.11852997  1931.85078986
0.34300002 36892.51917383  2284.38489543
0.34400002 36250.45973186  2063.55751797
0.34500002 35619.35056065  1848.64438165
0.34600002 35001.11694066  1821.80822304
0.34700002 34392.68604589  1974.82812628
0.34800002 33797.60193700  2300.09590876
0.34900002 33213.17708533  2441.16863139
0.35000002 32639.97165591  2405.89242471
0.35100002 32078.91543114  2371.27354098
0.35200002 31527.38830053  2003.25034750
0.35300002 30987.55976267  1809.98345146
0.35400002 30459.01455587  2108.52538250
0.35500002 29941.14959353  2078.51470323
0.35600002 29432.92056944  1576.13297115
0.35700002 28935.81778514  2330.78023299
0.35800002 28449.83704995  1991.63093702
0.35900002 27973.58689067  1963.74589274
0.36000002 27507.78560490  1787.45599327
0.36100002 27051.37622526  2203.33469791
0.36200002 26606.17532890  2028.18884139
0.36300002 26169.51765101  1857.51245085
0.36400002 25742.74207602  1691.29823451
0.36500002 25325.34420729  1529.39760912
0.36600002 24917.97743214  2057.60208392
0.36700002 24519.16417593  1759.49530461
0.36800002 24131.18438844  1469.22723109
0.36900002 23751.12751480  1713.64393137
0.37000002 23379.81191043  1691.41257278
0.37100002 23017.15601740  1669.66457659
0.37200002 22664.28382697  1775.29343626
0.37300002 22319.29465822  1502.53498757
0.37400002 21982.73510933  1854.79336271
0.37500002 21655.09530413  1587.75166291
0.37600002 21335.65972166  1568.49109874
0.37700002 21023.89409091  1668.87679199
0.37800002 20720.13424783  1413.52762535
0.37900002 20424.85838150  1397.06037948
0.38000002 20137.14475026  1265.92166470
0.38100002 19856.25148372  1365.31591670
0.38200002 19583.91810462  1125.09614841
0.38300002 19318.09803424  1446.53924933
0.38400002 19060.74078158  1100.75783228
0.38500002 18809.00419122  1415.75381254
0.38600002 18565.81032022  1185.51987416
0.38700002 18328.75639604  1600.10050918
0.38800002 18098.52011484  1161.65356860
0.38900002 17874.73165033  1045.67185108
0.39000002 17658.56702969  1449.94500750
0.39100002 17447.65544883  1538.88328349
0.39200002 17243.81338304  1016.52284709
0.39300002 17045.90709790  1208.89578866
0.39400002 16855.41236063  1098.55155265
0.39500002 16669.65850993  1485.26664360
0.39600002 16489.91108141  1080.17167656
0.39700002 16316.05299875  1071.47525119
0.39800002 16147.99988971  1256.39519094
0.39900002 15985.43581043  959.12619407
0.40000002 15828.08183266  1332.88283428
0.40100002 15676.48903748  1228.88003387
0.40200002 15530.44687343  938.81555798
0.40300002 15388.77433008  1119.07172230
0.40400002 15252.74906740  1111.92545970
0.40500002 15121.65783070  1012.99990607
0.40600002 14995.39802862  1373.20363953
0.40700002 14873.65512742  1092.32128431
0.40800002 14757.06627790  1086.41527085
0.40900002 14644.56696137  1350.96136620
0.41000002 14536.87287253  985.81808056
0.41100002 14433.43165653  1337.97917796
0.41200002 14333.86533499  1065.57959949
0.41300002 14239.09769114  1149.52241107
0.41400002 14148.09661949  1144.93477318
0.41500002 14061.28495941  1403.87875687
0.41600002 13977.76992260  874.30955009
0.41700002 13898.42613606  1394.29017604
0.41800002 13823.79444577  1216.35573092
0.41900002 13750.67692992  1126.18049392
0.42000002 13682.57956550  1123.27142266
0.42100002 13617.92068675  948.21586235
0.42200002 13556.83121395  1118.23527567
0.42300002 13498.39910677  1116.04769103
0.42400002 13442.99985589  1199.78779399
0.42500002 13391.26191017  941.27184427
0.42600002 13341.63189684  1025.43787618
0.42700002 13296.30347727  1365.79635790
0.42800002 13252.70139773  1193.93592550
0.42900002 13213.27571288  1193.15885341
0.43000002 13175.89888644  1022.18628405
0.43100002 13140.24865687  1277.23222997
0.43200002 13108.37320256  1277.08331978
0.43300002 13078.66877124  1106.84779056
0.43400002 13051.48296027  1277.41395527
0.43500002 13026.41523431  1363.08415471
0.43600002 13003.98539039  1022.89353928
0.43700002 12983.32549651  938.30497810
0.43800002 12964.73548439  939.10065932
0.43900002 12948.96483619  1025.55806363
0.44000002 12934.65296944  941.19006792
0.44100002 12922.71790260  1028.13148505
0.44200002 12912.52903220  1115.44887331
0.44300002 12904.13622100  1203.18171827
0.44400002 12898.03278066  1205.32122047
0.44500002 12892.34178037  1034.99724718
0.44600002 12888.67555435  1123.44145794
0.44700002 12887.79527957  1125.87784898
0.44800002 12886.67798667  1041.50136424
0.44900002 12888.76990845  1130.98961307
0.45000002 12891.76365781  1133.76620862
0.45100002 12895.68350459  1224.05833627
0.45200002 12901.27868636  876.64192828
0.45300002 12907.83822540  1142.73097225
0.45400002 12915.94759552  1145.96750472
0.45500002 12925.29326200  1060.90812122
0.45600002 12935.48706423  975.40044831
0.45700002 12946.85018839  1423.11784016
0.45800002 12958.90631911  1516.77526201
0.45900002 12972.16392515  1432.12696521
0.46000002 12987.03805019  1077.66446848
0.46100002 13001.53731062  991.10723616
0.46200002 13018.05309223  1084.92459613
0.46300002 13034.99067518  1270.12955159
0.46400002 13052.12309739  910.38562919
0.46500002 13070.53101320  1004.99317724
0.46600002 13089.48712398  1008.61047814
0.46700002 13108.68003488  1104.27525848
0.46800002 13129.50121474  923.66045423
0.46900002 13149.75793580  1112.46957410
0.47000002 13170.86238922  1395.78220785
0.47100002 13192.67242559  934.04125200
0.47200002 13214.96705478  937.60195698
0.47300002 13237.73003299  1223.56344494
0.47400002 13260.21293321  1606.14336766
0.47500002 13283.50263933  1232.97477342
0.47600002 13307.65163546  1142.59502358
0.47700002 13331.05416738  1147.00395493
