# SAXS profile: number of points = 501, q_min = 0, q_max = 0.5, delta_q = 0.001
#    q    intensity    error
0.00000000 1646666.22097350 345.79990640
0.00100000 1646580.62136458 592.76903777
0.00200000 1646323.77425324 1407.60687156
0.00300000 1645895.92637831 1086.29135011
0.00400000 1645296.90274683 1357.36999634
0.00500000 1644527.39738430 1480.07471623
0.00600000 1643587.21943319 2588.64997600
0.00700000 1642477.14197478 2365.16718274
0.00800000 1641196.93069134 2880.30073497
0.00900000 1639747.95307803 3197.50864519
0.01000000 1638129.66528498 2973.20547087
0.01100000 1636343.63268531 4123.58613391
0.01200000 1634389.64069940 3505.76593301
0.01300000 1632269.11201078 3427.76528640
0.01400000 1629982.23217830 5867.93629597
0.01500000 1627530.48565552 4687.28800741
0.01600000 1624913.57351390 5800.94171677
0.01700000 1622133.61249816 4817.73704524
0.01800000 1619191.23034822 5537.63425697
0.01900000 1616087.20228657 5333.08800819
0.02000000 1612822.44043300 9652.74274264
0.02100000 1609399.56961691 6373.22258464
0.02200000 1605817.28147313 6648.08384734
0.02300000 1602078.61583904 6344.23160750
0.02400000 1598184.24410894 6592.51030755
0.02500000 1594136.37112573 6838.84534446
0.02600000 1589935.64668571 8371.01156268
0.02700000 1585583.69310656 7325.39699766
0.02800000 1581081.09840476 6877.70309347
0.02900000 1576431.22548416 8512.72900847
0.03000000 1571634.58380963 8769.72138076
0.03100000 1566692.96069868 8272.13921312
0.03200000 1561607.35966308 7729.95678636
0.03300000 1556381.97516645 13493.83234677
0.03400000 1551015.27196992 8957.11360891
0.03500000 1545511.46372457 8345.76228950
0.03600000 1539870.94968671 10255.54099886
0.03700000 1534096.85017541 8744.35245040
0.03800000 1528190.61127663 13409.87323456
0.03900000 1522154.76067038 11872.80768306
0.04000000 1515989.42017743 9323.33536612
0.04100000 1509698.69336858 11413.32265106
0.04200000 1503283.90706808 11635.41798051
0.04300000 1496747.02289629 9878.53080966
0.04400000 1490090.52001954 10058.11147725
0.04500000 1483317.21592665 13305.35604509
0.04600000 1476427.39945340 14572.33911003
0.04700000 1469425.21314873 14811.80683741
0.04800000 1462312.02937695 11822.79330760
0.04900000 1455090.61102090 12004.49809970
0.05000000 1447762.80231805 12182.92454882
0.05100000 1440332.36265577 13481.51154248
0.05200000 1432798.46707413 12529.82317847
0.05300000 1425166.69624705 13852.62093330
0.05400000 1417437.63140502 26895.88031017
0.05500000 1409615.27598797 11840.76887066
0.05600000 1401700.01738487 11984.53570789
0.05700000 1393697.40215524 12125.16796474
0.05800000 1385606.18990240 12262.61535321
0.05900000 1377430.61534059 14876.25134049
0.06000000 1369174.24417258 13780.73941142
0.06100000 1360838.32539526 13921.37671936
0.06200000 1352425.65009216 19170.63448616
0.06300000 1343939.82105279 19352.73432800
0.06400000 1335379.76728320 14321.94867390
0.06500000 1326752.36298934 17075.30371042
0.06600000 1318058.32658219 19869.73020290
0.06700000 1309299.07100965 16025.82137915
0.06800000 1300478.76314535 25573.91607434
0.06900000 1291600.97134032 14917.99191742
0.07000000 1282665.30617753 16392.46338058
0.07100000 1273676.04904943 17882.41256623
0.07200000 1264634.99038322 18002.07993144
0.07300000 1255545.77926184 18117.52644366
0.07400000 1246411.19580364 19630.97725390
0.07500000 1237231.84661920 15514.88808383
0.07600000 1228010.83934262 21275.28878901
0.07700000 1218752.15396991 18537.22113107
0.07800000 1209456.95327706 22931.30490952
0.07900000 1200126.70238778 17281.82532497
0.08000000 1190767.39526197 14467.82453113
0.08100000 1181379.01367890 18890.25131502
0.08200000 1171963.42927446 21886.41806872
0.08300000 1162523.65970108 16112.57867965
0.08400000 1153063.19706730 16171.71209795
0.08500000 1143583.51921742 22128.34213568
0.08600000 1134087.11023691 22199.75622520
0.08700000 1124576.32625810 22266.61230550
0.08800000 1115052.75942688 19351.74154868
0.08900000 1105520.13532276 20894.33153900
0.09000000 1095980.18941178 14960.13028823
0.09100000 1086434.54423765 14992.79741486
0.09200000 1076885.60087827 16524.81032192
0.09300000 1067337.44310707 22574.18798252
0.09400000 1057788.53095574 15073.48727454
0.09500000 1048243.47573922 16604.17743615
0.09600000 1038703.67732677 24181.02274486
0.09700000 1029174.01455663 19667.51634280
0.09800000 1019652.87844947 15141.84595691
0.09900000 1010144.71874668 15152.17149369
0.10000000 1000648.87821332 15159.83121786
0.10100000 991168.92436180 19714.35083276
0.10200000 981706.97308684 21234.32282665
0.10300000 972264.59495082 15167.32839472
0.10400000 962844.05809286 24263.67140543
0.10500000 953448.79924376 16675.82028336
0.10600001 944075.01064499 15152.40463383
0.10700001 934730.99253617 18171.17135000
0.10800001 925413.61923718 19669.66740257
0.10900001 916128.15757822 15116.11531149
0.11000001 906874.59310437 25669.08656605
0.11100001 897653.72979297 22620.87505562
0.11200001 888469.35247926 21083.37872688
0.11300001 879320.52907724 15036.38175515
0.11400001 870210.61569066 21015.58735844
0.11500001 861140.74763258 19479.00462868
0.11600001 852112.36158714 25422.77350515
0.11700001 843126.51892327 17908.00810531
0.11800001 834183.97619046 19357.24007919
0.11900001 825286.21935871 17826.18317779
0.12000001 816434.66277045 16300.11881003
0.12100001 807632.49466982 16257.64288357
0.12200001 798878.77381743 17687.17688558
0.12300001 790175.48068830 16166.99109658
0.12400001 781523.04826199 19049.62519896
0.12500001 772922.35760397 14608.23324706
0.12600001 764376.57975280 17473.64943657
0.12700001 755884.33251520 18866.87382871
0.12800001 747447.48521611 27479.90808908
0.12900001 739067.18182850 15852.99179741
0.13000001 730744.21082926 17230.94930353
0.13100001 722478.51023782 15735.58269472
0.13200001 714271.70709239 19949.60971952
0.13300001 706125.67343124 15612.43937558
0.13400001 698038.85329420 14135.28744562
0.13500001 690013.97253899 18299.17141451
0.13600001 682050.08416190 18220.96885752
0.13700001 674149.30726007 19536.84784562
0.13800001 666310.21532746 16671.08237363
0.13900001 658535.77666438 13829.25196211
0.14000001 650825.10398725 15141.44675834
0.14100001 643178.89390580 17809.62441221
0.14200001 635597.15996297 13633.55972424
0.14300001 628082.10809309 14923.23159218
0.14400001 620630.21910324 17548.32027290
0.14500001 613246.43458487 17459.12681622
0.14600001 605928.51472076 14696.79681786
0.14700001 598679.19348951 17277.88233922
0.14800001 591493.38479199 14541.86555118
0.14900001 584376.42461960 18407.85824401
0.15000001 577326.28849483 16999.37336681
0.15100001 570343.88685481 18205.37772743
0.15200001 563429.35504110 16809.91560086
0.15300001 556583.44323800 16714.20158916
0.15400001 549802.97219809 16617.79561890
0.15500001 543091.88276541 13979.18572210
0.15600001 536446.23248152 16423.30218252
0.15700001 529871.86101508 16325.35280838
0.15800001 523361.36905820 16226.82001353
0.15900001 516920.98439991 12406.10421117
0.16000001 510545.74121975 17261.55232543
0.16100001 504240.99863518 13478.36252975
0.16200001 498001.91315846 13393.76208666
0.16300001 491829.86684345 12099.01529552
0.16400001 485724.76144500 15628.19493729
0.16500001 479686.00726077 14333.01857363
0.16600001 473714.45180357 14239.85709352
0.16700001 467807.54863496 11788.75078220
0.16800001 461965.95284436 12881.92120330
0.16900001 456192.21783752 11632.90210414
0.17000001 450482.06563748 11554.86552922
0.17100001 444836.74292242 17215.18276402
0.17200001 439256.51473940 20517.67277238
0.17300001 433740.29981599 12452.68459579
0.17400001 428287.73507333 14615.31964960
0.17500001 422898.52886616 11164.52168934
0.17600001 417570.86660581 14412.45914159
0.17700001 412307.47840467 13210.33223202
0.17800001 407104.20447035 10930.74840631
0.17900001 401963.52120107 10853.01558506
0.18000001 396883.75848083 26938.48637933
0.18100001 391865.95545909 11767.73519830
0.18200001 386905.52557182 10620.55717864
0.18300001 382005.66453615 11597.69252318
0.18400001 377164.63806475 10466.31920073
0.18500001 372383.35279340 16623.19365401
0.18600001 367658.29857074 12375.37891455
0.18700001 362990.63336781 12283.60361350
0.18800001 358379.78800128 13208.08771082
0.18900001 353826.71853359 13109.28054105
0.19000001 349325.58035980 15012.26752527
0.19100001 344883.97634191 12912.45668436
0.19200001 340493.37801414 11828.74051114
0.19300001 336159.41179944 13695.13508384
0.19400001 331876.32512490 17473.28934351
0.19500001 327647.18031292 12522.67582332
0.19600001 323469.70996188 11470.23645729
0.19700001 319343.42420157 10432.95016170
0.19800001 315268.46895577 10351.84066738
0.19900001 311244.02994212 10271.05347350
0.20000001 307267.83841528 10190.53834266
0.20100001 303342.31660062 11948.65441562
0.20200001 299463.53165369 12766.13095777
0.20300001 295634.21374194 10855.68884169
0.20400001 291851.25529545 11666.75448187
0.20500001 288114.71599651 10683.29417412
0.20600001 284424.33740188 9714.51370315
0.20700001 280779.55406860 11388.41925134
0.20800001 277178.52173680 10427.45648065
0.20900001 273623.72355698 11204.89200933
0.21000001 270110.68693770 10258.80437485
0.21100001 266641.25536094 11022.95001771
0.21200001 263213.81789426 8409.68187928
0.21300001 259827.47729677 13344.73986484
0.21400001 256483.29474917 13234.53863474
0.21500001 253180.51027235 9023.35381271
0.21600001 249916.64132830 8948.26576582
0.21700001 246692.58773233 8066.84800024
0.21800001 243507.48064265 10398.98745251
0.21900001 240359.69906059 7931.87044403
0.22000001 237249.76575418 7864.83010662
0.22100001 234178.39767654 10137.58331476
0.22200001 231143.85249908 13917.17201704
0.22300001 228143.88403764 10731.88881259
0.22400001 225179.46795573 9119.76888345
0.22500001 222252.31701750 9041.22468381
0.22600001 219357.59031060 8216.03893361
0.22700001 216498.95754915 7404.26469832
0.22800001 213672.84373971 10275.52754137
0.22900001 210878.84716540 13095.57702827
0.23000001 208118.73765056 9374.70898082
0.23100001 205391.35624952 7147.61953551
0.23200001 202694.00534135 7792.57140389
0.23300001 200028.50761456 9829.40132906
0.23400001 197394.63721333 6958.16129086
0.23500001 194789.02248663 6895.53172216
0.23600001 192214.94257625 10249.86229767
0.23700001 189669.75636984 8802.57380947
0.23800001 187153.58247138 9393.23874853
0.23900001 184665.76287802 8642.35811147
0.24000001 182206.11201994 8562.77663940
0.24100001 179775.28743509 7831.01189109
0.24200001 177371.16314825 7111.69712283
0.24300001 174994.53506864 8966.72040107
0.24400001 172643.85820738 8882.52692495
0.24500001 170319.52296991 8170.22790335
0.24600001 168021.66230276 9337.80432420
0.24700001 165749.40725924 6782.46606590
0.24800001 163502.14200455 7328.16635132
0.24900001 161279.00455399 7862.35184395
0.25000001 159081.59092560 7187.30661804
0.25100001 156907.15493014 8303.52703173
0.25200001 154758.65379151 7635.01854601
0.25300001 152633.23312656 8722.98968587
0.25400001 150530.84845918 7485.14679376
0.25500001 148451.29206768 6270.58287361
0.25600001 146395.09800960 6772.23755434
0.25700001 144360.49838115 6704.10186201
0.25800001 142349.37941948 5530.27365211
0.25900001 140359.85753294 8758.45552446
0.26000001 138392.16267811 6501.66411025
0.26100001 136445.30771709 5898.53093171
0.26200001 134520.79207711 7960.26824782
0.26300001 132616.54544884 5776.77699309
0.26400001 130733.34894523 5716.31595312
0.26500001 128871.20780335 6684.54986507
0.26600001 127028.42760670 6613.73539630
0.26700001 125207.12500540 8053.32266143
0.26800001 123405.96233953 5477.37389763
0.26900001 121623.36937741 5418.32136217
0.27000001 119861.37508127 5846.83815315
0.27100001 118118.27466728 6264.99358483
0.27200001 116395.83114879 5243.05046222
0.27300001 114691.42968313 6127.96337797
0.27400001 113004.32582979 5127.57152719
0.27500001 111338.87915155 6453.20174102
0.27600001 109689.56077736 7292.16234559
0.27700001 108060.45952835 5857.95778827
0.27800001 106448.61532195 5345.84971447
0.27900001 104856.29133641 4844.36088901
0.28000001 103280.29947168 4788.59131164
0.28100001 101722.98241849 4302.88235995
0.28200001 100184.04806516 5528.65695414
0.28300001 98662.11544955  6304.50947562
0.28400001 97157.56736830  5399.53206206
0.28500001 95670.79919319  4104.27747965
0.28600001 94201.09806724  4460.89321012
0.28700001 92748.50158696  4407.40900403
0.28800001 91312.35077769  4354.22965293
0.28900001 89894.68572101  5083.54471815
0.29000001 88492.36260612  5021.49935377
0.29100001 87107.64802042  3815.31516389
0.29200001 85739.39735923  4145.07136154
0.29300001 84387.64621406  4837.94398646
0.29400001 83051.61246897  5512.55103857
0.29500001 81733.00373064  4354.73464491
0.29600001 80429.86922715  5374.72626553
0.29700001 79142.97877083  4598.99871408
0.29800001 77871.99567870  4540.32692298
0.29900001 76617.52216680  3792.56752679
0.30000001 75378.15891469  3743.65643972
0.30100001 74155.57472370  4031.09723281
0.30200001 72946.90978320  5304.69953056
0.30300001 71755.37287971  4253.65870568
0.30400001 70579.23334641  5489.30013339
0.30500001 69418.21714742  3504.92594970
0.30600001 68271.48578843  4715.85310410
0.30700001 67141.29253617  5273.27736544
0.30800001 66025.70261752  3978.37889957
0.30900001 64925.33330297  4528.54221228
0.31000001 63840.17020770  3573.77289743
0.31100001 62768.92721445  4112.62030580
0.31200001 61713.34698893  4056.41848964
0.31300001 60671.77062013  3429.16863781
0.31400001 59646.13159649  3100.10783651
0.31500001 58633.94827879  3057.17420800
0.31600002 57636.71478506  3014.68850957
0.31700002 56653.70750742  3242.85837127
0.31800002 55684.99124351  3996.79043575
0.31900002 54730.58432546  3940.60225802
0.32000002 53790.61235335  2849.01991819
0.32100002 52863.96768877  3063.99571232
0.32200002 51952.46770203  2768.80689728
0.32300002 51053.20225612  2977.42289656
0.32400002 50168.44711829  3423.99667795
0.32500002 49297.18023510  3133.82189594
0.32600002 48440.03709018  4276.77107721
0.32700002 47595.78527358  2341.71274635
0.32800002 46765.66813048  3231.04016413
0.32900002 45948.15233339  3184.20710749
0.33000002 45144.98941711  2689.73859684
0.33100002 44352.24095208  2429.61587441
0.33200002 43575.88724448  3482.58507350
0.33300002 42810.86298131  3002.75407171
0.33400002 42059.15878211  4015.59837488
0.33500002 41319.22191353  2290.73777137
0.33600002 40593.06363682  2051.97946402
0.33700002 39878.39203182  2426.20148611
0.33800002 39177.11005321  2589.80298271
0.33900002 38487.31112299  2747.99414432
0.34000002 37810.20027274  2127.39101910
0.34100002 37145.12628140  2286.65408218
0.34200002 36492.62161425  2628.56365936
0.34300002 35850.93153468  2034.89897028
0.34400002 35222.41737796  2369.58824133
0.34500002 34604.79891518  2155.18697851
0.34600002 33999.79713719  2477.56533473
0.34700002 33404.48417867  2615.57123507
0.34800002 32822.29932017  2061.89694095
0.34900002 32250.60107484  2201.10362761
0.35000002 31690.03768363  2335.87278829
0.35100002 31141.45642691  1973.12277266
0.35200002 30602.17302659  2430.57770776
0.35300002 30074.50791908  2395.43466921
0.35400002 29557.94668207  1731.35680891
0.35500002 29051.85857022  1861.64318535
0.35600002 28555.31880194  2140.79235198
0.35700002 28069.86144554  1507.35163102
0.35800002 27595.20766049  1486.00200290
0.35900002 27130.28113594  2051.04935103
0.36000002 26675.63946967  1733.38313484
0.36100002 26230.29074288  1566.73534028
0.36200002 25795.88142964  1685.50297245
0.36300002 25370.03005969  1939.28518962
0.36400002 24953.88437504  1502.84775767
0.36500002 24547.06390389  1617.16064659
0.36600002 24150.04939320  1462.40631028
0.36700002 23761.61606353  1836.29777637
0.36800002 23383.69945058  2070.86052144
0.36900002 23013.72825484  1404.98817651
0.37000002 22652.35658915  1764.84518546
0.37100002 22299.59206004  1493.18075507
0.37200002 21956.34468813  1351.30329784
0.37300002 21621.01963914  1455.52711106
0.37400002 21294.02085211  2036.24084044
0.37500002 20975.80047729  1656.24928414
0.37600002 20665.73581834  1168.64741589
0.37700002 20363.20923885  1500.97222410
0.37800002 20068.56502689  1254.98777341
0.37900002 19782.29882798  1353.10930393
0.38000002 19503.63166315  1226.09586259
0.38100002 19231.58442419  1212.16682368
0.38200002 18968.02072249  1525.59797898
0.38300002 18710.96405444  1185.52673865
0.38400002 18462.13635233  1172.80726734
0.38500002 18219.10171985  1160.37464351
0.38600002 17984.23713128  1461.57902090
0.38700002 17755.62951851  1136.71545563
0.38800002 17533.76582250  1432.33339790
0.38900002 17318.13667709  1317.04435669
0.39000002 17110.16360391  1605.61782866
0.39100002 16907.42381024  1192.98788057
0.39200002 16711.60798667  1477.72400623
0.39300002 16521.72047322  1171.72047147
0.39400002 16339.08939144  1452.13663846
0.39500002 16161.17067703  1151.96830044
0.39600002 15989.27548434  1047.37754022
0.39700002 15823.11895070  1039.10427072
0.39800002 15662.73155186  1124.89743335
0.39900002 15507.80235124  1023.51500367
0.40000002 15358.01914595  923.78489540
0.40100002 15213.98420503  1376.10493654
0.40200002 15075.24754343  1275.81826005
0.40300002 14940.99774829  1086.50940773
0.40400002 14812.30047708  989.83202628
0.40500002 14688.51295495  1341.79572201
0.40600002 14569.54822333  1423.15353789
0.40700002 14454.98277648  1238.50298297
0.40800002 14345.43160373  1232.12917882
0.40900002 14240.04260770  1138.49146043
0.41000002 14139.41384737  1220.37286699
0.41100002 14042.99531138  954.64286650
0.41200002 13950.38220614  950.64884048
0.41300002 13862.63287098  946.95649629
0.41400002 13778.40306518  857.70563145
0.41500002 13698.39799755  854.78007555
0.41600002 13621.73835731  1022.44772955
0.41700002 13549.15480126  1019.43845555
0.41800002 13481.23981252  932.02555860
0.41900002 13414.84077369  1183.18901230
0.42000002 13353.26031373  1433.53932891
0.42100002 13295.31856959  1262.39055800
0.42200002 13240.76342009  1344.20236610
0.42300002 13188.85874012  1342.09832899
0.42400002 13139.94540676  837.67155937
0.42500002 13094.73337888  1255.13025384
0.42600002 13051.52158745  919.54499702
0.42700002 13012.62658367  1169.57493276
0.42800002 12975.39771214  834.96688234
0.42900002 12942.34119371  918.25915121
0.43000002 12911.24126154  1001.65414454
0.43100002 12881.88044133  1001.69507059
0.43200002 12856.22483367  1252.51776377
0.43300002 12832.76704434  1503.74371352
0.43400002 12811.68499601  919.55873416
0.43500002 12792.86136598  920.31849028
0.43600002 12776.54705714  921.25296921
0.43700002 12761.95538786  922.30655959
0.43800002 12749.46636536  923.50763994
0.43900002 12739.73470612  1008.98703654
0.44000002 12731.42369948  1263.27557645
0.44100002 12725.47988460  928.06929196
0.44200002 12721.16619828  929.85368733
0.44300002 12718.78273274  847.07097014
0.44400002 12718.55472543  933.85992497
0.44500002 12718.70520997  1191.23398642
0.44600002 12720.95732746  1023.52827507
0.44700002 12725.83578867  1111.72906718
0.44800002 12730.59479570  1200.36784017
0.44900002 12738.49452994  1289.77263228
0.45000002 12747.14956872  948.57918011
0.45100002 12756.85530017  1470.35521158
0.45200002 12768.05517302  954.34832914
0.45300002 12780.32209179  1305.50996355
0.45400002 12794.12104690  1047.83856340
0.45500002 12809.00873093  963.74986259
0.45600002 12824.85623394  879.14393650
0.45700002 12841.77560977  1058.67603144
0.45800002 12859.32353496  1239.51025428
0.45900002 12878.11402696  1066.30789197
0.46000002 12898.40670691  1159.50232587
0.46100002 12918.45806921  984.77410529
0.46200002 12940.26342228  1168.31173845
0.46300002 12962.69772849  902.20380466
0.46400002 12985.18154010  905.71645535
0.46500002 13008.94426412  909.32524716
0.46600002 13033.16182261  1278.16224052
0.46700002 13057.72551954  1099.98284990
0.46800002 13083.75665699  1012.48655689
0.46900002 13109.26445740  1109.04382566
0.47000002 13135.58428224  1206.43779558
0.47100002 13162.59050946  1118.29374269
0.47200002 13190.00262811  935.83073082
0.47300002 13217.91217580  939.79360024
0.47400002 13245.50280208  1038.11633132
0.47500002 13273.85858917  1042.52890301
0.47600002 13302.96635196  1142.19274512
0.47700002 13331.41724301  1051.44892779
0.47800002 13360.36912178  959.94256690
