# SAXS profile: number of points = 501, q_min = 0, q_max = 0.5, delta_q = 0.001
#    q    intensity    error
0.00000000 1646666.22097350 345.79990640
0.00100000 1646580.95803487 592.76915897
0.00200000 1646325.13192513 889.01559939
0.00300000 1645898.97115262 1382.55518502
0.00400000 1645302.31955688 1850.96517983
0.00500000 1644535.84673477 1776.09878477
0.00600000 1643599.39951396 1898.35738372
0.00700000 1642493.72190941 2365.19105785
0.00800000 1641218.55677037 2215.64514518
0.00900000 1639775.35432639 2459.66313663
0.01000000 1638163.45109884 4595.04867874
0.01100000 1636384.43325525 2945.49210810
0.01200000 1634438.17660757 3505.87004253
0.01300000 1632326.00731242 5141.82714981
0.01400000 1630048.16923339 4034.36939770
0.01500000 1627606.09517197 5078.13124306
0.01600000 1624999.48166492 4143.74886349
0.01700000 1622230.50078561 4818.02480346
0.01800000 1619299.64949554 5538.00505047
0.01900000 1616207.86725539 5818.34858466
0.02000000 1612955.93758697 6096.97371988
0.02100000 1609546.55379610 6904.95502885
0.02200000 1605978.34319199 6648.75064288
0.02300000 1602254.35684710 8075.36232609
0.02400000 1598375.20178607 8391.47019201
0.02500000 1594343.25121687 7461.52675647
0.02600000 1590158.91878714 8372.18709034
0.02700000 1585824.05199013 7992.55358810
0.02800000 1581339.01551282 7566.70753624
0.02900000 1576707.29866809 7804.70148675
0.03000000 1571929.40656549 11695.15532242
0.03100000 1567006.97515613 9025.96059221
0.03200000 1561941.27227726 8504.77061926
0.03300000 1556736.24060279 12702.96830893
0.03400000 1551390.37748158 12217.19978637
0.03500000 1545907.90141082 9182.69335842
0.03600000 1540289.29028371 11968.04833859
0.03700000 1534537.53799585 12245.61011954
0.03800000 1528654.13215630 15202.46604786
0.03900000 1522641.58922487 11876.60494596
0.04000000 1516499.92084985 11191.76993449
0.04100000 1510233.39565731 9514.47083379
0.04200000 1503843.25397744 12609.72626960
0.04300000 1497331.33866542 12847.10348209
0.04400000 1490700.53996053 13080.89784566
0.04500000 1483953.03504245 15358.91462634
0.04600000 1477089.52498280 13537.52612578
0.04700000 1470113.85502967 13760.26632304
0.04800000 1463027.80522587 10753.25486874
0.04900000 1455833.84619161 13102.50522561
0.05000000 1448533.78744460 12189.41238896
0.05100000 1441131.36895728 12364.90772166
0.05200000 1433625.87868235 12537.05889332
0.05300000 1426022.64968012 13860.94080106
0.05400000 1418322.73862950 12871.27945330
0.05500000 1410529.62373364 11848.44939208
0.05600000 1402644.13443890 15590.39028180
0.05700000 1394671.12654748 13347.00330408
0.05800000 1386610.00218029 13498.64900151
0.05900000 1378464.76127781 17368.65680332
0.06000000 1370238.85706965 16298.99196631
0.06100000 1361933.62994537 21532.17169566
0.06200000 1353552.04155170 15349.28086868
0.06300000 1345097.16695698 12912.93340654
0.06400000 1336568.41618840 15637.85120074
0.06500000 1327972.37979378 14461.61989244
0.06600000 1319309.88792911 21214.50399050
0.06700000 1310582.29886027 16041.52808878
0.06800000 1301793.96563119 16168.28180996
0.06900000 1292948.01403170 14933.55026124
0.07000000 1284044.20258911 13675.07139796
0.07100000 1275086.87859474 15148.03282721
0.07200000 1266077.85473959 15249.90847475
0.07300000 1257020.91597970 16743.51938538
0.07400000 1247918.47021598 14039.08344786
0.07500000 1238771.19635988 16946.39076052
0.07600000 1229582.30639192 22722.68208738
0.07700000 1220355.85439817 15705.98058253
0.07800000 1211092.57385553 14351.44767322
0.07900000 1201794.68312420 24516.61268565
0.08000000 1192467.28935141 17386.17389435
0.08100000 1183110.94905339 20373.17149857
0.08200000 1173727.09184909 17535.48357508
0.08300000 1164319.15951152 20538.59093770
0.08400000 1154890.30725433 19142.30774125
0.08500000 1145442.15734609 17731.44542812
0.08600000 1135977.20881043 19271.85425231
0.08700000 1126497.57809686 20817.67622078
0.08800000 1117005.30266690 16403.22364002
0.08900000 1107503.32802460 23922.07300894
0.09000000 1097994.23295727 19483.90857909
0.09100000 1088479.17858181 18025.21604416
0.09200000 1078960.54914195 16556.65040453
0.09300000 1069442.36774499 19602.87952195
0.09400000 1059923.39044771 21145.47263322
0.09500000 1050407.92447950 19663.63727050
0.09600000 1040897.37182750 15145.05747203
0.09700000 1031396.66594140 21226.14438297
0.09800000 1021904.48570152 15175.28232617
0.09900000 1012424.69039344 18223.64528400
0.10000000 1002956.86824616 18233.75672220
0.10100000 993504.93688639 16720.68887420
0.10200000 984070.56290325 15203.89091199
0.10300000 974655.12101472 24327.39296491
0.10400000 965261.55916972 22804.30540822
0.10500000 955892.53433136 24317.90721753
0.10600001 946544.89713143 19749.66020794
0.10700001 937226.35237924 16701.37438533
0.10800001 927934.53950235 24274.76869579
0.10900001 918673.75147062 16673.92937396
0.11000001 909444.53593831 18170.70268333
0.11100001 900247.92484048 19661.41560405
0.11200001 891086.83204337 24166.27602269
0.11300001 881961.38680628 15081.54042444
0.11400001 872873.91924221 21079.90614223
0.11500001 863826.40751447 15030.58019851
0.11600001 854819.65739251 21002.91997119
0.11700001 845854.96408652 14971.63356942
0.11800001 836933.19802902 19421.03577496
0.11900001 828055.64009701 17886.00266856
0.12000001 819224.00617560 22303.37461873
0.12100001 810441.19015109 16314.18192627
0.12200001 801705.98615644 19228.91898386
0.12300001 793020.92436659 16225.20887698
0.12400001 784386.20348331 17648.69040994
0.12500001 775802.34847667 17595.19809255
0.12600001 767273.26284559 19001.52324979
0.12700001 758797.11435444 24767.13897971
0.12800001 750375.88688549 17423.72891465
0.12900001 742010.24677141 15916.12054341
0.13000001 733701.62527124 21625.85642420
0.13100001 725449.66602493 20109.46569012
0.13200001 717256.07279938 20032.96305765
0.13300001 709122.59438917 14253.36481917
0.13400001 701047.91162167 15615.84296759
0.13500001 693034.31810526 14137.90075592
0.13600001 685081.27871352 19709.78931792
0.13700001 677190.70673141 18223.20277743
0.13800001 669361.34330413 16747.42159921
0.13900001 661595.89686988 19450.92028524
0.14000001 653893.60554931 16595.82049151
0.14100001 646255.19292687 17894.80713612
0.14200001 638680.70706296 16439.64217518
0.14300001 631172.39115144 16359.98915031
0.14400001 623726.60537134 17635.87059876
0.14500001 616348.17691692 13498.02571121
0.14600001 609034.92527366 25515.51939802
0.14700001 601789.47386194 13359.72695000
0.14800001 594607.42724063 15947.37195097
0.14900001 587493.31440080 14540.46021745
0.15000001 580445.41634723 17091.21609076
0.15100001 573464.84214055 14382.49891952
0.15200001 566551.24942714 18203.29250305
0.15300001 559705.88582452 21979.65117353
0.15400001 552925.11186729 16712.16229485
0.15500001 546213.30834845 15337.67042225
0.15600001 539566.30833295 17789.50202531
0.15700001 532989.89193467 17684.60544905
0.15800001 526476.87331257 15067.76882539
0.15900001 520033.21274200 18721.19654236
0.16000001 513654.10682707 16126.17144503
0.16100001 507344.86056935 16027.02490193
0.16200001 501100.83821061 17152.68250166
0.16300001 494923.25298648 14610.13511787
0.16400001 488811.98575478 12098.09721858
0.16500001 482766.42109210 14425.06134326
0.16600001 476787.59421645 11943.52979901
0.16700001 470872.69996178 16612.38963900
0.16800001 465022.78072974 16503.65926734
0.16900001 459239.99090072 17565.93048138
0.17000001 453520.19835328 23265.58727412
0.17100001 447864.65031772 11554.90852383
0.17200001 442273.74734202 17215.50642825
0.17300001 436746.20082681 14818.79929386
0.17400001 431281.80918067 11321.14802565
0.17500001 425880.23844979 13491.88659128
0.17600001 420539.58015848 15631.45693275
0.17700001 415262.70127713 16631.27197165
0.17800001 410045.76222517 11009.72923576
0.17900001 404890.57016050 15304.86427497
0.18000001 399795.84896840 15196.24093708
0.18100001 394762.60102702 10777.01951711
0.18200001 389786.30957153 10699.63470317
0.18300001 384870.05990296 13809.13840165
0.18400001 380012.06357642 15818.00289362
0.18500001 375213.57218580 14655.84282195
0.18600001 370470.66240130 11430.87282843
0.18700001 365784.67076327 13409.66666372
0.18800001 361155.01365194 11262.61963285
0.18900001 356583.00121854 16260.18562382
0.19000001 352062.30142735 13112.56103621
0.19100001 347600.62204399 15016.34758182
0.19200001 343189.93491719 10928.88399384
0.19300001 338834.84256522 13804.13213839
0.19400001 334530.74342246 11742.02964898
0.19500001 330279.95123336 14565.34653768
0.19600001 326080.64766919 17344.23046915
0.19700001 321931.98270144 11473.65640570
0.19800001 317834.37975730 11384.82802094
0.19900001 313786.98058770 11296.33183502
0.20000001 309787.58432324 10274.10571965
0.20100001 305838.29722505 12046.97109706
0.20200001 301935.59402695 12871.51498172
0.20300001 298081.99298819 10033.44035821
0.20400001 294274.53645723 9048.94242376
0.20500001 290513.12873561 9874.54171246
0.20600001 286797.45163128 11576.57968230
0.20700001 283127.36078134 8833.57407393
0.20800001 279500.49020928 10514.80893871
0.20900001 275920.09162103 13906.37327507
0.21000001 272380.76872971 13793.36278052
0.21100001 268884.82277222 11970.75287572
0.21200001 265430.88893515 9328.56903263
0.21300001 262017.62873775 10092.91953613
0.21400001 258646.44303205 10843.75263677
0.21500001 255316.32069113 8272.24918148
0.21600001 252025.11695393 11484.78512257
0.21700001 248773.59298588 8948.38656278
0.21800001 245560.69829491 10486.67011650
0.21900001 242385.20256186 9598.45447528
0.22000001 239247.12407982 9517.25104589
0.22100001 236147.72134700 11009.20728975
0.22200001 233084.75886031 9356.02266305
0.22300001 230056.51737934 8502.88928440
0.22400001 227063.66369933 12261.43841956
0.22500001 224107.95129994 7597.25990832
0.22600001 221184.50412567 8284.46599378
0.22700001 218297.23190039 9705.49538926
0.22800001 215442.36348628 8140.49008929
0.22900001 212619.66976410 9535.99263989
0.23000001 209830.73004572 10905.95270989
0.23100001 207074.48752109 10809.28875980
0.23200001 204348.41246219 7141.97735332
0.23300001 201653.85653173 11324.88111843
0.23400001 198990.95570646 7715.87467244
0.23500001 196356.49553821 7646.12229789
0.23600001 193753.56610573 7576.73356092
0.23700001 191179.48716343 6825.10801455
0.23800001 188634.55625230 8115.05899381
0.23900001 186117.98682659 9380.34697975
0.24000001 183629.46936389 6638.20563149
0.24100001 181169.97970298 7234.11763172
0.24200001 178737.52229454 9772.47449371
0.24300001 176332.01583784 7744.50250193
0.24400001 173952.97781922 7032.04946098
0.24500001 171600.44560631 9498.08511361
0.24600001 169274.04278623 8780.24501467
0.24700001 166973.63801530 7453.70355361
0.24800001 164698.51486195 7381.78778532
0.24900001 162447.54807331 6700.96167503
0.25000001 160222.37025191 6635.60977790
0.25100001 158020.36237100 7765.12097427
0.25200001 155844.28614552 8280.00731464
0.25300001 153691.65201066 7612.34788423
0.25400001 151562.08239705 10435.04986673
0.25500001 149455.51348977 8034.72878535
0.25600001 147372.49744679 7385.57305898
0.25700001 145311.57082031 10122.40450227
0.25800001 143273.73230916 5566.18476357
0.25900001 141258.09162915 5509.06583420
0.26000001 139264.47465621 5452.20444076
0.26100001 137291.66900131 5935.11913175
0.26200001 135341.72881369 5873.15459977
0.26300001 133411.91382032 6339.73444472
0.26400001 131503.62642439 6795.45021703
0.26500001 129616.57912730 6206.04210228
0.26600001 127749.19099063 5627.99087541
0.26700001 125903.36376979 5061.31546305
0.26800001 124078.09263161 8010.48203936
0.26900001 122271.39024349 5942.38984704
0.27000001 120485.84186869 5877.29964448
0.27100001 118719.28007131 6781.24559858
0.27200001 116973.73233294 6706.10439200
0.27300001 115246.57267540 6631.28810556
0.27400001 113536.87513857 7025.09448166
0.27500001 111849.16096574 6482.77767637
0.27600001 110177.74582679 4577.88555576
0.27700001 108526.99137680 4525.57575459
0.27800001 106893.60404569 4920.84729513
0.27900001 105280.03702816 6632.64264668
0.28000001 103683.31252426 6118.35256163
0.28100001 102105.46124277 4750.96733648
0.28200001 100546.26302108 4695.00797398
0.28300001 99004.37146689  5061.10370893
0.28400001 97480.14854250  5417.45951166
0.28500001 95974.10657127  5352.47617682
0.28600001 94485.39000377  6508.15397150
0.28700001 93013.95893098  4420.02353761
0.28800001 91559.35969368  4762.91811671
0.28900001 90123.76948537  5096.49940563
0.29000001 88703.65853526  4646.29785401
0.29100001 87301.52762611  5353.32992743
0.29200001 85916.16321905  4908.82021788
0.29300001 84547.64669121  4474.26167469
0.29400001 83195.06647750  4417.65823907
0.29500001 81860.33314858  3634.59896385
0.29600001 80541.40820606  6458.61582978
0.29700001 79238.99880498  5667.17346281
0.29800001 77952.90042084  4545.04407419
0.29900001 76683.58924330  3795.83784724
0.30000001 75429.64987765  4767.90839448
0.30100001 74192.89164653  3697.03196576
0.30200001 72970.32017464  4311.45157163
0.30300001 71765.31375518  3599.74830838
0.30400001 70575.91521563  3551.73310137
0.30500001 69401.95592696  4778.32489179
0.30600001 68242.64399585  3456.83129527
0.30700001 67100.24342613  3720.03767166
0.30800001 65972.69067020  4892.53497173
0.30900001 64860.69678145  4222.43156038
0.31000001 63764.37926976  4461.91265065
0.31100001 62682.16836622  4106.93586580
0.31200001 61615.90575888  3760.72698605
0.31300001 60564.07491271  3423.08167614
0.31400001 59528.28876077  5062.88119881
0.31500001 58506.30989554  2773.19922035
0.31600002 57499.72424163  3827.75682400
0.31700002 56507.59801522  3234.49506354
0.31800002 55530.11585395  2922.82778636
0.31900002 54567.34681853  3405.00260270
0.32000002 53619.03532072  3614.45934211
0.32100002 52684.45335731  3562.52290471
0.32200002 51765.39433128  3009.64016893
0.32300002 50858.81997426  3213.26039812
0.32400002 49967.01592337  3653.83821241
0.32500002 49089.17590285  2400.46081532
0.32600002 48225.47351186  3311.64342287
0.32700002 47374.98317988  3962.44378080
0.32800002 46539.10648804  2756.04601673
0.32900002 45715.97270019  3394.41113373
0.33000002 44907.21735644  3344.46517099
0.33100002 44109.47696603  3294.97808539
0.33200002 43328.27364960  2164.24737129
0.33300002 42558.71878708  4051.16463319
0.33400002 41802.62233679  2100.58187190
0.33500002 41058.76320923  2483.23411649
0.33600002 40328.66370447  2242.47545148
0.33700002 39610.48578994  2811.55241452
0.33800002 38905.94625217  1978.36746061
0.33900002 38213.05393943  2533.52559617
0.34000002 37533.20237753  2879.73508880
0.34100002 36865.39825305  2080.31452194
0.34200002 36210.44375946  2235.63290359
0.34300002 35566.73922809  1835.24383109
0.34400002 34936.31385063  2169.54519287
0.34500002 34316.91971897  1959.15303954
0.34600002 33710.29567163  2281.00726465
0.34700002 33113.76006515  1901.39219299
0.34800002 32530.35001438  2213.85307508
0.34900002 31957.76949651  2181.11787144
0.35000002 31396.59766377  1983.63713435
0.35100002 30847.34690573  2117.36199189
0.35200002 30307.90405733  1765.28395543
0.35300002 29780.08014297  1739.45456354
0.35400002 29263.39789238  1714.10361273
0.35500002 28757.50946676  2149.91150956
0.35600002 28261.39661811  1816.07743270
0.35700002 27776.52778558  1491.59961273
0.35800002 27302.35507750  2205.34783584
0.35900002 26838.42934436  2898.55050648
0.36000002 26384.86022389  1428.74024880
0.36100002 25940.64644377  1408.57716862
0.36200002 25507.45819326  1666.65739729
0.36300002 25083.18961508  1369.54221785
0.36400002 24668.64118101  1485.66898550
0.36500002 24263.52663780  1998.10151327
0.36600002 23868.31253215  1839.53093399
0.36700002 23481.92732970  1296.20245000
0.36800002 23106.06732854  1406.81297594
0.36900002 22738.37734781  1514.37600310
0.37000002 22379.30541019  1494.49008609
0.37100002 22029.03911339  1475.06452891
0.37200002 21688.23527618  1213.45682118
0.37300002 21355.57676285  1437.65749578
0.37400002 21031.35099167  1537.91761412
0.37500002 20715.92784101  1518.89190125
0.37600002 20408.83024145  1615.76716676
0.37700002 20109.25544931  1254.21432179
0.37800002 19817.74356836  1239.30265276
0.37900002 19534.69887247  1447.52125502
0.38000002 19259.31877598  1320.80414423
0.38100002 18990.58187489  1196.97643228
0.38200002 18730.33951610  1398.87547303
0.38300002 18476.85800433  1170.69377861
0.38400002 18231.46430135  1474.01395859
0.38500002 17992.14598152  1041.74530168
0.38600002 17760.94758110  1237.22766711
0.38700002 17535.91990945  1530.88588062
0.38800002 17317.95249101  1414.70360601
0.38900002 17106.05634699  1300.91564682
0.39000002 16901.93137919  1586.07731576
0.39100002 16703.14812533  1178.57418756
0.39200002 16511.24952594  1070.67202623
0.39300002 16325.28904727  1061.30709124
0.39400002 16146.64653852  1530.70216437
0.39500002 15972.69104897  1328.28905056
0.39600002 15804.93092295  1035.30204916
0.39700002 15642.79948081  1027.26269057
0.39800002 15486.61794569  1019.56154076
0.39900002 15335.76122017  1012.16028849
0.40000002 15190.14932045  1187.79378239
0.40100002 15050.35711583  998.29023479
0.40200002 14915.70483767  1081.98528019
0.40300002 14785.64415760  985.61108624
0.40400002 14661.09554828  1068.79391611
0.40500002 14541.53014357  1239.81091878
0.40600002 14426.73065006  1233.05272708
0.40700002 14316.52410828  1051.40558033
0.40800002 14211.00296642  1046.21408796
0.40900002 14109.84882438  954.53131820
0.41000002 14013.53114689  950.32765975
0.41100002 13921.23022057  1290.49810259
0.41200002 13832.84983256  1028.33410528
0.41300002 13749.37812194  1195.37099056
0.41400002 13669.26126724  1021.09386505
0.41500002 13593.40538800  1272.34280460
0.41600002 13520.85561481  930.30251466
0.41700002 13452.42756906  927.81397340
0.41800002 13388.61616538  841.47456587
0.41900002 13326.38679863  1175.38737133
0.42000002 13268.82509129  1173.09688191
0.42100002 13215.02963671  920.16255721
0.42200002 13164.41840615  1002.33886494
0.42300002 13116.56159608  1084.47736415
0.42400002 13071.71879109  999.98653490
0.42500002 13030.48143221  915.91258327
0.42600002 12991.19764927  1164.92074841
0.42700002 12956.25406943  1247.68732601
0.42800002 12923.06161440  1164.23867601
0.42900002 12893.82435813  831.65171051
0.43000002 12866.60959679  831.82634985
0.43100002 12841.11744845  1164.94623013
0.43200002 12819.25184678  1082.39358098
0.43300002 12799.59989502  833.25399265
0.43400002 12782.26953484  917.44743934
0.43500002 12767.13949325  1168.95934740
0.43600002 12754.62074561  1170.49160129
0.43700002 12743.66591926  1004.71066869
0.43800002 12734.81231350  1006.30491670
0.43900002 12728.65993349  1176.12823359
0.44000002 12723.98694504  1010.03013156
0.44100002 12721.55297769  1012.12680287
0.44200002 12720.77913567  1267.94372044
0.44300002 12721.93862097  932.00926754
0.44400002 12725.06684096  849.39825189
0.44500002 12728.64804452  936.70125399
0.44600002 12734.33179530  939.22068607
0.44700002 12742.52165748  941.92724556
0.44800002 12750.71372057  1030.51273173
0.44900002 12761.96478658  1206.00572949
0.45000002 12773.89745337  1036.98504441
0.45100002 12786.89345518  1127.03684255
0.45200002 12801.36262705  1304.77894760
0.45300002 12816.79148279  1221.95295788
0.45400002 12833.82006237  963.49908685
0.45500002 12851.84276110  1054.87930383
0.45600002 12870.83194830  970.52512906
0.45700002 12890.86122009  1062.72264935
0.45800002 12911.52319694  1066.75009709
0.45900002 12933.29735483  1249.35658369
0.46000002 12956.59500534  1075.13830450
0.46100002 12979.65239214  899.48995341
0.46200002 13004.38329920  903.15446293
0.46300002 13029.88385674  997.56795535
0.46400002 13055.22136923  1001.66190703
0.46500002 13081.94537478  1188.75643255
0.46600002 13108.95399264  1010.11049778
0.46700002 13136.36163437  1291.04168262
0.46800002 13165.22020932  926.17328562
0.46900002 13193.53275849  1209.18733463
0.47000002 13222.70369251  1121.02087218
0.47100002 13252.37707101  1219.74884343
0.47200002 13282.60999448  1225.12159091
0.47300002 13313.30452020  1419.86399438
0.47400002 13343.59930309  1140.87779449
0.47500002 13374.70781241  1432.43127460
0.47600002 13406.40196091  1055.15091635
0.47700002 13437.59243681  1059.82296572
