# SAXS profile: number of points = 501, q_min = 0, q_max = 0.5, delta_q = 0.001
#    q    intensity    error
0.00000000 1664650.74656090 374.54641798
0.00100000 1664564.95773894 699.11729885
0.00200000 1664307.55597919 898.72610869
0.00300000 1663878.76757235 1197.99275533
0.00400000 1663278.44202463 1247.45887892
0.00500000 1662507.25240538 2543.63619686
0.00600000 1661565.01870224 2093.57200880
0.00700000 1660452.52428813 2988.81466793
0.00800000 1659169.50026283 2911.84259590
0.00900000 1657717.37334710 2735.23378295
0.01000000 1656095.50100618 3825.58077251
0.01100000 1654305.51604301 4764.40009364
0.01200000 1652347.23429211 3222.07724814
0.01300000 1650221.99084703 4505.10623371
0.01400000 1647930.05028862 4449.41133303
0.01500000 1645472.84137240 5528.78899320
0.01600000 1642850.06475502 4608.19463764
0.01700000 1640063.90442900 5756.62456278
0.01800000 1637114.86767480 5132.35534110
0.01900000 1634003.84208976 4902.01174746
0.02000000 1630731.69346089 8218.88810683
0.02100000 1627301.01887576 5907.10296634
0.02200000 1623710.58539193 7842.52248375
0.02300000 1619963.30004143 6998.24177473
0.02400000 1616059.93463119 11514.42755928
0.02500000 1612002.73454572 8172.85423741
0.02600000 1607792.17792832 8465.02620397
0.02700000 1603430.05644456 7407.84720006
0.02800000 1598916.85684618 9041.87524012
0.02900000 1594255.96554779 8608.98260923
0.03000000 1589447.89852969 9608.21298826
0.03100000 1584494.39703671 8366.13080131
0.03200000 1579396.60297370 8599.81489928
0.03300000 1574158.54968254 8028.20897349
0.03400000 1568778.85671282 9059.69831553
0.03500000 1563261.42733468 8441.61209742
0.03600000 1557607.00302205 11238.13504616
0.03700000 1551818.49195611 10614.43897587
0.03800000 1545897.45929821 9947.85061097
0.03900000 1539846.36121004 15706.43361171
0.04000000 1533665.27770665 9432.04189497
0.04100000 1527358.33955083 12509.06538092
0.04200000 1520927.01869990 10790.97769830
0.04300000 1514373.07141051 12993.32155583
0.04400000 1507699.06961623 14247.75686957
0.04500000 1500907.83762637 12427.51747299
0.04600000 1493999.65778848 15799.04711556
0.04700000 1486978.37613548 14988.74272854
0.04800000 1479845.93437645 17402.98899800
0.04900000 1472604.72513323 16566.80392889
0.05000000 1465256.56548042 12330.13457268
0.05100000 1457805.37115000 12507.97066714
0.05200000 1450250.15227687 11529.48924789
0.05300000 1442596.65139298 12853.53676312
0.05400000 1434845.37733913 11837.47491507
0.05500000 1427000.33701279 19178.88542413
0.05600000 1419061.95780020 13346.27833590
0.05700000 1411035.45864212 15958.81178218
0.05800000 1402920.12306338 13657.42803572
0.05900000 1394719.73927956 13807.72606377
0.06000000 1386438.07940178 13954.49992112
0.06100000 1378076.50778097 15379.33454553
0.06200000 1369637.59950882 16825.99869647
0.06300000 1361124.94872827 13066.80011873
0.06400000 1352537.72926007 13187.24347701
0.06500000 1343882.32468161 17295.76632771
0.06600000 1335160.03357656 21469.37434443
0.06700000 1326371.83569971 14881.89269301
0.06800000 1317522.22364947 19090.89791431
0.06900000 1308614.50044532 20610.67934698
0.07000000 1299648.35727331 19377.75791438
0.07100000 1290627.80435444 19514.29331585
0.07200000 1281555.26661577 22452.84932295
0.07300000 1272434.01318284 15536.42002893
0.07400000 1263266.73856541 19896.45206484
0.07500000 1254054.05559675 17155.46028468
0.07600000 1244799.17235287 17252.91733764
0.07700000 1235506.12894638 17346.50686376
0.07800000 1226175.98055973 15983.20465615
0.07900000 1216810.48228210 16061.89911949
0.08000000 1207414.86941898 20538.12789228
0.08100000 1197990.06633776 16208.80635804
0.08200000 1188537.11494156 16277.01655293
0.08300000 1179059.57582072 20798.61189360
0.08400000 1169560.86654339 20876.66244772
0.08500000 1160042.21607449 25439.72699279
0.08600000 1150506.30692657 18016.92961239
0.08700000 1140955.42988430 15060.61238168
0.08800000 1131391.31889669 16614.48229828
0.08900000 1121817.13154825 19687.89158341
0.09000000 1112235.46322964 16700.21626489
0.09100000 1102647.52147859 15216.53651130
0.09200000 1093055.58464523 19822.56395894
0.09300000 1083463.73976767 16804.52339348
0.09400000 1073870.62579315 21423.71999143
0.09500000 1064280.78281733 19923.33719079
0.09600000 1054695.64155170 19949.56899774
0.09700000 1045119.90233684 18435.91594395
0.09800000 1035552.32480475 15377.95274639
0.09900000 1025997.02062545 18467.94723967
0.10000000 1016453.15847625 20019.04589763
0.10100000 1006924.99389247 24649.52500980
0.10200000 997414.42725641 20033.06971373
0.10300000 987922.34719546 18493.90720947
0.10400000 978451.73384551 23115.92329959
0.10500000 969005.53620606 16947.90762563
0.10600001 959580.57964947 20021.64973648
0.10700001 950184.72329592 18471.59189010
0.10800001 940815.01816719 16920.55889805
0.10900001 931476.26450271 21517.10272273
0.11000001 922169.03146892 24566.58415467
0.11100001 912894.18082846 26072.25903177
0.11200001 903654.74674277 16848.64354620
0.11300001 894450.62553119 21413.14898336
0.11400001 885284.66858632 21379.62575301
0.11500001 876158.36067463 18294.18743232
0.11600001 867072.71626455 16738.83957574
0.11700001 858029.23170119 16705.82992798
0.11800001 849028.36591204 16670.67274984
0.11900001 840071.82455825 18145.55226514
0.12000001 831160.98542623 19611.24437492
0.12100001 822298.96814048 25581.72210396
0.12200001 813484.53716412 16509.66945954
0.12300001 804720.22175242 14967.79682979
0.12400001 796006.03537706 14925.11386655
0.12500001 787343.03076437 17856.94077916
0.12600001 778734.63091940 23735.83266894
0.12700001 770179.26734179 19223.67541879
0.12800001 761678.66855076 17686.17951729
0.12900001 753234.03206179 17625.67718098
0.13000001 744846.16799812 16099.85068014
0.13100001 736514.98369747 16041.29710108
0.13200001 728242.24773238 20339.80693799
0.13300001 720029.83840103 15919.86047756
0.13400001 711876.09879729 15857.04084830
0.13500001 703783.90685180 18664.35008970
0.13600001 695751.84769797 20016.78160208
0.13700001 687782.85405027 15660.81632518
0.13800001 679874.87218563 19845.54845493
0.13900001 672030.98247581 15523.91642727
0.14000001 664250.58838039 16858.68072816
0.14100001 656533.96967089 15382.59163488
0.14200001 648881.53974443 18094.06258919
0.14300001 641295.40627397 13851.98142888
0.14400001 633771.83480679 16541.44566872
0.14500001 626315.98775015 16459.58493451
0.14600001 618925.43867851 15012.03722333
0.14700001 611603.01778649 16293.10516248
0.14800001 604343.95911434 17559.21456049
0.14900001 597153.15965154 21497.51476173
0.15000001 590028.74781695 18709.81247606
0.15100001 582971.71303267 13291.75568432
0.15200001 575982.30003816 18506.31217348
0.15300001 569061.19908198 18403.44004675
0.15400001 562204.78916444 15685.51435790
0.15500001 555417.60953517 14296.44994413
0.15600001 548695.45782127 16798.31223399
0.15700001 542044.36458717 16700.38766114
0.15800001 535456.75014389 14047.70850306
0.15900001 528938.81728168 17772.34509953
0.16000001 522485.72015426 13879.83381106
0.16100001 516102.81047984 22574.33799599
0.16200001 509785.30919407 17449.95195746
0.16300001 503534.48526818 14864.33870683
0.16400001 497350.44853092 13540.36660049
0.16500001 491232.32041341 22017.03364038
0.16600001 485181.34665628 19446.06929209
0.16700001 479194.48304309 20528.69262282
0.16800001 473272.92519748 11997.46922023
0.16900001 467419.02794229 19070.69724053
0.17000001 461628.28512524 13024.84267984
0.17100001 455902.14509958 16467.18625860
0.17200001 450240.91271639 19862.37880244
0.17300001 444643.56799282 15086.75697446
0.17400001 439109.73369217 12679.29415915
0.17500001 433638.95540639 16027.29654875
0.17600001 428229.47726484 18191.18905336
0.17700001 422884.15593893 12420.10824654
0.17800001 417599.00196797 11212.53373243
0.17900001 412376.03316335 14474.39944771
0.18000001 407214.02030145 18794.96399479
0.18100001 402113.81493807 13173.24919963
0.18200001 397070.88334807 17439.35402045
0.18300001 392088.61550210 11903.81092897
0.18400001 387164.62553962 13966.96452615
0.18500001 382300.62940225 15999.28209632
0.18600001 377492.78855655 11647.54054118
0.18700001 372742.19956402 12613.59662917
0.18800001 368048.33507799 16694.67326790
0.18900001 363412.35017024 13464.42820997
0.19000001 358828.17454397 14392.59876099
0.19100001 354303.46797175 12244.72843167
0.19200001 349830.05662570 11140.33867964
0.19300001 345412.83598198 10051.51400204
0.19400001 341046.79495490 11970.74306858
0.19500001 336734.68747731 9900.00027966
0.19600001 332474.26398444 10807.07646152
0.19700001 328265.17277371 10724.42370133
0.19800001 324107.37862701 12576.98742199
0.19900001 320000.17391469 11520.00680536
0.20000001 315941.44621179 14288.45258022
0.20100001 311933.19650281 10396.73393081
0.20200001 307972.00133722 13128.84703752
0.20300001 304060.22438572 9304.24330596
0.20400001 300195.16197680 11077.20200052
0.20500001 296376.48350380 9158.03377314
0.20600001 292604.09409477 9085.35755109
0.20700001 288877.59260183 12618.17384130
0.20800001 285194.73584913 9834.94093066
0.20900001 281558.69046949 11529.82891976
0.21000001 277964.25204346 8797.56899306
0.21100001 274413.66515535 10471.62595736
0.21200001 270905.35709534 14714.22516624
0.21300001 267438.31404647 8584.77028674
0.21400001 264013.63020205 9365.88397420
0.21500001 260630.52638342 10133.31534487
0.21600001 257286.76012060 9212.15288166
0.21700001 253983.03132652 9135.77006875
0.21800001 250718.44273349 8236.10123320
0.21900001 247491.57097465 9800.66667399
0.22000001 244302.43085803 8098.62596587
0.22100001 241152.57049250 11242.53336795
0.22200001 238039.61447367 9554.91057677
0.22300001 234961.67870032 8684.18405540
0.22400001 231919.38407562 10958.19141575
0.22500001 228914.95217496 12416.34759310
0.22600001 225943.19025454 8462.70259117
0.22700001 223007.94232777 8389.55918711
0.22800001 220105.31991015 8316.67990610
0.22900001 217235.43159947 14239.78321476
0.23000001 214399.67861259 9657.63397983
0.23100001 211597.02358503 9572.64979970
0.23200001 208824.86769091 8028.27241806
0.23300001 206084.84463342 7956.93622762
0.23400001 203376.77809981 8602.83812050
0.23500001 200697.49185213 7104.69154759
0.23600001 198050.17547236 7744.75247815
0.23700001 195432.09337488 9070.00388252
0.23800001 192843.56033323 11752.85134040
0.23900001 190283.68432497 11645.36203151
0.24000001 187752.31507239 10180.86976636
0.24100001 185250.48409875 9414.43004721
0.24200001 182775.72820563 7328.39316905
0.24300001 180328.69878828 9240.04296299
0.24400001 177908.39131832 7845.76042827
0.24500001 175514.87941099 8419.44916362
0.24600001 173147.97583287 6415.13280808
0.24700001 170807.46433369 8260.24936594
0.24800001 168492.45464676 7551.83217452
0.24900001 166201.97502162 9348.86153724
0.25000001 163937.72915586 8023.93253313
0.25100001 161696.99244931 8557.00524524
0.25200001 159482.53775718 7868.07137249
0.25300001 157291.81318106 5992.81836572
0.25400001 155124.66546313 10086.98184897
0.25500001 152980.78837643 8811.69382738
0.25600001 150860.78285203 6978.82014492
0.25700001 148763.21212540 8059.99121430
0.25800001 146689.16464567 6268.76174773
0.25900001 144637.62158106 8461.30126284
0.26000001 142608.26623330 6699.73666464
0.26100001 140600.38205004 6078.15480362
0.26200001 138615.34837242 8202.56362806
0.26300001 136650.96062614 8658.20527496
0.26400001 134708.50709045 6961.06243328
0.26500001 132787.54263512 10066.62408351
0.26600001 130886.44576763 7338.80336146
0.26700001 129007.37750775 6741.92586758
0.26800001 127149.10405574 5130.46659143
0.26900001 125309.71786600 7612.56572060
0.27000001 123491.72689024 6525.92061634
0.27100001 121693.09794195 5461.58649409
0.27200001 119915.85514021 6383.72085049
0.27300001 118157.20091494 4856.26118742
0.27400001 116416.31173196 5282.39039483
0.27500001 114697.63228291 5698.17864148
0.27600001 112995.75388397 5164.47117568
0.27700001 111314.63186024 6962.73055238
0.27800001 109651.33702246 4588.90867157
0.27900001 108008.00323191 4989.96998548
0.28000001 106381.80447089 5380.79192480
0.28100001 104774.77184664 5318.36767065
0.28200001 103186.69475041 6570.41309921
0.28300001 101616.21196343 5194.62100143
0.28400001 100063.66788033 8127.67180827
0.28500001 98529.47414102  5917.68049700
0.28600001 97012.94542198  4594.04824790
0.28700001 95513.97206747  4951.44454634
0.28800001 94032.08614868  4076.29112749
0.28900001 92569.46389145  4429.44905687
0.29000001 91122.52821027  4772.99825358
0.29100001 89693.85672231  4321.45022144
0.29200001 88282.15359715  5044.00108453
0.29300001 86887.59923932  4981.26630018
0.29400001 85509.24680827  4918.91965549
0.29500001 84148.90451516  4109.83269107
0.29600001 82804.62236480  3688.94610098
0.29700001 81477.12920739  4006.23063277
0.29800001 80166.05386004  4674.08199157
0.29900001 78872.18078520  3904.17313369
0.30000001 77593.88666323  4554.37339330
0.30100001 76332.89793224  3457.88044003
0.30200001 75086.42883438  4095.21402250
0.30300001 73857.58163753  5388.64941138
0.30400001 72644.64560283  3988.19123240
0.30500001 71447.32824492  3607.37577387
0.30600001 70264.95512078  3235.70133650
0.30700001 69099.58131917  3511.64088889
0.30800001 67949.39898344  3464.40027119
0.30900001 66814.89056287  3728.27106992
0.31000001 65696.16986047  3064.72646909
0.31100001 64591.83933394  3325.18804634
0.31200001 63503.68886890  4472.24750033
0.31300001 62430.12750135  4410.68871680
0.31400001 61372.91470905  2899.87035730
0.31500001 60329.57373615  3717.50850964
0.31600002 59301.80217850  3383.76099252
0.31700002 58288.70092663  2780.37116585
0.31800002 57290.43141037  3015.48200006
0.31900002 56306.95107537  2702.73377959
0.32000002 55338.33775090  2930.99519776
0.32100002 54383.54294169  3152.07029815
0.32200002 53444.41607089  3366.19670562
0.32300002 52517.85029572  3573.31470332
0.32400002 51606.30274108  4025.29180441
0.32500002 50708.87936004  3719.49647718
0.32600002 49825.78493024  2443.95486655
0.32700002 48956.17411762  2890.37265677
0.32800002 48101.08668963  3085.92536270
0.32900002 47259.05555818  3275.05270527
0.33000002 46431.61795271  2305.32994052
0.33100002 45615.34139806  2271.64410920
0.33200002 44815.63608708  2686.24935427
0.33300002 44027.71303726  3088.10393867
0.33400002 43253.65328118  3260.24427046
0.33500002 42491.62798568  2355.73596708
0.33600002 41743.78113203  2321.16305977
0.33700002 41007.87223285  2910.73890893
0.33800002 40285.77458201  2663.09125486
0.33900002 39575.42841363  3229.35511149
0.34000002 38878.36688554  1988.62856037
0.34100002 38193.44194070  1959.32366435
0.34200002 37521.57087408  2316.58189548
0.34300002 36860.86657073  2282.42496615
0.34400002 36213.80704680  2248.87752411
0.34500002 35577.75191776  2215.78249438
0.34600002 34954.74365350  2183.27339200
0.34700002 34341.81016980  1792.64257576
0.34800002 33742.30675357  2119.69181065
0.34900002 33153.65223607  2088.68018980
0.35000002 32576.53379239  2058.18550248
0.35100002 32011.49631374  1859.22779396
0.35200002 31456.30934788  2664.97865417
0.35300002 30912.95001001  2462.21658492
0.35400002 30380.89417209  2103.11749867
0.35500002 29859.68595493  1913.40876662
0.35600002 29348.41456911  1885.92920954
0.35700002 28848.31160873  1858.98528812
0.35800002 28359.30918893  1679.86375937
0.35900002 27880.44951628  2107.76208327
0.36000002 27412.15535191  1781.24193914
0.36100002 26953.28083821  1463.56321884
0.36200002 26505.65685893  1731.87970120
0.36300002 26066.91466108  1850.22969028
0.36400002 25638.07282346  2386.26374107
0.36500002 25218.81687691  1661.41573455
0.36600002 24809.51885139  1912.06970845
0.36700002 24409.03941019  1751.59275105
0.36800002 24019.44304787  2127.16197708
0.36900002 23637.91141160  1705.47538913
0.37000002 23265.23533772  1294.71040787
0.37100002 22901.39023973  1405.68739950
0.37200002 22547.24640372  1766.12589446
0.37300002 22201.18951235  1619.13282783
0.37400002 21863.70511592  1352.81681813
0.37500002 21535.13522591  1457.49802113
0.37600002 21214.97223180  1559.61875750
0.37700002 20902.51357233  1422.20709083
0.37800002 20598.13375066  1405.20475104
0.37900002 20302.36286818  1851.57558129
0.38000002 20014.30974967  1258.19964202
0.38100002 19732.97308082  1243.76935221
0.38200002 19460.34323961  1229.79644929
0.38300002 19194.47006607  1547.84213946
0.38400002 18936.84946808  1531.04435203
0.38500002 18685.20944541  1406.43578158
0.38600002 18441.94210275  1284.66574774
0.38700002 18204.94542236  1483.33902329
0.38800002 17975.02799388  1153.72722645
0.38900002 17751.34310595  1453.83506925
0.39000002 17535.51519974  1131.30381671
0.39100002 17324.94907120  1018.70705365
0.39200002 17121.55631919  1211.17895140
0.39300002 16924.05358155  1100.23277546
0.39400002 16734.10784759  991.49593694
0.39500002 16548.85733087  1474.50325804
0.39600002 16369.86130080  1072.30781531
0.39700002 16196.58595386  1063.62984998
0.39800002 16029.29284057  1343.09451075
0.39900002 15867.49132417  1237.66438192
0.40000002 15711.00479997  1134.02038019
0.40100002 15560.34244799  1313.60417170
0.40200002 15415.05089226  931.83987059
0.40300002 15274.35385731  1018.18847637
0.40400002 15139.27779781  1195.62452073
0.40500002 15009.22949662  1279.68696751
0.40600002 14883.96733870  1181.26612381
0.40700002 14763.43623384  1174.57904242
0.40800002 14647.77078707  988.50485840
0.40900002 14536.41300416  1251.58521896
0.41000002 14429.97221783  978.56861232
0.41100002 14327.68871739  1062.54144563
0.41200002 14229.37852043  1145.96305344
0.41300002 14135.98990403  965.62951610
0.41400002 14046.15385427  961.81043074
0.41500002 13960.60607239  1132.48441825
0.41600002 13878.40424948  1128.52249502
0.41700002 13800.49395967  1124.87831595
0.41800002 13727.15824862  1380.40309889
0.41900002 13655.52734960  946.32809017
0.42000002 13588.71620288  1201.37845642
0.42100002 13525.62442079  941.78927305
0.42200002 13465.87196496  939.85057833
0.42300002 13408.91864941  1535.05307972
0.42400002 13355.06833080  1021.66277572
0.42500002 13304.81679529  1105.23118356
0.42600002 13256.69928233  934.00079220
0.42700002 13212.90146673  1272.40247154
0.42800002 13170.90996107  1101.81252500
0.42900002 13133.06563076  1016.49932799
0.43000002 13097.22633553  1439.45072862
0.43100002 13063.17965360  1439.03993883
0.43200002 13032.86077580  1269.72652125
0.43300002 13004.80619893  931.27421604
0.43400002 12979.23669115  846.89523423
0.43500002 12955.83349670  847.31155084
0.43600002 12935.11023048  847.89651579
0.43700002 12916.02947501  1018.29981207
0.43800002 12899.12615807  934.34824754
0.43900002 12885.04841304  1020.49588267
0.44000002 12872.48069218  936.66610196
0.44100002 12862.21696093  1023.31802991
0.44200002 12853.71278102  1195.78095669
0.44300002 12847.10177578  1026.74042258
0.44400002 12842.64147398  1114.42026672
0.44500002 12838.74109135  1374.25891155
0.44600002 12836.84619776  1032.85269402
0.44700002 12837.66570497  1035.22941151
0.44800002 12838.37036707  1037.59714224
0.44900002 12842.35478300  953.54488783
0.45000002 12847.06936114  1216.74599686
0.45100002 12852.93180639  1045.71458133
0.45200002 12860.34949280  961.24686840
0.45300002 12868.67542713  1314.53525718
0.45400002 12878.72311966  1054.76747349
0.45500002 12889.83818112  1146.16446539
0.45600002 12901.97082887  972.87315646
0.45700002 12915.29324987  1242.19296364
0.45800002 12929.21017875  890.17616300
0.45900002 12944.32771691  1429.05384768
0.46000002 12961.12700898  896.26197515
0.46100002 12977.59560488  1349.02112706
0.46200002 12995.93631165  1083.08138355
0.46300002 13015.03766908  905.84666470
0.46400002 13034.09749787  1000.04117792
0.46500002 13054.57160812  1003.76605852
0.46600002 13075.36158119  1190.70785883
0.46700002 13096.64130782  1011.32268972
0.46800002 13119.49814446  1384.43510731
0.46900002 13141.82912486  1019.14889694
0.47000002 13165.05591990  1488.17799172
0.47100002 13188.88212898  1774.16850808
0.47200002 13213.28009984  1499.97162803
0.47300002 13238.22499412  1223.60919420
0.47400002 13262.84712565  1039.47569274
0.47500002 13288.29268068  1328.29779932
0.47600002 13314.56968140  1143.18900703
0.47700002 13340.21862552  1147.79246494
