# SAXS profile: number of points = 501, q_min = 0, q_max = 0.5, delta_q = 0.001
#    q    intensity    error
0.00000000 1664650.74656090 374.54641798
0.00100000 1664564.84868266 699.11725305
0.00200000 1664307.12248505 898.72587460
0.00300000 1663877.79018023 1197.99205161
0.00400000 1663276.70306753 1496.94908964
0.00500000 1662504.54269179 1795.50497718
0.00600000 1661561.11315152 2616.95885976
0.00700000 1660447.21525409 3387.31245990
0.00800000 1659162.57305015 2239.86956818
0.00900000 1657708.57904501 3232.53186732
0.01000000 1656084.66412181 3005.79379517
0.01100000 1654292.40586915 3275.49910623
0.01200000 1652331.63943348 3866.45620579
0.01300000 1650203.72997617 4505.05638153
0.01400000 1647908.87062726 5190.91317259
0.01500000 1645448.51142908 4738.89192393
0.01600000 1642822.41677790 5027.03682007
0.01700000 1640032.72099561 5756.51510892
0.01800000 1637079.93956651 5132.24584148
0.01900000 1633964.96663632 6862.65316953
0.02000000 1630688.63709866 6677.67027099
0.02100000 1627253.60576705 7517.91199949
0.02200000 1623658.56649048 6721.94677066
0.02300000 1619906.50360620 5831.66367843
0.02400000 1615998.23430098 6059.99365495
0.02500000 1611935.71344365 8801.16939736
0.02600000 1607719.84015830 8464.64534559
0.02700000 1603352.09426718 6734.07910435
0.02800000 1598833.14280269 9736.89428620
0.02900000 1594166.30389666 8608.49843629
0.03000000 1589352.06795927 8868.58494686
0.03100000 1584392.24930863 7605.08314662
0.03200000 1579287.86256357 10944.46539165
0.03300000 1574042.99949666 9633.14360101
0.03400000 1568656.34781375 9882.53544721
0.03500000 1563131.85168005 10129.09486663
0.03600000 1557470.11799685 9508.35550979
0.03700000 1551674.10236846 9728.99707179
0.03800000 1545745.45296438 11755.39471383
0.03900000 1539686.48444382 9238.11933448
0.04000000 1533497.38403915 12260.31215352
0.04100000 1527182.24992246 11545.49834474
0.04200000 1520742.55390970 13732.30589889
0.04300000 1514180.15907711 16989.10217344
0.04400000 1507497.38970522 12210.72942370
0.04500000 1500697.29236556 12425.77415815
0.04600000 1493780.05542076 15796.72482041
0.04700000 1486749.69403659 11775.05812440
0.04800000 1479607.76805816 18487.69992208
0.04900000 1472357.07796729 14355.48217839
0.05000000 1464999.24669912 13448.69371095
0.05100000 1457538.24554955 13642.55861387
0.05200000 1449973.13161616 17290.93040030
0.05300000 1442309.53296592 11682.70776165
0.05400000 1434547.88362907 15385.52676941
0.05500000 1426692.48868491 13182.63921041
0.05600000 1418743.49415810 18195.38616165
0.05700000 1410706.35749017 12273.14588306
0.05800000 1402580.24436446 18619.25361332
0.05900000 1394368.91267176 13804.25288019
0.06000000 1386076.21126044 13950.85771810
0.06100000 1377703.43819389 15375.17108875
0.06200000 1369253.22349591 18115.22099362
0.06300000 1360729.05950275 15675.59949839
0.06400000 1352130.30206832 17138.25238022
0.06500000 1343463.27477458 18620.40185940
0.06600000 1334729.19224414 17438.23771258
0.06700000 1325929.16954131 13524.47816225
0.06800000 1317067.46956167 13631.64894805
0.06900000 1308147.63036295 13735.55076189
0.07000000 1299169.33705195 17987.00031379
0.07100000 1290136.59539934 13933.47588293
0.07200000 1281051.70350407 18235.77185367
0.07300000 1271917.77325004 19765.60312243
0.07400000 1262738.07393496 17046.96479701
0.07500000 1253512.55581612 21435.06570917
0.07600000 1244245.09893024 17245.23787964
0.07700000 1234939.24620761 21673.18478717
0.07800000 1225596.24163954 18880.31098787
0.07900000 1216217.78563142 17513.53693454
0.08000000 1206809.19020918 19061.55205355
0.08100000 1197371.27089996 19145.96751998
0.08200000 1187905.09690473 20705.18681064
0.08300000 1178414.47130772 14848.02303532
0.08400000 1168902.47442390 26826.31304722
0.08500000 1159370.56550598 14955.88099713
0.08600000 1149821.26289728 16505.68500386
0.08700000 1140257.08580724 18061.67308732
0.08800000 1130679.45189664 19622.94280923
0.08900000 1121091.85326050 22702.11109484
0.09000000 1111496.66286410 18206.31619296
0.09100000 1101895.14439118 15206.15370700
0.09200000 1092289.69047692 16761.18608792
0.09300000 1082684.21419899 16792.43295134
0.09400000 1073077.50515619 19878.76171727
0.09500000 1063474.02207321 16845.42930142
0.09600000 1053875.20946424 18400.66202222
0.09700000 1044285.85580298 15351.00280200
0.09800000 1034704.50423616 16901.89887139
0.09900000 1025135.52988730 15377.03367138
0.10000000 1015578.19599352 20001.81351072
0.10100000 1006036.23983086 15392.35519334
0.10200000 996511.90321957 20014.94251759
0.10300000 987006.39266354 20016.49058481
0.10400000 977521.86308314 16935.56707465
0.10500000 968062.15703039 20009.84572727
0.10600001 958623.60850471 18463.09156855
0.10700001 949214.19729902 21528.17900781
0.10800001 939830.83902032 15366.23494114
0.10900001 930478.56520493 19958.76616302
0.11000001 921157.84037940 23005.91814635
0.11100001 911869.44747066 15319.40743864
0.11200001 902616.74537058 19889.16092057
0.11300001 893399.14922353 16804.83878808
0.11400001 884220.03890719 22879.19458398
0.11500001 875080.06958339 18271.67271328
0.11600001 865981.37496233 16717.77123091
0.11700001 856924.80602299 28818.38258375
0.11800001 847910.85471703 15135.20946954
0.11900001 838941.18501376 18121.13044983
0.12000001 830017.31467790 21090.74095944
0.12100001 821142.15866811 16529.59243267
0.12200001 812314.98544927 23979.53950017
0.12300001 803537.88324053 17934.96639892
0.12400001 794810.90741173 19373.51678099
0.12500001 786135.38513883 17829.55137509
0.12600001 777514.45781518 23698.64179097
0.12700001 768946.60837880 23622.04092262
0.12800001 760433.50897062 25014.46145650
0.12900001 751976.75397764 19062.61161179
0.13000001 743576.61771418 17533.53747214
0.13100001 735233.43107379 21836.43393221
0.13200001 726948.62338203 20303.67600818
0.13300001 718724.22032998 23114.17201548
0.13400001 710558.64671902 18705.45725676
0.13500001 702454.86598173 17196.09593000
0.13600001 694411.24632992 21405.22767739
0.13700001 686430.83568937 17050.94276253
0.13800001 678511.46090116 15561.66108959
0.13900001 670656.46471584 18308.92235016
0.14000001 662864.72335210 15421.54851608
0.14100001 655137.15575894 15349.86428338
0.14200001 647473.93843442 16665.97996136
0.14300001 639877.16431869 15203.48214132
0.14400001 632342.71976159 22005.52768570
0.14500001 624876.52230070 17790.23542910
0.14600001 617475.65735249 16338.40666430
0.14700001 610143.13111082 20317.76722451
0.14800001 602873.93090606 14821.65629059
0.14900001 595673.31764366 14742.91530726
0.15000001 588539.16204651 19995.61897398
0.15100001 581472.45349133 18560.60159122
0.15200001 574473.64318442 14502.58780652
0.15300001 567543.21744507 15732.29872997
0.15400001 560677.68212337 14339.33239699
0.15500001 553881.55224263 14256.91182755
0.15600001 547150.45410233 15462.47256268
0.15700001 540490.72482229 12809.63078286
0.15800001 533894.55616976 16553.40149534
0.15900001 527368.31607986 20250.94429332
0.16000001 520907.06327936 16353.87802360
0.16100001 514516.09627128 15003.29007549
0.16200001 508190.73915745 13667.79057484
0.16300001 501932.16580886 13582.28504798
0.16400001 495740.62035541 13496.53902634
0.16500001 489615.17461114 17067.98579275
0.16600001 483557.07847451 13324.41592645
0.16700001 477563.19251116 15644.97092534
0.16800001 471634.82697100 13151.53777105
0.16900001 465774.19084145 17815.86364092
0.17000001 459976.99297961 14158.09251245
0.17100001 454244.59028993 23439.02196578
0.17200001 448577.37163739 12804.64167806
0.17300001 442974.10366422 13873.94958195
0.17400001 437434.45949287 11482.65510397
0.17500001 431958.18680596 18245.91467239
0.17600001 426543.31146865 15854.61563609
0.17700001 421192.92253248 14619.60703160
0.17800001 415902.86918252 17867.18810399
0.17900001 410675.04448727 12197.04939738
0.18000001 405508.52552258 12110.51268677
0.18100001 400403.93221624 13117.23343902
0.18200001 395356.83403167 16278.81841023
0.18300001 390370.52389891 12929.07236229
0.18400001 385442.63440042 11765.63697089
0.18500001 380574.89807769 15927.06023698
0.18600001 375763.82332996 12648.21089083
0.18700001 371009.90992721 12554.97594509
0.18800001 366313.13743111 11423.47573050
0.18900001 361674.20652878 10307.71537308
0.19000001 357087.49146536 13299.72424802
0.19100001 352560.28864233 13199.85783046
0.19200001 348084.57802018 15115.57351476
0.19300001 343665.49573973 11000.73303844
0.19400001 339297.49208370 9924.45211242
0.19500001 334983.77003620 12803.08029579
0.19600001 330721.83675111 10750.11381161
0.19700001 326511.58492207 10667.13398351
0.19800001 322352.65620001 10584.44996654
0.19900001 318244.66590214 9547.34042827
0.20000001 314185.18243437 11367.22043770
0.20100001 310176.61042062 12217.85726191
0.20200001 306215.00360393 13986.37095065
0.20300001 302303.33716139 11100.57906523
0.20400001 298438.26496481 11012.37249771
0.20500001 294619.88616647 10014.13040414
0.20600001 290848.07960882 9933.91662860
0.20700001 287122.34170550 11645.68273006
0.20800001 283440.39732813 10663.02825153
0.20900001 279805.20811850 14102.18315580
0.21000001 276212.24024891 12238.96494399
0.21100001 272663.22991103 10404.82934528
0.21200001 269156.58123428 10319.46381237
0.21300001 265691.38398992 9381.56321220
0.21400001 262268.91663018 10149.80755344
0.21500001 258888.00066088 12581.95742696
0.21600001 255546.73253617 10813.46049851
0.21700001 252245.46356038 10722.95516293
0.21800001 248983.89145997 8997.03334329
0.21900001 245759.91115634 9732.09294194
0.22000001 242573.97744317 13670.25714517
0.22100001 239427.53977125 11162.11243192
0.22200001 236318.20373277 8695.32871750
0.22300001 233244.02710143 9404.39961742
0.22400001 230205.57017033 8546.38219670
0.22500001 227205.28061065 8472.48531461
0.22600001 224237.85857573 9162.35933468
0.22700001 221306.99563822 9082.43953049
0.22800001 218409.00057567 8252.58447702
0.22900001 215543.88876756 8179.89096556
0.23000001 212713.11830190 11792.81583636
0.23100001 209915.61967345 8766.07669213
0.23200001 207148.75383031 10135.78900427
0.23300001 204414.30246713 10044.91929830
0.23400001 201711.85467253 7821.37753484
0.23500001 199038.40753219 9864.34394384
0.23600001 196397.05736116 10472.87357912
0.23700001 193785.09231818 9685.37937216
0.23800001 191202.94162069 7540.08835945
0.23900001 188649.46008351 7470.51897266
0.24000001 186124.75518864 10092.61532749
0.24100001 183629.71338921 7332.33480246
0.24200001 181161.73824169 7924.01480551
0.24300001 178721.92347619 6541.22270865
0.24400001 176308.81824517 9071.08912781
0.24500001 173922.63114500 8984.84354997
0.24600001 171563.39850459 8263.35147987
0.24700001 169230.48554876 6924.91179624
0.24800001 166923.15700821 6858.03823011
0.24900001 164640.60719247 8643.63228651
0.25000001 162384.46248091 6725.15283180
0.25100001 160151.98544618 8475.24347077
0.25200001 157945.76050204 7192.85027355
0.25300001 155763.54007568 6528.05027342
0.25400001 153605.03605869 6462.93219794
0.25500001 151469.85741531 5816.44279993
0.25600001 149358.75455190 6333.55828643
0.25700001 147270.06614895 6839.22219554
0.25800001 145205.12438983 6205.34128440
0.25900001 143162.86093193 8375.02776078
0.26000001 141142.73243489 6630.88588353
0.26100001 139144.36935795 6562.04876941
0.26200001 137168.76558013 5952.43886400
0.26300001 135214.10096077 6960.82224683
0.26400001 133281.33286379 7417.10652483
0.26500001 131370.18693784 5765.83777753
0.26600001 129479.03633416 5704.19921562
0.26700001 127609.97483823 6668.89760062
0.26800001 125761.90012235 6089.39149208
0.26900001 123932.82570354 6023.13561422
0.27000001 122125.06909884 4964.38429379
0.27100001 120336.83028389 6873.64007110
0.27200001 118570.07126053 5340.98911268
0.27300001 116821.93773878 5761.65824194
0.27400001 115091.71177722 6171.79333613
0.27500001 113383.73915537 6102.31313014
0.27600001 111692.78709443 5104.91907575
0.27700001 110022.39613623 6881.90120402
0.27800001 108370.02472807 5442.34289941
0.27900001 106737.73283981 4482.98499144
0.28000001 105122.64514980 4874.01167305
0.28100001 103526.68510706 4379.17898729
0.28200001 101949.78884608 4760.54561548
0.28300001 100390.68321927 4704.30763831
0.28400001 98849.36751343  5493.55385957
0.28500001 97326.54988244  5427.90194385
0.28600001 95821.38314714  4125.11073973
0.28700001 94333.98332635  4482.75109985
0.28800001 92863.57944047  4428.19999522
0.28900001 91412.48106910  4374.08742620
0.29000001 89977.07466147  4320.24944437
0.29100001 88559.99692137  4266.82085364
0.29200001 87160.03580734  6129.09400809
0.29300001 85777.04036582  4917.59795695
0.29400001 84410.44686344  4482.19494062
0.29500001 83061.81709352  5163.12279494
0.29600001 81729.38555365  4005.14872865
0.29700001 80413.53924709  3953.93391195
0.29800001 79114.32716448  4967.58883782
0.29900001 77832.20428728  4553.18416635
0.30000001 76565.79200974  4494.02937476
0.30100001 75316.70298351  4776.58552934
0.30200001 74082.05869835  5050.54459086
0.30300001 72865.00445910  3654.90879670
0.30400001 71664.00808597  3278.62852515
0.30500001 70478.56950503  4852.44974015
0.30600001 69308.04902568  3510.79938961
0.30700001 68154.51180781  4723.10789189
0.30800001 67016.13323480  3416.81771474
0.30900001 65893.53341507  3370.45439375
0.31000001 64786.58115471  3022.29415396
0.31100001 63694.11145503  3577.06146867
0.31200001 62617.80568325  3233.89672762
0.31300001 61555.96759890  3479.14345341
0.31400001 60510.48173171  4002.76855607
0.31500001 59478.96219151  3665.09382377
0.31600002 58462.91623060  3057.90297823
0.31700002 57461.53006831  2740.91511404
0.31800002 56474.91602173  2702.32485959
0.31900002 55502.98032372  3463.38613619
0.32000002 54546.10018447  3414.31330271
0.32100002 53602.88385985  3624.62717823
0.32200002 52675.23366368  2807.32671103
0.32300002 51760.33361250  2515.55233268
0.32400002 50860.03898135  3967.08322839
0.32500002 49974.01549781  3176.84831563
0.32600002 49102.31794836  2890.16257130
0.32700002 48243.96271098  3323.04430889
0.32800002 47400.18522012  2339.19925138
0.32900002 46569.41795809  2766.22355770
0.33000002 45753.21848350  2271.64740528
0.33100002 44947.94256580  2686.08917493
0.33200002 44159.33318479  2646.91055644
0.33300002 43382.41312524  2608.15080060
0.33400002 42619.34851749  2569.94683731
0.33500002 41868.17329326  2954.21844747
0.33600002 41131.20628002  2702.93734869
0.33700002 40405.98811586  2253.44206394
0.33800002 39694.48226330  2624.00387428
0.33900002 38994.78631868  2585.35445536
0.34000002 38308.19006644  2939.19602204
0.34100002 37633.85241853  2316.74006460
0.34200002 36972.39162230  1902.22963905
0.34300002 36321.92975113  2061.63283031
0.34400002 35685.05432209  2216.04197835
0.34500002 35059.21498766  2911.31735046
0.34600002 34446.38834535  1972.22805812
0.34700002 33843.43720148  2649.94125838
0.34800002 33253.83511680  1740.83835081
0.34900002 32675.03699311  2058.52742806
0.35000002 32107.62962737  2197.60681393
0.35100002 31552.36030530  2498.94705454
0.35200002 31006.67960151  2134.34489146
0.35300002 30472.81862877  2265.34944416
0.35400002 29950.17833007  2232.78590026
0.35500002 29438.25587727  2358.00440745
0.35600002 28936.16873089  2169.34467250
0.35700002 28445.19579578  2596.76204719
0.35800002 27965.38485981  1807.12325524
0.35900002 27495.37864742  2078.65072420
0.36000002 27035.88028171  2195.98947990
0.36100002 26585.79492716  1587.96960622
0.36200002 26146.81949539  1708.43326675
0.36300002 25716.63553274  1684.95403992
0.36400002 25296.23908400  1523.46607100
0.36500002 24885.34518827  2049.30827333
0.36600002 24484.29186842  1617.43239744
0.36700002 24091.88598927  2127.79547136
0.36800002 23710.37802223  1837.31727997
0.36900002 23336.79136809  1424.71118051
0.37000002 22971.94969302  1278.38906097
0.37100002 22615.73289994  1388.15375115
0.37200002 22269.28571096  1868.94989182
0.37300002 21930.78075749  1845.47528816
0.37400002 21600.66748274  1701.05264485
0.37500002 21279.43934364  2040.27274092
0.37600002 20966.49428213  1659.91743095
0.37700002 20661.17128540  1171.48846738
0.37800002 20363.67924282  1504.97778573
0.37900002 20074.76084400  1258.68756455
0.38000002 19793.51041078  1357.43900828
0.38100002 19518.89379515  2013.17880140
0.38200002 19252.84450876  1106.07596943
0.38300002 18993.36073155  1641.02644495
0.38400002 18742.09115301  1190.59139690
0.38500002 18496.62316592  1285.14543845
0.38600002 18259.45215063  1483.94574658
0.38700002 18028.56196527  1468.96729852
0.38800002 17804.43241660  1246.66641687
0.38900002 17586.63315442  1440.34532358
0.39000002 17376.40825790  1324.86431039
0.39100002 17171.43728337  1211.61667212
0.39200002 16973.50233260  1000.58800991
0.39300002 16781.37129498  1190.13490862
0.39400002 16596.63204894  1671.69584233
0.39500002 16416.54838169  1267.68592609
0.39600002 16242.49065990  1450.86054693
0.39700002 16074.11149760  1151.54940225
0.39800002 15911.73564844  1142.78090841
0.39900002 15754.56776722  1134.32893298
0.40000002 15602.61491747  1595.44546398
0.40100002 15456.37363967  1025.22131209
0.40200002 15315.56751113  1203.57392989
0.40300002 15179.07809770  1287.79304682
0.40400002 15048.21589624  1005.59707491
0.40500002 14922.19113924  908.76148344
0.40600002 14800.88064030  993.95318649
0.40700002 14684.12960881  988.53565210
0.40800002 14572.29639215  894.01042602
0.40900002 14464.57266353  978.52838705
0.41000002 14361.61629207  1062.47242363
0.41100002 14262.76421073  1234.01441798
0.41200002 14167.79110827  1053.23364089
0.41300002 14077.58239096  961.63969869
0.41400002 13990.86603347  1132.21088741
0.41500002 13908.41906722  1475.40516456
0.41600002 13829.12451561  1211.01649121
0.41700002 13753.95945263  948.61062840
0.41800002 13683.43518386  946.00433626
0.41900002 13614.35347265  943.47474036
0.42000002 13550.07038346  941.25568379
0.42100002 13489.46738359  1280.82498876
0.42200002 13432.05465265  1193.16947133
0.42300002 13377.35525065  935.87981768
0.42400002 13325.66988788  934.46264517
0.42500002 13277.49963641  1102.96194706
0.42600002 13231.32618239  1186.45307500
0.42700002 13189.45788545  931.43956001
0.42800002 13149.16825443  1015.37882072
0.42900002 13113.07973678  845.79368310
0.43000002 13078.87403203  1183.76894474
0.43100002 13046.29736444  1099.02014206
0.43200002 13017.43329345  930.03056572
0.43300002 12990.78371731  1099.41007809
0.43400002 12966.49990876  930.67057505
0.43500002 12944.27182661  1354.48866812
0.43600002 12924.61028616  1101.37071773
0.43700002 12906.64847525  1356.74695201
0.43800002 12890.67972038  1018.62155978
0.43900002 12877.48918669  1019.89719192
0.44000002 12865.71995432  1191.49438143
0.44100002 12856.16702924  1022.83669732
0.44200002 12848.33026116  1109.90306221
0.44300002 12842.31888689  1026.35817408
0.44400002 12838.35245520  942.65607370
0.44500002 12834.93421941  944.52285397
0.44600002 12833.39269397  1204.67062927
0.44700002 12834.55813980  948.73058266
0.44800002 12835.40527942  1123.80396250
0.44900002 12839.58813397  953.33946413
0.45000002 12844.39638331  1216.49283912
0.45100002 12850.24031236  1219.74486826
0.45200002 12857.65325717  1223.14861232
0.45300002 12865.87963031  1139.01637765
0.45400002 12875.79771392  1493.91450056
0.45500002 12886.70606133  1145.88595728
0.45600002 12898.55073927  1149.45440361
0.45700002 12911.51130255  1153.12712908
0.45800002 12925.09931940  1156.86106941
0.45900002 12939.80210689  1071.41566523
0.46000002 12956.11191798  1164.68973607
0.46100002 12972.08200252  898.96532538
0.46200002 12989.83870271  1353.21651099
0.46300002 13008.27168749  1086.45090283
0.46400002 13026.67243316  908.61044528
0.46500002 13046.37164388  1367.91213169
0.46600002 13066.47778206  1281.42953682
0.46700002 13086.89602940  918.70014481
0.46800002 13108.88242007  1383.31488294
0.46900002 13130.32243786  1018.25655332
0.47000002 13152.58287925  1115.07602935
0.47100002 13175.48348417  1026.10670238
0.47200002 13198.83804633  1030.10336415
0.47300002 13222.68876498  1128.15985890
0.47400002 13246.19164668  1132.54943947
0.47500002 13270.53474400  1137.01947076
0.47600002 13295.65610678  1236.69551139
0.47700002 13320.10206108  1146.06163566
