# SAXS profile: number of points = 501, q_min = 0, q_max = 0.5, delta_q = 0.001
#    q    intensity    error
0.00000000 1646666.22097350 271.69992646
0.00100000 1646580.79565527 740.96137564
0.00200000 1646324.49026499 963.09985730
0.00300000 1645897.52446598 1086.29240484
0.00400000 1645299.74434222 1604.16731169
0.00500000 1644531.83767777 1776.09445499
0.00600000 1643593.60945885 2070.92803223
0.00700000 1642485.84476815 2168.08140520
0.00800000 1641208.29944079 3323.44694668
0.00900000 1639762.35085155 2459.64363142
0.01000000 1638147.39695805 3784.12065037
0.01100000 1636365.02290799 3240.00288643
0.01200000 1634415.12096146 3824.53155073
0.01300000 1632298.97560832 4456.17639995
0.01400000 1630016.84262355 4401.04567019
0.01500000 1627570.13412360 4296.78534542
0.01600000 1624958.61716205 5801.10252260
0.01700000 1622184.42032176 5255.87775761
0.01800000 1619248.06750647 5999.31436007
0.01900000 1616150.43042847 6302.98696308
0.02000000 1612892.40017285 6604.79467748
0.02100000 1609476.53335721 5311.27280088
0.02200000 1605901.61419816 6094.39690276
0.02300000 1602170.54362833 6344.59564156
0.02400000 1598284.16094988 7791.63563991
0.02500000 1594244.56936165 7461.06492536
0.02600000 1590052.35688965 8371.62604193
0.02700000 1585709.30953991 7325.97734561
0.02800000 1581215.80158301 10317.43357848
0.02900000 1576575.35208078 7804.04835112
0.03000000 1571788.45776373 9501.46166392
0.03100000 1566856.77925719 8273.00417514
0.03200000 1561781.47211571 10050.06423595
0.03300000 1556566.55664324 11113.88572679
0.03400000 1551210.67973547 11401.39902212
0.03500000 1545717.85041682 8346.87677769
0.03600000 1540088.63798712 11966.48927018
0.03700000 1534326.07487966 9620.22493441
0.03800000 1528431.55410942 9835.45750587
0.03900000 1522407.66461342 11874.78033391
0.04000000 1516254.45909514 13054.95149776
0.04100000 1509976.12031697 13317.98999871
0.04200000 1503573.93621556 11637.66280621
0.04300000 1497049.86700867 11856.63549707
0.04400000 1490406.40403791 12072.29243337
0.04500000 1483646.30192820 16379.45593436
0.04600000 1476769.85372818 10411.22795277
0.04700000 1469781.06773699 12698.90901585
0.04800000 1462681.66445515 15050.99502754
0.04900000 1455474.12963349 12007.66212840
0.05000000 1448160.28362798 11078.42668563
0.05100000 1440743.99299451 11237.80366886
0.05200000 1433224.39125255 12533.54788558
0.05300000 1425607.00111647 16166.38414630
0.05400000 1417892.50646927 12867.37509626
0.05500000 1410084.82727625 15398.12703217
0.05600000 1402184.43362409 13187.54521362
0.05700000 1394196.46948368 19407.21576111
0.05800000 1386120.30124602 19627.46438210
0.05900000 1377959.64861832 14881.96490015
0.06000000 1369718.37801417 15039.50849322
0.06100000 1361397.68770987 15193.19890484
0.06200000 1353000.24551984 14064.43820960
0.06300000 1344529.62765304 19361.22754344
0.06400000 1335985.02485610 15631.02552183
0.06500000 1327372.80102251 13140.99134483
0.06600000 1318694.19618631 15903.45275011
0.06700000 1309950.23476129 17369.94092583
0.06800000 1301145.42322316 14813.54133680
0.06900000 1292282.96221176 18996.56043391
0.07000000 1283362.81738557 17768.15903876
0.07100000 1274388.68146212 15139.73824488
0.07200000 1265363.02103083 18012.44344820
0.07300000 1256289.10730220 26495.13851445
0.07400000 1247169.72910538 16836.79213196
0.07500000 1238005.50229483 14113.26338768
0.07600000 1228799.66682272 19869.69154403
0.07700000 1219556.08510262 14268.80686474
0.07800000 1210275.84156742 17210.12327418
0.07900000 1200960.62739685 15852.68102519
0.08000000 1191616.05089848 14478.13569760
0.08100000 1182242.58153983 18904.05976577
0.08200000 1172841.33818174 16062.06288011
0.08300000 1163416.15529521 21988.56636705
0.08400000 1153970.17289294 16184.43243450
0.08500000 1144504.71384116 22146.16725248
0.08600000 1135022.37345732 20736.85973669
0.08700000 1125525.63663103 17828.32692141
0.08800000 1116015.92666619 16388.69465277
0.08900000 1106496.80138071 17925.24902431
0.09000000 1096970.34541209 16471.01051010
0.09100000 1087438.12582753 18007.97620974
0.09200000 1077902.32888100 16540.41201386
0.09300000 1068367.04549085 16570.37365424
0.09400000 1058830.99710797 18106.01090148
0.09500000 1049298.38432433 21153.85642227
0.09600000 1039770.81114601 18154.39921601
0.09700000 1030253.39601627 15144.72563343
0.09800000 1020744.16121529 15158.05150674
0.09900000 1011247.65335339 18202.45861629
0.10000000 1001763.02597205 19729.72372435
0.10100000 992294.40978981 16700.31570221
0.10200000 982843.52085983 18221.91973383
0.10300000 973411.79480314 16703.74718458
0.10400000 964001.63204895 21256.23698668
0.10500000 954616.43961050 19731.92273512
0.10600001 945252.63930797 18205.56668971
0.10700001 935918.16142773 19710.43740719
0.10800001 926610.16195737 21210.10760539
0.10900001 917333.64521756 16649.60644432
0.11000001 908088.81564515 24191.48718747
0.11100001 898876.65743977 18121.35426702
0.11200001 889700.17032974 16588.46045673
0.11300001 880559.29547557 16563.32112771
0.11400001 871456.92316807 15032.63263245
0.11500001 862394.12832601 16506.22439340
0.11600001 853372.61038496 22465.03502630
0.11700001 844393.38679547 14945.76365015
0.11800001 835457.10691548 19386.78307906
0.11900001 826565.28336183 14878.17580130
0.12000001 817719.32805763 17809.92780403
0.12100001 808922.45170532 14803.28156356
0.12200001 800173.54460361 19192.16337149
0.12300001 791474.81943376 17665.71880207
0.12400001 782826.49167436 17613.59689258
0.12500001 774229.54429218 16096.23298430
0.12600001 765687.42818565 17503.61543315
0.12700001 757198.35360447 15992.02998177
0.12800001 748764.27247254 15937.44829070
0.12900001 740386.43649207 17325.04343048
0.13000001 732065.46485170 17262.10447485
0.13100001 723801.47318870 15764.39682915
0.13200001 715595.95115658 18558.98186812
0.13300001 707450.84610793 15641.73894484
0.13400001 699364.75051267 25491.84635802
0.13500001 691340.08759686 18334.33998750
0.13600001 683375.96104471 21065.06499244
0.13700001 675474.79287353 16778.79464615
0.13800001 667634.95507344 20880.28420455
0.13900001 659859.19275638 18014.15681176
0.14000001 652146.92009775 23447.94361793
0.14100001 644498.67557857 20591.73365590
0.14200001 636914.76964489 23225.09817052
0.14300001 629397.04264394 13594.97676235
0.14400001 621942.04210734 14879.96405930
0.14500001 614554.95797663 21534.00674331
0.14600001 607233.15539470 20084.23756214
0.14700001 599979.56996844 14651.50178984
0.14800001 592789.35987686 18548.37994563
0.14900001 585667.63281915 19766.28354024
0.15000001 578612.11144230 13105.56494253
0.15100001 571624.06390237 18246.24098071
0.15200001 564703.70030709 12959.95053359
0.15300001 557851.49652133 16752.28123106
0.15400001 551064.27253535 14093.46943518
0.15500001 544346.28472433 15285.24439642
0.15600001 537693.24449707 17727.74710773
0.15700001 531111.26591365 13846.07135586
0.15800001 524592.76599549 13762.69186547
0.15900001 518144.04465090 18653.18648787
0.16000001 511759.96336493 13594.90406850
0.16100001 505446.21763604 12282.34366833
0.16200001 499197.71667869 18308.07712344
0.16300001 493016.03090365 20617.93138572
0.16400001 486901.00078100 13255.88037207
0.16500001 480851.84523787 11973.21151169
0.16600001 474869.82830334 16653.68566487
0.16700001 468951.89182178 14181.10587825
0.16800001 463099.05803095 16435.38634554
0.16900001 457313.94660604 13993.80742691
0.17000001 451592.01362814 13900.00283583
0.17100001 445934.47752463 13806.13207611
0.17200001 440341.99739181 11426.87537193
0.17300001 434812.99325046 15888.06752368
0.17400001 429347.51431284 12397.41006126
0.17500001 423945.13773152 12311.36738116
0.17600001 418603.98174671 11113.93624028
0.17700001 413326.75280200 14346.57226735
0.17800001 408109.69627635 13149.29503509
0.17900001 402954.64734078 10879.77599209
0.18000001 397860.60318871 15122.68224152
0.18100001 392828.07816355 11796.62774448
0.18200001 387852.75444591 13840.52619620
0.18300001 382937.88364210 14796.72052292
0.18400001 378081.29278562 10491.75637044
0.18500001 373284.42342850 11456.09949623
0.18600001 368543.77139676 15506.47991410
0.18700001 363860.04319414 12313.02444342
0.18800001 359232.94110463 11202.67979763
0.18900001 354663.57326410 11118.70354716
0.19000001 350146.08816350 16050.69743979
0.19100001 345687.60978784 13938.12508522
0.19200001 341280.42890987 16796.11710244
0.19300001 336929.18498679 14706.95961962
0.19400001 332628.98858827 11675.27805115
0.19500001 328382.56712595 11585.33751567
0.19600001 324187.66371220 11495.69509848
0.19700001 320043.83652567 12356.89311221
0.19800001 315951.12456840 12260.48396829
0.19900001 311908.92237885 10292.99492495
0.20000001 307914.97378951 11140.36427821
0.20100001 303971.24053891 10131.36192599
0.20200001 300074.41893578 11878.44643499
0.20300001 296226.90823626 11783.90696660
0.20400001 292425.84879049 10790.51433039
0.20500001 288670.80236059 8919.92821456
0.20600001 284961.90775974 8848.06765417
0.20700001 281298.80275505 13164.78459122
0.20800001 277679.04033926 9575.76215875
0.20900001 274105.79290383 9497.76617309
0.21000001 270574.13753229 11132.77341504
0.21100001 267085.93682064 10191.99983089
0.21200001 263639.91782514 12634.94365908
0.21300001 260234.82512106 8353.53828130
0.21400001 256871.96160656 11597.76961484
0.21500001 253550.38664668 10679.54279046
0.21600001 250267.84781876 9775.46259797
0.21700001 247025.07765559 8885.49246337
0.21800001 243821.25681612 8810.48153162
0.21900001 240654.90807179 10324.09604442
0.22000001 237526.13762319 11023.58856832
0.22100001 234436.31717664 12490.76756978
0.22200001 231383.12879400 8513.74262654
0.22300001 228364.71083442 9207.66557623
0.22400001 225381.81915057 9888.62778283
0.22500001 222436.25904264 12819.00221480
0.22600001 219523.18639547 8222.24133526
0.22700001 216646.27227363 8891.16343457
0.22800001 213802.02654543 8078.50995505
0.22900001 210990.05773463 10190.82027052
0.23000001 208211.82812733 10821.81027870
0.23100001 205466.61868015 9295.31026869
0.23200001 202751.62795036 7794.78670520
0.23300001 200068.35345979 7724.63949242
0.23400001 197416.77103023 8350.72980953
0.23500001 194793.85019621 8274.84314770
0.23600001 192202.45265663 7516.07726663
0.23700001 189640.04461656 7447.16490433
0.23800001 187107.00156001 8049.34358784
0.23900001 184602.24747157 8639.38559031
0.24000001 182125.76757261 6583.84680917
0.24100001 179678.43030155 10435.72372554
0.24200001 177257.95315385 9045.47377731
0.24300001 174864.86541847 6400.05437706
0.24400001 172498.17043369 7607.16967597
0.24500001 170158.08288240 6906.71691091
0.24600001 167844.17877964 6840.48982975
0.24700001 165556.51663007 7390.44325198
0.24800001 163293.92166182 8538.63956763
0.24900001 161055.55713886 6643.54204627
0.25000001 158843.21846133 6578.49220379
0.25100001 156654.13059384 7105.83169991
0.25200001 154490.81236530 7621.80458863
0.25300001 152351.11413846 5804.57772329
0.25400001 150234.55521621 8045.06081245
0.25500001 148141.08662795 6826.34159478
0.25600001 146071.15703027 7883.46071791
0.25700001 144023.24808664 6131.06996113
0.25800001 141998.62417250 6619.97617214
0.25900001 139996.25262061 5459.85411054
0.26000001 138015.72028304 8104.97355711
0.26100001 136056.27148048 5347.01172218
0.26200001 134119.43840883 6878.31572426
0.26300001 132202.99675626 7329.33448697
0.26400001 130307.95884817 7251.63825304
0.26500001 128434.23939784 5636.97903391
0.26600001 126580.15542598 7604.30319705
0.26700001 124747.67605933 6017.82817787
0.26800001 122935.76641775 4960.45840969
0.26900001 121142.35881228 5396.89234048
0.27000001 119370.09102377 6308.11275866
0.27100001 117616.75688916 5278.64029899
0.27200001 115884.54863462 7118.20873674
0.27300001 114170.67101690 6100.13924112
0.27400001 112474.21260543 5103.51763849
0.27500001 110799.64708397 5504.52672764
0.27600001 109141.66502690 7255.73823437
0.27700001 107503.90420428 5827.78692272
0.27800001 105883.75937408 4431.23553952
0.27900001 104283.35451590 6131.86153574
0.28000001 102699.67871004 4761.67082875
0.28100001 101134.87865379 5989.20779734
0.28200001 99588.76453467  5918.56055642
0.28300001 98059.92427358  5012.82356612
0.28400001 96548.59302930  5778.43356630
0.28500001 95055.42308280  4485.66562759
0.28600001 93579.55107891  4431.45985109
0.28700001 92120.98711333  4775.55219799
0.28800001 90679.13105958  5896.41077624
0.28900001 89256.22721178  6212.23370799
0.29000001 87848.74162384  5368.43685474
0.29100001 86459.10582665  4544.29081735
0.29200001 85086.34724974  4487.45416637
0.29300001 83730.22195882  4431.00355581
0.29400001 82390.03949934  5833.21507268
0.29500001 81067.58035685  5039.16103352
0.29600001 79760.93886239  4264.01999343
0.29700001 78470.63105191  5612.21979850
0.29800001 77196.61945352  4500.94911031
0.29900001 75939.32090213  3758.99656260
0.30000001 74697.38398747  4384.36316070
0.30100001 73472.52091161  3661.13589034
0.30200001 72261.70104719  3612.72391488
0.30300001 71068.33592614  3888.85952598
0.30400001 69890.58804665  3836.99346541
0.30500001 68728.17246611  3470.08559210
0.30600001 67580.30437755  3734.48779670
0.30700001 66449.18534130  3376.94775892
0.30800001 65332.88610596  3028.17941438
0.30900001 64232.10316890  2986.79293876
0.31000001 63146.70888898  2945.79410914
0.31100001 62075.46975401  3486.15854644
0.31200001 61020.17015086  4583.83539876
0.31300001 59979.01664768  3672.51536322
0.31400001 58953.86484556  2785.57024584
0.31500001 57942.55577609  4119.71591074
0.31600002 56946.38622326  3249.36095175
0.31700002 55964.61800611  3737.31736740
0.31800002 54997.33926221  5000.08333577
0.31900002 54044.59114366  2594.14049773
0.32000002 53106.43032787  3579.90463791
0.32100002 52181.86626508  3780.57638992
0.32200002 51272.55343317  3229.40193090
0.32300002 50375.76537175  3182.74100689
0.32400002 49493.49698443  2654.08890146
0.32500002 48625.04836115  3804.42396392
0.32600002 47770.71153518  3280.41491646
0.32700002 46929.55467930  2539.82761951
0.32800002 46102.77920282  2502.68948753
0.32900002 45288.72170610  2690.15019673
0.33000002 44488.95944098  2871.54002310
0.33100002 43699.96018952  3046.76136869
0.33200002 42927.49045927  2144.22824998
0.33300002 42166.45183124  2957.55507150
0.33400002 41418.93075132  2081.30136882
0.33500002 40683.30640654  3075.65810999
0.33600002 39961.48545601  2020.05318546
0.33700002 39251.43088970  2388.05716842
0.33800002 38554.72641793  2156.55872432
0.33900002 37869.76798948  2510.76573661
0.34000002 37197.68632251  2473.46026915
0.34100002 36537.55861881  2061.81453050
0.34200002 35890.15589262  2031.20346894
0.34300002 35253.75692664  2001.00333792
0.34400002 34630.54215660  2150.55676977
0.34500002 34018.34115487  2648.32798433
0.34600002 33418.88635162  1913.39842868
0.34700002 32829.18870652  2056.42047797
0.34800002 32252.66271339  1688.42697301
0.34900002 31686.79261742  1829.91236032
0.35000002 31132.13169222  2130.83885459
0.35100002 30589.48818985  2261.17507409
0.35200002 30056.17641445  2387.21192478
0.35300002 29534.63800086  1568.28935212
0.35400002 29024.14997317  2318.30408891
0.35500002 28524.15854108  2132.46619353
0.35600002 28033.96060856  1501.21866169
0.35700002 27554.78927413  1627.66147952
0.35800002 27086.44141943  1604.46543348
0.35900002 26627.89429984  1437.90636030
0.36000002 26179.71686518  1559.39490894
0.36100002 25740.84484347  1537.50073533
0.36200002 25312.85047336  2067.42716034
0.36300002 24893.59614988  1495.10945558
0.36400002 24483.97799707  1608.59743060
0.36500002 24083.85024261  1586.64412914
0.36600002 23693.30281737  1434.74802007
0.36700002 23311.41182102  1286.78999347
0.36800002 22940.17070207  1777.63391191
0.36900002 22576.80417670  1253.01269116
0.37000002 22222.05715903  1360.32329343
0.37100002 21875.90555166  1464.81070513
0.37200002 21539.25888720  1446.14591019
0.37300002 21210.56403223  1308.90396843
0.37400002 20890.18052414  1175.07271015
0.37500002 20578.54301066  1276.69286886
0.37600002 20275.10813934  1490.52464547
0.37700002 19979.13503579  1585.94381427
0.37800002 19690.99188632  1231.37623594
0.37900002 19411.25541349  1438.37409428
0.38000002 19139.15121336  1312.56305239
0.38100002 18873.55718320  1189.60036561
0.38200002 18616.44226079  1069.51465855
0.38300002 18365.88492942  1481.02503087
0.38400002 18123.34668834  1465.27264917
0.38500002 17886.70141646  1242.76807329
0.38600002 17658.03095664  1127.55362015
0.38700002 17435.76253019  1217.71371280
0.38800002 17220.13814473  1205.75413002
0.38900002 17010.67191567  1293.66166047
0.39000002 16808.78437736  985.83525044
0.39100002 16612.16911422  1269.83426725
0.39200002 16422.41311610  1355.34181868
0.39300002 16238.47555687  1055.66334597
0.39400002 16061.72544705  1237.15446117
0.39500002 15889.64022959  1038.22914179
0.39600002 15723.58991510  1591.77770047
0.39700002 15563.09704648  1022.02863146
0.39800002 15408.50183193  1198.85854183
0.39900002 15259.13741494  1190.21277476
0.40000002 15114.90847680  1090.99414555
0.40100002 14976.37186341  1264.30537261
0.40200002 14843.04943491  1076.71485702
0.40300002 14714.15282654  1337.51655530
0.40400002 14590.72528282  975.02526322
0.40500002 14472.19415461  969.49233235
0.40600002 14358.29162526  1051.88849431
0.40700002 14248.88146701  959.23474581
0.40800002 14144.25669042  1301.62528361
0.40900002 14043.78232218  950.06191911
0.41000002 13948.02713511  945.88550499
0.41100002 13856.37614443  1113.22131219
0.41200002 13768.48163826  1364.73196465
0.41300002 13685.40787063  849.86386903
0.41400002 13605.68790989  1185.73575753
0.41500002 13530.12446987  928.70778762
0.41600002 13457.84310424  1346.86100169
0.41700002 13389.59709789  1091.38611116
0.41800002 13325.94802374  921.28946028
0.41900002 13263.70700047  919.17493869
0.42000002 13206.10273017  1084.15505501
0.42100002 13152.31969904  832.54187640
0.42200002 13101.60236984  997.55605171
0.42300002 13053.57445983  913.22811248
0.42400002 13008.51489065  1078.08072265
0.42500002 12966.98734784  994.30863695
0.42600002 12927.35251044  910.79666428
0.42700002 12892.03964515  910.43588288
0.42800002 12858.26360317  1241.14395311
0.42900002 12828.65583497  910.19317462
0.43000002 12800.88591677  827.57731374
0.43100002 12774.74319809  1407.26577739
0.43200002 12752.22421185  1242.38550271
0.43300002 12731.95194120  911.73512171
0.43400002 12713.88303726  829.58090749
0.43500002 12698.00624865  996.53957762
0.43600002 12684.59971987  914.62310614
0.43700002 12672.81626157  1332.16650855
0.43800002 12663.09026178  1084.02389323
0.43900002 12656.04115736  1252.94813395
0.44000002 12650.38606878  1004.18769373
0.44100002 12646.95909162  1006.19211301
0.44200002 12645.12848249  1260.40324122
0.44300002 12645.21705882  1010.60579523
0.44400002 12647.24348560  1097.46460547
0.44500002 12649.75647342  930.89562300
0.44600002 12654.24609034  848.46724057
0.44700002 12661.28016640  850.83806750
0.44800002 12668.12786800  853.19845234
0.44900002 12678.20147111  1026.93436783
0.45000002 12688.79264635  1115.91592217
0.45100002 12700.48430855  947.20216462
0.45200002 12713.66143879  1209.45066999
0.45300002 12727.70674019  953.43255709
0.45400002 12743.37992095  1130.65643707
0.45500002 12759.98676785  1134.61807717
0.45600002 12777.52751907  1226.25937412
0.45700002 12796.14092125  1142.82339984
0.45800002 12815.32461499  1058.80216987
0.45900002 12835.64843821  885.65978421
0.46000002 12857.48533697  1244.73321447
0.46100002 12879.05603428  1428.02980076
0.46200002 12902.24121624  896.06069494
0.46300002 12926.22553762  1619.39761210
0.46400002 12950.05045356  1083.91927434
0.46500002 12975.21740695  906.96773973
0.46600002 13000.64776869  910.69541936
0.46700002 13026.50961508  1097.35322198
0.46800002 13053.81343063  918.33581837
0.46900002 13080.53832670  1014.39579531
0.47000002 13108.08755382  1389.12964436
0.47100002 13136.26846784  1209.06220709
0.47200002 13164.82571843  1027.44887189
0.47300002 13193.86962883  938.08417507
0.47400002 13222.57176045  942.10828259
0.47500002 13252.04469043  1040.81563932
0.47600002 13282.18253280  1045.37422579
0.47700002 13311.74644931  1240.78794535
0.47800002 13341.70381795  1054.46161123
