# SAXS profile: number of points = 501, q_min = 0, q_max = 0.5, delta_q = 0.001
#    q    intensity    error
0.00000000 1646666.22097350 246.99993315
0.00100000 1646580.91101369 592.76914204
0.00200000 1646324.95340789 1111.26937874
0.00300000 1645898.56584310 1481.30876203
0.00400000 1645301.60772632 1480.77150322
0.00500000 1644534.73285211 1628.08944997
0.00600000 1643597.79927209 2070.93331139
0.00700000 1642491.52869393 2168.08890798
0.00800000 1641215.72024674 3323.46197382
0.00900000 1639771.74632017 4181.41813186
0.01000000 1638158.99286153 2973.25870043
0.01100000 1636379.04154231 2945.48240302
0.01200000 1634431.78441758 3505.85633129
0.01300000 1632318.52317133 4799.01666978
0.01400000 1630039.46841476 5134.62455313
0.01500000 1627596.12391565 3906.23087134
0.01600000 1624988.15496511 4143.71998040
0.01700000 1622217.68995906 5255.98555124
0.01800000 1619285.33171185 6460.94876426
0.01900000 1616191.94802047 5818.29127541
0.02000000 1612938.32123728 5080.75594173
0.02100000 1609527.13397004 5311.43978291
0.02200000 1605957.04213238 6094.60725178
0.02300000 1602231.08147250 6921.63858702
0.02400000 1598349.93086550 7791.95626826
0.02500000 1594315.86033110 8083.18178104
0.02600000 1590129.30204170 8372.03115817
0.02700000 1585792.19796892 7992.39304382
0.02800000 1581304.79763112 8254.41142218
0.02900000 1576670.64486205 11352.02916423
0.03000000 1571890.26724665 8040.21908654
0.03100000 1566965.20743661 13538.58001521
0.03200000 1561896.82816980 8504.52862109
0.03300000 1556689.08369513 12702.58350855
0.03400000 1551340.42248628 8958.99135323
0.03500000 1545855.06511772 9182.37951082
0.03600000 1540233.51452304 9403.12604072
0.03700000 1534478.77501682 14869.10001757
0.03800000 1528592.15648761 12519.17034102
0.03900000 1522576.58341034 15530.28186999
0.04000000 1516431.64656229 10258.66056437
0.04100000 1510161.84581486 11416.82408372
0.04200000 1503768.29615022 11639.16715218
0.04300000 1497253.06366780 13834.61895047
0.04400000 1490618.71624541 12074.01216233
0.04500000 1483867.72017229 11262.55651942
0.04600000 1477000.52898834 12495.42505611
0.04700000 1470021.23389080 13759.39938914
0.04800000 1462931.49008036 11827.80164763
0.04900000 1455733.70300345 18560.60557724
0.05000000 1448429.84176363 13296.58656656
0.05100000 1441023.48207461 12363.98205216
0.05200000 1433514.11077344 13675.72525408
0.05300000 1425906.96843361 15014.80107756
0.05400000 1418202.94820924 18720.27978936
0.05500000 1410405.69555530 13032.14923487
0.05600000 1402516.19202498 14389.81680166
0.05700000 1394538.96570589 14558.98748156
0.05800000 1386473.65206843 17178.40935123
0.05900000 1378324.01079860 13645.40834423
0.06000000 1370093.88848216 13789.99563183
0.06100000 1361784.34090535 13931.05445848
0.06200000 1353398.24061122 12789.61397161
0.06300000 1344939.13591906 14202.55793935
0.06400000 1336405.94617620 15635.95030150
0.06500000 1327805.35682909 13145.27364751
0.06600000 1319138.38593776 15908.80967876
0.06700000 1310406.15130759 26732.28673772
0.06800000 1301613.27872043 17513.20748496
0.06900000 1292762.65211631 17646.21102756
0.07000000 1283854.32699492 13673.04922278
0.07100000 1274892.29473773 23407.02362772
0.07200000 1265878.63129673 15247.50882827
0.07300000 1256816.95430057 19530.93638496
0.07400000 1247709.71418532 15440.40843664
0.07500000 1238557.79992303 18355.42745522
0.07600000 1229364.22124266 19878.82038942
0.07700000 1220133.02083733 17130.66841579
0.07800000 1210864.94736013 18653.37538886
0.07900000 1201562.28154000 20186.24727668
0.08000000 1192230.16768496 17382.71666029
0.08100000 1182868.99814246 14549.28935978
0.08200000 1173480.34812322 17531.79722364
0.08300000 1164067.63969640 16133.97824339
0.08400000 1154634.06062761 16193.74346041
0.08500000 1145181.00600604 17727.40280519
0.08600000 1135711.30236676 16303.13651093
0.08700000 1126226.94499254 16352.81600918
0.08800000 1116729.82483200 17890.01263399
0.08900000 1107223.23226872 14947.51433771
0.09000000 1097709.24658606 16482.10511174
0.09100000 1088189.53572450 19522.12118807
0.09200000 1078666.21000673 19561.61263761
0.09300000 1069143.23915999 15074.92038056
0.09400000 1059619.69528531 16609.53950420
0.09500000 1050099.56511871 18145.72133815
0.09600000 1040584.22849953 18168.60148367
0.09700000 1031079.10945587 24250.98179451
0.09800000 1021582.19025903 15170.49623863
0.09900000 1012097.91311905 15181.46941066
0.10000000 1002625.43726804 22784.66413341
0.10100000 993169.04632942 16715.03583586
0.10200000 983730.15300456 21278.08421033
0.10300000 974310.42041045 15199.24327339
0.10400000 964912.40770210 16717.10824990
0.10500000 955539.10669430 18231.68701352
0.10600001 946187.07059683 16704.93351741
0.10700001 936864.33122210 22765.80432000
0.10800001 927568.20396610 25781.75944257
0.10900001 918303.28079572 16667.20533090
0.11000001 909069.96072406 15136.01555850
0.11100001 899869.32979388 16629.58599740
0.11200001 890704.03014569 19626.66422823
0.11300001 881574.66497232 15074.92748077
0.11400001 872483.35376782 16555.37241724
0.11500001 863431.88907707 16526.08713512
0.11600001 854421.34809259 19493.62397472
0.11700001 845453.02566319 14964.51925899
0.11800001 836527.52539527 19411.62214105
0.11900001 827646.46118999 20856.69180437
0.12000001 818811.10026234 19319.84882075
0.12100001 810024.84350623 16305.80086792
0.12200001 801286.21933640 20697.22402053
0.12300001 792597.85827884 16216.55294442
0.12400001 783959.83151466 14699.24753349
0.12500001 775372.83672459 24912.73041786
0.12600001 766840.61199026 14608.31434681
0.12700001 758361.49582635 17472.64968726
0.12800001 749937.08244612 21766.92484386
0.12900001 741568.67454548 15906.64881871
0.13000001 733257.28313965 18731.05818069
0.13100001 725002.54248601 15790.55611967
0.13200001 716806.24355528 17160.34227966
0.13300001 708670.26761579 17093.12766071
0.13400001 700593.21286473 18443.11719818
0.13500001 692577.21392191 18367.14857919
0.13600001 684621.82975035 21103.46889710
0.13700001 676729.09624077 19611.61013381
0.13800001 668897.59473320 16735.81860941
0.13900001 661130.11807176 13883.73313424
0.14000001 653426.00341903 19347.94487370
0.14100001 645785.59705459 20632.85079900
0.14200001 638209.58289570 17796.47505842
0.14300001 630699.38227917 16347.72875976
0.14400001 623252.15840446 17622.45561014
0.14500001 615872.29376763 20231.40580463
0.14600001 608557.71838974 21469.91731762
0.14700001 601311.15036272 20023.66225173
0.14800001 594127.95491269 13278.76041877
0.14900001 587012.91604245 14528.57035752
0.15000001 579963.96570721 19704.27666461
0.15100001 572982.58198263 19596.00522844
0.15200001 566068.22165545 16888.64619001
0.15300001 559222.23639835 19377.05140559
0.15400001 552440.95757239 19266.37930454
0.15500001 545728.91521840 21709.09727190
0.15600001 539081.67053838 20312.59830454
0.15700001 532505.03604847 13882.40694499
0.15800001 525991.83199601 12544.90578521
0.15900001 519548.40557889 16209.91101918
0.16000001 513169.40369886 21068.17086333
0.16100001 506860.57941329 13548.38392726
0.16200001 500616.78040066 13464.08894446
0.16300001 494439.70801434 17028.50434789
0.16400001 488329.06179181 15711.98830491
0.16500001 482284.19200193 15611.54003214
0.16600001 476306.21472756 13124.61836647
0.16700001 470392.40566102 14224.66701880
0.16800001 464543.46829400 12953.79522501
0.16900001 458761.89008478 11698.42874954
0.17000001 453043.48868947 12782.62263696
0.17100001 447389.32037231 12696.90951173
0.17200001 441799.95565832 13757.65126888
0.17300001 436273.96918956 11386.75113358
0.17400001 430811.42253860 13570.56045085
0.17500001 425411.67480264 21338.65061587
0.17600001 420073.09355561 12268.23527671
0.17700001 414798.34633086 13290.13964414
0.17800001 409583.53616831 13196.78215865
0.17900001 404430.74461809 18563.37205478
0.18000001 399338.47275809 10842.04004751
0.18100001 394307.77248276 15070.44377617
0.18200001 389334.10551568 11755.94387137
0.18300001 384420.70509651 15915.01794281
0.18400001 379565.58642846 11586.24007307
0.18500001 374770.03963427 12547.30151972
0.18600001 370030.32536864 12455.22134034
0.18700001 365347.58883990 11333.08274124
0.18800001 360721.15172824 14317.02318852
0.18900001 356152.65916601 13195.45664555
0.19000001 351635.52523855 12089.22992890
0.19100001 347177.49490878 12998.32602356
0.19200001 342770.52432071 12900.16929236
0.19300001 338419.30565779 9848.00225999
0.19400001 334119.08182377 14659.47540773
0.19500001 329872.54893592 9698.25339701
0.19600001 325677.40738270 11548.52141153
0.19700001 321533.01475042 14324.29648406
0.19800001 317439.78794802 10423.13592986
0.19900001 313396.80974189 9401.90473659
0.20000001 309402.04702954 9328.47215881
0.20100001 305457.35825686 10180.89423187
0.20200001 301559.53386875 10100.73706433
0.20300001 297710.71884484 10020.94326995
0.20400001 293908.33068225 9941.44975522
0.20500001 290151.87033597 10758.83186059
0.20600001 286441.30437923 9783.40321351
0.20700001 282776.58501170 9704.89285634
0.20800001 279154.94191188 12252.11097967
0.20900001 275580.02136968 10416.92530020
0.21000001 272046.12516779 13776.41642974
0.21100001 268555.79244807 12810.11190535
0.21200001 265107.49444707 8470.18484801
0.21300001 261699.98536722 9240.62692017
0.21400001 258334.58836603 9164.41995555
0.21500001 255010.47798505 10741.04184054
0.21600001 251725.10472599 10651.74831008
0.21700001 248479.66935685 9750.34268655
0.21800001 245272.79733688 8057.21177347
0.21900001 242103.48318445 7989.41532284
0.22000001 238971.67949622 9506.29385984
0.22100001 235878.62211123 10211.18603402
0.22200001 232822.07958697 8566.68882347
0.22300001 229800.25868797 9265.54686842
0.22400001 226813.95374310 9185.96556097
0.22500001 223864.73727647 8347.91644779
0.22600001 220947.90842616 14294.22561158
0.22700001 218067.26245697 7457.90072871
0.22800001 215219.09950518 8871.33170113
0.22900001 212403.14819515 8060.69985520
0.23000001 209621.04066627 10895.05410388
0.23100001 206871.66825042 7919.04783514
0.23200001 204152.46498773 8562.15478652
0.23300001 201464.82200252 7778.55714540
0.23400001 198808.92996178 7708.81662386
0.23500001 196181.55648794 8333.79291376
0.23600001 193585.58326564 8258.36137271
0.23700001 191018.64327572 8183.23906498
0.23800001 188480.81442080 7432.74126824
0.23900001 185971.40765318 7364.46809140
0.24000001 183489.99874384 7959.79652201
0.24100001 181037.72631018 6571.66977591
0.24200001 178612.42826321 7812.50798178
0.24300001 176214.21200467 6449.44046445
0.24400001 173842.37182978 7666.44896034
0.24500001 171497.17716864 6961.07075056
0.24600001 169178.00198357 8775.26337800
0.24700001 166884.88960142 6828.93000554
0.24800001 164617.04216480 7992.98086043
0.24900001 162373.35593789 9742.40181716
0.25000001 160155.40257097 7235.82143047
0.25100001 157960.73304213 6568.00759062
0.25200001 155791.91449778 6503.53377839
0.25300001 153646.58560788 7024.72222634
0.25400001 151524.27962260 6375.38436675
0.25500001 149424.95461446 6311.71038153
0.25600001 147349.19607096 6248.34295501
0.25700001 145295.54360248 8434.40670518
0.25800001 143264.86386794 5565.84022461
0.25900001 141256.44955545 6059.90197265
0.26000001 139269.96040956 6542.90304962
0.26100001 137304.31051801 5396.05965868
0.26200001 135361.47410344 6942.01352787
0.26300001 133438.80341394 5284.17686523
0.26400001 131537.58683724 6274.34318903
0.26500001 129657.57599661 6208.00503247
0.26600001 127797.18476619 6653.76073970
0.26700001 125958.28525116 8607.98962140
0.26800001 124139.95495485 7012.66638724
0.26900001 122340.12321396 5450.25274710
0.27000001 120561.36152257 5880.98349337
0.27100001 118801.62811863 5331.81732228
0.27200001 117062.78107246 5752.46533413
0.27300001 115342.31646658 4740.56943112
0.27400001 113639.23231300 6093.90412118
0.27500001 111958.08985701 4635.06513944
0.27600001 110293.20378915 6874.02425148
0.27700001 108648.91440270 6342.92392302
0.27800001 107021.90711528 4478.86702475
0.27900001 105414.65876780 5755.64064112
0.28000001 103824.19785705 4813.80916147
0.28100001 102252.54362844 4757.81108021
0.28200001 100699.43835992 5129.62963284
0.28300001 99163.63528970  4224.37106328
0.28400001 97645.36497031  5009.20746007
0.28500001 96145.22304082  4949.55631641
0.28600001 94662.31925650  5297.77694794
0.28700001 93196.60786808  4428.70301551
0.28800001 91747.65792203  3977.26115918
0.28900001 90317.67674229  4714.58294911
0.29000001 88903.07236614  6985.11472644
0.29100001 87506.27176329  4599.32986159
0.29200001 86126.27836104  4163.77512446
0.29300001 84762.98550962  4859.46218929
0.29400001 83415.56563164  5536.70843089
0.29500001 82085.85625685  4737.99584743
0.29600001 80771.84718732  4677.90175129
0.29700001 79474.25694512  4618.24928970
0.29800001 78192.86330618  4909.73011942
0.29900001 76928.27373636  3807.94973021
0.30000001 75678.84406025  4783.65995951
0.30100001 74446.51946078  6070.36948420
0.30200001 73228.31118852  3328.22690108
0.30300001 72027.53844470  3284.45590857
0.30400001 70842.25078160  3565.13643936
0.30500001 69672.35654403  5116.73810683
0.30600001 68516.96743135  3786.24779951
0.30700001 67378.36292980  3424.16856620
0.30800001 66254.51502453  3992.16599181
0.30900001 65146.09887208  3938.08186326
0.31000001 64053.20174044  4482.12300399
0.31100001 62974.30896770  3536.63735907
0.31200001 61911.39210924  3197.41399687
0.31300001 60862.63769568  4013.28251967
0.31400001 59829.84576930  3109.65638109
0.31500001 58810.71492085  4181.44202885
0.31600002 57806.97037001  3298.46588549
0.31700002 56817.47066178  3523.25152256
0.31800002 55842.56194161  2672.06671542
0.31900002 54882.10377543  3951.51165893
0.32000002 53936.12910873  2856.72721351
0.32100002 53003.72737757  2560.08015356
0.32200002 52086.77839626  3028.32543935
0.32300002 51182.06982741  3979.91793823
0.32400002 50292.07392997  2942.08646421
0.32500002 49415.88102152  2899.72403565
0.32600002 48553.74403890  3334.18576103
0.32700002 47704.68908909  3285.89914005
0.32800002 46870.13439909  3238.25773897
0.32900002 46048.17311167  2279.38467696
0.33000002 45240.56564855  3144.67186714
0.33100002 44443.75986024  2655.95921502
0.33200002 43663.32546241  3053.37649418
0.33300002 42894.47790096  2149.01344461
0.33400002 42139.01008539  3176.22803560
0.33500002 41395.56485209  2503.60388082
0.33600002 40665.78356386  2261.22100215
0.33700002 39947.83965015  2227.89112279
0.33800002 39243.35422643  1995.52465692
0.33900002 38550.36889837  1966.06890693
0.34000002 37870.44695737  2324.48814433
0.34100002 37202.32850822  2290.17545143
0.34200002 36547.00441294  2444.44650593
0.34300002 35902.72729795  2037.83889794
0.34400002 35271.69139948  2555.43416292
0.34500002 34651.54708396  1978.25691671
0.34600002 34044.05381429  1949.19239345
0.34700002 33446.50690961  2269.68006638
0.34800002 32862.02437890  1892.35976348
0.34900002 32288.15447576  2373.17946637
0.35000002 31725.69230170  1837.39355668
0.35100002 31174.99163113  1975.24756330
0.35200002 30633.93156740  1784.27342865
0.35300002 30104.44441480  1758.40068155
0.35400002 29585.99204602  1732.99956618
0.35500002 29078.18681541  2639.71792413
0.35600002 28580.08536677  1836.55637266
0.35700002 28093.09653809  1508.59935555
0.35800002 27616.68545967  1933.30615718
0.35900002 27150.37519386  1612.73236290
0.36000002 26694.36579718  1879.14996930
0.36100002 26247.60369033  1710.29393747
0.36200002 25811.79714099  1405.45242090
0.36300002 25384.77199758  1801.81120173
0.36400002 24967.35514952  1777.05158694
0.36500002 24559.31639045  1483.13718707
0.36600002 24161.02492838  1463.07093384
0.36700002 23771.47931683  1574.62286453
0.36800002 23392.37862732  1294.76821835
0.36900002 23021.36685979  1405.45451337
0.37000002 22658.87357352  2143.64283597
0.37100002 22305.10244084  1493.54973019
0.37200002 21960.70598174  1597.31202525
0.37300002 21624.32395779  1334.43709465
0.37400002 21296.38226195  1677.09018257
0.37500002 20977.12586678  1301.42095042
0.37600002 20666.06642331  1402.39933392
0.37700002 20362.50129968  1270.00926622
0.37800002 20066.89193903  1597.12400509
0.37900002 19779.65213123  1240.18424738
0.38000002 19500.08160925  1337.31566011
0.38100002 19227.00046071  1322.04861431
0.38200002 18962.38331481  1307.26676765
0.38300002 18704.46367183  1292.85259024
0.38400002 18454.52764814  1172.32392439
0.38500002 18210.63811777  1265.27519636
0.38600002 17974.75630787  1147.77811841
0.38700002 17745.03371489  1445.86541559
0.38800002 17522.28368895  1226.91036203
0.38900002 17305.50981842  1012.37237234
0.39000002 17096.51406453  1504.06589608
0.39100002 16892.82213135  1092.62778722
0.39200002 16695.92381258  1082.64723092
0.39300002 16504.90135889  1365.61560313
0.39400002 16321.17024665  1353.84113610
0.39500002 16142.12253387  958.84212394
0.39600002 15969.21886632  1331.35383996
0.39700002 15801.77821873  943.36620435
0.39800002 15640.40734927  1216.90195146
0.39900002 15484.25418120  1021.96082438
0.40000002 15333.30546470  1014.52820414
0.40100002 15188.09019836  1282.17863529
0.40200002 15048.04510780  1273.51611781
0.40300002 14912.57385523  903.70201844
0.40400002 14782.62400406  987.84889588
0.40500002 14657.57652020  1428.23432380
0.40600002 14537.25684478  1064.99948691
0.40700002 14421.52997700  1235.63674697
0.40800002 14310.46912555  1229.12625143
0.40900002 14203.76950158  1048.23823888
0.41000002 14101.87996463  1043.25712922
0.41100002 14003.97369377  1125.07929987
0.41200002 13910.02188996  1034.07107630
0.41300002 13820.93353756  1029.93601602
0.41400002 13735.18891251  1111.52021541
0.41500002 13653.67789419  1192.78535735
0.41600002 13575.54764520  1018.98065453
0.41700002 13501.51008977  931.19919502
0.41800002 13432.11705254  1181.89203546
0.41900002 13364.25256456  1010.33754175
0.42000002 13301.08514451  1091.95263668
0.42100002 13241.66615270  1173.47651006
0.42200002 13185.49570948  920.28171665
0.42300002 13132.06417253  1503.35877771
0.42400002 13081.63552599  1084.14059559
0.42500002 13034.83716124  832.92613407
0.42600002 12990.00739217  915.21101418
0.42700002 12949.55934117  914.49792401
0.42800002 12910.83155220  913.89325473
0.42900002 12876.16104763  1411.87112578
0.43000002 12843.51936584  1079.43363625
0.43100002 12812.61961992  913.28356979
0.43200002 12785.34417998  1079.53058699
0.43300002 12760.30421050  1162.97418086
0.43400002 12737.62375315  1080.46898606
0.43500002 12717.21418350  1330.72935522
0.43600002 12699.43600184  915.69287631
0.43700002 12683.25093770  1083.27651392
0.43800002 12669.17900400  1084.54512003
0.43900002 12657.90520708  1503.75920986
0.44000002 12648.12239669  1087.67533705
0.44100002 12640.64266636  1005.68957820
0.44200002 12634.85917610  1175.42100486
0.44300002 12631.02302012  1009.47140761
0.44400002 12629.25578577  843.00286365
0.44500002 12627.96946909  1182.73567653
0.44600002 12628.83269164  931.43959931
0.44700002 12632.24687559  1018.66443632
0.44800002 12635.73898495  1106.32217926
0.44900002 12642.34129306  1024.02969327
0.45000002 12649.64936775  1112.47346637
0.45100002 12658.11108721  858.21997239
0.45200002 12668.07860877  946.87558049
0.45300002 12679.10768417  1381.51563874
0.45400002 12691.75912713  1126.07638192
0.45500002 12705.46818796  1042.86487829
0.45600002 12720.25198298  1133.56530919
0.45700002 12736.10808739  962.46773378
0.45800002 12752.67362247  1053.62594462
0.45900002 12770.38222196  969.27205658
0.46000002 12789.75083871  1238.17583738
0.46100002 12808.91100718  1153.95484733
0.46200002 12829.81567186  980.13381470
0.46300002 12851.53404662  1073.36017445
0.46400002 12873.23730608  987.69917912
0.46500002 12896.33276420  1081.74444353
0.46600002 12919.79159344  905.03144402
0.46700002 12943.79773908  999.52010879
0.46800002 12969.27733308  1186.10531471
0.46900002 12994.28785346  1190.92653822
0.47000002 13020.22843200  1011.86710055
0.47100002 13046.78845535  1016.08393306
0.47200002 13073.97390447  1113.11819099
0.47300002 13101.67351600  1024.68193425
0.47400002 13129.09679391  1122.53782908
0.47500002 13157.34114232  1315.20788292
0.47600002 13186.31019491  1037.82859308
0.47700002 13214.85969875  1231.75713090
