# SAXS profile: number of points = 501, q_min = 0, q_max = 0.5, delta_q = 0.001
#    q    intensity    error
0.00000000 1646666.22097350 419.89988635
0.00100000 1646580.92934735 642.16657770
0.00200000 1646325.02453441 740.84628450
0.00300000 1645898.72872283 1481.30890862
0.00400000 1645301.89456222 1233.97646781
0.00500000 1644535.18096031 1776.09806574
0.00600000 1643598.43949071 1725.77843173
0.00700000 1642492.40780665 2168.09006841
0.00800000 1641216.85654470 3323.46427482
0.00900000 1639773.17087010 2705.62584759
0.01000000 1638160.76162436 3243.55844807
0.01100000 1636381.20579873 4712.77807789
0.01200000 1634434.32557851 3187.14707461
0.01300000 1632321.51345328 4456.23792827
0.01400000 1630042.92651024 4401.11609668
0.01500000 1627600.11280053 4296.86448913
0.01600000 1624992.65883327 4972.47775832
0.01700000 1622222.79655628 5256.00209662
0.01800000 1619291.06785740 6460.97165148
0.01900000 1616198.32329118 5333.45470752
0.02000000 1612945.37192330 5588.85596653
0.02100000 1609534.89125116 8498.34461111
0.02200000 1605965.54142704 6094.63950661
0.02300000 1602240.41237452 6921.67889652
0.02400000 1598360.06866616 7792.00569004
0.02500000 1594326.80794897 9948.59973596
0.02600000 1590141.16734176 7728.08642675
0.02700000 1585804.90382597 7992.45708135
0.02800000 1581318.53064000 8254.48310849
0.02900000 1576685.37409327 7804.59296010
0.03000000 1571905.96118959 10964.04458326
0.03100000 1566981.94394294 9777.96778012
0.03200000 1561914.67690077 13143.51261149
0.03300000 1556708.02616256 8733.13242937
0.03400000 1551360.54784702 8959.10757719
0.03500000 1545876.32427246 12521.59880483
0.03600000 1540255.92843728 8548.42079788
0.03700000 1534502.33973575 10495.99648921
0.03800000 1528617.13888187 8942.41067631
0.03900000 1522602.78973843 13703.42574225
0.04000000 1516459.17673920 11191.46924294
0.04100000 1510190.73248140 12368.46267251
0.04200000 1503798.55362193 10669.45123293
0.04300000 1497284.72329860 9882.07963248
0.04400000 1490651.76705031 10061.89989488
0.04500000 1483902.29409953 17406.17471856
0.04600000 1477036.61084241 10413.10859051
0.04700000 1470058.84002656 16935.07862472
0.04800000 1462970.57761816 11828.11767038
0.04900000 1455774.33308827 14193.80040830
0.05000000 1448472.09301507 11080.81202756
0.05100000 1441067.43393365 13488.39180996
0.05200000 1433559.59747598 12536.47926414
0.05300000 1425954.28370156 15015.29930736
0.05400000 1418251.89100256 14040.69437570
0.05500000 1410456.29151653 13032.61674157
0.05600000 1402568.49682904 26382.31465646
0.05700000 1394593.02164846 16986.14379657
0.05800000 1386529.55215126 19633.25937519
0.05900000 1378381.76954041 16127.06745685
0.06000000 1370153.42823006 17551.66623562
0.06100000 1361845.70823026 13931.68224624
0.06200000 1353461.56487813 17906.29734034
0.06300000 1345004.30094183 16785.65446057
0.06400000 1336472.96842443 15636.73446184
0.06500000 1327874.37325323 14460.55260116
0.06600000 1319209.36932213 17235.47121662
0.06700000 1310479.17656242 21387.02116239
0.06800000 1301688.12138249 16166.96722433
0.06900000 1292839.54564219 17647.26062424
0.07000000 1283933.18002251 13673.88900757
0.07100000 1274973.37288524 13769.71307210
0.07200000 1265961.78492756 18020.96685267
0.07300000 1256902.13417298 18137.09864594
0.07400000 1247797.01168927 16845.26044724
0.07500000 1238647.19071246 15532.63649959
0.07600000 1229455.65204556 15620.23479152
0.07700000 1220226.55865085 19987.31196788
0.07800000 1210960.74438306 20089.83969145
0.07900000 1201660.21818808 15861.91562407
0.08000000 1192330.28594880 15935.49501926
0.08100000 1182971.19703754 16005.60104687
0.08200000 1173584.89348500 14611.13260952
0.08300000 1164174.28796996 16135.45638853
0.08400000 1154742.99640172 26501.35301136
0.08500000 1145292.25085344 17729.12487551
0.08600000 1135824.85714965 25198.27563896
0.08700000 1126342.65084479 17841.26842717
0.08800000 1116847.75888712 16400.91010951
0.08900000 1107343.44790623 20928.79214845
0.09000000 1097831.75891747 17982.48505580
0.09100000 1088314.31842093 16520.61212979
0.09200000 1078793.28015488 24078.66714443
0.09300000 1069272.58955271 24122.79075389
0.09400000 1059751.35494545 19631.89477301
0.09500000 1050233.57008981 22685.04618020
0.09600000 1040720.71545427 21199.48197034
0.09700000 1031217.65608389 21222.46035993
0.09800000 1021723.26412411 22758.88677843
0.09900000 1012241.12522226 16701.97935154
0.10000000 1002771.20318467 16711.18288695
0.10100000 993317.11811467 15197.75262193
0.10200000 983880.44612759 18241.14432920
0.10300000 974463.15863602 22802.43898473
0.10400000 965067.53711528 15199.81442464
0.10500000 955696.44053025 25832.47600293
0.10600001 946346.66409713 24302.18347752
0.10700001 937026.45774414 21251.76106170
0.10800001 927732.59546736 19718.95724467
0.10900001 918469.99584810 16670.23120924
0.11000001 909238.93989944 22708.24359286
0.11100001 900040.52367664 19656.88596241
0.11200001 890877.70173416 16610.41553080
0.11300001 881750.64840949 19601.31783699
0.11400001 872661.74032753 16558.75730237
0.11500001 863612.49736101 15026.85816167
0.11600001 854604.35003234 20997.62986910
0.11700001 845638.37501582 16464.57993696
0.11800001 836715.13651636 17922.43906830
0.11900001 827836.30264585 16391.15956444
0.12000001 819003.25518793 20810.87369462
0.12100001 810219.23318186 17792.41519884
0.12200001 801482.97473430 14787.36158050
0.12300001 792796.83578840 17695.22620850
0.12400001 784160.96633350 16173.32069267
0.12500001 775576.38754933 23453.43106463
0.12600001 767046.23738018 18995.90096387
0.12700001 758569.46502987 17477.44129794
0.12800001 750147.29042525 15966.88582921
0.12900001 741781.14610326 18804.15294000
0.13000001 733471.88912612 15853.99563074
0.13100001 725219.29027894 14359.34262439
0.13200001 717025.26791078 15735.12024606
0.13300001 708891.41468797 15673.58991765
0.13400001 700816.40922341 17029.83954701
0.13500001 692802.59299346 21199.76034513
0.13600001 684849.29734677 16888.38446887
0.13700001 676958.86138725 15414.35400062
0.13800001 669129.49806089 16741.62083095
0.13900001 661363.95821053 15277.50815512
0.14000001 653661.82730069 16589.93795928
0.14100001 646023.48015602 16512.36093156
0.14200001 638449.54711088 13694.74343145
0.14300001 630941.37713361 14991.16782779
0.14400001 623496.18453486 13561.04265331
0.14500001 616118.20791490 13492.98938983
0.14600001 608805.68067576 20136.24883826
0.14700001 601561.09944058 14690.12274137
0.14800001 594379.79930223 15941.26696937
0.14900001 587266.41571932 18498.89296795
0.15000001 580219.54253751 13141.97325855
0.15100001 573240.06980517 15683.84904991
0.15200001 566327.52419397 14296.93902291
0.15300001 559483.50695237 14216.47658252
0.15400001 552704.01679964 26985.77489373
0.15500001 545993.72237773 14053.87907725
0.15600001 539348.12923767 17782.30866020
0.15700001 532773.28219310 15152.07286070
0.15800001 526261.76133458 16316.74668031
0.15900001 519820.16545570 16218.38992774
0.16000001 513442.95173408 17359.50701754
0.16100001 507135.76917675 19717.43963634
0.16200001 500893.62660517 12246.84974862
0.16300001 494718.07401325 15821.08475382
0.16400001 488608.94342722 12093.07192073
0.16500001 482565.76705752 14419.06580042
0.16600001 476589.34851875 13132.42011846
0.16700001 470676.92848501 15419.37690519
0.16800001 464829.66845919 14140.11918217
0.16900001 459049.56550564 15217.49381505
0.17000001 453332.40974240 12790.77454486
0.17100001 447679.79368797 12705.15314482
0.17200001 442091.82402129 13766.74005013
0.17300001 436567.25361328 13673.28702888
0.17400001 431106.08028280 14711.49568442
0.17500001 425707.65477513 13486.41914021
0.17600001 420370.40704021 11160.83483403
0.17700001 415096.99755025 15516.32650127
0.17800001 409883.32187798 12105.90448345
0.17900001 404731.77404657 10927.75841541
0.18000001 399640.62170024 11935.26773084
0.18100001 394611.30005217 11850.17790033
0.18200001 389638.66068379 16043.37261151
0.18300001 384726.39563945 19113.20823826
0.18400001 379872.39484294 12649.75134585
0.18500001 375077.92039010 16743.47915721
0.18600001 370339.22766889 12465.61899225
0.18700001 365657.56558406 13405.00698763
0.18800001 361032.11575545 12282.31315829
0.18900001 356464.52175654 12191.08722007
0.19000001 351948.43280901 11091.65538404
0.19100001 347491.32550985 14010.85090657
0.19200001 343085.05184204 10925.54399216
0.19300001 338734.85360258 13800.05858786
0.19400001 334435.36710028 14673.35242490
0.19500001 330189.82129240 12619.85556615
0.19600001 325995.27036554 9633.16069453
0.19700001 321851.71350456 14338.49451423
0.19800001 317759.11041695 12330.64286246
0.19900001 313716.82387727 12234.95670944
0.20000001 309722.77328917 13073.39887840
0.20100001 305778.85849895 10191.60983545
0.20200001 301881.44524737 11030.74853069
0.20300001 298033.20751178 10943.77989709
0.20400001 294231.32854579 13571.42067064
0.20500001 290475.47232449 10770.83102290
0.20600001 286765.52160408 11575.29082669
0.20700001 283101.11879096 9716.03085617
0.20800001 279480.01797411 8761.69897766
0.20900001 275905.40482289 13036.53099414
0.21000001 272371.93854177 11206.74394107
0.21100001 268882.02151851 9405.49355735
0.21200001 265433.99068782 8480.61640339
0.21300001 262026.85535352 8411.06245449
0.21400001 258661.67925192 9176.02350527
0.21500001 255337.78873819 9100.23922087
0.21600001 252052.70831941 12306.47406553
0.21700001 248807.48980198 8949.60583131
0.21800001 245600.77862423 12101.97893890
0.21900001 242431.59780662 8800.26741647
0.22000001 239299.89360314 9519.35021763
0.22100001 236206.88861221 8652.25873897
0.22200001 233150.49924833 11698.32685293
0.22300001 230128.61564842 10052.01840684
0.22400001 227142.32125684 9965.86981639
0.22500001 224193.09195877 8360.16079447
0.22600001 221276.22202893 8287.90128801
0.22700001 218395.52267449 7469.12722868
0.22800001 215547.26843843 8144.45392310
0.22900001 212731.11575653 7339.22384068
0.23000001 209948.88788508 11639.56689481
0.23100001 207199.27057142 9373.69544396
0.23200001 204479.80595545 10005.19737858
0.23300001 201791.98336105 7791.18884605
0.23400001 199135.89914768 8423.44893234
0.23500001 196508.12676005 10434.58202447
0.23600001 193911.93608349 8961.64054996
0.23700001 191344.64363693 8197.20492112
0.23800001 188806.42868392 8122.45294616
0.23900001 186296.64937393 10730.68751149
0.24000001 183814.84960799 6644.90712764
0.24100001 181362.12044015 8558.47886840
0.24200001 178936.24209702 7826.67159954
0.24300001 176537.74203677 8399.66616344
0.24400001 174165.37020920 6400.57765796
0.24500001 171819.54502496 7608.16981360
0.24600001 169499.97791070 6907.97192653
0.24700001 167206.26615555 7464.08807428
0.24800001 164937.76084882 9240.63848870
0.24900001 162693.42099139 8541.40500612
0.25000001 160474.85176827 9062.81768236
0.25100001 158279.43485068 7179.55550448
0.25200001 156110.07054205 7701.69069456
0.25300001 153963.92231945 8212.43600505
0.25400001 151840.98108215 6388.70958129
0.25500001 149740.90885674 5750.05117214
0.25600001 147664.37517844 9107.93909193
0.25700001 145609.80844164 6198.60983864
0.25800001 143578.39440584 6135.82297524
0.25900001 141569.10716756 6073.31498485
0.26000001 139581.69872362 6011.08613995
0.26100001 137615.25967484 5949.10795723
0.26200001 135671.47775619 10704.48010147
0.26300001 133747.86036092 8474.26483345
0.26400001 131845.75680859 6289.04289736
0.26500001 129964.80124646 5185.59581511
0.26600001 128103.34470686 6156.64703794
0.26700001 126263.51918259 7106.11119586
0.26800001 124444.08707241 6025.58298118
0.26900001 122643.34431344 5463.76124772
0.27000001 120863.48208437 5895.72093507
0.27100001 119102.65457357 6803.14395119
0.27200001 117362.75294766 5286.60545671
0.27300001 115641.13677894 6178.70623050
0.27400001 113936.94172381 5639.87888223
0.27500001 112254.57209234 5576.80740547
0.27600001 110588.47916395 4594.95152672
0.27700001 108943.08229419 6814.39012000
0.27800001 107314.92048474 7185.80741574
0.27900001 105706.41301985 5327.60346834
0.28000001 104114.73638493 5704.96725022
0.28100001 102541.78545781 5638.77304920
0.28200001 100987.36767532 4286.91396072
0.28300001 99450.28235612  5507.55689756
0.28400001 97930.73669202  4605.19311091
0.28500001 96429.26245325  4964.17866605
0.28600001 94945.09816006  4904.86400311
0.28700001 93478.04677239  4038.25181171
0.28800001 92027.73877200  5186.22346398
0.28900001 90596.31014317  4729.12761332
0.29000001 89180.34159292  4671.26651375
0.29100001 87782.24698934  4613.83512015
0.29200001 86400.76100879  4177.04498869
0.29300001 85036.02711712  6000.14235741
0.29400001 83687.13965622  3703.15610508
0.29500001 82356.01697700  4387.92879225
0.29600001 81040.54434154  3971.39206345
0.29700001 79741.53644112  4277.33621718
0.29800001 78458.63173715  3870.75677999
0.29900001 77192.49636309  3821.02875086
0.30000001 75941.64562745  4800.27164735
0.30100001 74707.75230832  4061.11360773
0.30200001 73488.01213908  5010.04546476
0.30300001 72285.64747045  3625.84824877
0.30400001 71098.82435285  3578.04850495
0.30500001 69927.43692591  4814.50426028
0.30600001 68770.40693439  3800.25286711
0.30700001 67630.22119503  4061.87127728
0.30800001 66504.85461938  3390.75017330
0.30900001 65394.75681545  3344.94196947
0.31000001 64300.23372832  4499.40906816
0.31100001 63219.64847323  3254.54765749
0.31200001 62155.15885190  3501.82181551
0.31300001 61104.71686071  2878.03230040
0.31400001 60070.39212555  3405.99139478
0.31500001 59049.59311192  3078.84593063
0.31600002 58044.12165775  3587.99755016
0.31700002 57052.91316676  2721.42408691
0.31800002 56076.30582345  3219.90163284
0.31900002 55114.16042465  3968.21973847
0.32000002 54166.58712366  3651.36981090
0.32100002 53232.42200106  3342.46393571
0.32200002 52313.74405496  2788.06112143
0.32300002 51407.24345178  4497.10587010
0.32400002 50515.62607075  2708.90057631
0.32500002 49637.67037345  3398.19507468
0.32600002 48773.80543775  3110.06185101
0.32700002 47923.07775233  3300.94175189
0.32800002 47086.70531927  2556.10191930
0.32900002 46262.98412369  2290.01782256
0.33000002 45453.66808198  2482.45219985
0.33100002 44655.07898100  3335.73455784
0.33200002 43872.85217844  2848.88379112
0.33300002 43102.16143507  2591.30206819
0.33400002 42345.00652842  2766.18768246
0.33500002 41599.68360534  3144.93622950
0.33600002 40868.19258022  2892.24212587
0.33700002 40148.43871319  2035.52593916
0.33800002 39442.14173262  2206.19630229
0.33900002 38747.33568508  2568.94847758
0.34000002 38065.53596216  2920.57838501
0.34100002 37395.65163254  2302.07642352
0.34200002 36738.56650595  1890.19933625
0.34300002 36092.42064246  2793.55349003
0.34400002 35459.57282196  2936.05276871
0.34500002 34837.55706865  1808.06929749
0.34600002 34228.29083418  2316.05740898
0.34700002 33628.84865052  1930.96858097
0.34800002 33042.61694468  1902.75918688
0.34900002 32466.88321173  2045.41373921
0.35000002 31902.57464740  1847.63769821
0.35100002 31350.06034086  2317.39657015
0.35200002 30807.14087887  2446.85728019
0.35300002 30275.80415197  1929.17433194
0.35400002 29755.54498596  1742.93113010
0.35500002 29245.91044336  2498.77070663
0.35600002 28745.94961382  2155.08394462
0.35700002 28257.04194091  1972.62419133
0.35800002 27778.85017445  1944.65849857
0.35900002 27310.65591710  1474.77548938
0.36000002 26852.82674930  1744.89676482
0.36100002 26404.15381964  1433.74562032
0.36200002 25966.59513456  1979.43364087
0.36300002 25537.59367899  1673.22321710
0.36400002 25118.34355526  1925.32112471
0.36500002 24708.43339438  1899.09028065
0.36600002 24308.34955348  2007.26205946
0.36700002 23916.88164246  1320.21192920
0.36800002 23535.93696545  1693.52842457
0.36900002 23163.03807120  1542.65840862
0.37000002 22798.70613949  1649.37247379
0.37100002 22443.10219027  1753.25522615
0.37200002 22096.86664151  1236.31974716
0.37300002 21758.62004489  1342.72450658
0.37400002 21428.79393131  1566.98063046
0.37500002 21107.75042835  1428.57261666
0.37600002 20794.73701576  1881.50789432
0.37700002 20489.36873605  1510.27144108
0.37800002 20191.95006535  1262.70365715
0.37900002 19902.82039845  1134.46081645
0.38000002 19621.38018918  1233.49812403
0.38100002 19346.43140434  1773.68091517
0.38200002 19079.98816905  1424.98898391
0.38300002 18820.20363144  1192.44815858
0.38400002 18568.48469897  1715.72806747
0.38500002 18322.65827619  1485.23475023
0.38600002 18084.96182863  1469.76491744
0.38700002 17853.42595814  1558.60415998
0.38800002 17628.80219893  1234.36878845
0.38900002 17410.26262511  1120.35045300
0.39000002 17199.36219954  1210.49116895
0.39100002 16993.77612158  1199.08089995
0.39200002 16795.08198074  1089.07714264
0.39300002 16602.16109953  1275.54409771
0.39400002 16416.65884711  972.68708277
0.39500002 16235.80056756  1253.72857923
0.39600002 16061.05457092  956.43584501
0.39700002 15891.83113318  1138.49083632
0.39800002 15728.52086074  1223.75762355
0.39900002 15570.57404825  1214.50483331
0.40000002 15417.83962121  1391.07464573
0.40100002 15270.79282122  1104.99462090
0.40200002 15128.98560395  1371.82083463
0.40300002 14991.68675576  1090.19551253
0.40400002 14859.97057837  993.01758095
0.40500002 14732.97836940  986.96226773
0.40600002 14610.95318863  1159.59835476
0.40700002 14493.32298164  1596.58453530
0.40800002 14380.57705861  970.47328878
0.40900002 14272.02584541  1053.27555730
0.41000002 14168.31126277  1310.21464610
0.41100002 14068.61804580  869.44063643
0.41200002 13972.84803898  1038.74157244
0.41300002 13881.95076872  862.06918358
0.41400002 13794.48087397  858.70647509
0.41500002 13711.20336747  941.13704374
0.41600002 13631.27262135  1278.95421430
0.41700002 13555.44744933  1104.90457395
0.41800002 13484.23745351  932.23280052
0.41900002 13414.61958156  1183.16950316
0.42000002 13349.77549734  1011.64603513
0.42100002 13288.47670340  1177.62486126
0.42200002 13230.61312116  1007.37893078
0.42300002 13175.41287194  837.95629836
0.42400002 13123.19694904  1505.88692126
0.42500002 13074.68304850  835.47228639
0.42600002 13028.13091050  1168.23255410
0.42700002 12985.92490483  917.06606024
0.42800002 12945.39799025  1082.94732019
0.42900002 12908.98535741  999.15551401
0.43000002 12874.60445182  1082.04618243
0.43100002 12841.93773314  915.37336500
0.43200002 12812.95519192  915.42162707
0.43300002 12786.16507498  1082.09320157
0.43400002 12761.84655786  1165.79473831
0.43500002 12739.66253880  1166.44355733
0.43600002 12720.15427464  1250.70922832
0.43700002 12702.21373936  917.98903045
0.43800002 12686.50065339  1086.02793990
0.43900002 12673.51152927  920.09698063
0.44000002 12662.01213250  1005.11057071
0.44100002 12652.82622576  922.77066037
0.44200002 12645.37168669  1176.39898376
0.44300002 12639.79628691  841.81047260
0.44400002 12636.43111686  927.82999873
0.44500002 12633.50162168  929.69942840
0.44600002 12632.61981603  1185.82407833
0.44700002 12634.39168701  1103.74051009
0.44800002 12636.16880221  1021.25521099
0.44900002 12641.02998868  1194.57739054
0.45000002 12646.77402641  941.10973378
0.45100002 12653.56515137  857.91175792
0.45200002 12661.86053930  1462.63488952
0.45300002 12671.22953344  1294.36615818
0.45400002 12682.16690904  1211.78110559
0.45500002 12694.25620311  1302.43074817
0.45600002 12707.38205482  1306.63662171
0.45700002 12721.64361755  873.97695795
0.45800002 12736.51428314  1052.29085995
0.45900002 12752.65801445  1055.92013364
0.46000002 12770.37963743  971.37897316
0.46100002 12787.87202348  1063.43948787
0.46200002 12807.23697148  889.46264983
0.46300002 12827.30518453  1249.89267642
0.46400002 12847.40531396  896.10656312
0.46500002 12868.87957483  1079.44166990
0.46600002 12890.78700769  1625.39941084
0.46700002 12913.20867291  1087.80875016
0.46800002 12937.08556612  1092.14881526
0.46900002 12960.49985535  1005.08681142
0.47000002 12984.88712696  1100.85878280
0.47100002 13009.88648917  1105.32000851
0.47200002 13035.45992123  1202.32570282
0.47300002 13061.59329743  1114.41519296
0.47400002 13087.46151071  1025.72984452
0.47500002 13114.11529032  1123.61745133
0.47600002 13141.64660264  1034.31334488
0.47700002 13168.56375955  1321.86049284
0.47800002 13196.03309205  1137.76202712
