# SAXS profile: number of points = 501, q_min = 0, q_max = 0.5, delta_q = 0.001
#    q    intensity    error
0.00000000 1646666.22097350 395.19989303
0.00100000 1646580.11032085 839.75587621
0.00200000 1646321.73752458 963.09824695
0.00300000 1645891.33502132 1086.28831981
0.00400000 1645288.75307689 1604.15659520
0.00500000 1644514.67565367 1776.07592001
0.00600000 1643568.90921325 2070.89690992
0.00700000 1642452.23827535 2365.13132141
0.00800000 1641164.43448280 2658.68649611
0.00900000 1639706.89028970 2705.51648463
0.01000000 1638079.04299885 3513.67969895
0.01100000 1636282.38396384 3534.37010325
0.01200000 1634316.83925161 3505.60977389
0.01300000 1632183.86156904 3770.34488651
0.01400000 1629883.48047784 5134.13319111
0.01500000 1627417.35423834 5468.12255373
0.01600000 1624785.05025038 4143.20206335
0.01700000 1621988.87099513 4817.30716295
0.01800000 1619029.19130987 5537.08008343
0.01900000 1615907.14723326 6786.81032462
0.02000000 1612623.37045040 5587.74023138
0.02100000 1609180.63037903 7965.44448152
0.02200000 1605577.52729643 6093.16699292
0.02300000 1601817.43104904 6919.85161711
0.02400000 1597900.61755135 5992.12758904
0.02500000 1593829.57244973 9323.90342466
0.02600000 1589604.72624120 8369.26926646
0.02700000 1585227.99333302 7323.75366463
0.02800000 1580699.88060255 7563.64927555
0.02900000 1576023.69720331 7801.31765935
0.03000000 1571200.04499551 7306.08054506
0.03100000 1566230.63624929 9021.48887990
0.03200000 1561116.68561026 11591.29192453
0.03300000 1555862.13579533 8728.38698419
0.03400000 1550465.68613078 11395.92331887
0.03500000 1544931.54039083 8342.63070336
0.03600000 1539259.91992982 9397.18224545
0.03700000 1533454.36055796 8740.69025942
0.03800000 1527515.97037863 13403.95326040
0.03900000 1521447.41026155 11867.29034961
0.04000000 1515248.88773600 14910.04974624
0.04100000 1508924.43399226 10456.84681241
0.04200000 1502475.54583683 9690.96772024
0.04300000 1495903.79632403 10860.26206542
0.04400000 1489212.70416989 12062.62346399
0.04500000 1482403.82776253 14320.02164156
0.04600000 1475478.10886819 10402.12115108
0.04700000 1468439.87806023 15859.15142063
0.04800000 1461290.28408798 12888.58090534
0.04900000 1454032.12414235 14176.81387028
0.05000000 1446667.31825762 13280.40660002
0.05100000 1439199.66761846 13470.90951644
0.05200000 1431628.11567101 13657.73285997
0.05300000 1423958.63245229 16147.69164478
0.05400000 1416191.93620638 17525.37602783
0.05500000 1408331.49230488 15378.98061339
0.05600000 1400378.37896820 14367.88283868
0.05700000 1392337.43388490 14536.00348828
0.05800000 1384207.90285422 12250.24051225
0.05900000 1375994.14763663 12383.94790713
0.06000000 1367699.42890198 12514.45035911
0.06100000 1359325.22856218 13905.89773803
0.06200000 1350874.46174904 17872.06996434
0.06300000 1342350.31298236 14175.21996786
0.06400000 1333752.09829537 15604.90027985
0.06500000 1325086.92368340 22301.21396879
0.06600000 1316354.95918459 15875.24155055
0.06700000 1307558.16269662 18671.93143713
0.06800000 1298700.33084952 21506.47848557
0.06900000 1289785.31797192 16251.29576731
0.07000000 1280812.56101130 16368.78529625
0.07100000 1271786.66935057 17855.88567401
0.07200000 1262709.18647318 17974.66611150
0.07300000 1253583.87040026 13914.78161343
0.07400000 1244413.44836445 15399.61714520
0.07500000 1235198.55051672 15489.39054951
0.07600000 1225942.55805591 19823.49209310
0.07700000 1216649.28478564 22775.67567910
0.07800000 1207319.84947645 18598.76315340
0.07900000 1197955.94687462 14375.47203676
0.08000000 1188563.39961918 18773.35977766
0.08100000 1179142.28758508 23205.52130844
0.08200000 1169694.48097877 14562.69697154
0.08300000 1160222.99962647 19004.45362580
0.08400000 1150731.40514012 14671.82610421
0.08500000 1141221.09696737 14721.75284199
0.08600000 1131694.76202179 17722.34080535
0.08700000 1122154.46369374 20737.41546284
0.08800000 1112602.24286914 16338.56470385
0.08900000 1103041.49387287 16380.16695338
0.09000000 1093474.11438298 19403.69907122
0.09100000 1083901.70683681 19445.19753421
0.09200000 1074326.72631719 20981.60195083
0.09300000 1064753.14590267 15013.02006272
0.09400000 1055179.69749152 21050.83595429
0.09500000 1045610.78704420 19573.83485349
0.09600000 1036047.71506375 16581.94445908
0.09700000 1026495.53592109 19616.33061367
0.09800000 1016953.13055942 18122.10563863
0.09900000 1007423.89819600 18133.63102022
0.10000000 997908.02255675 16630.13797798
0.10100000 988409.08312539 15122.65968306
0.10200000 978928.76583151 15124.45014350
0.10300000 969468.80176180 18148.45682270
0.10400000 960031.58454452 15120.49816792
0.10500000 950620.15581976 16626.34730755
0.10600001 941231.53565890 16617.44354397
0.10700001 931873.17945955 16605.98083941
0.10800001 922542.62702504 18100.28719406
0.10900001 913244.72129467 15068.53861057
0.11000001 903979.46079532 18061.51047684
0.11100001 894748.33615951 18038.12730609
0.11200001 885553.83782378 18012.16590930
0.11300001 876396.33161640 16485.01577383
0.11400001 867278.19036274 17952.65938580
0.11500001 858201.52267618 17919.24863726
0.11600001 849166.67765015 19373.73866293
0.11700001 840175.53870397 22306.66160312
0.11800001 831228.60763743 16321.17447966
0.11900001 822327.22480762 14801.89074373
0.12000001 813473.14953842 26576.16904729
0.12100001 804669.33968540 17670.53953192
0.12200001 795914.42949227 23495.39506551
0.12300001 787211.19846744 16106.34187948
0.12400001 778559.74905229 20437.19437557
0.12500001 769960.69874954 20373.16104891
0.12600001 761417.50826754 18856.50548083
0.12700001 752928.90021579 23129.97690466
0.12800001 744496.33280853 15846.60519067
0.12900001 736121.21939208 15789.80090017
0.13000001 727804.11946944 17161.62194600
0.13100001 719545.40409092 21370.49950885
0.13200001 711346.27686103 14191.35889236
0.13300001 703208.65141857 16961.39347183
0.13400001 695131.10333543 16891.68660742
0.13500001 687116.26013470 16820.60684116
0.13600001 679163.35636266 18143.84992072
0.13700001 671274.08737123 20843.06139570
0.13800001 663447.63159175 15216.17214809
0.13900001 655686.40940592 13769.41524686
0.14000001 647989.48782795 15075.47614529
0.14100001 640357.96545164 16367.55036889
0.14200001 632791.63336436 14930.71929344
0.14300001 625292.85491967 13506.32630333
0.14400001 617857.73872362 16126.08774135
0.14500001 610491.27201541 16043.71138538
0.14600001 603191.39186161 19950.55622698
0.14700001 595960.52097961 18522.45386587
0.14800001 588794.37974283 14475.51050891
0.14900001 581697.31563236 15705.82826309
0.15000001 574667.77370165 13016.22568849
0.15100001 567706.57513983 14238.08157633
0.15200001 560813.77873875 14157.74451232
0.15300001 553990.03798803 16636.32162583
0.15400001 547232.34632097 15267.78318286
0.15500001 540544.68456527 16443.37008049
0.15600001 533922.74643638 15088.65752640
0.15700001 527372.61902299 21247.84382327
0.15800001 520886.95043945 13665.46978977
0.15900001 514471.76872612 13582.05533545
0.16000001 508122.04865715 15952.49247059
0.16100001 501843.34520900 18292.19079634
0.16200001 495630.70051066 12118.17119954
0.16300001 489485.45258756 13245.47697231
0.16400001 483407.55111711 11964.33745498
0.16500001 477396.29723709 14264.60203490
0.16600001 471452.61684140 17714.83291419
0.16700001 465573.69870128 11732.45776122
0.16800001 459760.53065653 12820.42300269
0.16900001 454015.45435572 15050.61302255
0.17000001 448334.11977450 17249.65607285
0.17100001 442717.99145899 13706.54966281
0.17200001 437167.11780409 17016.73086410
0.17300001 431680.26033545 19153.65405561
0.17400001 426257.44866191 15664.96197812
0.17500001 420897.92291729 13334.04682775
0.17600001 415600.18990354 12137.60411938
0.17700001 410366.85011829 15339.51358192
0.17800001 405193.82786773 10879.45479211
0.17900001 400083.33616564 11882.47564537
0.18000001 395033.93211768 11797.68893996
0.18100001 390046.24727004 15972.39458019
0.18200001 385116.32159771 10571.44352723
0.18300001 380246.80289511 17841.18083464
0.18400001 375436.06249592 13543.85659436
0.18500001 370685.26067437 11376.33118754
0.18600001 365990.47908092 12319.24010787
0.18700001 361352.91967455 12228.18337950
0.18800001 356772.07489674 13148.83544155
0.18900001 352249.24391835 11043.01431859
0.19000001 347778.11894609 11956.61229430
0.19100001 343366.21938549 13844.52661978
0.19200001 339005.40867681 10795.62774942
0.19300001 334700.78984661 10713.77278924
0.19400001 330447.23388187 14498.37307167
0.19500001 326247.39341594 14387.51072953
0.19600001 322098.78307632 12373.42533660
0.19700001 318001.23935448 12278.02843171
0.19800001 313954.89759058 12183.02037676
0.19900001 309958.89640497 11158.52079793
0.20000001 306010.84979608 11994.09582461
0.20100001 302112.96278380 13731.03480748
0.20200001 298261.89811718 9082.07522692
0.20300001 294459.79823021 9911.51727689
0.20400001 290703.96670310 12514.80635809
0.20500001 286994.12667500 10641.74272011
0.20600001 283329.99427862 9677.13641201
0.20700001 279711.34886466 11345.09284622
0.20800001 276136.01319130 12985.29663414
0.20900001 272606.78702769 9445.82561703
0.21000001 269118.67322952 9369.36705140
0.21100001 265673.96734364 11827.80558528
0.21200001 262270.85521799 12569.33133053
0.21300001 258908.43926086 10804.24968113
0.21400001 255587.83411431 9066.97884386
0.21500001 252308.26647390 9809.74586429
0.21600001 249067.22899904 8917.85255593
0.21700001 245865.55649229 8039.80407742
0.21800001 242702.32930355 8770.04908404
0.21900001 239576.30935996 15021.43530711
0.22000001 236487.55044777 11759.34400203
0.22100001 233436.98615589 12437.52321048
0.22200001 230422.75959342 8478.40584014
0.22300001 227442.79779109 8406.28620385
0.22400001 224498.03943551 11365.21378384
0.22500001 221589.87446876 9014.27651965
0.22600001 218713.69683831 9681.36224836
0.22700001 215873.41777746 11074.30685568
0.22800001 213065.12233758 8782.54475808
0.22900001 210288.57405629 8705.94737764
0.23000001 207545.40133741 8629.73819573
0.23100001 204834.57481433 9266.71660285
0.23200001 202153.35340784 9184.83804647
0.23300001 199503.49352100 8403.08754452
0.23400001 196884.68148536 8328.22242072
0.23500001 194294.04795914 8253.61154767
0.23600001 191734.16284855 7497.76479281
0.23700001 189203.01966270 10807.27699429
0.23800001 186700.46129722 10039.81778113
0.23900001 184225.82399185 8621.76897062
0.24000001 181778.84905830 8542.69741557
0.24100001 179360.14561072 12370.46982791
0.24200001 176968.14285013 7740.58693441
0.24300001 174602.79303833 8307.60128574
0.24400001 172263.22252460 10129.07796359
0.24500001 169949.74325556 7525.37498734
0.24600001 167661.95857732 9317.81378871
0.24700001 165399.65690323 7383.44103344
0.24800001 163162.07206255 7312.92441579
0.24900001 160948.10676901 7242.66514724
0.25000001 158759.46663967 5977.29420176
0.25100001 156593.48433848 5919.23398803
0.25200001 154452.96222659 6447.63921318
0.25300001 152335.43085259 9286.36830412
0.25400001 150240.41237488 9194.71367236
0.25500001 148167.86393623 6258.61086877
0.25600001 146118.39733502 7322.72382890
0.25700001 144090.38800806 5576.29827975
0.25800001 142085.16514540 7176.01160519
0.25900001 140101.54093692 6010.35639057
0.26000001 138139.41248980 6489.78990584
0.26100001 136197.70974811 5887.82727100
0.26200001 134278.32347857 7416.19215663
0.26300001 132378.67411413 6290.63489156
0.26400001 130499.86478842 7262.31781912
0.26500001 128641.94833143 6672.65817569
0.26600001 126803.15642408 7617.69998264
0.26700001 124985.55075550 5526.86131594
0.26800001 123187.83275319 5467.69221549
0.26900001 121408.45757504 5408.74704092
0.27000001 119649.59875161 5350.13206136
0.27100001 117909.26588726 5772.83793103
0.27200001 116189.54313597 5233.75821824
0.27300001 114487.78450178 6117.08261542
0.27400001 112803.02942229 4653.12518388
0.27500001 111139.74109093 4601.18549892
0.27600001 109492.31017338 5004.34627331
0.27700001 107865.17775562 4947.77593781
0.27800001 106255.07393660 5336.13006564
0.27900001 104664.23650249 6154.25739761
0.28000001 103089.75381845 6952.37332656
0.28100001 101533.92089836 4724.37356300
0.28200001 99996.15672634  6367.25558091
0.28300001 98475.57080573  4614.56546636
0.28400001 96972.03759822  6218.33220530
0.28500001 95486.43061072  5734.91529392
0.28600001 94017.66624675  4452.20679585
0.28700001 92565.95173371  5198.50409542
0.28800001 91130.61672760  4740.61490656
0.28900001 89713.86797323  4292.80878571
0.29000001 88312.47972696  4625.80790706
0.29100001 86928.46661147  4568.96042137
0.29200001 85560.98728781  4136.44612623
0.29300001 84210.02077873  4085.02830134
0.29400001 82874.77436093  3667.20893906
0.29500001 81557.00654048  5069.58376654
0.29600001 80254.65968199  3932.87978389
0.29700001 78968.58062226  3882.88529300
0.29800001 77698.43909179  4878.68522152
0.29900001 76444.92315434  4128.02604575
0.30000001 75206.44211124  3735.12812427
0.30100001 73984.88792421  3686.66713979
0.30200001 72777.26013700  3307.72662982
0.30300001 71586.86322344  5222.97778804
0.30400001 70411.87284648  5154.14933637
0.30500001 69252.10136419  3814.40592372
0.30600001 68106.68310947  3763.57548681
0.30700001 66978.03955285  3403.82413122
0.30800001 65863.91931983  3968.63064651
0.30900001 64765.06597078  3312.73328124
0.31000001 63681.74186630  4753.20543794
0.31100001 62612.23217716  4688.40416740
0.31200001 61558.69850912  3468.21723821
0.31300001 60519.15833369  3420.54299097
0.31400001 59495.57238806  3935.63229981
0.31500001 58485.68971719  3049.44400624
0.31600002 57490.86614316  3007.05989600
0.31700002 56510.35945956  3234.65312862
0.31800002 55544.29913290  2657.79483935
0.31900002 54592.78197996  2882.49902503
0.32000002 53655.62637109  3358.57409173
0.32100002 52731.99016779  3056.34629484
0.32200002 51823.76103889  3766.29201184
0.32300002 50927.82444039  2970.11086200
0.32400002 50046.59947429  2683.74902389
0.32500002 49179.03007721  3607.28202697
0.32600002 48325.63122616  2607.40955627
0.32700002 47485.11488256  3037.14809171
0.32800002 46659.24310276  2532.89713177
0.32900002 45845.92693341  2723.24818880
0.33000002 45047.00862055  2460.24249231
0.33100002 44258.88252383  2424.50169947
0.33200002 43487.09934945  2172.18071537
0.33300002 42726.86163683  2568.73904325
0.33400002 41980.06877639  2531.39826709
0.33500002 41245.35300197  2078.76588974
0.33600002 40524.25289332  2663.05140500
0.33700002 39815.03083943  2220.48437507
0.33800002 39119.25385405  2188.13556795
0.33900002 38435.05140879  2548.24402908
0.34000002 37763.90072828  1931.62361373
0.34100002 37104.62239932  2474.50738500
0.34200002 36458.12299886  2250.92462055
0.34300002 35822.79081424  2218.14731227
0.34400002 35200.50665386  2003.78893617
0.34500002 34589.30338139  2154.22191662
0.34600002 33990.85151862  2299.99107694
0.34700002 33402.23556774  3138.47420259
0.34800002 32826.87172233  1890.33549766
0.34900002 32262.00539624  2879.38411799
0.35000002 31708.60721208  2003.34989854
0.35100002 31167.07763052  2139.30830988
0.35200002 30635.20380565  2108.77435384
0.35300002 30114.75918772  2558.55006177
0.35400002 29605.61875113  1734.14920048
0.35500002 29106.99927355  2020.60798527
0.35600002 28618.20717827  2758.50912057
0.35700002 28140.47791654  1813.37248283
0.35800002 27673.40324531  1788.25540241
0.35900002 27216.45421078  1763.62631639
0.36000002 26769.79157544  1739.50113897
0.36100002 26332.39617909  2001.78885235
0.36200002 25906.01608087  1551.64090666
0.36300002 25488.37321260  1530.83176766
0.36400002 25080.39352420  2608.98805994
0.36500002 24681.81132410  1897.04410823
0.36600002 24292.95291333  1738.52525759
0.36700002 23912.85717907  1847.98569033
0.36800002 23543.25164553  1824.36665643
0.36900002 23181.71900375  2315.85383817
0.37000002 22828.69724286  1778.58388644
0.37100002 22484.40590099  1756.48187219
0.37200002 22149.58447979  1239.26931035
0.37300002 21822.57652068  1346.67126088
0.37400002 21504.09970705  1935.36906531
0.37500002 21194.28152650  1434.42904166
0.37600002 20892.73763844  1535.92968025
0.37700002 20598.57952973  2102.29112639
0.37800002 20312.28050212  1385.70384150
0.37900002 20034.40394095  1256.15718660
0.38000002 19764.11656253  1920.18283560
0.38100002 19500.42415668  1899.53640709
0.38200002 19245.07801473  1326.75574119
0.38300002 18996.46424933  1531.87494964
0.38400002 18755.62994758  1083.13768079
0.38500002 18520.87229669  1072.35855678
0.38600002 18294.05346270  1592.95478073
0.38700002 18073.46207873  1262.25065138
0.38800002 17859.75168014  1146.32821590
0.38900002 17651.87461071  1548.95207047
0.39000002 17451.75994917  1740.02780817
0.39100002 17256.84715405  1319.11345895
0.39200002 17068.76532839  1207.44451653
0.39300002 16886.40905111  1397.18155108
0.39400002 16711.37961406  1089.16421795
0.39500002 16540.81687424  1080.77702577
0.39600002 16376.33620946  1170.25304097
0.39700002 16217.32138931  1452.26119922
0.39800002 16064.16917561  1442.16085607
0.39900002 15916.24839219  1623.45741292
0.40000002 15773.45607989  1138.52811379
0.40100002 15636.19992674  1508.58064041
0.40200002 15504.07515710  1312.10994271
0.40300002 15376.46829872  931.81402305
0.40400002 15254.15367039  1019.35886732
0.40500002 15136.71563998  1106.19123138
0.40600002 15023.93243489  1008.93223047
0.40700002 14915.53841996  1186.68029292
0.40800002 14811.81349808  908.70480116
0.40900002 14712.23641535  1085.76309890
0.41000002 14617.35086762  991.27569606
0.41100002 14526.37810532  1615.91437700
0.41200002 14439.18872437  1520.66323256
0.41300002 14356.76553327  1069.86621823
0.41400002 14277.57058608  1066.53457332
0.41500002 14202.48954409  1063.48246745
0.41600002 14130.58503646  1060.64176309
0.41700002 14062.67341494  969.90263139
0.41800002 13999.29559219  967.84134663
0.41900002 13937.37021225  878.05436498
0.42000002 13879.90690368  964.16777875
0.42100002 13826.03647277  962.70696522
0.42200002 13775.31283896  1311.06546157
0.42300002 13727.17452540  1222.26767766
0.42400002 13681.87426351  1046.66343076
0.42500002 13640.13349783  1133.08594336
0.42600002 13600.15624885  1045.30805882
0.42700002 13564.38613121  1045.00035707
0.42800002 13530.20940908  1218.93662343
0.42900002 13499.90311513  1393.19006750
0.43000002 13471.53323847  1132.21506468
0.43100002 13444.72801591  1132.58394173
0.43200002 13421.41192926  1220.40904456
0.43300002 13400.12062441  1046.81747279
0.43400002 13381.14017393  1484.30304413
0.43500002 13364.20060956  1223.62626580
0.43600002 13349.74614062  962.58349109
0.43700002 13336.70498680  963.84371507
0.43800002 13325.70779045  965.24768954
0.43900002 13317.24813824  1142.61994441
0.44000002 13310.21133769  968.51757388
0.44100002 13305.30742342  882.14192398
0.44200002 13301.86396310  1060.69068268
0.44300002 13300.29973993  1151.54000606
0.44400002 13300.63071654  1420.50742784
0.44500002 13301.24444037  978.83862475
0.44600002 13303.88530989  1159.63321799
0.44700002 13308.92648311  894.35990205
0.44800002 13313.89889114  1165.69847266
0.44900002 13321.76822264  989.14133741
0.45000002 13330.33590916  991.97699369
0.45100002 13339.79575462  1175.76965353
0.45200002 13350.61987648  1542.19692812
0.45300002 13362.42361269  1091.97730938
0.45400002 13375.62571373  912.88649823
0.45500002 13389.82193269  1190.62302268
0.45600002 13404.85613756  918.90293178
0.45700002 13420.89424260  1014.21702598
0.45800002 13437.40576663  1295.23160323
0.45900002 13455.06837548  1485.43961905
0.46000002 13474.12030401  1024.90900950
0.46100002 13492.89333048  1589.59783860
0.46200002 13513.23427461  1313.89183079
0.46300002 13534.33243676  941.98958224
0.46400002 13555.22904566  1040.02499782
0.46500002 13577.39822727  1233.77823539
0.46600002 13599.84348961  1047.93598976
0.46700002 13622.64967117  1338.83407314
0.46800002 13646.79282362  1152.06230477
0.46900002 13670.37097309  1156.51343914
0.47000002 13694.76236226  1257.79550878
0.47100002 13719.67814095  971.35325842
0.47200002 13745.02316492  1072.73038375
0.47300002 13770.84480781  1468.66066836
0.47400002 13796.27326675  1376.17832359
0.47500002 13822.32895124  1282.98863406
0.47600002 13849.16131555  1189.08904691
0.47700002 13875.35153829  1193.83530294
