# SAXS profile: number of points = 501, q_min = 0, q_max = 0.5, delta_q = 0.001
#    q    intensity    error
0.00000000 1664650.74656090 299.63713438
0.00100000 1664564.08482689 599.24308477
0.00200000 1664304.06949719 1048.51159698
0.00300000 1663870.91115356 1397.65161516
0.00400000 1663264.48615155 1247.44841201
0.00500000 1662485.48111908 1645.86069145
0.00600000 1661533.67152551 2791.37668181
0.00700000 1660409.86922940 3187.98708141
0.00800000 1659113.85505829 2911.74493856
0.00900000 1657646.97585800 2486.47057008
0.01000000 1656008.69634362 3552.13880704
0.01100000 1654200.56059218 5061.85393580
0.01200000 1652222.47844187 3544.01737164
0.01300000 1650075.82222084 5197.73906924
0.01400000 1647760.72921828 3707.46180510
0.01500000 1645278.73361395 4738.40296380
0.01600000 1642629.51399122 5026.44653751
0.01700000 1639815.38187243 5755.75224857
0.01800000 1636836.70560890 6997.47723135
0.01900000 1633694.51485208 5881.30051885
0.02000000 1630389.59074448 5649.30018748
0.02100000 1626924.63706738 5905.73670031
0.02200000 1623298.30405612 7840.53116480
0.02300000 1619513.83878189 7579.32511050
0.02400000 1615571.69884958 9087.59122040
0.02500000 1611474.28809977 6284.75001062
0.02600000 1607221.95005581 7811.09903454
0.02700000 1602816.77695948 10097.74615733
0.02800000 1598259.17200935 7647.67048878
0.02900000 1593552.51353280 10039.38129621
0.03000000 1588697.36929617 7387.44310679
0.03100000 1583695.47790092 9122.08637245
0.03200000 1578547.98603241 10157.95675798
0.03300000 1573258.94441351 8825.98308504
0.03400000 1567827.01984469 10700.41990416
0.03500000 1562256.40640078 11810.65897778
0.03600000 1556547.39832176 11230.48999789
0.03700000 1550703.49198139 14142.41650092
0.03800000 1544725.70975400 9940.31040230
0.03900000 1538616.85028474 9231.70152923
0.04000000 1532377.11106095 16963.41540551
0.04100000 1526010.40526909 13459.41239854
0.04200000 1519518.47234073 21561.96812284
0.04300000 1512902.77668934 14977.73818446
0.04400000 1506166.77756618 10166.62622073
0.04500000 1499312.01982001 12414.30410094
0.04600000 1492339.66807994 17885.69175339
0.04700000 1485253.68299845 12832.59241792
0.04800000 1478055.58560046 16295.56358945
0.04900000 1470748.22180492 14339.79583008
0.05000000 1463333.07604902 11194.49855306
0.05100000 1455814.32747211 12490.88751159
0.05200000 1448191.03309530 13815.74309956
0.05300000 1440468.84843285 15168.13768110
0.05400000 1432648.54505756 13001.28615270
0.05500000 1424733.88599727 17951.64780100
0.05600000 1416725.44199084 14535.60371312
0.05700000 1408628.63496599 14706.08363550
0.05800000 1400442.48490816 29745.39976833
0.05900000 1392171.14042942 15035.44901888
0.06000000 1383818.16001515 13928.13043126
0.06100000 1375385.09467079 14070.19017600
0.06200000 1366874.58403299 15500.35850748
0.06300000 1358290.03940478 18255.41898314
0.06400000 1349630.81804566 15790.68130961
0.06500000 1340903.56541851 15929.93510234
0.06600000 1332109.14241107 20081.54626143
0.06700000 1323249.16307971 16196.57051408
0.06800000 1314327.52851614 13603.29055690
0.06900000 1305347.89320097 17817.99957641
0.07000000 1296309.87752608 19327.98117901
0.07100000 1287218.01633476 20852.93284133
0.07200000 1278074.20176291 18193.38711440
0.07300000 1268881.72826025 19718.42298108
0.07400000 1259643.55217722 15588.08968872
0.07500000 1250360.47786849 22806.57618532
0.07600000 1241035.67434256 14333.96271064
0.07700000 1231672.97923599 15851.63198603
0.07800000 1222273.64523678 15932.33771283
0.07900000 1212839.13733442 18920.29142985
0.08000000 1203375.54195799 19007.31757688
0.08100000 1193882.96307343 19090.18947522
0.08200000 1184362.90869484 14745.31890518
0.08300000 1174819.00093584 20723.80814912
0.08400000 1165254.33601903 22285.49022241
0.08500000 1155670.45165845 20871.40933676
0.08600000 1146070.14990789 16451.83777437
0.08700000 1136455.57329270 15001.21427189
0.08800000 1126828.42471514 15043.16017643
0.08900000 1117192.37885156 19606.72716977
0.09000000 1107549.38529891 15118.04981951
0.09100000 1097900.99648070 16666.13790957
0.09200000 1088249.44420631 18217.29655198
0.09300000 1078599.08886386 22812.37180147
0.09400000 1068948.51554485 16755.76876864
0.09500000 1059302.00499442 18304.73950668
0.09600000 1049661.13650483 15272.57025408
0.09700000 1040030.78316942 18346.14387761
0.09800000 1030409.68006884 19892.05980901
0.09900000 1020801.79954743 26030.44711248
0.10000000 1011206.72347804 18383.73909737
0.10100000 1001628.40968086 16857.40692776
0.10200000 992068.53151145 16860.20548608
0.10300000 982528.72362773 26056.66297633
0.10400000 973011.22435261 19922.40575587
0.10500000 963519.67973200 18383.95635424
0.10600001 954050.44547979 21437.51451864
0.10700001 944611.41678544 16832.97623924
0.10800001 935199.97293218 18348.62433245
0.10900001 925820.93955941 19858.86008822
0.11000001 916474.38600519 21363.01894333
0.11100001 907161.80049928 15240.31896580
0.11200001 897885.73040486 18262.99661620
0.11300001 888646.49247228 16715.44131038
0.11400001 879446.58389652 21238.63600111
0.11500001 870287.81571226 16657.30957709
0.11600001 861171.12185203 19647.62007029
0.11700001 852097.82311452 18098.55861530
0.11800001 843068.61697818 16553.65307402
0.11900001 834085.02741660 21018.94368092
0.12000001 825148.68531934 14976.44934401
0.12100001 816262.45070936 19418.88461716
0.12200001 807425.23283200 16386.69587232
0.12300001 798639.56265256 14854.69656521
0.12400001 789905.75221377 20735.02697259
0.12500001 781224.32092047 20671.19650559
0.12600001 772598.73942441 16189.80734756
0.12700001 764027.75468593 17603.20029754
0.12800001 755512.78908071 19004.92510501
0.12900001 747055.46096632 18937.85682808
0.13000001 738656.13287149 14514.59369507
0.13100001 730315.21995303 15906.26624036
0.13200001 722034.05233772 15845.03802549
0.13300001 713814.30704552 17217.20189761
0.13400001 705654.91997822 18576.36664422
0.13500001 697558.42320125 15653.21175466
0.13600001 689523.76223140 21254.57097295
0.13700001 681553.01877941 22573.03704637
0.13800001 673644.92837597 15450.04716086
0.13900001 665802.50012406 18176.40911055
0.14000001 658024.47062944 20875.82731524
0.14100001 650311.92972850 19392.30265910
0.14200001 642664.84985986 16542.19401561
0.14300001 635085.46377698 20576.76999693
0.14400001 627569.81911384 15014.60863054
0.14500001 620123.26266598 16296.84011162
0.14600001 612743.21936420 20266.48293653
0.14700001 605432.56282804 14784.66388175
0.14800001 598186.87848048 16043.37283775
0.14900001 591010.49348027 17287.05774992
0.15000001 583901.63802833 17192.98454296
0.15100001 576861.44221766 17098.17395411
0.15200001 569890.10633577 18310.56998059
0.15300001 562988.10016518 15606.03087301
0.15400001 556152.21658688 19395.80946878
0.15500001 549386.71082398 14141.21460398
0.15600001 542687.23425734 16614.37046090
0.15700001 536059.89167993 15245.54403892
0.15800001 529497.27513135 13891.36166873
0.15900001 523005.41577561 16317.76974241
0.16000001 516579.24859789 14970.46733101
0.16100001 510224.36321509 14878.14313366
0.16200001 503936.06496608 13553.36110706
0.16300001 497715.25547091 13468.17544885
0.16400001 491562.40968121 12166.17021397
0.16500001 485476.21401508 13297.19412965
0.16600001 479458.34135472 12010.43201798
0.16700001 473505.26111075 13125.56645771
0.16800001 467618.32590353 13039.53763350
0.16900001 461799.90891226 11775.89823330
0.17000001 456045.73990922 12867.33115913
0.17100001 450356.90849766 15104.97142429
0.17200001 444733.84023233 11540.84369902
0.17300001 439175.07833194 13754.96410293
0.17400001 433680.84107380 14799.35940056
0.17500001 428250.20656011 12436.38658585
0.17600001 422881.72014718 16841.26530026
0.17700001 417578.05251180 12264.26798152
0.17800001 412335.30998072 12178.32395549
0.17900001 407155.27094800 12092.51211833
0.18000001 402036.60589218 16372.94154834
0.18100001 396980.40813423 11921.32221939
0.18200001 391982.17463772 11835.90232229
0.18300001 387044.82877748 10682.43777889
0.18400001 382166.67136120 11665.63819439
0.18500001 377348.85858607 15792.05047788
0.18600001 372587.61903404 10451.08320765
0.18700001 367883.83262714 12449.18948426
0.18800001 363237.19853972 11327.55257164
0.18900001 358649.20903522 11243.65323449
0.19000001 354113.25560450 14203.48335339
0.19100001 349636.90707145 11076.49773939
0.19200001 345212.18033200 11992.67171140
0.19300001 340844.07272454 14877.84447744
0.19400001 336527.37570651 11812.11144547
0.19500001 332264.87274843 13676.02280859
0.19600001 328054.16160544 14541.00140032
0.19700001 323894.98426338 12505.58593339
0.19800001 319787.30183224 14318.47711621
0.19900001 315730.54318793 9471.91674328
0.20000001 311722.12652745 9398.42255898
0.20100001 307764.45925582 9325.26355618
0.20200001 303853.83520731 9252.34971936
0.20300001 299992.84628463 11933.71598925
0.20400001 296178.53941073 11839.73767256
0.20500001 292410.52809445 9939.03431972
0.20600001 288688.84547349 9860.16798322
0.20700001 285013.13915688 12449.37450684
0.20800001 281380.98313971 8821.29423841
0.20900001 277795.56676047 9625.61684327
0.21000001 274251.71004278 10416.08043982
0.21100001 270751.61625607 10331.88216475
0.21200001 267293.70112610 11956.04781659
0.21300001 263876.95883665 11858.63109074
0.21400001 260502.40761432 12601.80456411
0.21500001 257169.38026493 8332.28831451
0.21600001 253875.30338682 9090.00566753
0.21700001 250621.04674718 14751.55550899
0.21800001 247405.83586739 8940.01030176
0.21900001 244228.25334357 10477.39256383
0.22000001 241088.18795368 11188.90333197
0.22100001 237986.95636688 11887.44903261
0.22200001 234922.39592041 7858.15451511
0.22300001 231892.73680120 9349.91558994
0.22400001 228898.34960145 8497.85163079
0.22500001 225941.40339550 9191.29672476
0.22600001 223016.76366440 9112.46539424
0.22700001 220128.58201276 9786.91721910
0.22800001 217272.55326406 8209.64381332
0.22900001 214448.94554362 8138.33786825
0.23000001 211658.98941991 8067.38276326
0.23100001 208901.96312002 10177.70412454
0.23200001 206174.95435321 8646.97799452
0.23300001 203479.76466384 7856.35408523
0.23400001 200815.97052497 8494.51595496
0.23500001 198180.77988604 8418.71992773
0.23600001 195576.89499788 11124.41431363
0.23700001 193001.96925388 6890.17062825
0.23800001 190456.23515549 8193.42762393
0.23900001 187938.76047107 9472.11397577
0.24000001 185449.40414118 10055.99441521
0.24100001 182988.80329088 7306.74326102
0.24200001 180555.21000054 6581.23771583
0.24300001 178148.63554012 7172.26440611
0.24400001 175768.47135698 8397.33911630
0.24500001 173414.58154274 8318.69787012
0.24600001 171086.80994185 7606.51992984
0.24700001 168785.06455855 6278.80469860
0.24800001 166508.30689097 6840.99411224
0.24900001 164255.71750596 7391.50763744
0.25000001 162028.75608673 7320.45954632
0.25100001 159824.93807604 6645.52123959
0.25200001 157646.78237916 6580.96524176
0.25300001 155492.10102600 5924.24932937
0.25400001 153360.33514373 8799.04964516
0.25500001 151251.32205926 6388.85614605
0.25600001 149165.92945068 8050.48559334
0.25700001 147102.36129777 6831.43398189
0.25800001 145061.84789822 5635.65305749
0.25900001 143043.38620634 9483.77695420
0.26000001 141046.71840483 6626.37514419
0.26100001 139070.91099008 6012.03576657
0.26200001 137117.62099485 7032.07752546
0.26300001 135184.50224690 5353.30654228
0.26400001 133272.56352119 5297.58465064
0.26500001 131382.03001464 7339.00054389
0.26600001 129510.79836234 6224.28926382
0.26700001 127661.02527218 6158.36815055
0.26800001 125831.69660507 7108.23287759
0.26900001 124020.90316014 7031.98554194
0.27000001 122230.97450213 7453.03402296
0.27100001 120459.93414195 6880.67176380
0.27200001 118709.82975042 6805.63486166
0.27300001 116978.08136348 5769.35924588
0.27400001 115263.48162853 4754.61884219
0.27500001 113570.76257361 6112.37873098
0.27600001 111894.39151718 5579.05462508
0.27700001 110238.37516004 7355.10473877
0.27800001 108599.73819663 4999.38918449
0.27900001 106980.69066448 4493.18922056
0.28000001 105378.34820082 6662.54638032
0.28100001 103794.97051510 4390.52746059
0.28200001 102229.98404390 6075.52823928
0.28300001 100682.35525772 5146.88224438
0.28400001 99152.06976772  5934.25165647
0.28500001 97640.12938729  4607.63792387
0.28600001 96145.15824782  5794.66896187
0.28700001 94667.63144449  4907.57024637
0.28800001 93206.63652848  5656.71103866
0.28900001 91764.70307508  4390.94124998
0.29000001 90338.16789244  5126.23957970
0.29100001 88929.42832385  5453.15280294
0.29200001 87537.43849348  4616.72472468
0.29300001 86162.25208524  4559.70659619
0.29400001 84803.00110816  5253.54616733
0.29500001 83461.57011887  4076.26327756
0.29600001 82135.71835528  7318.29285189
0.29700001 80826.38577494  4696.82149972
0.29800001 79533.18823943  4993.88912596
0.29900001 78256.93280661  3873.71835731
0.30000001 76995.92513225  3824.00280272
0.30100001 75752.18005591  3774.73131088
0.30200001 74522.56951714  4064.46113388
0.30300001 73310.41555388  5014.43266127
0.30400001 72113.78539312  3629.12642172
0.30500001 70932.56979991  5860.44919431
0.30600001 69766.13087049  3534.00352655
0.30700001 68616.53740497  4121.10943165
0.30800001 67481.75744051  5317.22532926
0.30900001 66362.46269189  3703.02559352
0.31000001 65258.93298121  3348.76230448
0.31100001 64169.40556857  3603.75398735
0.31200001 63095.91359437  3258.58861186
0.31300001 62036.77151371  3506.31849197
0.31400001 60993.71299790  4034.73430584
0.31500001 59964.67135506  3410.79066817
0.31600002 58950.75906828  3644.04134434
0.31700002 57951.43655543  2764.28365458
0.31800002 56966.68694842  2725.85609955
0.31900002 55996.71180876  3225.41075290
0.32000002 55041.31343623  3445.31117767
0.32100002 54099.62114481  3135.61419002
0.32200002 53173.42081695  2833.87759662
0.32300002 52259.77415972  2793.80765887
0.32400002 51360.97527055  2754.23242930
0.32500002 50476.01799205  3455.58835536
0.32600002 49605.36682361  2676.45769370
0.32700002 48747.84209928  3357.75152280
0.32800002 47905.10312481  2836.94034139
0.32900002 47075.05074557  3262.30117115
0.33000002 46259.59230085  3215.50441310
0.33100002 45455.12751307  3395.49818602
0.33200002 44667.11353225  2677.34691191
0.33300002 43890.81669758  2638.71602482
0.33400002 43128.08996090  2167.18662316
0.33500002 42377.60689949  2562.99778665
0.33600002 41640.97775507  2525.94183024
0.33700002 40916.24666886  3111.68070653
0.33800002 40205.25598148  2248.88109983
0.33900002 39505.85878154  2820.71845059
0.34000002 38819.75802231  2382.75686025
0.34100002 38145.57959796  2152.55515865
0.34200002 37484.39428792  2121.42939519
0.34300002 36834.37574149  2660.91542958
0.34400002 36197.71570650  2997.17100244
0.34500002 35572.21581621  2584.67732362
0.34600002 34959.57963565  2001.61082684
0.34700002 34356.98545117  1793.43472549
0.34800002 33767.59232001  2828.37366668
0.34900002 33189.02791668  2265.15126259
0.35000002 32621.94349809  1889.29994717
0.35100002 32066.88231204  2201.07090615
0.35200002 31521.56819831  2670.50738424
0.35300002 30987.92556151  2303.64249535
0.35400002 30465.52657460  1784.51830363
0.35500002 29953.99714866  1759.49787585
0.35600002 29452.26681329  2050.31965132
0.35700002 28961.63154527  2177.33556270
0.35800002 28481.97947066  2300.63200071
0.35900002 28012.43088847  1966.47274151
0.36000002 27553.35604650  1790.41716071
0.36100002 27103.62454950  1471.72688275
0.36200002 26665.01971223  1451.91039210
0.36300002 26235.19218612  1718.92987345
0.36400002 25815.22417932  2402.75210430
0.36500002 25404.79481105  1673.66796143
0.36600002 25004.11719872  2064.71507549
0.36700002 24612.29376103  1494.45854796
0.36800002 24231.17836624  1341.19578610
0.36900002 23858.14027379  1853.77758709
0.37000002 23493.75941109  1568.91332779
0.37100002 23138.13086098  1420.21853952
0.37200002 22792.11232813  1657.78436872
0.37300002 22454.08038553  1385.64136623
0.37400002 22124.61048884  1368.96033885
0.37500002 21803.89336223  1721.63550144
0.37600002 21491.61767788  1579.95634843
0.37700002 21186.75999834  1441.54721858
0.37800002 20889.87134089  1425.10709039
0.37900002 20601.48641588  1174.28478133
0.38000002 20320.83644041  1393.60302910
0.38100002 20046.85875253  1378.42207312
0.38200002 19781.31290067  1704.65471997
0.38300002 19522.48386012  1349.39414834
0.38400002 19271.72286666  1335.53045793
0.38500002 19026.95079804  1211.82655374
0.38600002 18790.32625524  1199.85633987
0.38700002 18559.92853688  1404.24425963
0.38800002 18336.51577511  1390.91647002
0.38900002 18119.07416746  1271.95906682
0.39000002 17909.47232849  1365.50778238
0.39100002 17705.16101958  1145.16986900
0.39200002 17507.73037138  1341.70498058
0.39300002 17316.10336270  1023.38175722
0.39400002 17131.86363344  1421.08815572
0.39500002 16952.27554940  1409.75130148
0.39600002 16778.74895024  1099.09200206
0.39700002 16610.83889838  1388.33398090
0.39800002 16448.84672007  984.46352284
0.39900002 16292.12850389  1173.03330786
0.40000002 16140.63235177  1262.11680654
0.40100002 15994.77031592  1157.38163490
0.40200002 15854.20078328  1150.06377931
0.40300002 15718.09591357  1047.76832324
0.40400002 15587.40600100  1420.40243914
0.40500002 15461.72888386  1035.78126701
0.40600002 15340.63260213  1123.85479768
0.40700002 15224.14523914  1490.74837245
0.40800002 15112.38375623  1112.57374485
0.40900002 15004.83165734  1568.75522411
0.41000002 14902.07529818  1010.58428423
0.41100002 14803.21966107  1006.32292024
0.41200002 14708.33945196  911.18167222
0.41300002 14618.18869454  1180.12642923
0.41400002 14531.38532349  1175.95241302
0.41500002 14448.80083884  991.76573657
0.41600002 14369.41653724  1078.56845639
0.41700002 14294.10042999  1254.73619520
0.41800002 14223.38482882  983.33375673
0.41900002 14154.16196577  1070.05469532
0.42000002 14089.55627144  889.75552070
0.42100002 14028.65394294  976.81522033
0.42200002 13970.87301218  975.09712809
0.42300002 13915.74259803  1239.05777964
0.42400002 13863.60003757  1060.56545313
0.42500002 13814.98113125  1059.33280334
0.42600002 13768.29928272  970.04557193
0.42700002 13725.84476948  881.19927596
0.42800002 13685.07913518  1232.88883771
0.42900002 13648.22352252  1144.40359659
0.43000002 13613.36598383  1584.18747461
0.43100002 13580.11633975  967.99073857
0.43200002 13550.47481804  1320.15507171
0.43300002 13522.96816367  968.37979609
0.43400002 13497.78058401  880.73022484
0.43500002 13474.74225027  969.37300342
0.43600002 13454.21540221  1058.30863369
0.43700002 13435.23308535  1235.77279775
0.43800002 13418.23372653  1060.30887932
0.43900002 13403.97339279  1238.52720019
0.44000002 13391.08467888  974.40232284
0.44100002 13380.42918855  1241.97149614
0.44200002 13371.37121238  1155.08595692
0.44300002 13364.20023579  1157.07251125
0.44400002 13358.96402523  1070.05306913
0.44500002 13354.14592979  1072.07088605
0.44600002 13351.38407075  984.73137881
0.44700002 13351.08575091  1435.50880797
0.44800002 13350.78563362  899.17545504
0.44900002 13353.51715133  1352.04367565
0.45000002 13356.89160958  1626.46876838
0.45100002 13361.27085138  1358.84130998
0.45200002 13367.12791571  999.12602341
0.45300002 13373.89295881  1092.91458439
0.45400002 13382.27735877  1096.00856763
0.45500002 13391.66580954  1190.78698022
0.45600002 13401.95577270  1010.57452294
0.45700002 13413.29942064  1382.24057081
0.45800002 13425.26582864  1109.19551533
0.45900002 13438.27972906  1112.68961430
0.46000002 13452.89341643  1023.29438622
0.46100002 13467.23961328  1306.59164921
0.46200002 13483.25745661  1123.69472969
0.46300002 13500.01855448  1315.44187029
0.46400002 13516.68831620  1225.62577116
0.46500002 13534.66624526  1135.28785846
0.46600002 13553.06519428  1424.08839278
0.46700002 13571.71517556  1048.00789553
0.46800002 13591.91515747  1243.04865964
0.46900002 13611.59220673  1151.54075527
0.47000002 13632.16072748  963.11220104
0.47100002 13653.26129742  1256.64622938
0.47200002 13674.87709852  1261.30234896
0.47300002 13697.00602272  1460.78576156
0.47400002 13718.80255071  977.46472807
0.47500002 13741.35998146  1275.47309393
0.47600002 13764.66173959  1378.80623181
0.47700002 13787.45688482  1087.41677605
