# SAXS profile: number of points = 501, q_min = 0, q_max = 0.5, delta_q = 0.001
#    q    intensity    error
0.00000000 1682732.95097188 353.37391970
0.00100000 1682645.81278204 757.19063373
0.00200000 1682384.36217491 908.48758434
0.00300000 1681948.82119263 1110.08626153
0.00400000 1681339.05505447 1513.20520705
0.00500000 1680555.75377208 1663.75026209
0.00600000 1679598.70114215 2116.29444960
0.00700000 1678468.69840068 2215.57877397
0.00800000 1677165.52678674 2264.17355676
0.00900000 1675690.54376956 2764.88951541
0.01000000 1674043.21935747 3590.82286057
0.01100000 1672225.10585328 4816.00851454
0.01200000 1670236.04898750 3582.65648216
0.01300000 1668077.52440937 3853.25925133
0.01400000 1665749.57466676 4872.31772189
0.01500000 1663253.82834518 5987.71404867
0.01600000 1660589.91003980 5081.40535188
0.01700000 1657760.12890544 4475.95254883
0.01800000 1654764.87317137 6602.51214105
0.01900000 1651605.20512082 5450.29742283
0.02000000 1648281.80313387 5711.29670621
0.02100000 1644797.50284713 5427.83200549
0.02200000 1641150.87245419 6228.16784392
0.02300000 1637345.24040542 7073.33176052
0.02400000 1633380.96540365 7350.21467947
0.02500000 1629260.44719804 7624.93924112
0.02600000 1624984.26096006 7897.42386948
0.02700000 1620554.16818467 8848.22616355
0.02800000 1615970.88381364 15464.84206731
0.02900000 1611237.57190088 7975.62634710
0.03000000 1606354.86456263 10457.37064898
0.03100000 1601324.54480341 13066.80888684
0.03200000 1596147.70884273 8691.02467494
0.03300000 1590828.44606444 8924.54799385
0.03400000 1585365.51666706 9155.48628119
0.03500000 1579762.87623059 8530.71992558
0.03600000 1574021.09424322 10482.98097212
0.03700000 1568143.42222242 9832.25971205
0.03800000 1562131.18738035 12793.85501674
0.03900000 1555986.94066895 11203.10649163
0.04000000 1549710.99614926 13343.01229515
0.04100000 1543307.17507709 10695.11921918
0.04200000 1536777.34868502 9912.21435887
0.04300000 1530123.02752584 11108.69369548
0.04400000 1523347.28640328 16452.15145723
0.04500000 1516452.19408155 15695.28093802
0.04600000 1509438.67106002 15962.31468850
0.04700000 1502310.74883328 10816.63789466
0.04800000 1495069.80620898 12087.63994561
0.04900000 1487718.84346548 14505.25939897
0.05000000 1480259.36008461 11323.98463196
0.05100000 1472695.48453006 12635.72784589
0.05200000 1465026.26297505 17470.43900012
0.05300000 1457257.42161411 15344.92136494
0.05400000 1449389.60459068 14348.95775459
0.05500000 1441426.79609663 15740.38134765
0.05600000 1433369.37483818 12255.30872675
0.05700000 1425222.94336505 16119.27224188
0.05800000 1416986.36217878 12540.32989082
0.05900000 1408663.87552739 17749.16566063
0.06000000 1400259.00112030 17937.31864236
0.06100000 1391773.42490580 18120.89083909
0.06200000 1383209.59921720 20914.13011776
0.06300000 1374571.06156608 18474.23593122
0.06400000 1365857.23864457 15980.53043950
0.06500000 1357074.64824816 17465.55153995
0.06600000 1348224.29880432 13549.65483695
0.06700000 1339307.64972286 17759.22026644
0.06800000 1330328.61591703 13768.90181925
0.06900000 1321291.15226221 18035.62507279
0.07000000 1312194.56685749 20962.30918718
0.07100000 1303043.38054084 21109.30375347
0.07200000 1293839.85873636 15584.30182855
0.07300000 1284586.90470179 15684.80684133
0.07400000 1275287.83635359 21520.48324701
0.07500000 1265942.95420623 25977.15063793
0.07600000 1256556.02606623 15964.54505960
0.07700000 1247130.46548376 17509.71255640
0.07800000 1237667.81201453 20532.90996424
0.07900000 1228169.48830231 19159.44491617
0.08000000 1218641.23606095 16287.14088400
0.08100000 1209083.76413213 22307.59649487
0.08200000 1199498.19058597 16427.12849092
0.08300000 1189888.25040684 22488.88898814
0.08400000 1180256.99019825 21067.58826392
0.08500000 1170606.05502356 18120.98258246
0.08600000 1160938.11989623 19695.31612876
0.08700000 1151255.62133775 24314.51986441
0.08800000 1141559.86564271 19811.77239866
0.08900000 1131854.78705545 19864.05244583
0.09000000 1122142.42574292 15317.24483093
0.09100000 1112424.11476935 21492.03490706
0.09200000 1102702.24928350 15382.69710029
0.09300000 1092981.23227282 21575.45053894
0.09400000 1083259.34824346 18523.73572553
0.09500000 1073541.25960059 17004.89435135
0.09600000 1063828.49317501 15478.70530332
0.09700000 1054125.73801025 21693.90870814
0.09800000 1044431.82090382 18611.77592359
0.09900000 1034750.86014241 15521.26363198
0.10000000 1025082.37418563 15529.99869924
0.10100000 1015430.13943028 18643.29823677
0.10200000 1005796.24714087 20201.41857402
0.10300000 996181.88951601 15540.43820748
0.10400000 986589.43501936 26415.93336538
0.10500000 977022.69179094 15534.66153037
0.10600001 967478.15970605 18633.63023272
0.10700001 957963.46516266 15519.00886592
0.10800001 948475.97634109 21710.61612019
0.10900001 939020.55632161 20141.99188109
0.11000001 929597.50904016 20121.13903027
0.11100001 920208.06388824 24735.19392168
0.11200001 910855.06976662 15438.99415937
0.11300001 901538.39962154 20041.19956714
0.11400001 892261.12816497 16930.65570410
0.11500001 883024.61290112 21510.48058316
0.11600001 873829.94946081 16869.28796874
0.11700001 864678.67042957 18365.77582486
0.11800001 855571.11246661 19853.52859986
0.11900001 846509.12652536 15237.16499515
0.12000001 837494.10100142 19760.67424395
0.12100001 828529.06286271 21226.91559050
0.12200001 819612.78989957 19658.41369187
0.12300001 810748.16136301 22619.87476775
0.12400001 801934.99143793 18043.53815752
0.12500001 793174.28244550 19488.29303798
0.12600001 784469.26282902 25405.03827389
0.12700001 775818.81218055 20854.01065419
0.12800001 767224.14611828 16330.36671977
0.12900001 758687.26822541 19232.72315599
0.13000001 750208.15082287 16215.74994436
0.13100001 741787.34227330 14687.39006934
0.13200001 733426.19581441 23410.96527400
0.13300001 725126.60356204 20405.06358619
0.13400001 716887.05681426 17420.35630188
0.13500001 708710.66816333 14457.69831219
0.13600001 700595.86162059 17276.69476217
0.13700001 692545.29935968 17202.82604726
0.13800001 684556.89886156 18554.91561861
0.13900001 676634.62946492 15630.26067773
0.14000001 668776.59545658 15559.08822707
0.14100001 660984.00098837 19710.54383908
0.14200001 653257.00696268 15413.59980627
0.14300001 645597.80659809 15339.40460829
0.14400001 638002.10184786 13876.54636975
0.14500001 630475.84945531 15188.16392984
0.14600001 623016.05676354 15111.25516966
0.14700001 615625.87958655 16400.27420589
0.14800001 608300.46006513 23112.37707059
0.14900001 601044.62823228 16228.20572793
0.15000001 593856.52586553 14795.93604005
0.15100001 586736.93904134 17390.88369377
0.15200001 579686.61524896 19955.71267160
0.15300001 572705.61758661 18521.30054675
0.15400001 565790.92621151 14470.10362072
0.15500001 558946.60415134 17003.15650071
0.15600001 552168.46403079 15604.28152995
0.15700001 545462.76456815 18098.45538256
0.15800001 538821.82909840 12850.90123054
0.15900001 532251.77155495 15328.85174431
0.16000001 525747.81082667 19045.21534618
0.16100001 519315.19863739 17667.10389161
0.16200001 512949.40883698 16304.09772954
0.16300001 506651.12835206 13709.98018043
0.16400001 500421.18823070 12385.42499342
0.16500001 494258.10318668 12307.02735038
0.16600001 488163.55311198 14674.19709936
0.16700001 482133.97262737 12149.77668386
0.16800001 476170.81890210 16899.30316076
0.16900001 470276.35903425 17988.07158242
0.17000001 464446.35135212 14295.65936965
0.17100001 458682.11157135 13017.39894109
0.17200001 452983.67851663 12930.41971387
0.17300001 447350.06149978 12843.42087218
0.17400001 441781.19196090 18554.81093863
0.17500001 436276.03057149 12669.45652614
0.17600001 430833.39323952 20589.52883534
0.17700001 425456.01746531 13631.61144342
0.17800001 420139.57306500 12408.82287657
0.17900001 414886.21966711 12322.12130613
0.18000001 409694.66681707 11123.21072949
0.18100001 404565.78213485 12149.11101139
0.18200001 399495.18068919 14255.98619632
0.18300001 394485.97751043 11976.59484298
0.18400001 389536.04046388 15133.47588694
0.18500001 384646.76180920 16097.46774219
0.18600001 379814.61634413 13849.94063931
0.18700001 375040.20384721 11633.74767297
0.18800001 370323.34582165 14698.13429009
0.18900001 365665.21282444 13547.89677525
0.19000001 361059.58186736 10344.35750926
0.19100001 356514.03811731 14374.64669609
0.19200001 352020.38159712 14267.38674028
0.19300001 347583.74477480 10114.68745089
0.19400001 343198.86846832 13050.13759018
0.19500001 338868.54890367 10959.00938941
0.19600001 334590.42581170 9887.14754997
0.19700001 330364.30631565 9811.82036126
0.19800001 326190.07041583 13631.48368688
0.19900001 322066.96581815 9662.00943117
0.20000001 317992.59167196 13422.46792883
0.20100001 313969.54210964 12367.26084820
0.20200001 309993.88791536 10383.24576647
0.20300001 306068.27227018 12175.39644637
0.20400001 302189.50176212 10221.56038023
0.20500001 298357.73572608 10141.17991667
0.20600001 294572.74972569 13719.72646698
0.20700001 290834.04828200 9074.02273532
0.20800001 287139.25065699 13502.72390042
0.20900001 283491.51574521 12501.97643535
0.21000001 279885.93854962 11515.90748601
0.21100001 276324.66592568 9665.83727102
0.21200001 272805.72594027 9587.75769143
0.21300001 269328.50044322 14697.25696401
0.21400001 265893.94966050 11147.60436654
0.21500001 262501.32558185 8505.04335095
0.21600001 259148.06037356 10965.85069316
0.21700001 255835.01168654 10875.54686099
0.21800001 252561.63412570 8296.65007330
0.21900001 249326.08456607 9873.31341564
0.22000001 246128.50917268 11422.82465080
0.22100001 242970.37952761 10518.18822709
0.22200001 239849.31531324 9627.55197191
0.22300001 236763.53613690 9546.30622844
0.22400001 233713.35933170 7887.82625043
0.22500001 230701.37271506 8602.85459535
0.22600001 227722.07865756 9304.72457395
0.22700001 224779.67392609 8456.21173299
0.22800001 221869.60433811 11431.83190413
0.22900001 218992.55481018 9821.81654772
0.23000001 216149.72708905 8238.54723762
0.23100001 213340.16409667 8909.08567401
0.23200001 210560.99033972 11774.57113666
0.23300001 207814.34564483 10211.99742796
0.23400001 205099.48427101 8675.70859498
0.23500001 202413.45156817 7881.98017685
0.23600001 199759.39988994 7811.59170216
0.23700001 197134.69924342 11964.10546296
0.23800001 194539.61934581 10461.36852513
0.23900001 191973.18000883 7602.13828793
0.24000001 189435.36661970 8217.70659266
0.24100001 186926.86538185 7463.99008775
0.24200001 184445.56901248 8067.64957022
0.24300001 181992.01042542 7993.08947598
0.24400001 179565.29527628 7258.92740492
0.24500001 177165.10016280 6537.39250525
0.24600001 174791.79263414 8418.84709048
0.24700001 172444.63602547 8980.91706906
0.24800001 170123.03049737 6354.09548967
0.24900001 167825.98951148 7552.16988529
0.25000001 165555.12216023 9349.72596632
0.25100001 163307.67990236 8024.93977005
0.25200001 161086.47774191 7335.87854342
0.25300001 158889.11705244 7869.77833993
0.25400001 156715.20247683 7193.22813401
0.25500001 154564.42388208 10683.49348419
0.25600001 152437.69517387 7051.76811238
0.25700001 150333.13153809 6399.68171237
0.25800001 148252.23828977 9215.35956811
0.25900001 146193.78387954 7982.18097750
0.26000001 144157.33505821 8465.63990185
0.26100001 142142.56325326 6144.82330019
0.26200001 140150.35298533 6634.71802426
0.26300001 138178.98971016 7660.64355201
0.26400001 136229.18219275 7039.64332291
0.26500001 134301.12751066 7502.06133773
0.26600001 132392.78589193 6362.79759105
0.26700001 130506.34337965 5770.99077733
0.26800001 128640.77414176 5709.72103047
0.26900001 126794.26211424 7702.75178795
0.27000001 124968.76210595 8127.96867200
0.27100001 123162.74824210 8040.06458572
0.27200001 121378.08254260 4970.43271534
0.27300001 119611.98662974 6882.47403638
0.27400001 117863.61874365 6320.43685424
0.27500001 116137.44789201 4808.09057027
0.27600001 114428.05767381 6180.83182776
0.27700001 112739.34721266 5171.35410139
0.27800001 111068.47718260 4648.21599008
0.27900001 109417.58852963 5514.64672289
0.28000001 107783.76583368 7268.93751185
0.28100001 106169.26590048 4940.05617616
0.28200001 104573.47687023 5770.88759422
0.28300001 102995.58178171 5703.89558904
0.28400001 101435.37193202 4769.99859087
0.28500001 99893.73961140  5571.07412181
0.28600001 98369.48571106  4234.80656030
0.28700001 96863.16726476  5858.28463346
0.28800001 95373.65325068  4134.44806411
0.28900001 93903.54424029  5718.72611492
0.29000001 92449.13579103  4035.40496829
0.29100001 91012.97769978  5979.55291792
0.29200001 89593.83733775  3937.64933738
0.29300001 88191.82351390  5833.88940160
0.29400001 86806.20329679  3841.17467771
0.29500001 85438.66413640  8724.99679462
0.29600001 84087.09444344  3746.08023479
0.29700001 82752.23066537  4438.82986302
0.29800001 81433.95412521  4382.77561849
0.29900001 80132.97353901  3966.58237796
0.30000001 78847.55264188  5695.94747249
0.30100001 77579.62702093  3865.79299746
0.30200001 76326.28929437  3815.93301392
0.30300001 75090.58491699  3766.54391775
0.30400001 73870.68810283  4393.45938291
0.30500001 72666.59892149  4002.47645808
0.30600001 71477.64728240  3949.85497582
0.30700001 70305.69696461  3572.93568890
0.30800001 69148.97542223  3846.06619507
0.30900001 68007.96275955  3162.37041804
0.31000001 66883.01013540  4056.12034170
0.31100001 65772.35152992  3385.96081707
0.31200001 64677.98903423  3643.95807471
0.31300001 63598.27579447  2995.47893174
0.31400001 62535.03012230  3841.21440713
0.31500001 61485.86946326  3205.87338560
0.31600002 60452.28244650  4024.30863301
0.31700002 59433.45145410  5953.44911404
0.31800002 58429.53908297  2795.85357750
0.31900002 57440.48242723  3032.85761576
0.32000002 56466.51146083  3534.52145225
0.32100002 55506.31490511  2949.05065055
0.32200002 54561.96606517  2643.52738103
0.32300002 53630.33788469  3127.72145354
0.32400002 52713.66549455  2569.79131454
0.32500002 51811.29033729  2786.92943921
0.32600002 50923.48348609  3496.91577658
0.32700002 50048.93440906  3201.12999639
0.32800002 49189.33866739  3398.49156946
0.32900002 48342.75960013  3828.74674164
0.33000002 47511.05183775  2594.81621899
0.33100002 46690.52534569  3022.74475402
0.33200002 45886.54155239  2292.03285908
0.33300002 45094.54185102  2485.16031910
0.33400002 44316.44986479  2226.90171116
0.33500002 43550.62276294  2633.94178944
0.33600002 42799.01482153  3245.23545253
0.33700002 42059.34540021  2132.40891278
0.33800002 41333.73821816  2942.54896310
0.33900002 40619.82978464  2071.61141712
0.34000002 39919.38229157  2654.43945119
0.34100002 39231.25608463  2213.81988570
0.34200002 38556.18317133  2380.45886173
0.34300002 37892.33718757  2541.81809892
0.34400002 37242.20624479  2312.74111733
0.34500002 36603.31268564  2849.56802753
0.34600002 35977.49588450  2247.15449937
0.34700002 35361.84566950  2399.65496078
0.34800002 34759.62765109  3093.43320932
0.34900002 34168.33511031  2690.75651738
0.35000002 33588.76420813  1945.29337125
0.35100002 33021.30877755  2092.23022324
0.35200002 32463.81868621  2578.43892127
0.35300002 31918.03777964  1864.33267501
0.35400002 31383.80319930  1838.30635947
0.35500002 30860.58437079  2142.34186849
0.35600002 30347.16984896  1787.60012462
0.35700002 29844.99306523  2083.47906457
0.35800002 29354.06786905  2213.00328147
0.35900002 28873.32660250  1715.07568142
0.36000002 28403.18159047  1999.44206277
0.36100002 27942.48872586  1820.73265162
0.36200002 27493.11999816  1497.00045481
0.36300002 27052.60667026  1624.77963358
0.36400002 26622.11757411  1457.56100622
0.36500002 26201.14850798  1438.44312122
0.36600002 25790.24029576  1561.72807509
0.36700002 25388.14953816  1541.56851298
0.36800002 24997.01404243  1660.30175134
0.36900002 24613.99397185  1502.68440316
0.37000002 24239.77382894  1753.62652072
0.37100002 23874.33397335  1465.40668870
0.37200002 23518.80124223  2105.40318694
0.37300002 23171.17121769  1429.89304358
0.37400002 22832.25618355  1541.17736540
0.37500002 22502.16102662  1776.77071883
0.37600002 22180.66398949  1505.17992963
0.37700002 21866.68948191  1363.82548759
0.37800002 21560.72908480  1225.72750654
0.37900002 21263.43735528  1212.01598667
0.38000002 20973.87565325  1318.52275540
0.38100002 20691.10620434  1659.84061834
0.38200002 20416.93294602  1407.54342398
0.38300002 20149.41595404  1508.78833812
0.38400002 19890.15934533  1148.65675661
0.38500002 19636.84115641  1478.06510387
0.38600002 19391.96946503  1238.27426885
0.38700002 19153.18361816  1226.18687333
0.38800002 18921.54231070  1766.51527382
0.38900002 18696.02226914  1203.08909002
0.39000002 18478.34720341  1300.50613779
0.39100002 18265.93827497  1825.86327647
0.39200002 18060.56357239  1597.00540955
0.39300002 17861.06227041  1372.26547925
0.39400002 17669.05185647  1256.26964651
0.39500002 17481.74014325  1453.78157919
0.39600002 17300.44718696  1339.31418243
0.39700002 17124.91576913  1431.30052780
0.39800002 16955.41230262  1217.73776927
0.39900002 16791.11530741  1309.70705603
0.40000002 16632.18892169  1100.46883214
0.40100002 16478.86404237  1192.41065860
0.40200002 16331.03825671  1382.09583315
0.40300002 16187.64712023  1079.06860816
0.40400002 16049.74089773  1072.52398631
0.40500002 15916.85038712  1163.20348140
0.40600002 15788.57876179  1060.28205699
0.40700002 15665.01070818  1150.43844092
0.40800002 15546.26577641  1144.51614069
0.40900002 15431.71187791  1138.86039055
0.41000002 15321.98621902  1227.98064371
0.41100002 15216.19302869  1128.43292848
0.41200002 15114.47297060  1123.60997387
0.41300002 15017.41979481  1119.09817613
0.41400002 14923.90456847  1207.71703443
0.41500002 14834.63499612  1018.24939438
0.41600002 14748.48218459  1014.76936479
0.41700002 14666.52264069  1011.55011446
0.41800002 14589.15335520  1100.31399819
0.41900002 14513.33104486  1280.07585881
0.42000002 14442.28094384  1185.63911027
0.42100002 14374.78184435  1455.87797418
0.42200002 14310.56253479  998.80575944
0.42300002 14248.96717764  1087.48122653
0.42400002 14190.45545183  1085.56989351
0.42500002 14135.40487104  903.25241406
0.42600002 14082.39361104  992.17508888
0.42700002 14033.58064565  1171.24269619
0.42800002 13986.55656745  1080.04194932
0.42900002 13943.44758028  1259.09337616
0.43000002 13902.34282117  988.66515658
0.43100002 13862.91961928  988.14895729
0.43200002 13827.12894529  1257.30089458
0.43300002 13793.47206394  1077.54608870
0.43400002 13762.24329063  1167.38234245
0.43500002 13733.08025153  898.14349101
0.43600002 13706.49288853  988.30671656
0.43700002 13681.54150317  1078.65278323
0.43800002 13658.48274442  899.41113134
0.43900002 13638.29375600  1080.15291666
0.44000002 13619.49457952  1351.39441370
0.44100002 13602.93153194  992.06184364
0.44200002 13588.03402721  1173.80237507
0.44300002 13574.94267629  994.50034760
0.44400002 13563.91453790  1086.46960597
0.44500002 13553.32844932  1269.40480272
0.44600002 13544.72702761  1089.80878829
0.44700002 13538.75328176  909.80426365
0.44800002 13532.64262398  911.42352392
0.44900002 13529.65088894  1004.57662611
0.45000002 13527.41326335  1281.18137089
0.45100002 13526.11075456  1100.48442315
0.45200002 13526.37343595  1194.85225409
0.45300002 13527.50653480  1105.46788641
0.45400002 13530.29748157  1015.78713157
0.45500002 13534.12250190  1296.02763221
0.45600002 13538.90296416  1113.71021061
0.45700002 13544.73157689  1209.68003446
0.45800002 13551.24220596  1399.50460515
0.45900002 13558.78111593  1216.22272374
0.46000002 13568.02096178  1219.69730217
0.46100002 13576.92372814  1129.05703074
0.46200002 13587.62394438  1038.02658043
0.46300002 13598.96532909  1135.78563812
0.46400002 13610.38293447  1708.78365841
0.46500002 13623.00921404  1237.92290595
0.46600002 13636.18450470  1337.30067776
0.46700002 13649.53352119  1149.83675832
0.46800002 13664.53051524  1057.42974404
0.46900002 13679.02739949  1253.68292058
0.47000002 13694.41897685  1644.76826917
0.47100002 13710.34185967  970.69224967
0.47200002 13726.89940505  1460.88533842
0.47300002 13743.94580595  1172.63351174
0.47400002 13760.64007432  980.44565177
0.47500002 13778.15740273  1180.51258222
0.47600002 13796.55291168  1283.28642991
0.47700002 13814.30214553  1287.63116402
