# SAXS profile: number of points = 501, q_min = 0, q_max = 0.5, delta_q = 0.001
#    q    intensity    error
0.00000000 1682732.95097187 302.89193117
0.00100000 1682645.93023191 656.23192838
0.00200000 1682384.83187633 832.78051815
0.00300000 1681949.87902864 1211.00395604
0.00400000 1681340.94106161 1639.30747983
0.00500000 1680558.68507488 1663.75316408
0.00600000 1679602.93883055 2292.65810484
0.00700000 1678474.45672735 2215.58637496
0.00800000 1677173.03359247 3169.85716732
0.00900000 1675700.07806854 4021.68035928
0.01000000 1674054.97501045 4143.28624206
0.01100000 1672239.29647758 3612.03703766
0.01200000 1670252.94142189 4234.09139214
0.01300000 1668097.32472154 3853.30499006
0.01400000 1665772.49863225 4122.78711688
0.01500000 1663280.14618354 4391.05978145
0.01600000 1660619.84519368 4234.58079454
0.01700000 1657793.84419550 4476.04358012
0.01800000 1654802.62079861 5659.42521779
0.01900000 1651647.24684508 5945.93035694
0.02000000 1648328.31998210 6749.90477566
0.02100000 1644848.75331585 7599.20158486
0.02200000 1641207.04865289 6794.59749012
0.02300000 1637406.55330298 6484.13024623
0.02400000 1633447.56740004 8575.60011988
0.02500000 1629332.67926679 11437.91593083
0.02600000 1625062.23472460 9872.25352749
0.02700000 1620638.18589936 6806.68069253
0.02800000 1616061.02352973 7029.86577474
0.02900000 1611334.12725067 9426.30507722
0.03000000 1606458.01795536 9711.03916491
0.03100000 1601434.43970962 7686.88566430
0.03200000 1596264.60610553 10271.96321340
0.03300000 1590952.59131012 11359.40202563
0.03400000 1585496.99603716 9156.24557459
0.03500000 1579901.91974358 11090.91198876
0.03600000 1574167.91070176 8736.63230815
0.03700000 1568298.12358782 11621.08963323
0.03800000 1562293.96423209 10053.36212510
0.03900000 1556158.12112568 10270.64407506
0.04000000 1549890.56994146 11438.19293620
0.04100000 1543495.47007271 11668.82629479
0.04200000 1536974.33148972 10904.83338783
0.04300000 1530328.95914334 15150.25739876
0.04400000 1523562.42757635 14397.66560925
0.04500000 1516676.64388468 12558.08319488
0.04600000 1509672.48959479 13836.14901034
0.04700000 1502554.18168963 14063.90779470
0.04800000 1495323.04794677 13188.74989654
0.04900000 1487981.95622930 12275.85171030
0.05000000 1480532.58300343 12458.68226613
0.05100000 1472978.78764197 16084.92911035
0.05200000 1465319.88359769 15144.08170272
0.05300000 1457561.48004320 18889.99766197
0.05400000 1449704.31612345 14352.07339891
0.05500000 1441752.08357859 13321.78987372
0.05600000 1433705.78193971 13484.00350836
0.05700000 1425570.17823117 13642.70724249
0.05800000 1417344.61984875 17560.90065989
0.05900000 1409033.29493896 17753.82034544
0.06000000 1400639.73232204 14097.43956444
0.06100000 1392165.48472924 15536.56753562
0.06200000 1383613.16706304 19612.71755989
0.06300000 1374986.29887791 14519.85599503
0.06400000 1366284.11326755 18649.77901829
0.06500000 1357513.27321241 14783.32023681
0.06600000 1348674.69117929 14909.59940859
0.06700000 1339769.91312109 16398.78450405
0.06800000 1330803.05915174 15151.19353766
0.06900000 1321777.60541031 18042.26515857
0.07000000 1312693.05737426 16776.21805885
0.07100000 1303554.19516059 18301.90175727
0.07200000 1294362.78990979 17007.92785618
0.07300000 1285122.34046543 18544.31624182
0.07400000 1275835.65593312 14353.15180190
0.07500000 1266503.23598771 21657.20635052
0.07600000 1257128.77516690 15971.82183726
0.07700000 1247715.70518747 17517.92932222
0.07800000 1238265.46541427 17608.13574395
0.07900000 1228779.89156459 22118.03908558
0.08000000 1219264.29087246 16295.46801195
0.08100000 1209719.43530005 20831.36965324
0.08200000 1200146.55134823 19424.37284506
0.08300000 1190549.22699503 15000.92096416
0.08400000 1180930.70231429 18068.24059351
0.08500000 1171292.42806376 16620.64033448
0.08600000 1161637.35577311 16675.30502505
0.08700000 1151967.41840479 18247.16476438
0.08800000 1142284.52183182 15249.49908263
0.08900000 1132592.11063355 19876.99247524
0.09000000 1122892.37164517 18392.97791157
0.09100000 1113186.85711971 18434.37521997
0.09200000 1103477.69427608 20011.56892597
0.09300000 1093769.28421508 18506.57715858
0.09400000 1084060.05294081 18537.42777650
0.09500000 1074354.52636237 20111.91767882
0.09600000 1064654.37225412 24785.15495117
0.09700000 1054964.05775412 20160.36409148
0.09800000 1045282.78942394 18626.94018333
0.09900000 1035614.37634230 18641.05965071
0.10000000 1025958.21128098 18651.92115824
0.10100000 1016318.32933296 18659.60540415
0.10200000 1006696.74149208 18664.15846516
0.10300000 997094.55108565 17110.14330150
0.10400000 987514.57786781 17108.69086644
0.10500000 977959.88311603 15549.56287314
0.10600001 968427.36302337 15543.25990789
0.10700001 958924.70847117 17088.03910908
0.10800001 949449.24077588 20180.54456242
0.10900001 940005.67826929 15510.09442144
0.11000001 930594.46047098 18593.27819539
0.11100001 921216.74871191 20119.37473895
0.11200001 911875.20840487 26275.68536717
0.11300001 902570.21488327 18520.74168138
0.11400001 893304.18693299 23114.24692521
0.11500001 884079.31814428 18459.57703208
0.11600001 874895.77526538 19960.74805266
0.11700001 865755.78828030 19921.04162651
0.11800001 856659.24446456 25995.32599761
0.11900001 847608.20271380 22885.42255121
0.12000001 838604.02168704 15220.66371059
0.12100001 829649.82163528 16700.85169626
0.12200001 820744.15546359 21199.82253438
0.12300001 811890.24348560 18121.39108838
0.12400001 803087.47924282 19575.25822888
0.12500001 794336.94527652 21018.15656240
0.12600001 785642.02964102 17959.77764392
0.12700001 777001.85175016 17902.12350799
0.12800001 768417.07159412 16355.75813972
0.12900001 759889.93202794 14817.85437294
0.13000001 751420.61866612 14765.41585276
0.13100001 743009.30832854 20596.21899772
0.13200001 734657.61042325 23450.27203016
0.13300001 726367.43446013 23359.97779350
0.13400001 718137.12399052 21813.41616962
0.13500001 709969.64263533 17380.05767115
0.13600001 701863.68419484 15865.62932930
0.13700001 693821.77544524 18670.74485762
0.13800001 685842.12044998 18589.75155141
0.13900001 677928.33482547 19931.09398378
0.14000001 670078.64620562 18423.81324630
0.14100001 662294.30435031 15517.55628278
0.14200001 654575.29833575 15444.70489269
0.14300001 646923.83671466 16768.26663856
0.14400001 639336.16580971 13905.56226228
0.14500001 631817.41374413 20755.20302056
0.14600001 624365.13753972 13767.25193221
0.14700001 616982.14629973 17806.10558224
0.14800001 609663.96536996 13625.99026887
0.14900001 602415.11430941 16265.20885376
0.15000001 595233.82058943 21571.27467596
0.15100001 588121.05753196 18772.82504222
0.15200001 581077.13773188 20003.58141033
0.15300001 574102.50055000 18566.47574392
0.15400001 567193.87589768 14505.98406064
0.15500001 560355.74077132 19668.48742929
0.15600001 553583.52911368 13036.89272590
0.15700001 546883.47642301 18145.59460413
0.15800001 540248.15363304 12884.91907230
0.15900001 533683.55175242 14089.24643128
0.16000001 527184.92029723 17824.12299659
0.16100001 520757.41339902 16450.72746582
0.16200001 514396.54821188 13834.69581724
0.16300001 508103.13633721 16249.13906715
0.16400001 501877.78027698 21116.50860206
0.16500001 495719.23025019 13577.75035758
0.16600001 489628.96635823 14718.24742362
0.16700001 483603.59887487 15842.85464716
0.16800001 477644.58832319 12108.29088570
0.16900001 471753.96293607 15638.64460976
0.17000001 465927.60599760 16731.46112143
0.17100001 460166.86029827 13059.53611195
0.17200001 454471.76579029 16510.96003086
0.17300001 448841.43074320 12886.23808518
0.17400001 443275.66866275 15126.78290749
0.17500001 437773.49020202 17335.83103073
0.17600001 432333.51452954 14921.99195874
0.17700001 426958.79035677 13679.76028913
0.17800001 421644.74128031 14717.51038953
0.17900001 416393.74716870 21361.00023871
0.18000001 411204.32701959 14513.45740770
0.18100001 406077.50426959 13303.09966826
0.18200001 401008.64268307 17612.30041861
0.18300001 396001.21903052 13115.56099386
0.18400001 391052.83710305 10851.71674225
0.18500001 386165.09755758 17238.41076935
0.18600001 381334.01122523 14974.98732828
0.18700001 376560.81154744 12742.81846480
0.18800001 371844.85158188 14758.52285657
0.18900001 367187.59723534 11511.33171721
0.19000001 362582.60711265 12465.59062152
0.19100001 358037.65565675 11342.63346715
0.19200001 353544.45353967 14329.15737903
0.19300001 349107.91143674 10159.04070285
0.19400001 344723.39786607 14116.42380967
0.19500001 340392.97499723 10007.55393783
0.19600001 336114.70753855 10925.40908484
0.19700001 331888.20413142 10842.78814138
0.19800001 327713.57348486 13695.15088315
0.19900001 323589.90467296 10678.46735887
0.20000001 319514.94772970 10596.71374227
0.20100001 315491.00464329 10515.31568174
0.20200001 311514.47566048 10434.17785540
0.20300001 307587.77808756 10353.40509978
0.20400001 303707.86580573 11206.82077793
0.20500001 299874.82604084 12972.58558770
0.20600001 296088.31834327 11951.60553485
0.20700001 292348.02391947 14594.01404391
0.20800001 288651.54886180 9954.14913303
0.20900001 285002.24089589 11670.84231638
0.21000001 281394.61441776 10687.36796080
0.21100001 277831.32434730 8835.03653191
0.21200001 274310.30862796 11393.47920748
0.21300001 270830.77411908 11301.76873829
0.21400001 267393.74432513 10348.13839461
0.21500001 263998.68944977 8553.55794256
0.21600001 260642.85923927 12725.88820402
0.21700001 257327.15998505 11780.43794109
0.21800001 254050.87218759 8345.57154595
0.21900001 250812.44976184 12415.21685022
0.22000001 247611.97077103 10670.83838492
0.22100001 244450.72377421 12210.31422987
0.22200001 241326.40406916 8879.60545759
0.22300001 238237.40106142 10406.21017042
0.22400001 235183.90805562 11112.44018109
0.22500001 232168.35180995 9444.60899824
0.22600001 229185.43636197 8584.14092487
0.22700001 226239.33468141 10058.60129560
0.22800001 223325.52302064 7671.23207853
0.22900001 220444.59696222 9126.40674583
0.23000001 217597.91108437 8293.74477321
0.23100001 214784.31531166 9716.84288424
0.23200001 212001.03497744 8891.32382746
0.23300001 209250.06820935 8813.61328981
0.23400001 206530.95711845 8008.23824102
0.23500001 203840.53944288 9380.74206883
0.23600001 201182.10732347 9297.63152970
0.23700001 198552.87724677 11341.34088476
0.23800001 195953.18249862 9132.39850230
0.23900001 193382.09260001 7657.93122918
0.24000001 190839.51039486 8278.61835251
0.24100001 188326.14792440 7519.86344232
0.24200001 185840.07520738 8806.03238024
0.24300001 183381.47228629 10067.64330475
0.24400001 180949.64888358 7979.87989324
0.24500001 178544.44213089 7905.94827154
0.24600001 176165.86146412 7832.33457120
0.24700001 173813.47356741 7112.44767484
0.24800001 171486.64734373 8326.53455568
0.24900001 169184.21543149 6344.40837882
0.25000001 166907.95910806 7540.90194925
0.25100001 164655.01413947 7468.75179471
0.25200001 162428.30815921 6780.57004489
0.25300001 160225.34345344 6104.58587439
0.25400001 158045.69519365 7858.82256531
0.25500001 155889.16532717 6584.75865496
0.25600001 153756.64070713 5927.31877970
0.25700001 151646.37119676 6455.58632728
0.25800001 149559.51649366 5810.38749069
0.25900001 147495.12534114 5752.31016047
0.26000001 145452.72749659 6833.36946111
0.26100001 143431.80916903 6200.55740376
0.26200001 141433.64507307 6695.46907457
0.26300001 139456.04539098 6626.95159055
0.26400001 137500.08706197 6558.75446320
0.26500001 135565.78731327 6490.89020370
0.26600001 133651.23369507 5888.00537905
0.26700001 131758.55502730 6356.03299529
0.26800001 129886.53580426 5765.01416448
0.26900001 128033.50972907 5185.35738941
0.27000001 126201.68450368 8208.15794855
0.27100001 124389.24941999 6090.09793980
0.27200001 122597.99220156 5020.38801824
0.27300001 120825.39493274 5959.10876009
0.27400001 119070.44042758 5893.98708010
0.27500001 117337.65612523 4857.77919348
0.27600001 115621.40474799 5764.88351356
0.27700001 113926.13874860 6651.00829491
0.27800001 112248.51437588 7046.40082343
0.27900001 110590.80469219 5573.77682028
0.28000001 108950.18441461 7347.60078467
0.28100001 107328.85286656 4994.01176024
0.28200001 105726.12865856 4936.88181137
0.28300001 104141.27700825 8429.19536000
0.28400001 102574.10931377 4823.54771878
0.28500001 101025.50091021 4767.39361360
0.28600001 99494.33533327  5568.20074048
0.28700001 97980.87659041  5502.60628977
0.28800001 96484.26302188  4600.85229997
0.28900001 95007.05550556  4132.80711011
0.29000001 93545.57991608  6124.89713492
0.29100001 92102.27452848  5647.71174142
0.29200001 90675.90663775  4383.72691391
0.29300001 89266.74608710  5117.66279542
0.29400001 87873.85858951  6610.31132530
0.29500001 86499.04840787  5376.78110355
0.29600001 85140.19506124  5310.19421734
0.29700001 83798.07010949  4494.92869345
0.29800001 82472.45285177  4068.77865405
0.29900001 81164.19237262  4017.62771264
0.30000001 79871.29764633  3606.18925945
0.30100001 78595.88229057  4272.47236358
0.30200001 77335.18561506  3866.37278786
0.30300001 76092.00587691  3469.79563225
0.30400001 74864.63954597  4452.57464779
0.30500001 73653.05514903  4732.94554795
0.30600001 72456.55292676  4337.61174632
0.30700001 71277.08846595  4610.20230024
0.30800001 70112.90035159  3249.73308515
0.30900001 68964.19327015  3206.83513889
0.31000001 67831.73755204  3480.78577728
0.31100001 66713.40954620  3434.40648604
0.31200001 65611.43991038  4004.59442453
0.31300001 64524.15874429  3039.08802075
0.31400001 63453.29486190  3597.80198901
0.31500001 62396.35661546  3844.86367669
0.31600002 61355.02418266  3500.91784562
0.31700002 60328.44496635  3453.20035338
0.31800002 59316.89791525  3405.97643956
0.31900002 58320.17173061  3079.30521318
0.32000002 57338.35763002  3036.92625567
0.32100002 56370.38436735  3539.49660202
0.32200002 55418.33364478  2953.52023145
0.32300002 54478.72402896  2647.66611318
0.32400002 53554.38983394  3132.93195363
0.32500002 52644.19447889  3861.45184787
0.32600002 51748.57814618  3553.57502957
0.32700002 50866.22326948  3003.14196404
0.32800002 49998.74302478  3701.15712767
0.32900002 49144.33490561  2675.90916232
0.33000002 48304.65050146  2398.32601097
0.33100002 47476.24813459  3073.61244978
0.33200002 46664.37488848  2563.97419966
0.33300002 45864.44758612  2527.58982617
0.33400002 45078.42844152  2265.19113646
0.33500002 44304.71215388  2456.25335813
0.33600002 43545.15197400  2201.20753653
0.33700002 42797.53533496  2603.80217309
0.33800002 42064.05068595  2352.85278654
0.33900002 41342.17971352  2108.45126524
0.34000002 40633.79177255  2286.26040236
0.34100002 39937.63950741  2458.56120451
0.34200002 39254.61183100  2221.61486179
0.34300002 38582.88041494  2389.05206844
0.34400002 37924.80671085  2355.13060828
0.34500002 37277.86566079  2128.19345137
0.34600002 36644.03259121  2860.98298006
0.34700002 36020.38730560  2068.29073704
0.34800002 35410.29251800  2039.10179122
0.34900002 34810.93814821  2010.33177327
0.35000002 34223.50857677  1982.05459310
0.35100002 33647.97820192  2131.93599985
0.35200002 33082.59527105  2452.41290360
0.35300002 32528.85122823  2418.19491484
0.35400002 31986.63061593  2214.27460926
0.35500002 31455.43297344  2351.60828048
0.35600002 30934.12962550  1822.17499190
0.35700002 30423.99198756  2450.65267067
0.35800002 29924.98529005  2417.19080129
0.35900002 29436.37275972  1907.47704518
0.36000002 28958.36079450  2038.52390469
0.36100002 28489.67532891  1701.68838800
0.36200002 28032.43453301  2747.45903872
0.36300002 27584.02288343  2108.52280908
0.36400002 27145.65647198  1486.22476224
0.36500002 26716.75797465  1760.10009874
0.36600002 26298.02312646  1592.47686586
0.36700002 25888.12121245  2143.53653793
0.36800002 25489.11674982  1692.98721472
0.36900002 25098.27959615  1392.95458357
0.37000002 24716.22423287  1513.00373809
0.37100002 24343.06232271  1901.68011873
0.37200002 23979.69744042  1475.83054888
0.37300002 23624.28692164  1457.85481499
0.37400002 23277.67821300  1440.30640766
0.37500002 22939.87510584  1423.18991898
0.37600002 22610.61967052  1406.49366323
0.37700002 22288.96447031  1516.54121440
0.37800002 21975.42765284  1873.95468187
0.37900002 21670.51740255  1358.74150551
0.38000002 21373.34676631  1343.63550812
0.38100002 21082.91912648  1328.85645549
0.38200002 20801.15617373  1434.03177455
0.38300002 20526.16916543  1418.76887993
0.38400002 20259.34611892  1169.97729379
0.38500002 19998.65364985  1389.50652142
0.38600002 19746.38280418  1604.78860652
0.38700002 19500.06328624  1134.90373703
0.38800002 19261.14018735  1461.05385813
0.38900002 19028.18263208  1447.09335773
0.39000002 18803.22424664  1874.77556233
0.39100002 18583.53710014  1311.25443991
0.39200002 18370.94537324  1624.45092159
0.39300002 18164.16988365  1395.55323828
0.39400002 17965.02025911  1383.75575102
0.39500002 17770.57777810  1266.68684404
0.39600002 17582.27507465  1151.72698333
0.39700002 17399.68689152  1350.38976363
0.39800002 17223.13439088  1340.04603477
0.39900002 17051.88017049  1432.35800218
0.40000002 16886.06803518  1117.26674448
0.40100002 16725.88546646  1411.99931798
0.40200002 16571.16172864  1101.89945135
0.40300002 16421.04991929  1194.13880671
0.40400002 16276.40034002  1186.54964101
0.40500002 16136.78835254  1277.54959440
0.40600002 16001.86886660  1465.37121089
0.40700002 15871.79109806  971.35366122
0.40800002 15746.42573260  1255.85624381
0.40900002 15625.35239368  960.95921774
0.41000002 15509.26928500  956.14649672
0.41100002 15397.10671599  951.54124013
0.41200002 15288.98622950  1326.01383851
0.41300002 15185.74337020  1508.85553276
0.41400002 15086.04894168  1502.57054579
0.41500002 14990.56034779  1683.73981804
0.41600002 14898.33765988  1397.83659717
0.41700002 14810.38081787  1114.33310554
0.41800002 14726.98668141  1480.94585086
0.41900002 14645.28485177  1291.71418513
0.42000002 14568.39145194  1103.99275654
0.42100002 14495.07146498  1192.79948737
0.42200002 14425.13349552  1281.38466913
0.42300002 14357.85364833  1095.79144236
0.42400002 14293.73382149  1002.34813173
0.42500002 14233.18227455  1000.45042949
0.42600002 14174.73529158  998.68102229
0.42700002 14120.50092787  997.18982278
0.42800002 14068.23584078  1357.93652888
0.42900002 14019.83045087  1085.13492832
0.43000002 13973.52345163  1174.40483414
0.43100002 13929.05891484  1083.12367254
0.43200002 13888.16810095  1443.25849744
0.43300002 13849.52718890  1172.08554154
0.43400002 13813.43375270  1081.59191409
0.43500002 13779.39109880  1081.40666468
0.43600002 13748.12138560  1261.66515935
0.43700002 13718.41028898  1171.68947831
0.43800002 13690.79962842  991.69311808
0.43900002 13666.05252268  1082.35141109
0.44000002 13642.85717588  902.47504495
0.44100002 13621.88755719  903.13118784
0.44200002 13602.70274790  903.89964043
0.44300002 13585.36367302  995.26378985
0.44400002 13570.23868673  996.39482279
0.44500002 13555.54063230  1088.23885353
0.44600002 13543.01473337  1543.70060754
0.44700002 13533.06556056  1364.13307315
0.44800002 13523.20503073  1366.18185298
0.44900002 13516.45168098  1186.06869122
0.45000002 13510.55118854  1370.98324683
0.45100002 13505.74080855  1281.96497830
0.45200002 13502.47871743  1376.24020850
0.45300002 13500.20803628  1103.23705301
0.45400002 13499.61523803  1013.48366203
0.45500002 13500.24148905  1015.75821778
0.45600002 13501.85707919  1295.77328530
0.45700002 13504.64662861  1206.10004756
0.45800002 13508.10544668  1209.04303531
0.45900002 13512.71468574  1025.61509326
0.46000002 13519.10978180  1589.23902572
0.46100002 13525.25129931  1031.02995541
0.46200002 13533.25427127  1033.87300905
0.46300002 13542.06119962  1413.79125625
0.46400002 13550.95074832  1228.73251734
0.46500002 13561.21409223  1516.68625596
0.46600002 13571.91283085  1140.85504663
0.46700002 13583.08846831  1430.29928350
0.46800002 13595.92181641  956.47314512
0.46900002 13608.32068952  1535.01864653
0.47000002 13621.72584119  1154.84997155
0.47100002 13635.65417380  1061.94479739
0.47200002 13650.39805563  1355.89410313
0.47300002 13665.71424504  1263.12202754
0.47400002 13680.76692843  1364.65656579
0.47500002 13696.68646851  1173.53215225
0.47600002 13713.56504512  981.20562549
0.47700002 13729.88281955  1279.76243827
