# SAXS profile: number of points = 501, q_min = 0, q_max = 0.5, delta_q = 0.001
#    q    intensity    error
0.00000000 1664650.74656090 249.69761198
0.00100000 1664564.16755149 798.99081940
0.00200000 1664304.39295809 748.93700055
0.00300000 1663871.65200002 1197.98763212
0.00400000 1663265.79334389 1496.93927089
0.00500000 1662487.50697932 1945.11046016
0.00600000 1661536.60352846 1744.61350473
0.00700000 1660413.85760603 3387.24441029
0.00800000 1659119.04918140 2463.79189206
0.00900000 1657653.54624162 3481.07259592
0.01000000 1656016.81332180 3005.67064596
0.01100000 1654210.38981089 3573.09459756
0.01200000 1652234.11944501 5477.15634610
0.01300000 1650089.49522183 3811.70690208
0.01400000 1647776.51551611 4819.74652155
0.01500000 1645296.89779544 4738.45527665
0.01600000 1642650.15530796 7120.88874159
0.01700000 1639838.64631283 4427.56454366
0.01800000 1636862.74890259 6064.57675758
0.01900000 1633723.48622921 5391.28774783
0.02000000 1630421.65264231 7703.74265722
0.02100000 1626959.93717428 5905.86483971
0.02200000 1623336.96623076 7280.66662432
0.02300000 1619556.03080149 6413.44217390
0.02400000 1615617.53836459 7876.13585866
0.02500000 1611523.84230434 8170.42625363
0.02600000 1607275.57515563 9764.19956567
0.02700000 1602874.41381852 10771.31655420
0.02800000 1598321.07101047 8343.23637329
0.02900000 1593618.73143689 7888.41308280
0.03000000 1588768.06044169 10342.88054889
0.03100000 1583770.74789105 9122.51992761
0.03200000 1578627.95865376 10939.89225734
0.03300000 1573343.76847987 10431.26966591
0.03400000 1567916.82314823 9054.72007147
0.03500000 1562351.29853689 10967.70662220
0.03600000 1556647.49948406 10367.27282567
0.03700000 1550808.78563083 8839.61048691
0.03800000 1544836.59002447 10844.75336386
0.03900000 1538733.23382861 14771.83972884
0.04000000 1532499.13693173 13194.81818042
0.04100000 1526138.21359135 11537.60542971
0.04200000 1519652.08694999 12742.28334023
0.04300000 1513042.42736426 11983.29658097
0.04400000 1506312.24474723 13217.89056152
0.04500000 1499463.70735885 12415.56007382
0.04600000 1492497.51989704 12626.52960530
0.04700000 1485418.00932093 11764.51118096
0.04800000 1478226.23196396 11951.45964151
0.04900000 1470925.29451734 12135.13424463
0.05000000 1463516.76704631 12315.49416818
0.05100000 1456004.63256256 13628.20399564
0.05200000 1448387.99655555 16120.55915290
0.05300000 1440672.62684160 19838.06299642
0.05400000 1432859.08830143 20095.84965057
0.05500000 1424951.29970600 15560.46891867
0.05600000 1416949.87912778 14537.90643825
0.05700000 1408860.03705659 14708.49947344
0.05800000 1400680.88409432 14875.23168364
0.05900000 1392416.67265199 17544.45089484
0.06000000 1384070.82394507 13930.67349383
0.06100000 1375644.86460809 14072.84762258
0.06200000 1367141.56552285 18087.28375733
0.06300000 1358564.28643011 14346.43953547
0.06400000 1349912.21337889 17110.13810476
0.06500000 1341192.34970170 15933.36585978
0.06600000 1332405.27165533 18746.94304933
0.06700000 1323552.59533160 14850.26081460
0.06800000 1314638.14966805 13606.50548597
0.06900000 1305665.97832334 13709.49341426
0.07000000 1296635.34901198 22094.66738182
0.07100000 1287550.88310025 15296.10520767
0.07200000 1278414.47227550 16798.36695265
0.07300000 1269229.39432382 18314.98101825
0.07400000 1259998.73062135 15592.48502217
0.07500000 1250722.83563343 18535.71329290
0.07600000 1241405.48295008 17205.88080031
0.07700000 1232049.97970771 17297.98252617
0.07800000 1222657.95838775 21732.74622953
0.07900000 1213230.80474424 14558.77033979
0.08000000 1203774.40288563 16088.44564929
0.08100000 1194289.11504954 16158.73248476
0.08200000 1184776.27723862 20650.65148130
0.08300000 1175239.54983857 17769.62282752
0.08400000 1165681.96879767 22293.66869969
0.08500000 1156105.20689823 17896.50944294
0.08600000 1146511.87085389 20946.77286398
0.08700000 1136904.29529432 18008.56488310
0.08800000 1127284.03820859 18059.09114022
0.08900000 1117654.90505111 19614.84450495
0.09000000 1108018.73724991 16636.90212133
0.09100000 1098376.98059196 18189.12365315
0.09200000 1088732.23411329 18225.37845541
0.09300000 1079088.46927621 19779.69257132
0.09400000 1069444.36580565 15239.58292895
0.09500000 1059804.26337572 16787.30032092
0.09600000 1050169.96259221 18335.96840879
0.09700000 1040545.85211410 21414.43464326
0.09800000 1030930.98443512 22963.98875801
0.09900000 1021329.19546315 19915.92024803
0.10000000 1011740.28781219 22991.79912177
0.10100000 1002167.82131475 19933.11890344
0.10200000 992613.79215912 18403.06057224
0.10300000 983079.72219074 18403.25326511
0.10400000 973567.96720947 16867.06582542
0.10500000 964081.89771101 15328.90289482
0.10600001 954618.15285515 22982.43311139
0.10700001 945184.51789308 19905.58688354
0.10800001 935778.31105004 21419.96654800
0.10900001 926404.31574470 21399.94070090
0.11000001 917062.79671103 19849.82516913
0.11100001 907754.92829791 16775.31186462
0.11200001 898483.81217496 15229.30133332
0.11300001 889249.20534072 19768.01076542
0.11400001 880053.87708266 21253.30213225
0.11500001 870899.44366482 16669.01613666
0.11600001 861787.04825476 15124.36340910
0.11700001 852717.99789006 21130.35298285
0.11800001 843692.77425373 21083.88342162
0.11900001 834713.09342899 18029.80366730
0.12000001 825780.36486350 16486.70576110
0.12100001 816897.77362909 17939.07595397
0.12200001 808064.03854267 16399.66043483
0.12300001 799281.77444848 14866.64170517
0.12400001 790551.03407450 14822.83258731
0.12500001 781872.72414668 16255.13470096
0.12600001 773250.01968394 16203.45492604
0.12700001 764681.86934086 17618.27109990
0.12800001 756169.55327523 16095.06970001
0.12900001 747714.76629445 16038.48249294
0.13000001 739317.75769731 14527.59462351
0.13100001 730978.98341126 14473.38455378
0.13200001 722699.77280553 15859.64726185
0.13300001 714482.06084762 17233.30812007
0.13400001 706324.29688691 18593.98799217
0.13500001 698229.30338942 18517.04199893
0.13600001 690196.12283199 19856.94339015
0.13700001 682226.76759833 16946.51370623
0.13800001 674319.75724430 14059.56760153
0.13900001 666478.33507849 15395.65026634
0.14000001 658701.05282091 18110.98630144
0.14100001 650989.18794258 13866.07035714
0.14200001 643342.59103606 17939.60899717
0.14300001 635763.60504874 20598.74177517
0.14400001 628248.12701932 16397.27688866
0.14500001 620801.61845058 20393.33412810
0.14600001 613421.56741852 18936.32467952
0.14700001 606110.80087626 21529.05666279
0.14800001 598864.50572969 16061.54680143
0.14900001 591687.51776724 14644.26675567
0.15000001 584578.18534224 17212.90547956
0.15100001 577537.07302137 14484.63047483
0.15200001 570564.73728044 14403.90747232
0.15300001 563661.56063061 16926.75746449
0.15400001 556824.43119023 15535.40236334
0.15500001 550057.43632860 15445.61354103
0.15600001 543356.39454071 19194.06554301
0.15700001 536727.27162931 15264.52432557
0.15800001 530162.70470640 20231.00976647
0.15900001 523668.73113913 13824.85515461
0.16000001 517240.57724573 16238.76868914
0.16100001 510883.53832408 18621.70585094
0.16200001 504592.63870152 14804.74871838
0.16300001 498369.27201677 12259.88467038
0.16400001 492213.63880987 19491.66101706
0.16500001 486124.71787219 14525.40725578
0.16600001 480103.75262601 16837.23939953
0.16700001 474147.56171212 11948.51911929
0.16800001 468257.42639120 14244.39158339
0.16900001 462435.59410044 12971.31902700
0.17000001 456677.72526587 12885.16262681
0.17100001 450985.39785576 16289.59333977
0.17200001 445358.49329175 12712.75879135
0.17300001 439795.96927697 13774.41040824
0.17400001 434297.66169440 18240.50265259
0.17500001 428862.90644365 11321.98126482
0.17600001 423490.26401062 11243.66704051
0.17700001 418182.31485026 13398.56200062
0.17800001 412934.88291679 11087.30212999
0.17900001 407750.22202461 14312.03346907
0.18000001 402627.02408180 12024.45664218
0.18100001 397565.99086194 11938.90726954
0.18200001 392562.85875785 12931.02117832
0.18300001 387620.55838972 11768.16070863
0.18400001 382737.27454081 10620.95987025
0.18500001 377914.21168505 12652.56840495
0.18600001 373147.63509347 14653.50832240
0.18700001 368438.62457789 11428.96667437
0.18800001 363786.58236165 12376.02011666
0.18900001 359192.82611512 13308.09483634
0.19000001 354651.29664561 10160.76012898
0.19100001 350169.22900124 13110.33655327
0.19200001 345738.66498484 13011.87527153
0.19300001 341364.70676489 12913.82746713
0.19400001 337042.02816197 11830.17574751
0.19500001 332773.58978615 10761.89840224
0.19600001 328556.69346063 10679.73582562
0.19700001 324391.38054926 13488.19424066
0.19800001 320277.59600570 13384.40136961
0.19900001 316214.40741003 14229.64900594
0.20000001 312199.69541519 12236.66764012
0.20100001 308235.62696640 13075.35591389
0.20200001 304318.58233580 11119.80152411
0.20300001 300451.04370722 11032.56284638
0.20400001 296630.07845000 11857.78794651
0.20500001 292855.54797864 9954.16054630
0.20600001 289127.35306857 15261.58805311
0.20700001 285444.93029594 10687.05869545
0.20800001 281806.14468618 10601.54766423
0.20900001 278213.82704849 12269.23035282
0.21000001 274663.26997042 9562.40219606
0.21100001 271156.49481536 8622.77694276
0.21200001 267691.71180863 10263.30071593
0.21300001 264268.06030290 12724.50770514
0.21400001 260886.67993147 10096.31499067
0.21500001 257546.76373492 9178.96709347
0.21600001 254245.84578988 8275.70267172
0.21700001 250984.71319592 9848.64061145
0.21800001 247762.58289277 11394.60172598
0.21900001 244578.01324802 10492.39726444
0.22000001 241431.00094728 10404.46947777
0.22100001 238322.85191888 8729.76647856
0.22200001 235251.52223905 8656.08017008
0.22300001 232214.83775004 8582.66080908
0.22400001 229213.55450200 10830.34096235
0.22500001 226249.78545832 8436.85489870
0.22600001 223318.36339788 8364.38969660
0.22700001 220423.23241182 10553.86486696
0.22800001 217560.37472835 10462.47891546
0.22900001 214729.83674505 8889.81566165
0.23000001 211933.25471713 9546.53391021
0.23100001 209169.34560595 10190.73099987
0.23200001 206435.56178323 10822.38483832
0.23300001 203733.67929237 12156.78921832
0.23400001 201063.31696292 8504.97870978
0.23500001 198421.39000080 9833.76455354
0.23600001 195810.96127349 6961.08000251
0.23700001 193229.53519515 7588.12420602
0.23800001 190677.23836695 10253.66897817
0.23900001 188153.28255177 8128.22219070
0.24000001 185657.44868395 9396.12392234
0.24100001 183190.51654908 7979.77927833
0.24200001 180750.46864304 7247.19038305
0.24300001 178337.83079078 7179.88140727
0.24400001 175951.41472153 9052.70071565
0.24500001 173591.32236370 7686.62411788
0.24600001 171257.66674579 8248.62590901
0.24700001 168949.86164156 8170.41569549
0.24800001 166667.09847712 7470.01970713
0.24900001 164408.47042141 11097.57227844
0.25000001 162175.68194069 8548.28059950
0.25100001 159966.07258220 7860.73317857
0.25200001 157782.36356457 8382.97737278
0.25300001 155621.92366982 7707.95424403
0.25400001 153484.68929502 9393.26342926
0.25500001 151370.28462037 6393.88112487
0.25600001 149279.44032006 6905.66723593
0.25700001 147210.47495050 8545.56847520
0.25800001 145164.77663926 8459.47775891
0.25900001 143141.13103147 6140.75481180
0.26000001 141139.27967652 8288.40459117
0.26100001 139158.62536003 7656.50792959
0.26200001 137200.38396180 5953.81094374
0.26300001 135262.46231965 6963.31188970
0.26400001 133345.87187243 6890.64825506
0.26500001 131450.64048818 5769.36888403
0.26600001 129574.85695075 6746.31524637
0.26700001 127720.72237794 6674.68526732
0.26800001 125886.90175425 9651.11977969
0.26900001 124071.92964193 6532.38740477
0.27000001 122277.79524304 4970.59261185
0.27100001 120502.65077881 5899.81006133
0.27200001 118748.60652209 7780.40906752
0.27300001 117012.87665254 7213.84418702
0.27400001 115294.52964508 5707.07948752
0.27500001 113598.04733445 4702.95938222
0.27600001 111918.05192895 7905.33197213
0.27700001 110258.55248864 5517.33822765
0.27800001 108616.55218132 5454.72350870
0.27900001 106994.19603394 5392.50773533
0.28000001 105388.63136083 5330.55722652
0.28100001 103802.06796385 4829.91045095
0.28200001 102234.04606940 6943.73673768
0.28300001 100683.53994391 5146.94280554
0.28400001 99150.53400116  4662.55408209
0.28500001 97635.74549124  6701.71788772
0.28600001 96138.24495838  4966.50196962
0.28700001 94658.18145701  5724.92708550
0.28800001 93194.86376209  4039.99753531
0.28900001 91750.47843581  4390.26060096
0.29000001 90321.77182132  4336.80007928
0.29100001 88910.98141388  4283.73128729
0.29200001 87516.93674365  3846.36955195
0.29300001 86139.81810907  6837.77908517
0.29400001 84778.77722058  4876.89939047
0.29500001 83435.59381278  4074.99459471
0.29600001 82108.11758564  6950.04194203
0.29700001 80797.24497934  5417.45553232
0.29800001 79502.67895536  5348.54297991
0.29900001 78225.11514010  4224.15641753
0.30000001 76962.89867640  5212.31255961
0.30100001 75717.96838787  3773.02654338
0.30200001 74487.32934238  5755.26377410
0.30300001 73274.12574560  6014.34052593
0.30400001 72076.65555288  3627.25786242
0.30500001 70894.79541636  4230.29264277
0.30600001 69727.64712981  3210.95830234
0.30700001 68577.42798435  4118.76051974
0.30800001 67442.22306449  3751.13662444
0.30900001 66322.47468504  3700.79426264
0.31000001 65218.54248438  3955.17869622
0.31100001 64128.73440774  4201.71487733
0.31200001 63055.18394511  2960.44102639
0.31300001 61995.97920457  4088.01506230
0.31400001 60953.07661046  3168.03630682
0.31500001 59923.99318360  3124.43715253
0.31600002 58910.30725427  3081.30376683
0.31700002 57911.25025096  3038.60344454
0.31800002 56926.91773082  3541.13908511
0.31900002 55957.24527977  2954.54269067
0.32000002 55002.44632094  3707.71508205
0.32100002 54061.28482698  2872.27619886
0.32200002 53135.79987370  5148.85925156
0.32300002 52222.76772866  2791.82929497
0.32400002 51324.74878943  2502.08162196
0.32500002 50440.68396006  3699.82434366
0.32600002 49571.00478338  2674.60368974
0.32700002 48714.55532490  2396.75623548
0.32800002 47872.79872679  3307.53182066
0.32900002 47043.90732376  3958.74498875
0.33000002 46229.70506060  3213.42695093
0.33100002 45426.46283661  2714.68554767
0.33200002 44639.70305268  2229.75327307
0.33300002 43864.81557034  3076.67830980
0.33400002 43103.59081018  3248.93331117
0.33500002 42354.49070580  3628.93293553
0.33600002 41619.49594249  3576.57155319
0.33700002 40896.31134875  2073.44308357
0.33800002 40186.88591914  2247.85357034
0.33900002 39489.22838667  2618.13596603
0.34000002 38804.71767900  2580.31982426
0.34100002 38132.47225581  1956.19591937
0.34200002 37473.12524215  2313.59086202
0.34300002 36824.91704828  2660.23213355
0.34400002 36190.19484360  2809.26400778
0.34500002 35566.59376696  2215.08756471
0.34600002 34955.97372108  2547.24192569
0.34700002 34355.33175707  2331.35292345
0.34800002 33768.11622935  1944.53706516
0.34900002 33191.55945966  1916.81264958
0.35000002 32626.59664669  2061.34847377
0.35100002 32073.70852209  2709.58702428
0.35200002 31530.58397946  1669.54450079
0.35300002 30999.06818038  1975.26071801
0.35400002 30479.01522200  1785.30840119
0.35500002 29969.71598705  2080.49778236
0.35600002 29470.24140402  2051.57095251
0.35700002 28981.87574512  2023.22484160
0.35800002 28504.57733213  1841.96587445
0.35900002 28037.32144182  1514.01542957
0.36000002 27580.58101133  1642.83738575
0.36100002 27133.13121522  2062.66073268
0.36200002 26696.96773990  2035.10994721
0.36300002 26269.49754455  1434.31463387
0.36400002 25851.91377111  1840.01004981
0.36500002 25443.78627199  1536.55032575
0.36600002 25045.59051604  2206.01571715
0.36700002 24656.14663428  1361.01935868
0.36800002 24277.41464268  1478.13046054
0.36900002 23906.76543053  1724.87320752
0.37000002 23544.81314148  1703.34958741
0.37100002 23191.62212641  2329.36663672
0.37200002 22848.05858941  1661.85362022
0.37300002 22512.36375690  1641.82676656
0.37400002 22185.27617392  1622.29839707
0.37500002 21866.95863589  1479.95583058
0.37600002 21556.97519977  1340.95170582
0.37700002 21254.51645910  1205.13114032
0.37800002 20960.02128656  1549.05044656
0.37900002 20674.01123667  1414.10243558
0.38000002 20395.61919042  1398.73163034
0.38100002 20123.91314648  1614.34038909
0.38200002 19860.69150218  1369.19613702
0.38300002 19604.12633571  1355.03727652
0.38400002 19355.61807063  1117.78699653
0.38500002 19113.03543567  1549.30272581
0.38600002 18878.69889757  1205.49937521
0.38700002 18650.50345298  1519.64309334
0.38800002 18429.15522719  1397.94363599
0.38900002 18213.98273099  1385.17345232
0.39000002 18006.44596979  1056.07810616
0.39100002 17804.13967894  1151.57180899
0.39200002 17608.80403501  1038.03904704
0.39300002 17419.15907087  1132.41958485
0.39400002 17236.99992001  1225.55075238
0.39500002 17059.34141526  1114.65742088
0.39600002 16887.73268330  1206.79743472
0.39700002 16721.75452184  1098.11767148
0.39800002 16561.57803317  1090.33154147
0.39900002 16406.73791021  1378.16604975
0.40000002 16257.03677519  1466.79121254
0.40100002 16112.91142590  1263.09118652
0.40200002 15974.05804077  1255.32141061
0.40300002 15839.69919267  1055.87439821
0.40400002 15710.70032666  1527.08014411
0.40500002 15586.52803271  949.21960217
0.40600002 15467.06555753  1038.69083673
0.40700002 15352.04399933  1127.45416473
0.40800002 15241.84040397  1122.10434371
0.40900002 15135.69271233  1117.01417510
0.41000002 15034.28211680  1112.23624370
0.41100002 14936.83272774  923.09630631
0.41200002 14843.21429199  1011.49088585
0.41300002 14754.27600214  916.24058315
0.41400002 14668.78981704  1369.69831407
0.41500002 14587.36809290  1365.37771819
0.41600002 14509.13615236  907.54650933
0.41700002 14434.89379390  1176.58824889
0.41800002 14365.23969879  1083.42642942
0.41900002 14296.95110374  990.77875844
0.42000002 14233.41561015  1168.49230988
0.42100002 14173.27267828  986.88502335
0.42200002 14116.38157230  1164.38978917
0.42300002 14062.08371782  1609.82742030
0.42400002 14010.64229676  893.17848874
0.42500002 13962.73368225  1070.66246949
0.42600002 13916.69789693  1069.63745104
0.42700002 13874.81983352  979.83982307
0.42800002 13834.56515703  1157.33060305
0.42900002 13798.23254079  978.98464516
0.43000002 13763.80978430  978.81337919
0.43100002 13731.00742054  978.74625532
0.43200002 13701.71385825  1067.91162872
0.43300002 13674.47004944  979.22884664
0.43400002 13649.57590461  979.69835698
0.43500002 13626.67110505  1425.89493200
0.43600002 13606.28779818  1337.83831115
0.43700002 13587.39373480  892.69181068
0.43800002 13570.46549651  1251.06127341
0.43900002 13556.18168644  1431.53285393
0.44000002 13543.25523620  1523.00683976
0.44100002 13532.51901270  1435.52968490
0.44200002 13523.36863318  1078.35346591
0.44300002 13515.89260322  990.17433904
0.44400002 13510.48453864  1262.55483997
0.44500002 13505.37787289  903.50982251
0.44600002 13502.16519505  1086.38426308
0.44700002 13501.57572182  998.03652465
0.44800002 13500.75125152  1272.98589584
0.44900002 13502.89727216  1184.87929179
0.45000002 13505.81790164  1005.03548678
0.45100002 13509.55457987  1007.54262832
0.45200002 13514.78311377  918.32955610
0.45300002 13520.88108633  920.77204562
0.45400002 13528.45278790  1384.97541980
0.45500002 13537.04005063  1203.71365835
0.45600002 13546.48417565  1207.19499453
0.45700002 13556.93503543  931.36148107
0.45800002 13567.93637474  1494.64394188
0.45900002 13580.00248595  1499.23234550
0.46000002 13593.58704543  1033.99624762
0.46100002 13606.79126514  1508.72108698
0.46200002 13621.77028273  1135.23838917
0.46300002 13637.27741543  1233.90091903
0.46400002 13652.77868868  1142.73763040
0.46500002 13669.45929129  1242.14382467
0.46600002 13686.57672259  958.74474486
0.46700002 13703.91965829  1635.42584953
0.46800002 13722.72568845  1061.93317773
0.46900002 13740.96549813  968.73811353
0.47000002 13760.02408849  1361.00404710
0.47100002 13779.61115525  1463.39477405
0.47200002 13799.68512063  1174.90524686
0.47300002 13820.21861434  1375.66462607
0.47400002 13840.37598380  1281.96488626
0.47500002 13861.22916426  1385.56853293
0.47600002 13882.91569172  993.32266482
0.47700002 13903.85034972  1096.59672906
