# SAXS profile: number of points = 501, q_min = 0, q_max = 0.5, delta_q = 0.001
#    q    intensity    error
0.00000000 1664650.74656090 399.51617917
0.00100000 1664563.97181512 699.11688477
0.00200000 1664303.62779323 1048.51131871
0.00300000 1663869.91043771 1297.81857637
0.00400000 1663262.72837978 1746.42593116
0.00500000 1662482.70992830 1496.23449816
0.00600000 1661529.70237767 2093.52751023
0.00700000 1660404.46724281 2789.47962090
0.00800000 1659106.78640723 2239.79425621
0.00900000 1657638.08274879 2983.74867650
0.01000000 1655997.70679130 3005.63596761
0.01100000 1654187.26504211 3870.79836873
0.01200000 1652206.65294343 3866.16373739
0.01300000 1650057.27886242 4158.14452613
0.01400000 1647739.21807221 5931.86144803
0.01500000 1645254.15476902 5528.05420618
0.01600000 1642601.58688691 5026.36108057
0.01700000 1639783.91915087 6641.12517047
0.01800000 1636801.42904878 5131.37271097
0.01900000 1633655.31662395 5881.15940522
0.02000000 1630346.25047412 5649.15001344
0.02100000 1626876.98241092 5905.56371390
0.02200000 1623246.10838721 5600.19932837
0.02300000 1619456.91114711 8162.06320371
0.02400000 1615509.88738235 6058.16235392
0.02500000 1611407.41552003 9426.73381132
0.02600000 1607149.79779920 8461.64407243
0.02700000 1602739.23836816 10097.25766419
0.02800000 1598176.03480196 6952.06607021
0.02900000 1593463.52241782 7887.64479812
0.03000000 1588602.53760765 8125.70235336
0.03100000 1583594.45629528 7601.25373998
0.03200000 1578440.68184675 9375.93808201
0.03300000 1573145.39176870 8023.04186789
0.03400000 1567706.82186208 8230.46119453
0.03500000 1562129.56894236 10966.15008037
0.03600000 1556413.74027601 12093.33532082
0.03700000 1550562.83684295 9722.02943662
0.03800000 1544577.95935966 12650.09407260
0.03900000 1538461.86518735 12000.00310418
0.04000000 1532214.79771914 11307.74573116
0.04100000 1525840.70155614 11535.35623862
0.04200000 1519341.07638098 12739.67551648
0.04300000 1512717.63494384 12979.11791028
0.04400000 1505974.03648581 14231.45530573
0.04500000 1499111.33091275 11378.25553032
0.04600000 1492130.91065354 14727.33277278
0.04700000 1485036.82762840 12830.71878744
0.04800000 1477830.74781165 11948.26215199
0.04900000 1470515.21898581 12131.75112134
0.05000000 1463091.78151029 13431.18317970
0.05100000 1455564.48932517 15894.76496387
0.05200000 1447932.92813606 11511.06731511
0.05300000 1440202.04048939 17498.45560769
0.05400000 1432373.46209526 18907.33058138
0.05500000 1424450.15426529 14358.45822481
0.05600000 1416433.39004294 13321.55665499
0.05700000 1408327.87893895 15928.18905430
0.05800000 1400132.95377288 17347.64810725
0.05900000 1391852.98705314 15032.01296226
0.06000000 1383491.40468365 13924.84163869
0.06100000 1375049.49462789 16624.34916693
0.06200000 1366530.54755060 18079.19998918
0.06300000 1357937.29719411 19554.29799386
0.06400000 1349269.48492691 13155.37809327
0.06500000 1340533.37746087 13271.28105766
0.06600000 1331730.33330449 14722.27952351
0.06700000 1322861.74498127 14842.50947330
0.06800000 1313931.69805883 14959.11308262
0.06900000 1304943.52303628 13701.90763339
0.07000000 1295896.98918911 16561.56429739
0.07100000 1286796.72333769 15287.14578927
0.07200000 1277644.39647929 16788.24815621
0.07300000 1268443.63752747 19711.61505078
0.07400000 1259197.32597301 16999.16469729
0.07500000 1249906.09561525 18523.60920527
0.07600000 1240573.20657482 18627.20756998
0.07700000 1231202.63150563 14405.07146405
0.07800000 1221795.25026385 14478.27439460
0.07900000 1212352.99281416 16003.06025575
0.08000000 1202881.80753902 16076.51611193
0.08100000 1193381.49127130 16146.45233446
0.08200000 1183853.95838953 20634.57546301
0.08300000 1174302.89681073 17755.46063308
0.08400000 1164730.75489549 20790.44495076
0.08500000 1155139.87417952 17881.56609175
0.08600000 1145532.59871436 16444.12122662
0.08700000 1135911.13234483 14994.02765104
0.08800000 1126277.37264808 25560.86617268
0.08900000 1116634.99489189 18089.48776691
0.09000000 1106985.46194795 16621.38749195
0.09100000 1097330.90947375 16657.48398840
0.09200000 1087673.35700402 22759.56606471
0.09300000 1078017.01898890 19760.05288663
0.09400000 1068360.79344458 16746.55622429
0.09500000 1058708.72984842 18294.48771167
0.09600000 1049062.39964120 16790.24449553
0.09700000 1039427.04416183 22919.36740127
0.09800000 1029801.12236255 18351.05686332
0.09900000 1020188.51319005 18363.39410091
0.10000000 1010588.72612062 21434.58788903
0.10100000 1001006.19288627 18378.47456576
0.10200000 991442.31431472 16849.56292432
0.10300000 981898.32047458 15317.61451996
0.10400000 972377.24389575 15314.94231185
0.10500000 962882.21934368 15309.82800788
0.10600001 953409.91534792 21423.12180590
0.10700001 943967.54432575 22938.41240654
0.10800001 934553.52702955 15279.95088603
0.10900001 925171.86593847 18318.40380775
0.11000001 915823.00733307 21347.83530577
0.11100001 906508.53133848 16752.27844772
0.11200001 897230.49595293 21291.28067130
0.11300001 887989.71131444 16703.08725622
0.11400001 878788.46064004 15159.10165980
0.11500001 869628.90813907 28749.93305685
0.11600001 860511.11179079 21142.75901234
0.11700001 851437.11906796 16577.48148897
0.11800001 842407.76719882 18044.37522326
0.11900001 833424.09554268 19502.12475428
0.12000001 824487.99888598 16460.90367315
0.12100001 815602.43322455 16418.07775424
0.12200001 806765.88458332 16373.31439899
0.12300001 797981.21240744 25232.16712512
0.12400001 789248.81468238 16278.25756981
0.12500001 780568.72840713 23604.39945928
0.12600001 771945.06920687 19117.22053978
0.12700001 763376.27527831 17588.19021128
0.12800001 754863.59881311 14606.61132543
0.12900001 746408.76796703 18921.46315977
0.13000001 738012.61638436 20302.72803370
0.13100001 729674.88927230 15892.31983748
0.13200001 721397.21467568 14391.87511122
0.13300001 713181.18293865 18635.42518872
0.13400001 705025.93671641 21415.16383739
0.13500001 696933.59173359 19904.42431837
0.13600001 688903.63742690 18404.06154163
0.13700001 680937.36037753 22552.64643913
0.13800001 673034.56379106 21049.15697515
0.13900001 665197.67627745 23747.55816300
0.14000001 657425.31596651 15295.00069728
0.14100001 649718.81181646 16606.81361326
0.14200001 642077.77647878 20658.85343259
0.14300001 634504.97365578 15075.83888515
0.14400001 626996.26987035 13637.16951294
0.14500001 619556.70467167 13568.29247235
0.14600001 612183.91097432 14848.52146115
0.14700001 604880.63855755 18799.69113327
0.14800001 597642.90126012 20035.97921002
0.14900001 590474.77362083 14614.25133663
0.15000001 583374.22931181 21141.48306778
0.15100001 576342.78977504 13140.61622691
0.15200001 569380.03050897 14373.99954847
0.15300001 562486.94447615 19490.17354582
0.15400001 555660.42884961 15502.92669650
0.15500001 548904.56123603 12844.36733909
0.15600001 542215.08889743 12769.16594617
0.15700001 535597.74476588 13963.03386506
0.15800001 529045.42588231 17664.82760397
0.15900001 522564.02617722 18812.30583033
0.16000001 516148.62682905 13711.48891893
0.16100001 509804.67681505 16104.73050080
0.16200001 503527.71343219 13542.37849204
0.16300001 497318.48880255 19574.45664334
0.16400001 491177.34334096 14587.96778592
0.16500001 485102.98289561 15702.78429768
0.16600001 479097.09529501 12001.38280376
0.16700001 473156.48297280 14308.25272066
0.16800001 467282.13017038 13030.16281504
0.16900001 461476.33586594 12944.41183225
0.17000001 455735.12081769 14027.52768114
0.17100001 450059.25795262 12772.68234384
0.17200001 444449.52866039 13840.15897606
0.17300001 438904.08024080 14892.01614584
0.17400001 433423.52016803 14790.57832423
0.17500001 428006.70856792 19208.94198772
0.17600001 422652.14334960 13465.69792309
0.17700001 417362.43716132 14486.65087808
0.17800001 412134.15830194 12172.38294037
0.17900001 406968.52016206 12086.96561972
0.18000001 401864.48923811 12001.68353800
0.18100001 396822.87855917 12999.91811567
0.18200001 391839.55655664 16133.99450336
0.18300001 386917.12872678 10678.91325732
0.18400001 382054.19146784 14842.80603971
0.18500001 377251.67303867 11577.85439252
0.18600001 372505.59283228 12538.53884710
0.18700001 367817.26233124 11409.69201656
0.18800001 363186.21988336 13385.22876620
0.18900001 358613.98461480 13286.64875774
0.19000001 354093.66071594 10144.78385884
0.19100001 349633.26700206 11076.38242199
0.19200001 345224.67535855 10993.68030626
0.19300001 340872.28727997 10911.32243142
0.19400001 336572.03222006 11813.67888917
0.19500001 332325.38414631 11724.44010672
0.19600001 328130.93615184 10665.89658365
0.19700001 323987.98021182 15395.90954724
0.19800001 319896.72545430 13368.48478851
0.19900001 315856.24701367 11370.82542988
0.20000001 311864.25734297 11283.24936393
0.20100001 307922.93397430 13062.09147653
0.20200001 304028.97277748 12034.98745621
0.20300001 300184.37887504 11022.77091328
0.20400001 296386.66322506 11848.05742243
0.20500001 292635.18040159 9946.67025200
0.20600001 288929.87788470 9868.40044561
0.20700001 285270.70757300 8900.44649699
0.20800001 281655.12974810 9712.87760849
0.20900001 278086.38083378 11387.63783345
0.21000001 274558.92274250 10427.74837870
0.21100001 271075.25207295 12068.27079280
0.21200001 267633.85065990 10261.08231939
0.21300001 264233.31319050 10178.26770528
0.21400001 260875.17645268 8413.22483835
0.21500001 257558.55837203 13351.83629725
0.21600001 254280.66216790 9932.20313386
0.21700001 251042.68266720 9850.91533361
0.21800001 247843.46256728 13026.65300844
0.21900001 244682.04414599 9689.40940631
0.22000001 241558.05489064 10409.94486772
0.22100001 238472.81263055 7941.14503608
0.22200001 235423.96215459 9449.91828772
0.22300001 232410.21537772 8589.88196654
0.22400001 229431.51976021 10066.30840548
0.22500001 226490.06286197 9213.61619291
0.22600001 223580.88602192 7612.92952905
0.22700001 220708.01858814 9812.67897046
0.22800001 217867.31162908 9728.86526087
0.22900001 215058.83466025 11129.29521998
0.23000001 212284.03002993 11033.46298260
0.23100001 209541.98415023 7292.06139329
0.23200001 206829.74448060 9397.30988491
0.23300001 204148.96431390 7882.19188494
0.23400001 201499.66763299 11364.58179199
0.23500001 198878.87713572 7040.31258358
0.23600001 196289.27144893 9769.31750207
0.23700001 193728.36874476 7607.71340044
0.23800001 191196.50964127 8225.27423381
0.23900001 188692.75557890 7472.23347436
0.24000001 186216.95689109 10770.78929604
0.24100001 183769.79907790 8005.01282648
0.24200001 181349.61588452 9254.27133633
0.24300001 178955.83793599 7204.76237611
0.24400001 176588.51871047 9085.47971743
0.24500001 174247.41118931 7715.67573245
0.24600001 171932.01416261 8918.11399649
0.24700001 169642.51404914 8834.98254963
0.24800001 167378.05288134 6876.72762795
0.24900001 165137.40214046 8050.44873519
0.25000001 162922.16304177 6747.42170158
0.25100001 160729.80543151 7898.26301256
0.25200001 158562.93367934 8424.44906494
0.25300001 156419.36470898 7747.45150057
0.25400001 154298.40920532 8262.68020386
0.25500001 152200.13710608 6428.93409553
0.25600001 150125.09115887 6366.05479179
0.25700001 148071.85244000 8595.57144083
0.25800001 146041.30101407 6808.44577541
0.25900001 144032.60279661 7302.45330730
0.26000001 142045.67084100 6117.19710421
0.26100001 140078.90023624 6055.61114374
0.26200001 138134.91500718 5994.36492037
0.26300001 136210.53692374 5933.33126915
0.26400001 134307.29036324 6940.32955792
0.26500001 132425.09562782 5283.76156557
0.26600001 130562.10699765 5229.01263269
0.26700001 128720.24945935 5174.55427313
0.26800001 126898.59969112 5632.39461382
0.26900001 125095.18065197 5066.35505615
0.27000001 123312.48402391 6516.44852662
0.27100001 121548.41189637 6446.92807207
0.27200001 119804.99079085 6868.42044708
0.27300001 118079.68184967 7279.61273053
0.27400001 116371.42717875 7200.48239745
0.27500001 114684.70758340 6647.12596611
0.27600001 113013.95999335 5165.30328595
0.27700001 111363.48042857 5108.24308901
0.27800001 109730.00696589 5051.42110974
0.27900001 108115.94320472 6357.21776131
0.28000001 106518.36529367 4938.72424058
0.28100001 104939.44870394 6214.51444637
0.28200001 103378.68224513 5704.95284971
0.28300001 101835.03132169 5205.80704756
0.28400001 100308.49742905 6003.46385528
0.28500001 98800.04949081  8900.89687992
0.28600001 97308.32671981  4189.12366357
0.28700001 95833.75025088  4140.01820680
0.28800001 94375.38879235  4091.17329780
0.28900001 92936.04157211  4042.71799974
0.29000001 91511.76475626  4393.93759276
0.29100001 90105.00337385  4341.25926804
0.29200001 88714.80213576  5458.62203380
0.29300001 87341.14255736  3851.74456911
0.29400001 85983.19926341  5326.65944651
0.29500001 84642.73416943  5261.39260503
0.29600001 83317.76208062  4082.98712404
0.29700001 82008.91476244  4032.37852975
0.29800001 80716.10689798  3982.12932232
0.29900001 79439.96422180  4647.23812697
0.30000001 78178.69036664  4588.69844830
0.30100001 76934.57357247  4182.16361738
0.30200001 75704.29475308  4128.91243130
0.30300001 74491.43961556  4076.17176873
0.30400001 73293.64781747  4694.45836495
0.30500001 72111.14878631  4302.87245179
0.30600001 70943.14568125  3593.62521462
0.30700001 69791.88970380  3546.82400267
0.30800001 68655.00844396  4136.80772964
0.30900001 67533.62392889  3454.34502751
0.31000001 66427.69498365  3098.85211770
0.31100001 65335.71321288  4280.79613238
0.31200001 64259.38820982  3620.37410315
0.31300001 63197.31717941  3274.25315809
0.31400001 62150.88457796  4992.27004009
0.31500001 61118.38702527  3186.71285038
0.31600002 60100.92518206  3715.13886603
0.31700002 59097.82063842  2818.96617793
0.31800002 58109.04714252  3892.72525239
0.31900002 57135.05273752  3839.47572576
0.32000002 56175.15351664  3516.28390087
0.32100002 55228.81349744  4268.08290918
0.32200002 54298.01314881  3946.10829244
0.32300002 53379.41885837  3891.35981903
0.32400002 52475.50156889  3581.45315166
0.32500002 51585.38679625  3279.28319392
0.32600002 50709.26956201  2487.28978980
0.32700002 49846.08572086  2942.91304031
0.32800002 48997.62363724  3143.44269330
0.32900002 48161.69448881  3099.20518711
0.33000002 47340.05175077  3525.65052109
0.33100002 46529.44260922  2548.88298683
0.33200002 45734.99953448  2741.35600191
0.33300002 44952.28475745  2252.10957300
0.33400002 44182.76507150  2664.22085998
0.33500002 43425.57919140  2407.51422438
0.33600002 42681.90599494  2804.84158529
0.33700002 41950.12703380  2339.55869547
0.33800002 41231.99268115  2725.64100527
0.33900002 40525.29930449  3306.86457985
0.34000002 39831.68939413  2648.60831170
0.34100002 39150.03097773  3213.43469484
0.34200002 38481.13176703  2771.79605245
0.34300002 37823.41284085  1951.68819502
0.34400002 37178.90232151  2308.80994351
0.34500002 36545.32103486  2276.04270184
0.34600002 35924.51031708  2243.84502067
0.34700002 35313.85079012  2212.05971826
0.34800002 34716.07240352  1999.12512404
0.34900002 34129.11425213  2687.66787465
0.35000002 33553.69069408  1943.26208858
0.35100002 32989.98458919  2090.24552257
0.35200002 32436.24565819  2060.99914674
0.35300002 31893.84609718  2201.63230037
0.35400002 31362.61131454  2505.08869740
0.35500002 30842.27607523  1811.67538247
0.35600002 30331.61708233  1786.68398886
0.35700002 29832.20768126  1762.18859120
0.35800002 29343.30866293  1896.16469561
0.35900002 28864.81856549  1714.57030400
0.36000002 28396.72192069  1998.98733429
0.36100002 27937.84322121  1820.42995052
0.36200002 27489.88164641  1646.50653920
0.36300002 27050.97458641  1624.68161062
0.36400002 26621.74274402  1457.54048427
0.36500002 26202.01325185  1438.49059566
0.36600002 25792.02093245  1419.85081959
0.36700002 25390.96710994  1822.05588612
0.36800002 25000.35612338  1798.90071007
0.36900002 24618.09619414  1639.56528419
0.37000002 24244.21717754  1349.19074984
0.37100002 23879.27048288  1732.20236288
0.37200002 23523.74005943  1447.76865054
0.37300002 23176.23246798  1300.18670304
0.37400002 22837.44261607  1541.52744961
0.37500002 22507.25629708  1396.35024682
0.37600002 22185.59876680  1756.43393757
0.37700002 21871.34596293  1240.10537484
0.37800002 21565.10994551  1471.17187018
0.37900002 21267.43022762  1333.46793844
0.38000002 20977.39296213  1558.51548395
0.38100002 20693.99472801  1541.49574031
0.38200002 20419.11835781  1407.69408627
0.38300002 20151.08437954  1392.84301830
0.38400002 19890.97363237  1493.31491619
0.38500002 19637.14911964  1364.38918547
0.38600002 19391.34574132  1238.23444097
0.38700002 19151.68917085  1449.01687131
0.38800002 18919.20783777  1766.29732741
0.38900002 18692.68859580  1202.87456813
0.39000002 18474.07201542  1191.85481254
0.39100002 18260.90303941  1181.11526455
0.39200002 18054.52171309  1596.47115812
0.39300002 17854.06376775  1160.69274053
0.39400002 17660.98416453  1046.41336132
0.39500002 17472.64957287  1453.02560732
0.39600002 17290.45822480  1544.47025410
0.39700002 17113.89768955  1430.37963666
0.39800002 16943.47856470  1014.06724014
0.39900002 16778.20793417  1107.36177612
0.40000002 16618.32105248  1099.55126453
0.40100002 16464.19109727  1092.06984722
0.40200002 16315.24358043  1479.38478175
0.40300002 16171.03572976  1469.94721748
0.40400002 16032.13832108  1168.74293898
0.40500002 15898.54398658  1549.15419945
0.40600002 15769.44686255  1636.63212017
0.40700002 15645.26890238  1244.73765285
0.40800002 15525.48631013  1238.23521933
0.40900002 15410.36786267  1042.51143531
0.41000002 15300.10627380  1226.22707541
0.41100002 15193.67814835  1314.55709568
0.41200002 15091.37944662  1028.40210112
0.41300002 14993.95027081  1210.46166272
0.41400002 14899.91070815  927.51948553
0.41500002 14810.14190764  1016.56818871
0.41600002 14723.73911238  1105.16391014
0.41700002 14641.52127618  1009.82577027
0.41800002 14563.92476306  1098.41125768
0.41900002 14487.99757873  1004.01827978
0.42000002 14416.75337015  1456.66882954
0.42100002 14349.34313659  999.14480995
0.42200002 14285.04779691  1178.30222336
0.42300002 14223.57421634  1085.54323563
0.42400002 14165.22033424  993.33612301
0.42500002 14110.56216627  991.83146167
0.42600002 14057.78188251  1260.56136114
0.42700002 14009.44490506  989.34704608
0.42800002 13963.07581349  1257.93355965
0.42900002 13920.43735652  1077.44190245
0.43000002 13880.07770063  987.08177246
0.43100002 13841.41250119  1345.38535887
0.43200002 13806.39376383  986.39784920
0.43300002 13773.62521745  1255.32826181
0.43400002 13743.29037361  986.42471331
0.43500002 13715.21933948  986.67292604
0.43600002 13689.84254560  1346.05383208
0.43700002 13666.06596838  1077.43269201
0.43800002 13644.31601906  988.32607768
0.43900002 13625.48835035  1079.13872849
0.44000002 13608.19677088  1350.27338858
0.44100002 13593.23968425  991.35501715
0.44200002 13579.87165057  1353.57377092
0.44300002 13568.63562881  1174.77252842
0.44400002 13559.31169612  1086.10091833
0.44500002 13550.52169063  1087.83593288
0.44600002 13544.05993135  1271.38096601
0.44700002 13540.00242152  909.88820585
0.44800002 13536.24441143  1002.83271475
0.44900002 13535.47419900  1005.00900690
0.45000002 13535.45705269  1007.24108431
0.45100002 13536.57487711  1101.33578420
0.45200002 13539.37924396  1012.00094955
0.45300002 13543.13336946  1014.51616879
0.45400002 13548.57943569  1202.09776740
0.45500002 13555.12329739  1112.60457298
0.45600002 13562.75759940  1115.67249300
0.45700002 13571.46240307  932.35951128
0.45800002 13580.93715684  1122.05708108
0.45900002 13591.47906216  937.81209974
0.46000002 13603.76707534  1222.91069920
0.46100002 13615.97396243  1037.94574435
0.46200002 13629.79812908  1514.54323988
0.46300002 13644.59249963  1519.46189277
0.46400002 13659.32634710  1143.28566944
0.46500002 13675.55224312  1051.51326181
0.46600002 13692.12475259  1534.61341500
0.46700002 13709.12179770  1058.61843539
0.46800002 13727.79219380  1158.90027193
0.46900002 13746.02102459  969.09452816
0.47000002 13765.20471258  972.51175904
0.47100002 13784.96136487  975.97531089
0.47200002 13805.43996997  1469.24401844
0.47300002 13826.54295251  1081.37397557
0.47400002 13847.30278895  1381.26851867
0.47500002 13868.96462895  1188.29294573
0.47600002 13891.31454453  1093.31596305
0.47700002 13913.37356045  1296.86561104
