# SAXS profile: number of points = 501, q_min = 0, q_max = 0.5, delta_q = 0.001
#    q    intensity    error
0.00000000 1682732.95097188 277.65093691
0.00100000 1682645.80654508 605.75250474
0.00200000 1682384.35086860 832.78028005
0.00300000 1681948.78232202 1412.83702748
0.00400000 1681339.01840149 1387.10474289
0.00500000 1680555.66806235 1663.75017723
0.00600000 1679598.59877932 2116.29432062
0.00700000 1678468.55931126 2618.41106135
0.00800000 1677165.32599628 2943.42527139
0.00900000 1675690.35586128 3518.94989774
0.01000000 1674042.96038664 3590.82230508
0.01100000 1672224.78950011 3913.00617780
0.01200000 1670235.66659569 4234.04760046
0.01300000 1668077.07872542 4553.85062577
0.01400000 1665749.02997868 4872.31612868
0.01500000 1663253.32835176 4390.98898237
0.01600000 1660589.33596963 6351.75449403
0.01700000 1657759.52356125 4475.95091440
0.01800000 1654764.17034222 4716.07809769
0.01900000 1651604.47646284 5945.77638355
0.02000000 1648281.08400390 6749.71134432
0.02100000 1644796.80160245 9227.31047534
0.02200000 1641150.16760719 7360.55883613
0.02300000 1637344.51915155 6483.88459098
0.02400000 1633380.25874765 6125.17624960
0.02500000 1629259.91858627 8260.34816449
0.02600000 1624983.67585328 7897.42102586
0.02700000 1620553.79987026 8167.59152543
0.02800000 1615970.56597636 7732.41951280
0.02900000 1611237.32170369 7250.56828057
0.03000000 1606354.88856898 10457.37080526
0.03100000 1601324.63134900 11529.53787622
0.03200000 1596148.01878303 10271.21297394
0.03300000 1590829.29759028 12169.84468760
0.03400000 1585366.54053388 8323.17472184
0.03500000 1579764.30540107 10236.87317172
0.03600000 1574022.91160023 9609.41031941
0.03700000 1568145.64945918 8938.43061530
0.03800000 1562133.91446080 10052.33220477
0.03900000 1555990.21141662 10269.53587093
0.04000000 1549714.85972505 10483.82151185
0.04100000 1543311.68466701 9722.86406422
0.04200000 1536782.49355856 10903.47229764
0.04300000 1530128.78861975 18177.93085259
0.04400000 1523354.17424361 12339.16938443
0.04500000 1516459.86947735 14649.00301982
0.04600000 1509447.25181632 20219.04687800
0.04700000 1502320.23631013 10816.70620450
0.04800000 1495080.61036419 14285.49589671
0.04900000 1487730.90235506 14505.37697315
0.05000000 1480272.62493215 15853.72055127
0.05100000 1472709.89196152 14933.27900014
0.05200000 1465042.26197674 17470.62978823
0.05300000 1457274.68412604 17705.88823754
0.05400000 1449408.80419148 11957.62319221
0.05500000 1441447.61312496 13318.97656660
0.05600000 1433392.37649241 18383.25808635
0.05700000 1425247.72565769 16119.55252963
0.05800000 1417013.10903609 13794.62326057
0.05900000 1408692.77259062 13946.05910001
0.06000000 1400290.20522603 14093.92157405
0.06100000 1391806.84170519 15532.56507929
0.06200000 1383245.78297429 15686.00791215
0.06300000 1374609.94389179 17155.13290186
0.06400000 1365898.89554251 13317.51485436
0.06500000 1357118.95336221 17466.12174680
0.06600000 1348271.52549143 16260.15535822
0.06700000 1339358.07895131 15027.59834911
0.06800000 1330382.55609481 17900.29813015
0.06900000 1321348.48455941 15261.57571119
0.07000000 1312255.32891531 19565.72787036
0.07100000 1303107.87978277 16888.27891299
0.07200000 1293908.04637280 14168.29377152
0.07300000 1284659.20036502 15685.68957142
0.07400000 1275364.33365110 17217.41931117
0.07500000 1266023.92192611 20205.74274103
0.07600000 1256641.31772779 15965.62869021
0.07700000 1247220.59429838 20429.47429251
0.07800000 1237762.49806981 20534.48080597
0.07900000 1228269.25612083 14739.23176477
0.08000000 1218746.30512420 19250.09879248
0.08100000 1209193.96003020 17847.70368743
0.08200000 1199613.91412735 17922.23271807
0.08300000 1190009.81461447 14994.12436785
0.08400000 1180384.05565815 15049.89741606
0.08500000 1170739.26915424 21143.55219351
0.08600000 1161077.67080376 22728.09647310
0.08700000 1151401.33636648 18238.19802447
0.08800000 1141712.27189924 18290.23145480
0.08900000 1132014.21928999 16810.41194604
0.09000000 1122308.54987497 16851.46366798
0.09100000 1112597.45764382 21495.38389156
0.09200000 1102882.95170807 15385.21789923
0.09300000 1093169.31260426 23120.53204806
0.09400000 1083455.23330796 16983.16158027
0.09500000 1073745.06700895 21646.70156835
0.09600000 1064040.23651913 15481.78616912
0.09700000 1054345.87696666 18598.66214407
0.09800000 1044660.70127616 23269.81821502
0.09900000 1034988.45974891 17077.31038887
0.10000000 1025328.65374913 20193.84878525
0.10100000 1015685.72166065 17093.99149951
0.10200000 1006061.31016902 15543.64797323
0.10300000 996456.08508157 20208.13035606
0.10400000 986873.62483292 26423.54254800
0.10500000 977316.79591283 20201.13912197
0.10600001 967782.46524670 15532.90929809
0.10700001 958277.83877169 21733.74240608
0.10800001 948801.13095328 15512.89922115
0.10900001 939356.43072392 18599.25820372
0.11000001 929944.33176352 20128.64600847
0.11100001 920566.27698220 20105.16843571
0.11200001 911224.44417135 21623.35707815
0.11300001 901919.42454575 16965.10517444
0.11400001 892653.84178914 20017.76334465
0.11500001 883429.75462473 18446.01414515
0.11600001 874246.88659469 21480.24701517
0.11700001 865107.79302614 18374.89038924
0.11800001 856012.94444610 18335.79813362
0.11900001 846963.68617185 21343.48589684
0.12000001 837961.75099711 16729.90714672
0.12100001 829010.14870442 18205.06372316
0.12200001 820107.22006266 16644.07681530
0.12300001 811256.03084501 15089.36288464
0.12400001 802456.79239435 18055.27867959
0.12500001 793709.80742980 21001.56249420
0.12600001 785018.84166266 23927.37542142
0.12700001 776382.94422654 17887.86387797
0.12800001 767802.68572287 14856.98266894
0.12900001 759280.17122566 14805.96403674
0.13000001 750816.23384725 17704.24762861
0.13100001 742410.45587738 17639.67326314
0.13200001 734064.58146827 16109.04799971
0.13300001 725780.35961172 18964.64169070
0.13400001 717556.48825375 14530.51957219
0.13500001 709395.61860879 17366.00556232
0.13600001 701296.88961313 17293.98211328
0.13700001 693261.90842080 17220.62661718
0.13800001 685289.99843508 15717.12685526
0.13900001 677384.03995471 21337.59826482
0.14000001 669542.62788436 16992.99269710
0.14100001 661766.80788391 15505.19703999
0.14200001 654056.44690497 14029.51144782
0.14300001 646414.22554839 18151.31230955
0.14400001 638836.03043276 15284.15274906
0.14500001 631326.78329545 16591.26864765
0.14600001 623884.28038565 13756.64903146
0.14700001 616511.30450407 16423.86192681
0.14800001 609203.72451030 16338.84466221
0.14900001 601965.74089270 20316.34471367
0.15000001 594795.31712464 24249.80622335
0.15100001 587693.86755208 22779.01538115
0.15200001 580661.24208231 14658.79374807
0.15300001 573698.23462404 13252.42984518
0.15400001 566801.67195530 17131.58134331
0.15500001 559975.67180182 18344.80387397
0.15600001 553216.21984120 15633.89111055
0.15700001 546528.81676382 19429.10035295
0.15800001 539906.41650794 19315.15296222
0.15900001 533354.91538456 14080.57043076
0.16000001 526869.57193119 13996.29083901
0.16100001 520455.73477633 16441.19743768
0.16200001 514108.81388291 15083.95331138
0.16300001 507829.52821885 12492.60698393
0.16400001 501618.48696710 13656.56395240
0.16500001 495474.26737675 17272.23377620
0.16600001 489398.48486294 13485.37588708
0.16700001 483388.07939069 13399.51819336
0.16800001 477444.14356851 12103.20961093
0.16900001 471568.64089074 19240.00145682
0.17000001 465757.75482264 15530.69306792
0.17100001 460012.47594457 11868.32243981
0.17200001 454333.19532082 12968.94167286
0.17300001 448718.47954609 16396.17401691
0.17400001 443168.72676052 12796.49758954
0.17500001 437682.61169510 12710.30364390
0.17600001 432258.88045571 11476.47381812
0.17700001 426900.28583340 15957.53343814
0.17800001 421602.96138189 13584.04805733
0.17900001 416368.57435341 12366.14724239
0.18000001 411195.81219664 15629.55355986
0.18100001 406085.74126954 13303.36951239
0.18200001 401033.91917359 19815.08688239
0.18300001 396043.28018105 10930.79504936
0.18400001 391112.04741804 11938.69581143
0.18500001 386241.59434541 10776.14099132
0.18600001 381427.60662573 13908.75833271
0.18700001 376671.54139320 12746.56556295
0.18800001 371972.88530366 13709.06133557
0.18900001 367333.28860290 14656.59890774
0.19000001 362745.56320088 11431.92696442
0.19100001 358218.10792470 12380.01839483
0.19200001 353742.48256066 11264.92988943
0.19300001 349323.22302352 10165.30627032
0.19400001 344956.48072916 15134.96630718
0.19500001 340643.28827212 14020.87840784
0.19600001 336382.58784076 10934.11653447
0.19700001 332173.56219911 12825.22184260
0.19800001 328016.46940067 12728.67969663
0.19900001 323910.32286571 15547.69623234
0.20000001 319852.81738978 13500.98806009
0.20100001 315846.19981543 11484.16836806
0.20200001 311887.19304633 9496.96547712
0.20300001 307977.60467049 10366.52666318
0.20400001 304115.18975671 14962.46804324
0.20500001 300299.26393060 12063.02200227
0.20600001 296529.83630153 11969.42740808
0.20700001 292806.63676737 9135.56749897
0.20800001 289127.15105845 10876.96393697
0.20900001 285494.94583293 8993.09121885
0.21000001 281904.04505767 9814.48979264
0.21100001 278357.29176560 10622.11475592
0.21200001 274853.00165975 8781.55381817
0.21300001 271389.81850187 12196.25902006
0.21400001 267969.18767584 11234.60872444
0.21500001 264590.47906599 9430.00511974
0.21600001 261250.71650573 8503.71122430
0.21700001 257951.04108826 10965.49927511
0.21800001 254690.44032317 9203.23949621
0.21900001 251467.85452950 13277.50334694
0.22000001 248282.90123664 8230.57856516
0.22100001 245137.05943313 12244.59669765
0.22200001 242027.80394895 12143.74563735
0.22300001 238953.99498244 8831.74007216
0.22400001 235915.37692509 9554.57321727
0.22500001 232914.40862957 10264.53847369
0.22600001 229945.89728412 9395.58980733
0.22700001 227014.12860837 7763.88356555
0.22800001 224114.57366575 9238.00316337
0.22900001 221247.60569786 7633.04275755
0.23000001 218414.76353327 11352.10787150
0.23100001 215614.74464797 9004.07216233
0.23200001 212844.76954848 9670.60256179
0.23300001 210106.74404589 7374.74706480
0.23400001 207400.37051317 7310.86340636
0.23500001 204722.66739515 9421.33759912
0.23600001 202076.67216563 9338.97384584
0.23700001 199459.61959907 8544.85050778
0.23800001 196871.80144717 9880.99618199
0.23900001 194312.43384336 7694.77274416
0.24000001 191781.31797241 9706.05296168
0.24100001 189279.19839381 6870.83522669
0.24200001 186804.28099005 8851.72127342
0.24300001 184356.10234299 8096.92039791
0.24400001 181934.63870615 8023.31794647
0.24500001 179539.73599442 9937.52485738
0.24600001 177170.84031708 9189.85192197
0.24700001 174828.12573376 7153.96724345
0.24800001 172510.91728586 6443.28306544
0.24900001 170217.64762924 7659.79450568
0.25000001 167950.13684403 6955.65524646
0.25100001 165705.74465665 8142.78067765
0.25200001 163487.35059923 9306.51787315
0.25300001 161292.40431244 7988.81316355
0.25400001 159120.45699719 6694.99354490
0.25500001 156971.43210262 7233.24393351
0.25600001 154845.99546509 7163.17608912
0.25700001 152742.71814334 7684.48651337
0.25800001 150662.41189392 7609.20547272
0.25900001 148604.29279039 9852.46507817
0.26000001 146568.16036750 8033.40124985
0.26100001 144552.71669557 6817.10644192
0.26200001 142560.12976344 7873.59633939
0.26300001 140587.50900145 6123.99218188
0.26400001 138636.55235134 7715.12450342
0.26500001 136706.78430111 6545.52114206
0.26600001 134796.61886373 7018.18629324
0.26700001 132907.83473832 5877.18473024
0.26800001 131039.53725720 5287.44557853
0.26900001 129189.93394996 6801.85034434
0.27000001 127361.26340682 6730.40628323
0.27100001 125551.64853573 6147.00900320
0.27200001 123763.00991604 8108.95279344
0.27300001 121992.71356943 6016.68091798
0.27400001 120239.81773940 5455.88198812
0.27500001 118508.70878232 5396.88685336
0.27600001 116793.85956478 4852.78509458
0.27700001 115099.82708434 4799.66301657
0.27800001 113423.08818515 4746.75646520
0.27900001 111765.83702920 5632.99845287
0.28000001 110125.58923597 5105.97318658
0.28100001 108504.25706634 5507.67634936
0.28200001 106901.39969517 4537.96463184
0.28300001 105315.98814832 6281.04583045
0.28400001 103748.04527673 5322.27497460
0.28500001 102198.44951832 6576.47053778
0.28600001 100665.95618814 5200.40354282
0.28700001 99150.85246045  4283.31702903
0.28800001 97652.35588681  5079.87579368
0.28900001 96173.18954046  4601.88733734
0.29000001 94709.30862179  5374.27997213
0.29100001 93263.47875405  4901.92867534
0.29200001 91834.26439866  4843.33933365
0.29300001 90422.07993682  4386.37530537
0.29400001 89025.85459442  5515.15195319
0.29500001 87647.46811897  3891.54776870
0.29600001 86284.83158796  3843.98942921
0.29700001 84938.69249571  4176.43570772
0.29800001 83608.81037647  4124.84085519
0.29900001 82296.06814548  5184.65253860
0.30000001 80998.38789107  4388.49286369
0.30100001 79718.15665702  4333.47920102
0.30200001 78452.24446426  5348.48201955
0.30300001 77203.81580695  6688.93891818
0.30400001 75970.78421781  3823.22989676
0.30500001 74753.47936224  6176.13275730
0.30600001 73550.95425031  6096.63888644
0.30700001 72365.45271075  3677.61248087
0.30800001 71194.71377635  3629.86265374
0.30900001 70039.70064564  4559.58472790
0.31000001 68900.42103747  3214.20479357
0.31100001 67775.40961068  3806.26718394
0.31200001 66666.30288889  3755.97968259
0.31300001 65571.90140085  4014.96771287
0.31400001 64493.46716168  3047.31646767
0.31500001 63429.02526173  3307.18953373
0.31600002 62380.01142596  5042.48846237
0.31700002 61345.62878563  3511.42395795
0.31800002 60325.95626417  4329.89571587
0.31900002 59321.40311229  4271.14122632
0.32000002 58331.10988114  3932.10030327
0.32100002 57354.66234575  3878.32245146
0.32200002 56394.13154319  4644.90286449
0.32300002 55445.89771852  3503.07198373
0.32400002 54512.84197523  3454.75152377
0.32500002 53593.84660382  2620.73922302
0.32600002 52689.12407778  2842.84182423
0.32700002 51797.57520378  3312.97306691
0.32800002 50920.98260894  3015.54073290
0.32900002 50057.27155656  2973.40207126
0.33000002 49208.10927952  2931.81928971
0.33100002 48370.36886013  2649.72893163
0.33200002 47548.80263246  2612.56908436
0.33300002 46739.41210931  2809.97358908
0.33400002 45943.52991098  2539.52873609
0.33500002 45160.12296066  3186.49842700
0.33600002 44390.62180447  3590.31366157
0.33700002 43633.20763697  2433.42410515
0.33800002 42889.84000714  2835.23300794
0.33900002 42157.99309974  3010.08084987
0.34000002 41439.59963899  3179.45343287
0.34100002 40733.36569554  2298.58393506
0.34200002 40040.25755084  2678.09275312
0.34300002 39358.42310412  2437.07367403
0.34400002 38690.22975392  2602.88532997
0.34500002 38033.08193211  2566.09215949
0.34600002 37388.93710291  2724.53197572
0.34700002 36755.29978063  2686.07743518
0.34800002 36134.81607877  3026.65233810
0.34900002 35525.30908867  2424.60246014
0.35000002 34927.68366504  1838.94263206
0.35100002 34341.89212290  1994.57718897
0.35200002 33766.49921159  2145.52346152
0.35300002 33202.51758876  2291.96989771
0.35400002 32649.99112483  1912.47332072
0.35500002 32108.71681767  2057.52667113
0.35600002 31577.27539999  1860.05949554
0.35700002 31057.24991569  1834.55183941
0.35800002 30548.00218180  1645.00999541
0.35900002 30049.44872287  2596.27249263
0.36000002 29561.54568701  1760.83355225
0.36100002 29083.00973390  2052.96975436
0.36200002 28615.71933151  1713.93859054
0.36300002 28157.62109036  1844.88742123
0.36400002 27709.45994408  1668.80230418
0.36500002 27270.97582713  1497.17664383
0.36600002 26842.49310431  1920.98311000
0.36700002 26423.20859606  1750.27342031
0.36800002 26014.54187910  2015.86694570
0.36900002 25614.49018353  1705.92512703
0.37000002 25222.95847182  1684.38924654
0.37100002 24840.65866742  1663.33058316
0.37200002 24467.94776358  1368.98174222
0.37300002 24103.42504111  1487.42242975
0.37400002 23747.88853544  1469.40067274
0.37500002 23401.15587374  1715.77282994
0.37600002 23063.10255922  1565.06221381
0.37700002 22732.72926343  2320.10245853
0.37800002 22410.59824838  1274.04257077
0.37900002 22097.22058478  1259.54163300
0.38000002 21791.62085079  1245.39119062
0.38100002 21492.86245255  1354.69518456
0.38200002 21202.82471022  1705.34327223
0.38300002 20919.82287279  1566.47641092
0.38400002 20644.99836965  1192.24871233
0.38500002 20376.54698770  1651.72297707
0.38600002 20116.52530973  1401.31721946
0.38700002 19862.54917776  1156.00041691
0.38800002 19616.14479230  1602.44294400
0.38900002 19375.80635411  1586.87861558
0.39000002 19143.58306528  1235.04831997
0.39100002 18916.91701014  1668.47215934
0.39200002 18697.24551938  1322.64321070
0.39300002 18483.63837744  1310.85969583
0.39400002 18277.67353746  1299.54265008
0.39500002 18076.65266238  1073.75321902
0.39600002 17881.89114671  1490.81333553
0.39700002 17692.94565020  1056.26890536
0.39800002 17510.28188650  1467.18658878
0.39900002 17332.88231090  1559.95948189
0.40000002 17161.16770733  1341.91757245
0.40100002 16995.29630594  1434.74298212
0.40200002 16834.82043746  1322.96442676
0.40300002 16679.20467617  1415.06379177
0.40400002 16529.07995858  1204.96998607
0.40500002 16384.34516129  1097.58733436
0.40600002 16244.32353753  1487.57399843
0.40700002 16109.41532539  1281.66514401
0.40800002 15978.98788632  1274.40423926
0.40900002 15853.40240345  1072.48272341
0.41000002 15732.84200231  1066.92273094
0.41100002 15616.22200864  1158.09907903
0.41200002 15503.90782737  1056.51384896
0.41300002 15396.61989960  1051.74315518
0.41400002 15292.88688300  1047.18047893
0.41500002 15193.55495990  1232.50123675
0.41600002 15097.64093079  1605.40772445
0.41700002 15006.16604506  1223.15265229
0.41800002 14919.29656742  1125.21340043
0.41900002 14834.39832547  1308.39399430
0.42000002 14754.36735330  1118.08601101
0.42100002 14678.08372841  1022.03501844
0.42200002 14605.18242090  1204.70852907
0.42300002 14535.15760383  1479.09770785
0.42400002 14468.48128208  1014.60229798
0.42500002 14405.50094852  1104.61386508
0.42600002 14344.64654449  918.77465471
0.42700002 14288.21236803  1192.49426074
0.42800002 14234.08287626  1007.55960414
0.42900002 14183.66146397  1189.30007011
0.43000002 14135.61949402  1005.25462795
0.43100002 14089.46274399  1095.59667489
0.43200002 14047.07786833  1003.59352586
0.43300002 14006.99545016  1094.22653642
0.43400002 13969.52989685  1093.81424276
0.43500002 13934.36338607  1002.43814950
0.43600002 13902.07809002  1184.66564058
0.43700002 13871.43268575  1093.62380477
0.43800002 13842.92206979  1185.02339994
0.43900002 13817.51062981  1094.34689374
0.44000002 13793.68625068  912.45238872
0.44100002 13772.34139537  1552.28067223
0.44200002 13752.62685111  1279.40693659
0.44300002 13735.15516262  1006.23751490
0.44400002 13719.75758937  1282.11140749
0.44500002 13704.93471857  1100.23221135
0.44600002 13692.49315276  1101.69805128
0.44700002 13682.70151006  919.47758505
0.44800002 13673.18983878  1105.06725514
0.44900002 13666.73314961  1199.25589071
0.45000002 13661.26976795  1109.02193232
0.45100002 13656.94363395  1018.53490449
0.45200002 13654.39192521  1484.50556046
0.45300002 13652.83037699  1580.58824765
0.45400002 13653.08613591  1211.37012482
0.45500002 13654.53123297  1120.76397672
0.45600002 13657.17927902  936.19968395
0.45700002 13660.97107785  938.50875753
0.45800002 13665.60882351  1129.05265451
0.45900002 13671.35268637  1131.98805608
0.46000002 13678.91379519  1418.84540065
0.46100002 13686.46185010  1138.16622140
0.46200002 13695.82202351  951.17488461
0.46300002 13706.09173243  1335.52164171
0.46400002 13716.49487011  1148.07067504
0.46500002 13728.41613044  1055.57796630
0.46600002 13740.75845173  1058.79419268
0.46700002 13753.52034177  1255.14632588
0.46800002 13768.10340696  1065.44473265
0.46900002 13782.32668186  1360.31570797
0.47000002 13797.58944953  974.79974081
0.47100002 13813.38347072  977.98759608
0.47200002 13830.12561809  1079.37220502
0.47300002 13847.46392665  1378.37662459
0.47400002 13864.50968311  1580.55417879
0.47500002 13882.53527196  1090.33437194
0.47600002 13901.40340196  1293.03909872
0.47700002 13919.94324634  1197.67197368
