# SAXS profile: number of points = 501, q_min = 0, q_max = 0.5, delta_q = 0.001
#    q    intensity    error
0.00000000 1700912.83420643 280.65061764
0.00100000 1700825.16789200 510.24756249
0.00200000 1700562.14178102 765.25298803
0.00300000 1700123.96156099 1326.09673726
0.00400000 1699510.53444440 1274.63294927
0.00500000 1698722.48171580 1987.50538228
0.00600000 1697759.66706324 1960.91249529
0.00700000 1696622.83849759 3053.92123622
0.00800000 1695311.77297643 2746.40518817
0.00900000 1693827.92271919 2794.81619196
0.01000000 1692170.60290466 3908.91426149
0.01100000 1690341.49339021 3042.61482058
0.01200000 1688340.41439699 3621.49034766
0.01300000 1686168.80963166 4603.24105332
0.01400000 1683826.70726199 4546.33231115
0.01500000 1681315.91654648 4842.19005527
0.01600000 1678635.85446761 5992.73026835
0.01700000 1675788.87889922 6334.48224640
0.01800000 1672775.42262007 4767.41016899
0.01900000 1669596.57771269 9516.70092238
0.02000000 1666253.00231424 5773.56691419
0.02100000 1662747.51564969 5487.06705042
0.02200000 1659078.70654942 8013.35051670
0.02300000 1655249.85797242 7746.56968792
0.02400000 1651261.40214585 9288.34581060
0.02500000 1647115.83840007 7708.50247576
0.02600000 1642813.45429632 9314.75271190
0.02700000 1638356.38520034 8257.31655960
0.02800000 1633745.00439606 10660.18664256
0.02900000 1628982.68490686 10995.63362798
0.03000000 1624070.08448591 9817.50411198
0.03100000 1619008.81894441 8548.36695736
0.03200000 1613800.14231628 8787.14217963
0.03300000 1608448.37238976 8203.08707735
0.03400000 1602951.71370152 8415.49688523
0.03500000 1597314.55899960 15525.89823043
0.03600000 1591537.39681910 12366.24614477
0.03700000 1585623.34374071 12653.27486823
0.03800000 1579573.90393296 10164.55854222
0.03900000 1573391.65174438 9440.35034765
0.04000000 1567076.73281200 12528.77905940
0.04100000 1560633.17614794 10815.18841217
0.04200000 1554062.64742362 12028.44544909
0.04300000 1547366.82696105 13276.40799159
0.04400000 1540548.95560210 13518.31771323
0.04500000 1533610.70076546 13756.48862506
0.04600000 1526553.24981187 13990.86118492
0.04700000 1519380.50556699 12033.49416374
0.04800000 1512094.24412207 15559.45049597
0.04900000 1504697.10896368 14670.79749528
0.05000000 1497190.61911680 19470.96490830
0.05100000 1489578.71919677 11618.71455098
0.05200000 1481861.13406528 23561.59312964
0.05300000 1474042.95714688 14327.69821139
0.05400000 1466125.39496472 12095.53507252
0.05500000 1458111.81346852 17147.39572630
0.05600000 1450003.41252296 13637.28273115
0.05700000 1441804.83337187 16306.81342661
0.05800000 1433515.52744853 15223.93561235
0.05900000 1425139.66149791 16674.13481830
0.06000000 1416680.84523132 14258.89337341
0.06100000 1408140.54774621 15714.84924722
0.06200000 1399521.64819695 17193.12425177
0.06300000 1390827.37209718 21363.10943425
0.06400000 1382057.20942327 16170.07010647
0.06500000 1373217.32770968 17673.30783434
0.06600000 1364309.41622267 13711.31027457
0.06700000 1355334.61797283 13824.41375029
0.06800000 1346297.15640796 15327.59384318
0.06900000 1337200.38591954 16848.72565143
0.07000000 1328043.86737387 16972.40141983
0.07100000 1318832.45948484 18516.40859843
0.07200000 1309568.11431174 18641.70298053
0.07300000 1300254.09669462 20205.94960940
0.07400000 1290893.37449851 15974.80625806
0.07500000 1281486.53103525 16069.84185242
0.07600000 1272036.91181391 17630.43242427
0.07700000 1262548.40182753 28066.45228862
0.07800000 1253022.18747464 22272.47042686
0.07900000 1243460.21501506 17905.82793607
0.08000000 1233867.85098477 19488.94362055
0.08100000 1224245.75388158 19575.69052302
0.08200000 1214595.14302838 15121.71024029
0.08300000 1204920.06430492 21254.79093187
0.08400000 1195223.06913191 16763.00433141
0.08500000 1185506.18115333 16822.33350029
0.08600000 1175772.25546087 16878.21151960
0.08700000 1166023.01138739 20008.95581498
0.08800000 1156260.58675032 18523.29546966
0.08900000 1146488.48904174 20120.87392775
0.09000000 1136708.66371544 17067.68138745
0.09100000 1126922.88058933 21772.15107587
0.09200000 1117133.21240406 15584.00904528
0.09300000 1107344.07907620 18736.26269843
0.09400000 1097553.94483237 20332.18778358
0.09500000 1087767.41991255 17230.23674128
0.09600000 1077985.96672750 20390.10551914
0.09700000 1068214.53464622 18843.30527704
0.09800000 1058451.78093786 17289.81065455
0.09900000 1048701.92993779 15730.52968876
0.10000000 1038963.95579685 20462.39607171
0.10100000 1029242.57344665 18896.89453724
0.10200000 1019539.33774867 25203.01361460
0.10300000 1009855.27665242 18904.49166821
0.10400000 1000193.46508998 20478.96216115
0.10500000 990557.02106232 18899.82885109
0.10600001 980942.75016136 18892.95825709
0.10700001 971358.28298063 20456.80640222
0.10800001 961801.18124758 15725.45005346
0.10900001 952275.92757867 15712.55354457
0.11000001 942783.08768092 18836.80697850
0.11100001 933323.97917513 15679.84358825
0.11200001 923900.99781023 21924.17171016
0.11300001 914514.62613248 15638.20084312
0.11400001 905167.49530076 21859.79604077
0.11500001 895861.71479932 18705.59348582
0.11600001 886597.14595678 18671.73677313
0.11700001 877376.35457472 20188.43086954
0.11800001 868199.26619896 24795.77221048
0.11900001 859067.87015711 21648.51134764
0.12000001 849983.70073154 21598.08685296
0.12100001 840949.57157407 26161.94240411
0.12200001 831964.14852269 16884.71318973
0.12300001 823030.65587837 19900.88219676
0.12400001 814148.74718387 16791.81870186
0.12500001 805319.21903196 18264.64074828
0.12600001 796545.58535518 18209.03293929
0.12700001 787827.08241994 16638.90876484
0.12800001 779164.06322793 18092.19040082
0.12900001 770559.10658896 24041.44525870
0.13000001 762012.47421025 19465.60957121
0.13100001 753524.00708763 16411.75364798
0.13200001 745095.39639741 16351.11924474
0.13300001 736728.75438527 19250.72325962
0.13400001 728422.23831223 14750.55102125
0.13500001 720179.06058970 14691.65352872
0.13600001 711997.75763560 16094.71007023
0.13700001 703880.77853725 16027.36608304
0.13800001 695826.41249366 17409.57766155
0.13900001 687838.48676053 15889.06979347
0.14000001 679915.05021362 15818.22438922
0.14100001 672057.29186780 15746.30309110
0.14200001 664265.37256235 18523.04078755
0.14300001 656541.25556282 19853.80850468
0.14400001 648881.63456416 21169.76432623
0.14500001 641291.19293349 14044.27778774
0.14600001 633767.61273627 16769.49182409
0.14700001 626313.92009895 15294.58665036
0.14800001 618925.52495196 16599.58336236
0.14900001 611606.86799521 16513.38621499
0.15000001 604356.18598933 16426.40191024
0.15100001 597174.51855968 14977.13763217
0.15200001 590062.12327992 14896.11900510
0.15300001 583019.57083451 20201.62908271
0.15400001 576043.52925736 14732.31395599
0.15500001 569138.50145552 14649.62571882
0.15600001 562299.97508594 13242.16503824
0.15700001 555533.96436347 14482.77113450
0.15800001 548833.20436838 14398.63979620
0.15900001 542203.68366458 15615.46682660
0.16000001 535640.70178260 14229.29591451
0.16100001 529149.24969432 16715.82558690
0.16200001 522725.13461638 14058.69315916
0.16300001 516368.89820352 15243.21059457
0.16400001 510081.33725378 17674.31917024
0.16500001 503860.91292802 21328.43345119
0.16600001 497709.28276317 13714.37993404
0.16700001 491623.39950352 16105.58332816
0.16800001 485604.25305301 12310.06839613
0.16900001 479653.90578755 14677.41021014
0.17000001 473768.47311587 19443.45905479
0.17100001 467949.07373150 15695.01267409
0.17200001 462195.95490137 16791.57983451
0.17300001 456508.03879124 11914.86037512
0.17400001 450885.41428682 15386.46548918
0.17500001 445326.71736066 12932.28848291
0.17600001 439830.77135932 11677.50753111
0.17700001 434400.57641847 16237.89431345
0.17800001 429031.77759473 16127.30528151
0.17900001 423726.41022401 12584.67497807
0.18000001 418483.04714381 14770.35984662
0.18100001 413303.02413769 12411.49040113
0.18200001 408181.45235180 12325.03953597
0.18300001 403121.68403162 14464.00670632
0.18400001 398121.63230049 16571.81372737
0.18500001 393182.79676531 13163.76065759
0.18600001 388300.99572581 11981.02778914
0.18700001 383477.54119063 14058.28732423
0.18800001 378711.90385019 11810.13127955
0.18900001 374005.63091200 11725.07708307
0.19000001 369351.84241041 11640.12386355
0.19100001 364758.80786198 15757.58124418
0.19200001 360218.03780045 15642.46903061
0.19300001 355734.15537391 15527.79661580
0.19400001 351303.12965573 11303.17873079
0.19500001 346926.30293675 11219.59716716
0.19600001 342602.36918790 12148.68058551
0.19700001 338330.73443563 11053.26561636
0.19800001 334111.26389698 11967.86603838
0.19900001 329943.40120962 10888.13275449
0.20000001 325824.58885865 10805.97300020
0.20100001 321757.32103299 13648.94620330
0.20200001 317737.85418497 16447.70079926
0.20300001 313768.70659845 10561.45516329
0.20400001 309846.88116087 12386.12965985
0.20500001 305972.19314302 12290.90357951
0.20600001 302144.57998764 13134.22551289
0.20700001 298363.65184791 12101.63029098
0.20800001 294626.83748160 10160.20697083
0.20900001 290937.82611628 10997.45034706
0.21000001 287290.64194302 10002.02417207
0.21100001 283688.24822217 9021.28671993
0.21200001 280128.66187361 10740.13340397
0.21300001 276610.84780178 8879.20863421
0.21400001 273136.00035191 8808.63642779
0.21500001 269703.60505830 10486.07666042
0.21600001 266310.63456721 12135.77619099
0.21700001 262958.18855214 13757.97307552
0.21800001 259645.57129881 8529.35742044
0.21900001 256371.27741763 10152.30306575
0.22000001 253135.12241761 9230.57267540
0.22100001 249938.64723320 11652.14028497
0.22200001 246779.29641375 11556.67499751
0.22300001 243655.85678210 9824.20461000
0.22400001 240567.95100934 12178.75309574
0.22500001 237518.53850731 8857.06671976
0.22600001 234501.98765008 10380.23097419
0.22700001 231522.68344638 7918.07614831
0.22800001 228575.85739983 9421.89728758
0.22900001 225662.22041391 7785.34697246
0.23000001 222783.26433318 8491.38452163
0.23100001 219937.64538222 9184.59650553
0.23200001 217122.43092858 9106.11518381
0.23300001 214339.92095048 9780.33105553
0.23400001 211589.46112810 10441.94040053
0.23500001 208868.04020619 8133.32187030
0.23600001 206178.91489004 8062.62684811
0.23700001 203519.11465364 8718.75928414
0.23800001 200889.20594336 8642.25404845
0.23900001 198288.02405844 8566.04304449
0.24000001 195715.62958448 8490.14441296
0.24100001 193172.77502327 7713.38927153
0.24200001 190657.41242579 9034.30191514
0.24300001 188169.50480482 7575.70462179
0.24400001 185708.73366728 7507.27591362
0.24500001 183274.83435374 8791.69421983
0.24600001 180867.60691102 11391.94676019
0.24700001 178486.84765621 7303.68215160
0.24800001 176131.97545886 7236.38255406
0.24900001 173801.61831591 7821.07319421
0.25000001 171497.54672865 8393.94782174
0.25100001 169216.93584601 7036.04052534
0.25200001 166962.73361431 8237.10685256
0.25300001 164732.43199996 7531.56714736
0.25400001 162525.62907621 6838.26616691
0.25500001 160341.99943562 8619.98629749
0.25600001 158182.52693344 7317.52404215
0.25700001 156045.63919612 7246.75982714
0.25800001 153932.09444527 11960.52430430
0.25900001 151841.14880919 7698.34660887
0.26000001 149772.51308400 8209.03183055
0.26100001 147725.17676692 8708.39958246
0.26200001 145700.84473532 6897.47831614
0.26300001 143697.06517777 6828.48486035
0.26400001 141715.25839819 6196.49996667
0.26500001 139755.08401910 6133.85092785
0.26600001 137814.82974125 9935.07154617
0.26700001 135896.32304619 6555.63893396
0.26800001 133998.73779561 7569.58905627
0.26900001 132120.16487024 6956.12700959
0.27000001 130262.84299655 5824.70330023
0.27100001 128425.02179869 6287.68936482
0.27200001 126608.45999694 6221.54001867
0.27300001 124810.65702962 7694.57737001
0.27400001 123030.50197428 6597.51098060
0.27500001 121272.51492212 5020.68235538
0.27600001 119531.19348539 7449.78198655
0.27700001 117810.92586261 7369.07376146
0.27800001 116108.30488757 5830.95934742
0.27900001 114425.48481398 6247.63176653
0.28000001 112759.98799786 9980.95081001
0.28100001 111113.74682802 7050.16756992
0.28200001 109486.23198326 5577.22892120
0.28300001 107876.51913187 5055.09392578
0.28400001 106284.55547481 5452.39795392
0.28500001 104711.15917955 5839.74162385
0.28600001 103155.24182111 5773.08338177
0.28700001 101617.01396287 5267.82625317
0.28800001 100095.57883975 4773.05790290
0.28900001 98593.79994404  4717.71355063
0.29000001 97107.50154503  5086.49117169
0.29100001 95639.58159265  5864.61942086
0.29200001 94188.52558357  6209.37884302
0.29300001 92754.68415726  4908.57811795
0.29400001 91337.17813679  4850.00438865
0.29500001 89937.72224837  5191.20557391
0.29600001 88554.15408105  4339.59652617
0.29700001 87187.41224163  5066.46076520
0.29800001 85837.02297770  4234.76972907
0.29900001 84504.15242715  4182.95574316
0.30000001 83186.52821003  4882.63350443
0.30100001 81886.48654803  5564.18702435
0.30200001 80601.16729134  4395.98787218
0.30300001 79333.33085302  4702.88007561
0.30400001 78081.18799619  3929.43597193
0.30500001 76844.87938971  4585.33417026
0.30600001 75623.69909994  4178.96581011
0.30700001 74419.54313214  3782.00136103
0.30800001 73230.57313029  3733.66094781
0.30900001 72057.17225889  3350.65866867
0.31000001 70899.93877975  4299.72699087
0.31100001 69756.97720947  4244.01469436
0.31200001 68630.15431277  3544.40448730
0.31300001 67518.21290352  4452.15116965
0.31400001 66422.57520975  3138.46682726
0.31500001 65340.80555990  3716.58519622
0.31600002 64274.66820721  5501.26911233
0.31700002 63223.30685031  4523.62781933
0.31800002 62186.92434660  3868.33781214
0.31900002 61165.56887143  3523.13693381
0.32000002 60158.85141844  2896.64883295
0.32100002 59166.03954435  3143.49182984
0.32200002 58189.21857620  3101.19455086
0.32300002 57224.76397602  3615.46075920
0.32400002 56275.62402503  3292.12416135
0.32500002 55340.68637683  3247.39163036
0.32600002 54420.20811500  2669.31133444
0.32700002 53513.00403080  2896.12391529
0.32800002 52620.71054721  2856.51540732
0.32900002 51741.48365803  3329.56463106
0.33000002 50876.96639611  2526.04150119
0.33100002 50023.92118189  2740.31053211
0.33200002 49187.13209196  3439.65631007
0.33300002 48362.45994882  2907.55122981
0.33400002 47551.64651117  2628.41738538
0.33500002 46753.17882475  2591.99635679
0.33600002 45968.87978427  3253.21777639
0.33700002 45196.54584420  2520.61148110
0.33800002 44438.48776655  2485.66693094
0.33900002 43691.89104265  3119.60116818
0.34000002 42958.86635934  2417.08073018
0.34100002 42238.07741665  2600.17616891
0.34200002 41530.51260879  2350.41947241
0.34300002 40834.15056705  4003.38031119
0.34400002 40151.64973482  2701.20236384
0.34500002 39480.14758661  3688.23556222
0.34600002 38821.73104947  2222.73831651
0.34700002 38173.78166493  1992.67149728
0.34800002 37539.21624080  2161.69586961
0.34900002 36915.53333919  2519.48526973
0.35000002 36303.81569694  3440.51277655
0.35100002 35703.98476417  3016.27277574
0.35200002 35114.46352642  2417.10421132
0.35300002 34536.53214415  2017.27893808
0.35400002 33970.12777857  1989.80032887
0.35500002 33414.98626027  2498.10449114
0.35600002 32869.67399075  2464.23957580
0.35700002 32335.58659740  2257.34740728
0.35800002 31812.65345176  1884.42261647
0.35900002 31300.32998941  2028.26147938
0.36000002 30798.63445419  2001.29536163
0.36100002 30306.24992664  1810.19239386
0.36200002 29825.37380488  1623.99168060
0.36300002 29353.50825277  1923.24195182
0.36400002 28891.67841886  1581.81946836
0.36500002 28439.46878124  2341.99036507
0.36600002 27997.43860411  1695.38497498
0.36700002 27564.42589921  1978.02329622
0.36800002 27142.28824396  1953.02344311
0.36900002 26728.49822656  2225.14758276
0.37000002 26323.46230790  1464.90074683
0.37100002 25927.50315723  1591.43021918
0.37200002 25541.39175097  1714.84912339
0.37300002 25163.29907290  1976.32560280
0.37400002 24794.22957433  1673.61057555
0.37500002 24433.95607049  2204.92030025
0.37600002 24082.44982261  2178.98016317
0.37700002 23738.56649481  1749.76981922
0.37800002 23402.97975069  2128.73513897
0.37900002 23076.18118454  1446.87662881
0.38000002 22757.09130997  1950.85174496
0.38100002 22444.88541118  2057.74719198
0.38200002 22141.46680685  1780.83825964
0.38300002 21844.98077182  1761.57933289
0.38400002 21556.83611487  1493.88881353
0.38500002 21274.87735522  1231.81545722
0.38600002 21001.58256901  1341.05611848
0.38700002 20734.19424070  1568.74921057
0.38800002 20474.42091415  1433.61902033
0.38900002 20220.76891656  1419.49804519
0.39000002 19975.22935405  1288.70198283
0.39100002 19735.17917094  1276.47144925
0.39200002 19502.24248810  1379.58869897
0.39300002 19275.25137349  1480.91763319
0.39400002 19056.12004002  1241.98268245
0.39500002 18841.84215273  1678.80821535
0.39600002 18633.81392930  1220.60803927
0.39700002 18431.67467387  1650.55654525
0.39800002 18235.74568353  1200.55037396
0.39900002 18045.17763932  1190.98178062
0.40000002 17860.29940794  1074.29706029
0.40100002 17681.21010306  1172.79472170
0.40200002 17507.65035202  1481.67251949
0.40300002 17338.94618567  1365.96224523
0.40400002 17175.79836677  1252.11576026
0.40500002 17017.93828919  1347.31023819
0.40600002 16864.82965347  1441.43705878
0.40700002 16716.89444752  1125.38138753
0.40800002 16573.58231257  1220.14718766
0.40900002 16434.97211138  1313.97608256
0.41000002 16301.49348980  1105.48583339
0.41100002 16171.93167167  1299.25305206
0.41200002 16046.76691076  1093.50698295
0.41300002 15926.59566496  1780.27494778
0.41400002 15810.08452068  1181.01336965
0.41500002 15698.00274879  1175.46650153
0.41600002 15589.33394949  1462.66932712
0.41700002 15485.19809326  1068.01416310
0.41800002 15385.65176679  1450.48238904
0.41900002 15288.07676832  1444.72332306
0.42000002 15195.53892355  1151.51799419
0.42100002 15106.69208091  1243.12975024
0.42200002 15021.33113460  1143.72420678
0.42300002 14938.86057792  1045.12273556
0.42400002 14859.82172047  1042.04504753
0.42500002 14784.40401557  1133.66815363
0.42600002 14711.31880526  1036.48601554
0.42700002 14642.56949741  940.05300628
0.42800002 14576.25899243  937.98231061
0.42900002 14513.67382609  1123.35840737
0.43000002 14453.49459094  1214.74401046
0.43100002 14395.31095503  1399.22429113
0.43200002 14340.96195954  1210.87918043
0.43300002 14288.94247960  1116.25223940
0.43400002 14239.67099166  1114.96629148
0.43500002 14192.68587695  1392.30255051
0.43600002 14148.66318428  1483.91186509
0.43700002 14106.33810750  1760.89426941
0.43800002 14066.23561475  1018.88782504
0.43900002 14029.29904604  1018.52715901
0.44000002 13994.03386258  1018.27592227
0.44100002 13961.24668312  1018.19376885
0.44200002 13930.30979887  1481.07060800
0.44300002 13901.49269107  1111.00734852
0.44400002 13874.99072964  1204.00237762
0.44500002 13849.12354083  1204.45833143
0.44600002 13825.58261097  927.00535800
0.44700002 13804.93293783  1205.99899860
0.44800002 13784.46752393  1206.89911125
0.44900002 13767.32712936  1115.15355033
0.45000002 13751.14843318  1395.39785339
0.45100002 13736.24712452  1117.58111902
0.45200002 13723.17394611  1398.73457075
0.45300002 13711.12051688  933.72735145
0.45400002 13701.02733767  1215.62370815
0.45500002 13692.24556899  1123.85956957
0.45600002 13684.70918923  1125.70423126
0.45700002 13678.50325013  1127.65586138
0.45800002 13673.16105497  941.39718325
0.45900002 13668.99934990  1037.47709983
0.46000002 13666.85031587  1417.59411620
0.46100002 13664.64597055  1136.35201277
0.46200002 13664.50204590  1138.79965448
0.46300002 13665.27678218  1141.32397094
0.46400002 13666.33538203  1334.51771331
0.46500002 13668.94909872  1242.09746347
0.46600002 13672.12148273  1245.05180184
0.46700002 13675.80886428  1248.05437611
0.46800002 13681.47679033  1251.23951916
0.46900002 13686.85659120  1254.40046604
0.47000002 13693.39991016  967.43874951
0.47100002 13700.53900467  1163.99784901
0.47200002 13708.73490342  1167.16174500
0.47300002 13717.64622973  1072.85716248
0.47400002 13726.41584941  1075.80789319
0.47500002 13736.20970607  1569.22467120
0.47600002 13747.08845386  1180.32507059
0.47700002 13757.60824371  1183.70466939
