# SAXS profile: number of points = 501, q_min = 0, q_max = 0.5, delta_q = 0.001
#    q    intensity    error
0.00000000 1682732.95097188 277.65093691
0.00100000 1682645.72750579 605.75247629
0.00200000 1682384.02635370 908.48740300
0.00300000 1681948.06429690 1412.83642434
0.00400000 1681337.71988820 1387.10367161
0.00500000 1680553.64475042 1814.99800817
0.00600000 1679595.68181533 1939.93309148
0.00700000 1678464.60004551 2416.98912452
0.00800000 1677160.16380897 2490.58294841
0.00900000 1675683.77625015 2513.52577182
0.01000000 1674034.84847431 3590.80490503
0.01100000 1672215.00943998 4213.98200726
0.01200000 1670224.02802499 3256.93699745
0.01300000 1668063.43643185 5254.40005650
0.01400000 1665733.21055676 5621.84983485
0.01500000 1663235.17245952 5189.29396915
0.01600000 1660568.69955314 4234.45037316
0.01700000 1657736.23471147 4475.88803450
0.01800000 1654738.13038485 6130.80504895
0.01900000 1651575.42992712 6936.61711869
0.02000000 1648248.98361796 5711.18298659
0.02100000 1644761.37263106 9227.11171880
0.02200000 1641111.34236590 9058.93502143
0.02300000 1637302.08330604 8841.43165230
0.02400000 1633334.15148808 7962.50435158
0.02500000 1629209.83328121 8260.09423198
0.02600000 1624929.66457675 8555.25507530
0.02700000 1620495.52801623 9528.51414115
0.02800000 1615908.01252605 8435.04021221
0.02900000 1611170.29427492 10150.37331998
0.03000000 1606283.17144959 9709.98221773
0.03100000 1601248.25096139 8454.59115410
0.03200000 1596066.65012837 7900.53028202
0.03300000 1590742.74127680 11357.90369632
0.03400000 1585274.78795035 9987.23162490
0.03500000 1579667.25063146 8530.20354732
0.03600000 1573920.34831464 12229.36167157
0.03700000 1568037.44913450 12512.93942279
0.03800000 1562020.00939086 11879.16272118
0.03900000 1555870.31549020 13069.31125536
0.04000000 1549588.90475396 13341.96108818
0.04100000 1543179.60894478 13610.84478198
0.04200000 1536644.14959449 10902.49074717
0.04300000 1529984.11280066 10097.89561321
0.04400000 1523202.61979324 11309.77997721
0.04500000 1516301.72741707 10462.48240532
0.04600000 1509282.30545436 12768.52889771
0.04700000 1502148.42743049 14060.10993466
0.04800000 1494901.61935539 10987.52741349
0.04900000 1487544.70345918 12272.24437478
0.05000000 1480079.14109351 12454.86655228
0.05100000 1472509.00705483 16079.79910610
0.05200000 1464833.72367082 17468.14296881
0.05300000 1457058.69360158 15342.82875887
0.05400000 1449184.82574714 13151.35290695
0.05500000 1441215.78769125 16948.69845389
0.05600000 1433152.32395663 13478.79823579
0.05700000 1424999.61419571 16116.74638886
0.05800000 1416756.77876066 16299.78750072
0.05900000 1408428.14249317 12675.85387447
0.06000000 1400017.13219568 19215.23603710
0.06100000 1391525.23554977 19411.77794306
0.06200000 1382955.39700733 14375.82202387
0.06300000 1374310.82528758 21109.41526339
0.06400000 1365590.89287732 13314.51182823
0.06500000 1356802.10344439 21491.74632390
0.06600000 1347945.81172586 14901.54164585
0.06700000 1339023.16321301 19121.25166554
0.06800000 1330038.23362207 17895.66527106
0.06900000 1320994.87577386 16644.53621403
0.07000000 1311892.37753186 16765.98536998
0.07100000 1302735.45294933 15476.49790592
0.07200000 1293526.21764469 15580.52402143
0.07300000 1284267.69694837 19957.52094570
0.07400000 1274963.09454696 15777.66903443
0.07500000 1265612.92441306 14427.98801458
0.07600000 1256220.51601435 23214.95622428
0.07700000 1246789.70075789 20422.41625599
0.07800000 1237321.83591375 16128.49088750
0.07900000 1227818.38788050 19153.96774933
0.08000000 1218285.32329689 17762.60084693
0.08100000 1208722.93440404 16354.02206979
0.08200000 1199132.49356822 16422.12027003
0.08300000 1189518.10240840 23980.68607001
0.08400000 1179882.23340118 18052.19901838
0.08500000 1170226.94822174 19624.70684296
0.08600000 1160554.86881459 27261.43514842
0.08700000 1150868.13927794 19748.89819737
0.08800000 1141168.50761609 16758.06032136
0.08900000 1131459.76398230 18329.64903745
0.09000000 1121743.68537377 22967.70303695
0.09100000 1112021.77999611 19949.67167039
0.09200000 1102296.72170790 19990.15198744
0.09300000 1092572.38688967 18486.32565489
0.09400000 1082847.44473786 21602.80753780
0.09500000 1073126.51540588 18543.62705781
0.09600000 1063411.07488894 21661.68461376
0.09700000 1053705.97730606 23234.21789190
0.09800000 1044009.72638951 17053.89968241
0.09900000 1034326.69832585 15514.90120444
0.10000000 1024656.12417241 18628.24921349
0.10100000 1015002.25336632 15529.53520689
0.10200000 1005366.77878988 20192.79270179
0.10300000 995750.98609926 20193.83094803
0.10400000 986157.58041266 24851.17219552
0.10500000 976589.89594743 15527.78007614
0.10600001 967044.51902122 18625.27831273
0.10700001 957529.26360396 21716.76472048
0.10800001 948041.57194350 21700.67260306
0.10900001 938586.01539655 18584.00397952
0.11000001 929163.07383558 23205.84886133
0.11100001 919774.01323254 16997.42456466
0.11200001 910421.53394084 24690.63316284
0.11300001 901105.74045419 21572.47244212
0.11400001 891829.42835069 18460.87003608
0.11500001 882594.27075293 26107.13975820
0.11600001 873400.99969013 19926.64474631
0.11700001 864251.36030777 16826.97477766
0.11800001 855145.71700555 21370.09247446
0.11900001 846085.88633459 19798.41067277
0.12000001 837073.30557670 16712.16933306
0.12100001 828110.97508042 16669.87471366
0.12200001 819197.70353643 18137.03801076
0.12300001 810336.01755548 16579.47570032
0.12400001 801526.27023031 16531.48010242
0.12500001 792769.13543476 16481.67110231
0.12600001 784067.91607928 16430.14395569
0.12700001 775421.58126258 20843.33308661
0.12800001 766831.24455809 16322.00380966
0.12900001 758298.82891921 22180.24179129
0.13000001 749824.64414730 19154.27143758
0.13100001 741408.87261847 19083.86528077
0.13200001 733052.92813563 16086.84726628
0.13300001 724758.96505249 16024.42147275
0.13400001 716525.19759342 17411.56312240
0.13500001 708354.69338803 18785.56735436
0.13600001 700246.33454502 15829.06913874
0.13700001 692202.08575010 14328.58385067
0.13800001 684220.53290215 15692.59866211
0.13900001 676305.18493981 17042.89146420
0.14000001 668454.38860943 14137.81098584
0.14100001 660669.24809467 18293.93234254
0.14200001 652949.98969992 18207.51132155
0.14300001 645298.48166554 15332.29264756
0.14400001 637711.27737269 15257.24303082
0.14500001 630193.25749470 15181.35628918
0.14600001 622742.08690136 15104.61003034
0.14700001 615360.80450731 19125.41470636
0.14800001 608044.48231708 17666.73326722
0.14900001 600797.90415842 14869.74882949
0.15000001 593619.35347562 14790.02688968
0.15100001 586509.55902285 13372.41857670
0.15200001 579468.95504108 13298.81314572
0.15300001 572498.11917346 14547.17789466
0.15400001 565593.74833948 15780.06632335
0.15500001 558760.03272368 14382.48392106
0.15600001 551992.83463175 14299.37505599
0.15700001 545297.98241728 12923.56279324
0.15800001 538668.20739722 12847.23735280
0.15900001 532109.50817536 19155.94319848
0.16000001 525617.16842284 13963.02073824
0.16100001 519196.44011422 13878.12149936
0.16200001 512842.49204090 16300.69937901
0.16300001 506556.47510053 13707.41886332
0.16400001 500338.86184716 13621.72615687
0.16500001 494188.27285562 15996.87514757
0.16600001 488106.18495791 17117.88471466
0.16700001 482089.66061898 15793.25802755
0.16800001 476139.54494972 15691.17944470
0.16900001 470258.27770945 13190.74531259
0.17000001 464441.50122381 13104.21757581
0.17100001 458690.75218827 14201.06635834
0.17200001 453006.02835591 12931.05769006
0.17300001 447386.15285053 11676.77914083
0.17400001 441831.14017309 11598.06797727
0.17500001 436340.14388510 13823.25641112
0.17600001 430911.74802636 13728.84894052
0.17700001 425548.51687096 14770.78971822
0.17800001 420246.58320245 16925.43193790
0.17900001 415007.69431178 14566.77075838
0.18000001 409830.76071794 14464.97738279
0.18100001 404716.72870649 13258.52065871
0.18200001 399661.13520342 12067.76854752
0.18300001 394666.77196910 14160.64444719
0.18400001 389731.97036045 16222.59403262
0.18500001 384858.03135111 16106.30937294
0.18600001 380040.96708652 15990.22444560
0.18700001 375281.90954494 13757.83545390
0.18800001 370580.43240721 11556.55133062
0.18900001 365937.87854794 14600.92204392
0.19000001 361347.71884454 11387.87389745
0.19100001 356817.78271266 13359.25841599
0.19200001 352339.86845399 14280.33554321
0.19300001 347918.80441789 12149.32522436
0.19400001 343549.83729131 11053.71653718
0.19500001 339235.25049582 12965.57188664
0.19600001 334972.93017244 10888.29560980
0.19700001 330762.67636267 10806.01714743
0.19800001 326604.31329238 10724.05313376
0.19900001 322497.08627780 12577.38695924
0.20000001 318438.74028050 11521.11416785
0.20100001 314431.58667989 9527.27752668
0.20200001 310471.81607817 15126.18759424
0.20300001 306562.11320062 10318.88121805
0.20400001 302699.36165245 12100.40755399
0.20500001 298883.46800304 11082.59951739
0.20600001 295114.36408279 11912.29186927
0.20700001 291391.55538969 11818.84204527
0.20800001 287712.63414534 12627.70810955
0.20900001 284080.82312034 8948.54635130
0.21000001 280490.93254788 11540.79996524
0.21100001 276945.28098190 14090.97656249
0.21200001 273442.16449791 9610.12532559
0.21300001 269980.43640615 10399.64690201
0.21400001 266561.45609023 12894.91104799
0.21500001 263184.39319895 9379.89221707
0.21600001 259846.55408686 10149.60688249
0.21700001 256548.93188978 9228.06551637
0.21800001 253290.70823948 14145.02027042
0.21900001 250070.43696611 9077.55729107
0.22000001 246887.96167949 9002.76994832
0.22100001 243744.81741716 9740.04336453
0.22200001 240638.69608704 12878.98362355
0.22300001 237567.80495314 7982.27862387
0.22400001 234532.31621152 7915.46604643
0.22500001 231534.93409528 7849.03463699
0.22600001 228570.04841811 7782.81051667
0.22700001 225641.99856987 10803.73940242
0.22800001 222746.27870546 9946.73554597
0.22900001 219883.29622967 9103.16889441
0.23000001 217054.63734670 11281.41530961
0.23100001 214258.93957762 8201.83259492
0.23200001 211493.44823344 10348.37491147
0.23300001 208760.19552433 9525.72817229
0.23400001 206058.70149798 10168.99739987
0.23500001 203385.99121678 7919.85087256
0.23600001 200745.13011396 8563.78765570
0.23700001 198133.34996140 9195.36920663
0.23800001 195551.02855337 7010.50470523
0.23900001 192997.20462434 9727.05957315
0.24000001 190471.77955241 9639.77721911
0.24100001 187975.56365312 11599.97258173
0.24200001 185506.40207683 10142.56301331
0.24300001 183064.73560782 8040.20356822
0.24400001 180649.54715619 7302.75828924
0.24500001 178260.97750897 11840.09468623
0.24600001 175898.91524697 7168.76063001
0.24700001 173562.93649691 7747.84985174
0.24800001 171252.32402914 9594.41190761
0.24900001 168966.04957177 7603.47259043
0.25000001 166705.60526413 6276.46633512
0.25100001 164468.55620650 7460.29406247
0.25200001 162257.50547590 8620.74167378
0.25300001 160069.97139865 9147.99929823
0.25400001 157905.77538722 9059.84429147
0.25500001 155764.45693756 6579.49097233
0.25600001 153646.87947673 9476.93997450
0.25700001 151551.50036708 6451.54767587
0.25800001 149479.32520468 7549.45367666
0.25900001 147429.39062526 7474.67045836
0.26000001 145401.42620932 6830.95932652
0.26100001 143394.57238865 7326.02904998
0.26200001 141410.36338069 6136.50300926
0.26300001 139446.51768934 7730.91530650
0.26400001 137504.26348928 6012.37420556
0.26500001 135583.33544363 8114.66301028
0.26600001 133682.05796817 7495.55334496
0.26700001 131802.28053783 7417.83269968
0.26800001 129943.08324213 5243.20365693
0.26900001 128102.80238194 5188.16374198
0.27000001 126283.34519609 5646.76004766
0.27100001 124483.07013937 5078.90950203
0.27200001 122703.85073150 6029.66751029
0.27300001 120943.11854956 7953.21985220
0.27400001 119199.70074280 6392.08425484
0.27500001 117478.29033536 4863.60145006
0.27600001 115773.36631611 4810.38359809
0.27700001 114089.06757170 5233.26577719
0.27800001 112422.27210334 5175.35954121
0.27900001 110775.00210510 6048.31540119
0.28000001 109144.73134489 5060.49570831
0.28100001 107533.43064479 6822.99649734
0.28200001 105940.79084825 5396.62414123
0.28300001 104365.61129517 4890.57277676
0.28400001 102807.98547059 5274.04990427
0.28500001 101268.62953962 5647.75173674
0.28600001 99746.53019596  6870.54132509
0.28700001 98241.86250577  5092.85839336
0.28800001 96753.93216287  5452.56810513
0.28900001 95285.15721863  5388.37589576
0.29000001 93831.80643627  6143.63781722
0.29100001 92396.55712637  6070.45409055
0.29200001 90977.96888509  5597.87469048
0.29300001 89576.39412044  4740.38300124
0.29400001 88190.87943797  5073.18057982
0.29500001 86823.23539729  5782.42775118
0.29600001 85471.16857407  4569.28888827
0.29700001 84135.90079855  5641.31241559
0.29800001 82816.73281455  6685.79515661
0.29900001 81514.72872112  4401.79555932
0.30000001 80227.92628290  4708.97835610
0.30100001 78958.51453799  4649.86714127
0.30200001 77703.42787322  4237.94515683
0.30300001 76465.69535273  4184.20304779
0.30400001 75243.64140446  5163.59513583
0.30500001 74037.20921732  3738.13887035
0.30600001 72845.52488545  4360.89755372
0.30700001 71670.75248358  4304.54559796
0.30800001 70510.93490120  4248.63658362
0.30900001 69366.65432939  3225.54957903
0.31000001 68238.08756230  3501.63762904
0.31100001 67123.82432289  3769.67415245
0.31200001 66025.57231645  3099.90076702
0.31300001 64941.79738684  3670.51056209
0.31400001 63874.25504308  4225.28217115
0.31500001 62820.52742729  3275.46245514
0.31600002 61782.19167365  4406.61502977
0.31700002 60758.51162272  3477.81736995
0.31800002 59749.45346610  4860.31952233
0.31900002 58755.29384122  3384.30508550
0.32000002 57775.69436408  3338.27977842
0.32100002 56809.85923793  3292.69959734
0.32200002 55859.78063134  3518.32844966
0.32300002 54922.00495228  2669.20956707
0.32400002 53999.26853779  2895.71091245
0.32500002 53090.56242797  2855.74148823
0.32600002 52196.18496808  3328.28989209
0.32700002 51314.99486680  3029.63744040
0.32800002 50448.55157031  2987.56336546
0.32900002 49595.02051922  2454.95363195
0.33000002 48756.07587371  2904.88713811
0.33100002 47928.26848309  2864.19346018
0.33200002 47116.79074734  3765.57409485
0.33300002 46317.27001290  3016.64393879
0.33400002 45531.35209804  2516.74560640
0.33500002 44757.61360013  2255.78383227
0.33600002 43998.00389491  2668.91904266
0.33700002 43250.17659512  2412.06246294
0.33800002 42516.30159055  2378.14944209
0.33900002 41793.99842695  2770.94222693
0.34000002 41085.00037349  2521.79744235
0.34100002 40388.20486450  2071.91500767
0.34200002 39704.40942802  2247.07115800
0.34300002 39031.70056456  2819.65018232
0.34400002 38372.64256373  3177.25495475
0.34500002 37724.56025012  2153.69524668
0.34600002 37089.48048436  3088.81208103
0.34700002 36464.62452467  2474.48953744
0.34800002 35852.99656784  2252.28535106
0.34900002 35252.20734354  2035.81507051
0.35000002 34663.07639453  1825.01105861
0.35100002 34085.96028462  2159.68654592
0.35200002 33518.79367304  1774.82020905
0.35300002 32963.19352724  2100.41479104
0.35400002 32419.03516692  1898.94507484
0.35500002 31885.86018040  1702.70501428
0.35600002 31362.48215138  1847.40709863
0.35700002 30850.24838044  2319.32178310
0.35800002 30349.10050133  1961.15896729
0.35900002 29858.18536236  2257.27892031
0.36000002 29377.86800452  1590.81162779
0.36100002 28906.80522186  1883.56751747
0.36200002 28447.06319803  2013.62546385
0.36300002 27996.20625660  1834.31152082
0.36400002 27555.26157106  1810.38077097
0.36500002 27123.84454375  1786.91896318
0.36600002 26702.44592867  2057.95760520
0.36700002 26289.92625405  1741.44479756
0.36800002 25888.16428698  1862.78294951
0.36900002 25494.62303179  1556.44680982
0.37000002 25109.74152846  1537.09290048
0.37100002 24733.81860077  1794.19128629
0.37200002 24367.56434497  2181.38446349
0.37300002 24009.25750104  1481.61135057
0.37400002 23659.71955037  1597.03114530
0.37500002 23319.03870512  1315.19384527
0.37600002 22986.80768785  1689.87524722
0.37700002 22662.20972536  1413.44208753
0.37800002 22345.70223973  1524.42387901
0.37900002 22037.83457046  1507.38795603
0.38000002 21737.60805265  1242.30435906
0.38100002 21444.17766259  1597.37686976
0.38200002 21159.31484637  1823.40404327
0.38300002 20881.34066101  1323.04180696
0.38400002 20611.52884438  1428.37901658
0.38500002 20347.72147858  1649.38638119
0.38600002 20092.41563011  1749.54717388
0.38700002 19843.17757816  1501.33488669
0.38800002 19601.05222658  1258.09359677
0.38900002 19365.19673063  1132.86406241
0.39000002 19137.10480334  1122.39124989
0.39100002 18914.47453535  1112.17115537
0.39200002 18698.84747638  1212.52682205
0.39300002 18489.05756818  1311.24402486
0.39400002 18286.90633790  1841.94872815
0.39500002 18089.48888878  1396.87039817
0.39600002 17898.12088455  1172.41646409
0.39700002 17712.61511094  1268.93180667
0.39800002 17533.13295502  1364.16547420
0.39900002 17358.96768731  1562.30716588
0.40000002 17190.24869332  1344.19156026
0.40100002 17027.18833919  1129.41345605
0.40200002 16869.61165226  1427.67530177
0.40300002 16716.63425761  1215.63370081
0.40400002 16569.16723490  1409.20774010
0.40500002 16426.80214211  1500.58844678
0.40600002 16289.16424152  1491.68028609
0.40700002 16156.30633562  1285.39579297
0.40800002 16028.17644006  1081.66153831
0.40900002 15904.47983444  1075.93811178
0.41000002 15785.70651712  1167.82662347
0.41100002 15670.89417948  1452.69195927
0.41200002 15560.23936065  1156.74824888
0.41300002 15454.38601820  1343.60438409
0.41400002 15352.14002532  1242.37199042
0.41500002 15254.15012980  1332.60261848
0.41600002 15159.46001666  1327.51397656
0.41700002 15069.06167123  1322.76229618
0.41800002 14983.23737807  1130.03581660
0.41900002 14899.09040908  1595.69265842
0.42000002 14819.88648499  1029.46346346
0.42100002 14744.24671721  1119.97303371
0.42200002 14671.98780829  1117.12520466
0.42300002 14602.50748036  1393.07927964
0.42400002 14536.16564687  1204.68478507
0.42500002 14473.39257191  1294.78976084
0.42600002 14412.76683239  1200.07908717
0.42700002 14356.38287339  1106.01578898
0.42800002 14302.03785512  920.33617959
0.42900002 14251.60738202  1103.07446364
0.43000002 14203.30015690  1101.89207839
0.43100002 14156.78279679  1100.83148244
0.43200002 14113.97446148  916.70268471
0.43300002 14073.41756716  1007.79747974
0.43400002 14035.41467102  1098.97302082
0.43500002 13999.48646515  1007.12310403
0.43600002 13966.38469116  1281.69518385
0.43700002 13934.92323293  1007.07694977
0.43800002 13905.49589418  1098.81233763
0.43900002 13879.03467872  1190.82123187
0.44000002 13854.02999289  916.44412746
0.44100002 13831.49428987  1100.43373785
0.44200002 13810.61825736  1009.48718936
0.44300002 13791.66990437  918.52525916
0.44400002 13774.90494314  1930.89739191
0.44500002 13758.60380499  1012.49570199
0.44600002 13744.46606137  1013.72314240
0.44700002 13733.10346839  922.86459681
0.44800002 13721.74587474  1293.82347985
0.44900002 13713.47503831  1295.92345254
0.45000002 13706.14310964  927.22062531
0.45100002 13699.81336631  1021.73212928
0.45200002 13695.20848266  1488.94313680
0.45300002 13691.57433196  1118.87550743
0.45400002 13689.65401453  1027.75082385
0.45500002 13688.89299423  1217.21642274
0.45600002 13689.20361809  1126.07394299
0.45700002 13690.63616524  1222.71077387
0.45800002 13692.83641921  1131.30219857
0.45900002 13696.17082883  1134.04299837
0.46000002 13701.28007982  1042.18791867
0.46100002 13706.17577326  1139.80563133
0.46200002 13713.00205438  1619.02566428
0.46300002 13720.48862510  1050.44065892
0.46400002 13728.18067070  1915.08129433
0.46500002 13737.26337728  1248.30518226
0.46600002 13746.81251549  1059.26068859
0.46700002 13756.76223142  1062.29722986
0.46800002 13768.42686393  968.60887579
0.46900002 13779.65017034  1068.61192136
0.47000002 13791.87851585  1071.83588966
0.47100002 13804.66537731  1270.58146155
0.47200002 13818.27483220  1078.44731039
0.47300002 13832.45093385  1376.88223122
0.47400002 13846.32633568  1381.17111745
0.47500002 13861.10946592  1088.65158905
0.47600002 13876.82581383  1092.17562744
0.47700002 13892.02089993  1294.87532946
