# SAXS profile: number of points = 501, q_min = 0, q_max = 0.5, delta_q = 0.001
#    q    intensity    error
0.00000000 1682732.95097188 302.89193117
0.00100000 1682645.83510690 656.23189128
0.00200000 1682384.46009735 908.48763722
0.00300000 1681949.03499202 1412.83723972
0.00400000 1681339.45521062 1387.10510326
0.00500000 1680556.35295896 1663.75085528
0.00600000 1679599.58279752 2469.01148723
0.00700000 1678469.90490223 3021.24595439
0.00800000 1677167.08502473 3169.84592453
0.00900000 1675692.55545996 3518.95451689
0.01000000 1674045.66993492 3314.61056959
0.01100000 1672228.09949143 3311.01178115
0.01200000 1670239.59460796 4234.05755797
0.01300000 1668081.68277435 5254.45753249
0.01400000 1665754.34795680 6746.30540830
0.01500000 1663259.45328603 4391.00515220
0.01600000 1660596.27363693 5504.87689319
0.01700000 1657767.35041701 5818.76366099
0.01800000 1654772.97998063 6130.93416671
0.01900000 1651614.23178314 7432.26437839
0.02000000 1648291.95063785 6230.54385525
0.02100000 1644808.70971978 8684.59038107
0.02200000 1641163.25361976 7360.61752689
0.02300000 1637358.76455844 9431.18691315
0.02400000 1633395.74641110 6737.75776117
0.02500000 1629276.71338469 7625.01536688
0.02600000 1625001.82928153 7897.50925153
0.02700000 1620573.32596083 6806.40828078
0.02800000 1615991.53241094 8435.47618603
0.02900000 1611259.77607609 7975.73625778
0.03000000 1606378.80895823 7469.66180500
0.03100000 1601350.18414608 10761.07373261
0.03200000 1596175.15924709 11851.60110327
0.03300000 1590858.08132705 9736.05190656
0.03400000 1585397.03061396 9155.66827424
0.03500000 1579796.58238110 11090.17252044
0.03600000 1574056.93944135 10483.21970115
0.03700000 1568181.51250740 10726.36204162
0.03800000 1562171.71146907 10052.57542853
0.03900000 1556029.90091668 11203.41580543
0.04000000 1549756.45910798 10484.10293169
0.04100000 1543355.29654012 11667.76658284
0.04200000 1536828.19078617 9912.54229044
0.04300000 1530176.63230780 13128.91611462
0.04400000 1523403.91658148 14396.16768028
0.04500000 1516511.83788034 12556.71860110
0.04600000 1509501.43959245 11706.18420822
0.04700000 1502376.66503026 11898.82374043
0.04800000 1495139.27140324 10989.27415612
0.04900000 1487791.81337028 15621.81476754
0.05000000 1480335.86353106 11324.56988335
0.05100000 1472775.49133887 16082.70911462
0.05200000 1465110.17973664 12812.38911887
0.05300000 1457345.16529566 16526.29494487
0.05400000 1449481.62447760 11958.22395960
0.05500000 1441522.93025074 15741.43113266
0.05600000 1433470.07891133 15933.02067060
0.05700000 1425327.94592057 14880.42445001
0.05800000 1417095.91266388 15049.55929519
0.05900000 1408778.15411658 19018.50596885
0.06000000 1400378.17390791 17938.84524584
0.06100000 1391897.44180376 16828.04085780
0.06200000 1383338.86991123 14379.80822489
0.06300000 1374705.80688757 15836.61163579
0.06400000 1365997.37599870 13318.47503885
0.06500000 1357220.16594802 24185.66448855
0.06600000 1348375.53918464 13551.17480285
0.06700000 1339464.75401928 16395.04935647
0.06800000 1330491.85767074 15147.65050863
0.06900000 1321460.56961691 15262.87029367
0.07000000 1312370.19289688 18169.76617152
0.07100000 1303225.48117245 15482.31944149
0.07200000 1294028.55273518 19837.45864275
0.07300000 1284782.57923058 17113.30475721
0.07400000 1275490.41212123 15784.19458971
0.07500000 1266152.95574018 15877.55880920
0.07600000 1256773.12628358 15967.30331799
0.07700000 1247355.13299438 23350.48918452
0.07800000 1237899.99093494 17602.93869661
0.07900000 1228409.52801329 17689.09803308
0.08000000 1218889.41467123 16290.45779128
0.08100000 1209339.99773851 19337.34747111
0.08200000 1199762.79241540 16430.75221315
0.08300000 1190161.49267471 14996.03551150
0.08400000 1180538.74255078 18062.24360884
0.08500000 1170896.73108261 16615.02539406
0.08600000 1161238.03626063 19700.40421013
0.08700000 1151564.52294252 16720.71765829
0.08800000 1141878.31069641 16768.48378009
0.08900000 1132183.07566034 18341.36668719
0.09000000 1122480.31489602 19918.41412351
0.09100000 1112771.98875220 18427.50499948
0.09200000 1103060.40414701 20004.00136913
0.09300000 1093349.56619364 18499.47552933
0.09400000 1083638.21420635 21618.58338944
0.09500000 1073930.94159016 24743.37005724
0.09600000 1064229.01407298 20129.89274745
0.09700000 1054537.41473537 18602.04087047
0.09800000 1044854.93344870 18619.31578949
0.09900000 1035185.49268667 18633.33974455
0.10000000 1025528.42900419 17090.43207307
0.10100000 1015888.20328364 24868.94438601
0.10200000 1006266.44186680 15546.81725811
0.10300000 996664.06247610 17102.75611662
0.10400000 987084.40704144 21765.21219921
0.10500000 977530.21757984 18651.27742895
0.10600001 967998.37021324 23304.56185945
0.10700001 958496.57478442 24844.23238752
0.10800001 949022.40213392 26378.07890871
0.10900001 939580.29064782 15503.07552535
0.11000001 930170.82729638 20133.54850451
0.11100001 920795.18326426 15469.35980703
0.11200001 911455.92105612 16994.09644812
0.11300001 902153.52190676 20054.87373619
0.11400001 892890.44064539 23103.54123952
0.11500001 883668.66857493 18451.00266867
0.11600001 874488.43418326 26090.36366249
0.11700001 865351.80475645 27570.10979795
0.11800001 856259.21693206 22926.34161315
0.11900001 847212.35532060 16774.80542547
0.12000001 838212.71276737 18256.27374403
0.12100001 829263.42794382 22763.28216939
0.12200001 820362.87814743 22703.54372232
0.12300001 811513.85485248 15094.15841141
0.12400001 802716.77812073 18061.12835871
0.12500001 793972.17325747 15006.07478166
0.12600001 785283.23601470 23935.43416165
0.12700001 776649.47351556 22367.50589135
0.12800001 768071.40243752 16348.40057137
0.12900001 759551.03997628 17773.49517315
0.13000001 751088.96390517 19186.56848731
0.13100001 742685.19574453 14705.16756891
0.13200001 734341.24823659 17580.13031152
0.13300001 726059.05422794 21890.68151696
0.13400001 717837.06919633 15989.82147020
0.13500001 709678.07928501 15925.17685000
0.13600001 701581.22110665 14417.49477354
0.13700001 693548.20110276 14356.44843978
0.13800001 685578.00826729 18582.59279036
0.13900001 677673.66709731 21346.72152024
0.14000001 669834.05938458 19833.78743375
0.14100001 662059.77522094 15512.06126502
0.14200001 654351.20517984 15439.41741442
0.14300001 646710.37829207 15365.83931299
0.14400001 639133.81260865 22241.85772793
0.14500001 631626.08622662 16599.13432905
0.14600001 624185.04372191 16515.93703601
0.14700001 616813.71231978 16431.91807140
0.14800001 609507.43358007 13622.49178321
0.14900001 602270.68658759 14906.20019633
0.15000001 595101.62153924 17522.76807300
0.15100001 588001.45750085 13406.43386360
0.15200001 580970.12384153 21333.22395411
0.15300001 574008.50066502 13259.59699107
0.15400001 567113.08165514 21096.60763314
0.15500001 560288.19186763 15732.89317013
0.15600001 553529.86438419 22160.56916649
0.15700001 546843.52354404 15552.23054361
0.15800001 540222.10375158 18038.01689564
0.15900001 533671.62314393 12808.11956001
0.16000001 527187.34357213 15277.88993787
0.16100001 520774.57990786 15185.78746695
0.16200001 514428.43148461 15093.33089225
0.16300001 508149.98754010 15000.58834033
0.16400001 501939.72466280 14907.61052627
0.16500001 495796.28087840 16048.92636972
0.16600001 489721.26208247 17174.52547209
0.16700001 483711.54904498 15846.39109490
0.16800001 477768.23651534 13322.56790427
0.16900001 471893.49342664 18049.92697585
0.17000001 466083.04562547 14346.03682177
0.17100001 460338.43344362 13064.40535805
0.17200001 454659.68629066 12978.26135804
0.17300001 449045.52744671 16408.12434777
0.17400001 443496.18739425 13970.13056267
0.17500001 438010.51059934 17345.21703891
0.17600001 432587.30946496 13782.23233048
0.17700001 427229.12007483 13688.42165371
0.17800001 421931.88093020 12461.75869187
0.17900001 416697.85238567 14626.09530958
0.18000001 411525.23263301 13407.49271249
0.18100001 406415.51881169 14423.68744395
0.18200001 401363.91500258 14322.67198344
0.18300001 396373.47822400 14221.88107051
0.18400001 391442.32580996 20638.79760332
0.18500001 386571.93824969 16178.03638003
0.18600001 381758.04778138 12849.97649540
0.18700001 377002.12971824 15947.19084050
0.18800001 372303.45287811 11610.28372654
0.18900001 367663.76448313 10478.41778285
0.19000001 363075.99695810 11442.34058477
0.19100001 358548.45936089 12391.43534101
0.19200001 354072.60076951 14350.56318727
0.19300001 349653.34193718 13227.38655051
0.19400001 345286.20837954 14139.47090129
0.19500001 340973.08450778 17041.83556901
0.19600001 336712.01788463 9949.84059868
0.19700001 332502.83085923 12837.93490616
0.19800001 328345.43678944 9801.11175135
0.19900001 324238.89824568 10699.88414778
0.20000001 320181.12261728 12549.49969409
0.20100001 316174.21400449 10538.08705082
0.20200001 312214.71119226 10457.63224565
0.20300001 308304.67702981 12264.36063192
0.20400001 304441.85419107 12170.06369652
0.20500001 300625.45708357 13933.99059444
0.20600001 296855.62660826 16591.26175537
0.20700001 293131.89869240 10060.28723866
0.20800001 289451.89208896 9981.74897053
0.20900001 285819.12650710 12604.62407480
0.21000001 282227.66654798 8932.50606850
0.21100001 278680.30861686 10634.44107955
0.21200001 275175.41735808 8791.85500022
0.21300001 271711.60154383 12210.71995065
0.21400001 268290.29136827 9517.59853625
0.21500001 264910.88325558 14591.29213956
0.21600001 261570.45485655 8514.11870812
0.21700001 258270.17708531 10134.52222798
0.21800001 255008.84199727 14240.96945466
0.21900001 251785.45852475 12463.38078626
0.22000001 248599.69130745 9065.18817215
0.22100001 245453.02668066 8173.58617494
0.22200001 242343.15595393 8917.01684496
0.22300001 239268.39759887 8039.41853947
0.22400001 236229.03005960 8770.00315566
0.22500001 233227.18588595 12650.24316065
0.22600001 230257.79905932 7840.27842872
0.22700001 227325.22729215 9329.42776925
0.22800001 224424.73257705 8479.88892144
0.22900001 221556.87773282 8408.08390759
0.23000001 218723.12228108 13641.76178181
0.23100001 215922.07393181 9768.31508665
0.23200001 213151.12842399 11174.44843611
0.23300001 210412.22082365 8124.01623022
0.23400001 207704.92813763 8053.75896944
0.23500001 205026.22784548 8709.51457080
0.23600001 202379.30752264 8633.50166726
0.23700001 199761.25373464 7844.62480519
0.23800001 197172.37705875 8482.35606227
0.23900001 194612.05322138 8407.24109682
0.24000001 192079.87697438 7638.05666917
0.24100001 189576.69646933 11010.61505175
0.24200001 187100.62441546 7501.79989079
0.24300001 184651.65224915 7434.07587120
0.24400001 182229.06626524 8036.30220244
0.24500001 179833.07209284 7299.42474154
0.24600001 177463.21964119 9205.01763823
0.24700001 175119.47608021 9771.66722753
0.24800001 172801.07693574 9035.76874042
0.24900001 170506.71257875 7672.80242902
0.25000001 168238.03271102 9501.24334684
0.25100001 165992.57911740 7529.42374497
0.25200001 163773.25091335 8079.75371606
0.25300001 161577.05854352 7387.30346611
0.25400001 159404.11990302 7926.37023718
0.25500001 157253.96416385 7246.26301150
0.25600001 155127.38141192 5980.16083637
0.25700001 153022.97922199 8882.98436412
0.25800001 150941.55445869 8796.11950226
0.25900001 148882.32166922 9290.25731173
0.26000001 146844.98672061 8623.47225319
0.26100001 144828.54566828 7399.29074830
0.26200001 142834.77078444 7888.76476370
0.26300001 140861.01741684 6693.71586438
0.26400001 138908.95761181 8834.61012215
0.26500001 136978.11320688 6558.51237069
0.26600001 135066.75620311 7573.19337867
0.26700001 133176.82418623 6424.45030275
0.26800001 131307.32116777 5828.07572582
0.26900001 129456.70877752 6291.59634432
0.27000001 127626.88707220 5706.83652549
0.27100001 125816.13715026 6159.95836638
0.27200001 124026.40333217 6094.65774816
0.27300001 122254.91421371 5527.14493317
0.27400001 120500.81461764 7455.98825732
0.27500001 118768.51738755 5408.71853780
0.27600001 117052.56508608 5836.24117140
0.27700001 115357.43786261 5772.48646384
0.27800001 113679.66843746 5233.24378419
0.27900001 112021.16411997 7057.33367357
0.28000001 110379.78380884 6978.76216161
0.28100001 108757.29322110 5060.47709309
0.28200001 107153.31772413 5003.52440794
0.28300001 105566.75861365 5396.57295575
0.28400001 103997.69330095 4890.49175895
0.28500001 102446.94006106 4394.97393664
0.28600001 100913.35552327 6950.91225744
0.28700001 99397.07892155  4723.34941392
0.28800001 97897.55766990  4668.24525845
0.28900001 96417.21170501  5032.97868923
0.29000001 94952.19256696  5802.52876243
0.29100001 93505.28819067  5733.74454326
0.29200001 92074.90202802  4451.36134925
0.29300001 90661.63693711  3998.17837818
0.29400001 89264.28469841  4344.93926337
0.29500001 87884.80139333  5072.71097655
0.29600001 86520.93914828  3854.50802152
0.29700001 85173.80433457  5330.17692758
0.29800001 83842.77959808  4888.45349588
0.29900001 82528.95888962  4456.56399101
0.30000001 81230.20200097  5134.56131155
0.30100001 79948.80960408  5070.35374512
0.30200001 78681.82730217  7152.17844036
0.30300001 77432.21018116  4237.09074170
0.30400001 76198.10319395  5229.09507924
0.30500001 74979.79959317  4474.04485354
0.30600001 73776.13704352  3737.13039887
0.30700001 72589.50784034  5030.45313149
0.30800001 71417.79903855  4303.27968480
0.30900001 70261.60663328  3593.88134944
0.31000001 69121.19568174  4514.30550370
0.31100001 67995.01473337  3500.38352420
0.31200001 66884.87415589  4082.31848738
0.31300001 65789.39164080  3718.41659159
0.31400001 64709.96335639  5197.82805270
0.31500001 63644.39240033  3620.09321113
0.31600002 62594.28471485  4464.53756867
0.31700002 61558.79043907  3229.98988727
0.31800002 60538.06949981  2896.74676272
0.31900002 59532.33445034  3143.30740781
0.32000002 58541.02186877  3664.37543738
0.32100002 57563.49421284  3336.38028255
0.32200002 56601.91521831  2742.36292218
0.32300002 55652.42957221  3786.59148739
0.32400002 54718.37572860  2934.27303739
0.32500002 53798.28042850  2630.73603752
0.32600002 52892.43967458  3372.68657555
0.32700002 51999.86419019  3325.91147110
0.32800002 51122.16829091  4036.60659940
0.32900002 50257.35211243  3234.06076158
0.33000002 49407.17765555  2943.67978411
0.33100002 48568.28434417  3869.92107980
0.33200002 47745.59750374  3815.82833320
0.33300002 46935.09365998  2821.73796446
0.33400002 46138.16998858  3709.50904275
0.33500002 45353.58331377  2971.56691944
0.33600002 44583.06077641  2929.77597767
0.33700002 43824.52657314  2888.47468322
0.33800002 43080.02581130  2409.68135787
0.33900002 42347.02061131  2591.63778415
0.34000002 41627.53442420  2980.94788129
0.34100002 40920.17312268  2309.12547867
0.34200002 40226.00154640  2690.51624085
0.34300002 39542.99325887  2244.46040367
0.34400002 38873.75141866  2011.71673119
0.34500002 38215.38062454  2380.05401802
0.34600002 37570.16823934  2346.63281937
0.34700002 36935.32346057  2120.82637355
0.34800002 36313.78091203  2471.33447701
0.34900002 35703.09202185  2436.73614590
0.35000002 35104.29811985  2033.06552190
0.35100002 34517.38118585  2551.52493810
0.35200002 33940.75289945  1976.87924626
0.35300002 33375.66722714  2303.92241781
0.35400002 32822.03226958  2097.32796136
0.35500002 32279.57712033  2757.96719979
0.35600002 31747.01675136  1700.05282756
0.35700002 31225.68565778  1844.50133917
0.35800002 30715.38698747  2315.63313467
0.35900002 30215.52737404  1957.96626658
0.36000002 29726.46326699  2414.53209323
0.36100002 29246.64478174  1746.90217556
0.36200002 28778.27783919  2193.76822359
0.36300002 28318.87934530  1700.83197404
0.36400002 27869.50538894  1983.61214002
0.36500002 27429.76732743  2108.25201665
0.36600002 27000.08128043  1783.62545387
0.36700002 26579.54222142  1907.34804016
0.36800002 26169.64063996  1738.18761364
0.36900002 25768.24598796  1716.16526409
0.37000002 25375.50314835  1553.36149881
0.37100002 24991.99769678  1534.00889129
0.37200002 24618.01862701  1515.11602817
0.37300002 24252.22823133  1360.55006823
0.37400002 23895.33160073  1747.34620608
0.37500002 23547.37076374  1328.07177399
0.37600002 23207.92315264  1443.64892810
0.37700002 22876.26547346  1556.50117655
0.37800002 22552.86430708  1666.76951557
0.37900002 22238.12874070  1394.33073809
0.38000002 21931.19392454  1504.04135060
0.38100002 21631.10506811  1239.46237912
0.38200002 21339.67850615  1471.15750591
0.38300002 21055.31876545  1576.62234385
0.38400002 20779.20456048  1319.99903224
0.38500002 20509.29232535  1781.23212284
0.38600002 20247.93817903  1410.47144037
0.38700002 19992.60679440  1396.28372467
0.38800002 19744.72870607  1267.31547204
0.38900002 19503.06773699  1597.30132333
0.39000002 19269.38733076  1130.14962049
0.39100002 19041.24251239  1567.47515788
0.39200002 18820.19242575  1553.23055448
0.39300002 18605.07412205  1649.33989906
0.39400002 18397.70620606  1744.10263097
0.39500002 18195.23963868  1513.11620004
0.39600002 17998.98376118  1179.02348714
0.39700002 17808.61308106  1169.49167644
0.39800002 17624.34016161  1371.26185124
0.39900002 17445.50811118  1151.40358989
0.40000002 17272.33621998  1870.07593114
0.40100002 17104.88705506  1134.56721212
0.40200002 16942.95845461  1331.46245324
0.40300002 16785.76060940  1017.21714113
0.40400002 16634.19708564  1212.63302500
0.40500002 16487.80340443  1104.51800240
0.40600002 16346.33622097  1097.73826093
0.40700002 16209.73387395  992.03576009
0.40800002 16077.84328819  1085.01330571
0.40900002 15950.58096726  980.96077597
0.41000002 15828.40647397  1170.98556643
0.41100002 15710.19914805  970.89035335
0.41200002 15596.26878474  1256.04556609
0.41300002 15487.35377627  961.76471508
0.41400002 15382.04500093  1532.05175469
0.41500002 15281.09663031  1144.24856990
0.41600002 15183.54550658  1044.70389808
0.41700002 15090.43454193  946.17029061
0.41800002 15001.89321886  1320.01664687
0.41900002 14915.27877254  1033.62886791
0.42000002 14833.60040600  936.74191003
0.42100002 14755.58323051  1214.23700158
0.42200002 14681.03119302  1210.96491534
0.42300002 14609.33196904  1114.98426871
0.42400002 14540.95992765  1019.68486325
0.42500002 14476.22064986  1202.53970637
0.42600002 14413.72532301  1015.51906575
0.42700002 14355.50842629  1566.76026389
0.42800002 14299.54319379  1012.19321294
0.42900002 14247.44474111  1470.33636696
0.43000002 14197.61143869  1468.60099681
0.43100002 14149.69451718  916.90024816
0.43200002 14105.52701932  1191.00023032
0.43300002 14063.68568557  915.54598152
0.43400002 14024.48526674  1281.13678983
0.43500002 13987.47367530  1006.25890389
0.43600002 13953.39477341  1097.57408489
0.43700002 13920.91586858  1280.44590227
0.43800002 13890.66053446  1372.05005931
0.43900002 13863.43868330  1280.98179504
0.44000002 13837.72616762  1006.90219230
0.44100002 13814.57093182  1282.26853466
0.44200002 13793.07760579  1008.20505537
0.44300002 13773.70221557  1009.06147213
0.44400002 13756.54980807  1377.37461481
0.44500002 13739.89306627  1011.11877866
0.44600002 13725.51232652  1104.35477413
0.44700002 13713.93078375  1105.89143081
0.44800002 13702.49785350  1476.58123867
0.44900002 13694.11949914  1386.52966500
0.45000002 13686.83661043  1296.28035681
0.45100002 13680.64588719  1020.30261862
0.45200002 13676.17347670  1301.01444450
0.45300002 13672.71963037  1210.44592624
0.45400002 13671.08312165  1399.57720091
0.45500002 13670.63436125  1215.59286501
0.45600002 13671.34900187  1124.60522219
0.45700002 13673.27571177  1315.09572029
0.45800002 13675.93560814  1129.90585350
0.45900002 13679.81100897  1132.68840523
0.46000002 13685.50087340  1040.98767327
0.46100002 13691.05560966  1233.42725833
0.46200002 13698.57664854  1236.77605133
0.46300002 13706.85937965  1049.39720384
0.46400002 13715.36680638  1147.97625610
0.46500002 13725.35015812  959.40202152
0.46600002 13735.76350445  1058.40930700
0.46700002 13746.65990812  1158.01868555
0.46800002 13759.32111229  1258.35877197
0.46900002 13771.59420606  1456.34615632
0.47000002 13784.92642935  1168.68611807
0.47100002 13798.77638185  1074.64875555
0.47200002 13813.59948836  1470.11239523
0.47300002 13828.98597904  1179.88913965
0.47400002 13844.10444161  1183.67098586
0.47500002 13860.16828834  1385.46248777
0.47600002 13877.22224738  1092.20682875
0.47700002 13893.75894584  996.18256363
