# SAXS profile: number of points = 501, q_min = 0, q_max = 0.5, delta_q = 0.001
#    q    intensity    error
0.00000000 1664650.74656090 274.66737318
0.00100000 1664564.01927111 549.30613940
0.00200000 1664303.80461232 1048.51143011
0.00300000 1663870.32355253 1397.65112157
0.00400000 1663263.44618110 1871.17144805
0.00500000 1662483.83310724 1645.85905992
0.00600000 1661531.31575928 2442.45113360
0.00700000 1660406.67110424 2789.48332339
0.00800000 1659109.65630366 2911.73756975
0.00900000 1657641.68138868 3232.40141689
0.01000000 1656002.16021640 4918.32662821
0.01100000 1654192.69949371 3275.30168760
0.01200000 1652213.07054745 3866.17875459
0.01300000 1650064.81600084 3811.64989307
0.01400000 1647747.91115331 4078.17626089
0.01500000 1645264.18906893 3948.63422959
0.01600000 1642612.96878701 5445.26223495
0.01700000 1639796.75830235 5312.94173523
0.01800000 1636815.86276082 6064.40304441
0.01900000 1633671.33842801 5391.11566007
0.02000000 1630364.06429059 7703.47055224
0.02100000 1626896.50974662 5905.63459813
0.02200000 1623267.54644746 5600.27328968
0.02300000 1619480.31793475 5830.12940994
0.02400000 1615535.31618676 9087.38656791
0.02500000 1611434.97132461 6913.05634271
0.02600000 1607179.61327809 6509.07773149
0.02700000 1602771.30455580 10770.62365992
0.02800000 1598210.50098745 9733.10239737
0.02900000 1593500.43475843 12190.27888561
0.03000000 1588641.86197990 11819.49599642
0.03100000 1583636.46444205 12162.32860654
0.03200000 1578485.33778358 8594.85306009
0.03300000 1573192.77253693 8825.61186080
0.03400000 1567757.04349960 9053.79734396
0.03500000 1562182.70709005 10966.52311019
0.03600000 1556469.79130658 11229.93006325
0.03700000 1550621.85747683 11490.10849529
0.03800000 1544640.22045048 12650.60399095
0.03900000 1538527.26621719 10154.28042728
0.04000000 1532283.38976971 11308.25194051
0.04100000 1525912.62293268 11535.89996425
0.04200000 1519416.49307475 10780.26051849
0.04300000 1512796.57469367 10982.90364208
0.04400000 1506056.15331252 11182.46745768
0.04500000 1499197.14901686 13447.79905153
0.04600000 1492220.45878403 11572.17019582
0.04700000 1485130.15697291 10692.93762751
0.04800000 1477927.77137127 11949.04658750
0.04900000 1470615.98490981 14338.50652029
0.05000000 1463196.48251329 11193.45361246
0.05100000 1455673.23768623 13625.10213946
0.05200000 1448045.48179404 12663.15832841
0.05300000 1440318.88219394 12833.24183861
0.05400000 1432494.28491796 22454.34896322
0.05500000 1424575.12909489 15556.36113541
0.05600000 1416562.46401057 16956.25348546
0.05700000 1408461.18689476 17155.05805715
0.05800000 1400270.62914948 12392.39564660
0.05900000 1391995.08859765 17539.13893551
0.06000000 1383637.83688345 12660.28679896
0.06100000 1375200.37995138 12789.36413121
0.06200000 1366685.69580207 16789.73455774
0.06300000 1358097.03785238 13037.73217297
0.06400000 1349433.65418102 14472.67661793
0.06500000 1340702.33867753 15927.54452854
0.06600000 1331904.01658420 16062.76319156
0.06700000 1323039.99588991 13495.00858963
0.06800000 1314114.39212266 14961.19305464
0.06900000 1305131.05720545 13703.87674226
0.07000000 1296089.29480208 19324.69229044
0.07100000 1286993.75439104 16679.43983814
0.07200000 1277846.41609452 20988.62836760
0.07300000 1268650.56977436 16898.42638118
0.07400000 1259409.03355677 24086.19889555
0.07500000 1250122.84915703 17101.68137807
0.07600000 1240794.69417926 17197.41526755
0.07700000 1231428.91347161 20170.80654844
0.07800000 1222026.65102026 18825.32144180
0.07900000 1212589.30398294 17461.28679635
0.08000000 1203123.01766614 16079.73988543
0.08100000 1193627.81481937 16149.78509223
0.08200000 1184105.34911591 20638.95720358
0.08300000 1174559.16270673 17759.33537361
0.08400000 1164992.29975297 20795.11352669
0.08500000 1155406.36196191 16395.21704592
0.08600000 1145804.29029176 17943.29602843
0.08700000 1136187.76315802 19496.98293133
0.08800000 1126559.04942120 19551.43322091
0.08900000 1116921.68440530 16586.28779247
0.09000000 1107277.35436125 15114.33659703
0.09100000 1097627.68355345 16661.98901914
0.09200000 1087975.41171211 19730.43501847
0.09300000 1078324.13442455 19765.68231283
0.09400000 1068672.77840604 16751.44658879
0.09500000 1059025.91917086 15249.97395285
0.09600000 1049384.78007261 22902.82390170
0.09700000 1039754.41507692 27511.90311635
0.09800000 1030133.55007571 19886.72911924
0.09900000 1020525.87033847 19900.25540736
0.10000000 1010931.24421443 22973.41360515
0.10100000 1001353.71019466 16852.78373519
0.10200000 991794.70451945 19920.19757725
0.10300000 982255.94557884 19920.15151340
0.10400000 972739.93959402 16852.72024630
0.10500000 963249.71171002 21441.93959149
0.10600001 953782.14471614 16839.02455730
0.10700001 944345.03941616 26007.26360936
0.10800001 934935.70399295 18343.43937562
0.10900001 925558.90069945 19853.23935441
0.11000001 916214.98069086 22882.47021982
0.11100001 906905.16354079 16759.60821116
0.11200001 897632.02955555 15214.86361724
0.11300001 888396.09300323 22787.36085838
0.11400001 879199.66228144 16682.81437729
0.11500001 870044.66443683 21194.28902368
0.11600001 860931.74203120 19642.15861942
0.11700001 851862.53257476 18093.56104400
0.11800001 842837.63802923 19558.04831162
0.11900001 833858.60359762 16510.40112890
0.12000001 824927.02133034 19464.15398515
0.12100001 816046.04087446 17920.37190180
0.12200001 807214.10792691 20850.34139004
0.12300001 798433.72946869 17821.04168137
0.12400001 789705.61115770 17768.37708825
0.12500001 781030.18056852 25094.50088413
0.12600001 772410.73519433 16185.86771873
0.12700001 763846.23403044 17599.01806144
0.12800001 755337.99277074 17538.94901873
0.12900001 746887.39565354 18933.59637220
0.13000001 738495.24947734 21767.14850434
0.13100001 730161.63535393 17348.64127378
0.13200001 721887.97920022 21602.49879592
0.13300001 713676.16435423 20082.84821169
0.13400001 705524.73489608 18572.93952177
0.13500001 697436.38693609 18496.01385360
0.13600001 689410.33958197 18417.59809034
0.13700001 681448.26507712 19748.37165314
0.13800001 673549.17926759 18256.55136495
0.13900001 665715.82437856 16776.03956547
0.14000001 657947.27775213 19481.81981301
0.14100001 650244.27120123 16620.24435576
0.14200001 642607.04860508 19297.49057978
0.14300001 635037.58558480 26061.94374168
0.14400001 627532.36277850 15013.71248767
0.14500001 620096.23864776 16296.12992039
0.14600001 612726.74798263 14861.68797341
0.14700001 605427.20451839 18816.67840414
0.14800001 598192.48262062 14706.56287906
0.14900001 591027.29387872 17287.54916159
0.15000001 583930.09443152 17193.82244179
0.15100001 576901.71882181 17099.36775271
0.15200001 569942.09024717 19620.25738258
0.15300001 563052.20875898 19509.75995415
0.15400001 556228.59515545 14225.54699242
0.15500001 549475.49045365 23143.90875014
0.15600001 542788.78649771 17895.74713542
0.15700001 536174.14167547 13978.06053320
0.15800001 529624.42620679 16421.00610959
0.15900001 523145.66215482 18833.24472651
0.16000001 516733.04617279 17470.74511576
0.16100001 510391.93248890 12402.52454493
0.16200001 504117.24372534 17255.93406730
0.16300001 497910.33317077 14698.31372908
0.16400001 491771.49080329 14605.61396638
0.16500001 485699.49343596 14512.70154903
0.16600001 479695.75067399 16822.93077040
0.16700001 473757.28266335 19101.89453888
0.16800001 467885.07365347 11860.88717714
0.16900001 462081.41911936 11783.07674392
0.17000001 456341.85897369 16387.23692955
0.17100001 450668.19471518 12789.96396998
0.17200001 445060.15821237 16169.03631140
0.17300001 439516.81313738 16059.94511046
0.17400001 434037.88185056 13672.19392398
0.17500001 428622.76864187 15841.89827718
0.17600001 423270.01852325 16856.72928382
0.17700001 417982.01468577 14508.15641497
0.17800001 412754.78048093 15515.45293111
0.17900001 407590.65688312 13205.93790678
0.18000001 402487.95552465 12020.30335952
0.18100001 397447.88985297 15190.45906772
0.18200001 392465.80152817 14005.14278911
0.18300001 387544.67535101 10696.23354497
0.18400001 382682.81322269 16991.11770976
0.18500001 377881.33033095 13705.75649859
0.18600001 373136.33783101 10466.47477063
0.18700001 368449.15184210 13507.34654468
0.18800001 363819.05831499 10314.27079054
0.18900001 359247.55143768 13310.12240964
0.19000001 354728.07905094 15244.43991750
0.19100001 350268.38151578 13114.04882359
0.19200001 345860.32412661 11013.92254223
0.19300001 341508.76286829 10931.69601597
0.19400001 337208.79984616 9863.35786158
0.19500001 332962.98711469 13704.75719726
0.19600001 328768.92056535 10686.63426799
0.19700001 324626.44840697 11569.68716798
0.19800001 320535.58357968 10524.78638423
0.19900001 316495.29901569 9494.85941920
0.20000001 312503.64200616 12248.58082731
0.20100001 308562.52815302 14024.16756737
0.20200001 304668.65208862 12988.02525240
0.20300001 300824.12202368 12887.30599661
0.20400001 297026.30203958 9133.55921942
0.20500001 293274.91007159 9062.19514955
0.20600001 289569.69852540 8991.13956421
0.20700001 285910.38738063 9812.44495873
0.20800001 282294.68258852 8849.93871749
0.20900001 278725.63133383 14047.77248328
0.21000001 275197.90050159 13065.02094393
0.21100001 271714.00200543 11232.65737391
0.21200001 268272.24529722 11142.68823518
0.21300001 264871.27166886 12753.55233379
0.21400001 261512.67644403 11807.29789966
0.21500001 258195.49440486 10038.64129706
0.21600001 254917.14029076 9957.06397051
0.21700001 251678.65284233 11521.84927187
0.21800001 248478.85529414 8978.78386058
0.21900001 245316.56399515 12143.17049191
0.22000001 242191.83930435 9634.39182307
0.22100001 239105.83100912 9554.66945890
0.22200001 236056.34781113 11054.51929070
0.22300001 233041.49861098 10179.25314066
0.22400001 230062.05495439 10093.97313843
0.22500001 227119.66372333 8469.29266073
0.22600001 224209.43113723 7634.33149124
0.22700001 221335.68259493 9083.61684325
0.22800001 218493.88792543 12008.42464826
0.22900001 215684.23425924 7441.10643384
0.23000001 212908.39774427 8115.00396380
0.23100001 210165.00863187 8776.49117553
0.23200001 207451.41877229 8700.51291479
0.23300001 204769.52797869 8624.89292637
0.23400001 202119.03886133 10687.04468524
0.23500001 199496.81636002 10593.28144974
0.23600001 196905.85691915 7700.00389901
0.23700001 194343.66962106 12488.52480053
0.23800001 191810.23051378 8251.67650700
0.23900001 189305.04143145 6814.98181388
0.24000001 186827.68346769 10130.73161522
0.24100001 184378.99362504 7362.25356369
0.24200001 181957.05938175 7958.80215382
0.24300001 179562.09077539 8543.56468323
0.24400001 177192.98589674 7814.21104769
0.24500001 174850.16482966 8387.56280365
0.24600001 172533.31335605 9588.53934335
0.24700001 170242.07137758 7599.60642580
0.24800001 167975.75161993 6901.28408178
0.24900001 165733.29297045 6836.49865845
0.25000001 163516.17994671 8003.29980611
0.25100001 161321.92276260 7317.56276270
0.25200001 159153.49404004 7247.85046148
0.25300001 157007.82986523 7178.39832105
0.25400001 154885.14772757 5924.35718087
0.25500001 152784.93790167 10560.49540740
0.25600001 150707.86696226 5809.78854627
0.25700001 148652.59994419 5752.85589003
0.25800001 146620.09479880 6835.42914293
0.25900001 144609.35380702 5639.76506532
0.26000001 142620.14483560 5583.57893450
0.26100001 140651.59070038 7185.89010889
0.26200001 138705.35822901 8207.88996157
0.26300001 136778.92890805 7041.37959337
0.26400001 134873.60142251 6969.59368330
0.26500001 132989.24731643 5836.89834091
0.26600001 131124.02000855 6826.97242479
0.26700001 129279.94453092 6236.46481928
0.26800001 127455.97934729 5657.13391103
0.26900001 125650.54629435 5597.73210231
0.27000001 123865.47385257 5538.64492542
0.27100001 122099.19786953 5479.81225970
0.27200001 120353.52695025 6407.02031040
0.27300001 118625.78473728 6338.17597846
0.27400001 116915.16331281 6751.85100084
0.27500001 115226.00793502 6201.46404055
0.27600001 113552.85950739 5189.93368940
0.27700001 111900.11502937 6999.35252634
0.27800001 110264.42282424 4614.56631359
0.27900001 108647.77609186 6388.48953655
0.28000001 107047.81965979 4512.06581221
0.28100001 105466.35320300 4461.22695163
0.28200001 103903.16605030 5292.82752911
0.28300001 102357.00054746 6104.57180158
0.28400001 100828.07639334 4741.44051681
0.28500001 99317.00170992  4686.76953252
0.28600001 97822.84005796  4211.27346382
0.28700001 96345.68538968  5826.98732817
0.28800001 94884.97537679  4935.91665273
0.28900001 93442.93950840  5284.19847932
0.29000001 92016.07309388  5221.45231487
0.29100001 90606.82494250  4365.43703237
0.29200001 89213.98749424  4313.05042957
0.29300001 87837.75964160  5810.46807534
0.29400001 86477.18774894  4209.27731293
0.29500001 85134.14057732  3779.95602056
0.29600001 83806.37427695  5227.00381109
0.29700001 82495.05818716  5162.54098574
0.29800001 81199.59470059  4370.16239366
0.29900001 79920.80433385  3956.08000180
0.30000001 78656.97679237  5327.04400544
0.30100001 77410.04134324  3857.34254274
0.30200001 76177.18710071  4154.70398116
0.30300001 74961.44547885  3418.24207566
0.30400001 73761.03153768  3374.56735261
0.30500001 72575.96235630  4996.85524479
0.30600001 71405.19395000  3945.85120448
0.30700001 70251.15557490  3570.16389534
0.30800001 69111.70869986  3843.99341988
0.30900001 67987.49442253  3793.70236839
0.31000001 66878.67738793  3119.89044786
0.31100001 65783.90273125  4002.29283166
0.31200001 64704.84729424  3037.89272430
0.31300001 63639.98229385  3596.93196955
0.31400001 62591.07454736  3844.65693610
0.31500001 61555.61436596  3209.50988500
0.31600002 60535.38330067  3741.99489591
0.31700002 59529.43075646  4543.28637045
0.31800002 58537.94656738  3081.14496346
0.31900002 57560.96916032  2762.92665052
0.32000002 56598.36338426  3815.29585639
0.32100002 55649.19562773  4569.35566935
0.32200002 54715.61734736  3181.16614321
0.32300002 53793.98871724  3660.14316563
0.32400002 52887.35115964  3351.73603845
0.32500002 51994.35147105  3305.28107953
0.32600002 51115.40389397  2507.21067972
0.32700002 50249.45279311  2966.72783339
0.32800002 49398.06989456  2681.57435121
0.32900002 48559.24710125  2884.41941440
0.33000002 47734.86677277  2844.04349700
0.33100002 46921.27829884  2804.01572392
0.33200002 46123.93009839  2534.27945927
0.33300002 45338.27193239  4542.89506276
0.33400002 44566.00440841  2687.33019309
0.33500002 43805.74208637  2428.59045628
0.33600002 43059.28216703  2176.64681662
0.33700002 42324.59444876  3004.19985624
0.33800002 41603.50004197  3596.41473145
0.33900002 40893.83859785  2919.82021416
0.34000002 40197.30121688  2261.70126008
0.34100002 39512.70080752  2229.70181216
0.34200002 38840.91891285  2797.71152179
0.34300002 38180.18872846  2167.10761486
0.34400002 37532.78488631  2136.55388084
0.34500002 36896.19194367  2106.40369782
0.34600002 36272.45397142  2265.57758235
0.34700002 35658.71049239  2978.21564138
0.34800002 35058.12525888  1835.29294422
0.34900002 34468.14210326  1990.53530074
0.35000002 33889.66627488  2319.57831804
0.35100002 33323.00373524  2111.34561666
0.35200002 32766.22003699  2255.46286307
0.35300002 32220.83044789  1710.92617782
0.35400002 31686.70743748  1856.04897606
0.35500002 31163.33599029  1996.94666484
0.35600002 30649.72198866  1969.55122828
0.35700002 30147.11642175  2104.57029708
0.35800002 29655.41134117  2395.41596454
0.35900002 29173.73758483  2835.68742756
0.36000002 28702.59694492  1709.67026800
0.36100002 28240.61465181  1533.46544823
0.36200002 27789.77199681  2269.72973535
0.36300002 27347.70764124  1493.18490794
0.36400002 26915.44099832  1768.34455735
0.36500002 26492.54284670  1745.32880541
0.36600002 26079.54459896  1579.24689800
0.36700002 25675.40011591  1700.73858424
0.36800002 25281.77561827  1679.21561611
0.36900002 24896.23609270  1381.74116860
0.37000002 24519.35217862  1637.40241605
0.37100002 24151.37486147  1482.41145922
0.37200002 23792.80110802  1597.44874206
0.37300002 23442.18151443  1578.12773431
0.37400002 23100.17697007  1429.32351773
0.37500002 22766.96193135  1284.05671376
0.37600002 22442.04578814  1396.00752438
0.37700002 22124.68814523  2132.59879134
0.37800002 21815.41770881  1240.20655550
0.37900002 21514.53915310  1348.96166880
0.38000002 21221.35688038  1576.64078412
0.38100002 20934.77661449  1559.43158389
0.38200002 20656.75252847  1661.42268457
0.38300002 20385.49964501  1761.30725277
0.38400002 20122.32408659  1278.27069816
0.38500002 19865.14361604  1265.21105684
0.38600002 19616.31466996  1480.34525670
0.38700002 19373.50483551  2142.32226620
0.38800002 19137.74793442  1116.68764488
0.38900002 18908.13346249  1216.73844596
0.39000002 18686.27692545  1315.14023232
0.39100002 18469.75015378  1303.22563259
0.39200002 18260.18636091  1184.08184067
0.39300002 18056.45877725  1387.27779358
0.39400002 17860.23639791  1164.04096238
0.39500002 17668.68016040  1154.47161638
0.39600002 17483.21833263  1353.46341134
0.39700002 17303.47626620  1033.01758203
0.39800002 17129.63455784  1127.72954455
0.39900002 16961.15294535  1221.20306992
0.40000002 16798.07874172  1212.48538102
0.40100002 16640.61465703  1204.11493363
0.40200002 16488.44898068  1196.07214573
0.40300002 16340.92530331  990.26012030
0.40400002 16198.89812690  1279.30804019
0.40500002 16061.83417493  1271.61547188
0.40600002 15929.59326369  1069.75188631
0.40700002 15801.94208822  1257.20257211
0.40800002 15679.01976734  1058.09869913
0.40900002 15560.47556047  1244.06008000
0.41000002 15446.81065037  1142.75510606
0.41100002 15337.10021706  1232.18268982
0.41200002 15231.50281274  1226.66913715
0.41300002 15130.64359446  1033.57431291
0.41400002 15033.39302414  1029.41163610
0.41500002 14940.31636941  1678.09641413
0.41600002 14850.56109426  1021.79290451
0.41700002 14764.96728019  925.76349233
0.41800002 14684.02027568  1015.17978986
0.41900002 14604.69777460  1104.11520408
0.42000002 14530.21099266  1468.13258827
0.42100002 14459.27331499  1098.32645305
0.42200002 14391.72786225  1187.10172897
0.42300002 14326.92832515  1366.78902699
0.42400002 14265.14983309  1000.34367945
0.42500002 14207.03789402  1361.74464667
0.42600002 14150.99341206  997.00828809
0.42700002 14099.18913621  905.16798544
0.42800002 14049.29935856  1084.88694788
0.42900002 14003.36531722  993.53881634
0.43000002 13959.54831271  1082.98180942
0.43100002 13917.48984567  1172.40940016
0.43200002 13879.09009287  1262.02572195
0.43300002 13842.89440819  991.28971555
0.43400002 13809.21866852  991.15671690
0.43500002 13777.62579735  991.16244683
0.43600002 13748.84616653  991.36059982
0.43700002 13721.62218055  1081.81274398
0.43800002 13696.51778771  992.10731297
0.43900002 13674.28361388  1083.00331354
0.44000002 13653.48698226  1174.13166868
0.44100002 13635.14878359  1717.61977367
0.44200002 13618.40511267  1085.93167515
0.44300002 13603.63337833  996.60222853
0.44400002 13591.01278857  1542.24024927
0.44500002 13578.82717087  1362.63537117
0.44600002 13568.77747592  1000.76523016
0.44700002 13561.44680226  1275.86097562
0.44800002 13554.16266717  1095.44747868
0.44900002 13549.84408314  1280.46032654
0.45000002 13546.54341686  1008.06607614
0.45100002 13544.23109628  1101.95869422
0.45200002 13543.48349499  1012.30772181
0.45300002 13543.85850257  1014.57048851
0.45400002 13545.84875595  924.50422141
0.45500002 13548.95053550  1204.77273871
0.45600002 13553.12968182  1114.88050046
0.45700002 13558.42556280  931.46388031
0.45800002 13564.39136336  1120.69006755
0.45900002 13571.58728248  936.43956687
0.46000002 13580.43846517  1220.81357369
0.46100002 13589.09899674  1318.41444715
0.46200002 13599.66350016  1511.19467976
0.46300002 13610.90229911  1326.24638288
0.46400002 13622.27975804  1140.18486979
0.46500002 13635.02697929  1143.70611723
0.46600002 13648.23532895  956.05893011
0.46700002 13661.88159877  1342.68978717
0.46800002 13677.14006825  1250.84290423
0.46900002 13691.92905326  1061.80914841
0.47000002 13707.73605842  1452.67739764
0.47100002 13724.09965909  1263.16619249
0.47200002 13741.21607814  1072.43325965
0.47300002 13758.91503900  1173.91068677
0.47400002 13776.28265733  1570.49629737
0.47500002 13794.52835214  1083.42230813
0.47600002 13813.65917463  1284.87756903
0.47700002 13832.27289505  1388.48361902
