# SAXS profile: number of points = 501, q_min = 0, q_max = 0.5, delta_q = 0.001
#    q    intensity    error
0.00000000 1664650.74656089 299.63713438
0.00100000 1664563.89019053 549.30609681
0.00200000 1664303.28017772 823.83014977
0.00300000 1663869.14850738 1497.48228700
0.00400000 1663261.35299206 1995.91369943
0.00500000 1662480.56473327 1795.47908098
0.00600000 1661526.61089818 2442.44421746
0.00700000 1660400.26859337 2590.22452666
0.00800000 1659101.28372981 2911.72287588
0.00900000 1657631.11159801 2486.44677369
0.01000000 1655989.15021987 2732.38221585
0.01100000 1654176.92876786 4466.27790213
0.01200000 1652194.32846236 3866.13489811
0.01300000 1650042.84490798 4158.10815256
0.01400000 1647722.48706505 4448.85091230
0.01500000 1645234.92653903 4738.27679942
0.01600000 1642579.78059900 4607.43649055
0.01700000 1639759.32466980 5312.82045026
0.01800000 1636773.90589604 5597.76701005
0.01900000 1633624.68957544 6861.22400581
0.02000000 1630312.33924409 7189.67774130
0.02100000 1626839.65237208 6979.14242510
0.02200000 1623205.12982605 5600.05795232
0.02300000 1619412.27971186 6412.87291956
0.02400000 1615461.34121175 7875.37439751
0.02500000 1611354.76336725 10683.28256904
0.02600000 1607092.99751432 8461.34501892
0.02700000 1602678.02289151 8750.62240578
0.02800000 1598110.34131047 9037.31439456
0.02900000 1593393.25966226 7887.29699747
0.03000000 1588527.38598150 8125.31795278
0.03100000 1583514.45840110 9121.04370008
0.03200000 1578355.61377472 9375.43277764
0.03300000 1573055.01810060 8824.83905837
0.03400000 1567611.12492201 9052.95466413
0.03500000 1562028.31045731 10121.94391918
0.03600000 1556306.89565863 11228.75477110
0.03700000 1550450.17652014 12372.59298083
0.03800000 1544459.47720921 9035.08835981
0.03900000 1538337.34344357 11999.03183454
0.04000000 1532084.11048728 9422.31771612
0.04100000 1525703.80385842 14417.90161497
0.04200000 1519197.82890921 11758.59174127
0.04300000 1512567.93806669 11979.53862555
0.04400000 1505817.50397751 15246.40293584
0.04500000 1498948.13661668 13445.56541020
0.04600000 1491960.91508741 10518.32494033
0.04700000 1484860.06925067 18174.68809290
0.04800000 1477646.83468930 11946.77521432
0.04900000 1470324.02745929 19849.37529464
0.05000000 1462893.42052822 16786.70278225
0.05100000 1455358.97117697 15892.52070559
0.05200000 1447719.82118338 14962.18504919
0.05300000 1439981.58202487 18662.16217303
0.05400000 1432145.24374181 14178.23857423
0.05500000 1424214.20979625 13159.73991241
0.05600000 1416189.56905865 20584.31634682
0.05700000 1408076.23422487 18375.39571437
0.05800000 1399873.35922060 16105.54374984
0.05900000 1391585.45908775 13776.69668842
0.06000000 1383215.77247021 13922.06740034
0.06100000 1374765.74843111 14063.85426367
0.06200000 1366238.41220639 14202.04895874
0.06300000 1357636.86579462 18246.64032941
0.06400000 1348960.55997357 17098.07589729
0.06500000 1340216.25405576 14594.95568939
0.06600000 1331404.69652928 14718.67960880
0.06700000 1322527.64928316 16187.73918480
0.06800000 1313588.80202077 17674.33815851
0.06900000 1304592.11707430 16437.86144474
0.07000000 1295537.00128427 16556.96365175
0.07100000 1286428.09304963 15282.76646124
0.07200000 1277267.04548434 16783.28976391
0.07300000 1268057.58640865 15482.98385551
0.07400000 1258802.43470656 15577.68085953
0.07500000 1249502.31982838 17093.19253645
0.07600000 1240160.58872448 18621.01211266
0.07700000 1230781.00967416 15840.15233723
0.07800000 1221364.84451456 17367.80890348
0.07900000 1211913.84073327 21814.45015638
0.08000000 1202433.57409609 24836.26663805
0.08100000 1192924.44360902 22009.45701723
0.08200000 1183388.06498256 19153.13673051
0.08300000 1173827.82712904 16269.25444756
0.08400000 1164246.92705227 14844.14901668
0.08500000 1154647.18045495 17873.93919254
0.08600000 1145030.96599770 19425.45125021
0.08700000 1135400.60335881 16486.01753492
0.08800000 1125757.91256903 25549.07702564
0.08900000 1116106.58212149 18080.92747962
0.09000000 1106448.22819045 15103.01902427
0.09100000 1096784.84312071 18162.75785539
0.09200000 1087118.48010788 21231.42491410
0.09300000 1077453.43805351 18230.51302856
0.09400000 1067788.20541738 22823.97396347
0.09500000 1058127.59924119 18284.44577431
0.09600000 1048472.68459498 19831.86176137
0.09700000 1038828.60084078 19852.01549537
0.09800000 1029194.02095128 19868.59150864
0.09900000 1019572.82621142 18352.31173478
0.10000000 1009964.75371700 16831.06341221
0.10100000 1000373.63077755 16836.28899783
0.10200000 990801.15719807 16838.66645861
0.10300000 981249.04740451 18368.98303150
0.10400000 971719.56762115 19895.95908305
0.10500000 962216.10904675 21418.93159513
0.10600001 952735.61945399 21407.97037645
0.10700001 943285.42170166 19865.59191587
0.10800001 933863.15685393 18322.39599976
0.10900001 924473.62060421 21355.34164106
0.11000001 915116.80822331 18284.03468892
0.11100001 905794.36128660 21304.28438033
0.11200001 896508.75188692 15195.82405986
0.11300001 887260.04716510 22758.22128126
0.11400001 878051.30754445 30292.77153660
0.11500001 868884.13474842 18142.30158783
0.11600001 859758.93611212 19615.40105112
0.11700001 850677.78549317 18068.39701480
0.11800001 841641.08283417 19530.28224701
0.11900001 832650.17459516 31474.17808218
0.12000001 823707.06152679 23920.45419351
0.12100001 814814.29631819 16402.21255756
0.12200001 805970.86786432 17844.19585518
0.12300001 797179.50370830 17793.04736108
0.12400001 788440.13873028 19218.22928706
0.12500001 779753.75394248 20632.28530152
0.12600001 771123.47692615 24972.83497706
0.12700001 762548.20754982 19033.20415741
0.12800001 754029.32916904 18967.60866918
0.12900001 745568.53375979 17446.30451226
0.13000001 737166.10144049 21727.97186410
0.13100001 728822.43879986 15873.75346531
0.13200001 720538.74329113 14374.74860629
0.13300001 712317.13684153 15749.33263804
0.13400001 704155.99261378 19962.82333176
0.13500001 696058.30731160 14199.59013864
0.13600001 688022.80752810 15552.75629750
0.13700001 680051.52053990 21115.60070843
0.13800001 672143.38718221 22422.70445376
0.13900001 664301.51628631 15345.36574987
0.14000001 656524.06166939 19439.67838282
0.14100001 648812.77146110 16583.65522068
0.14200001 641167.14770649 16503.64316036
0.14300001 633589.59751520 17791.19673739
0.14400001 626076.26337672 25872.60280445
0.14500001 618632.30893522 17612.46266620
0.14600001 611255.43914583 14826.00137589
0.14700001 603948.19965207 17429.94586424
0.14800001 596706.21027068 13336.38442874
0.14900001 589534.12809405 22549.68146351
0.15000001 582430.00598248 13192.04025794
0.15100001 575394.78441692 15742.80204447
0.15200001 568428.74968713 22177.24871552
0.15300001 561532.34305098 16862.81705756
0.15400001 554702.64432394 14186.52079806
0.15500001 547943.56629553 14104.06806206
0.15600001 541250.89581668 16570.39695747
0.15700001 534630.74184338 12670.74917971
0.15800001 528075.63685928 16372.98589361
0.15900001 521591.71823654 13770.02201140
0.16000001 515173.86399197 13685.59434294
0.16100001 508827.58690304 14837.41313448
0.16200001 502548.22521441 17202.22656114
0.16300001 496336.78600745 28082.73667803
0.16400001 490193.50943195 13345.51892432
0.16500001 484117.47977182 15670.88356006
0.16600001 478109.64376144 19162.63542668
0.16700001 472167.34336631 19037.78818339
0.16800001 466291.36533197 15366.63267007
0.16900001 460484.22756193 14090.81802874
0.17000001 454741.44257111 13996.94226327
0.17100001 449064.59155627 12744.45371018
0.17200001 443453.62454025 17261.43315036
0.17300001 437907.45137108 12572.32352259
0.17400001 432425.91420006 12486.29886221
0.17500001 427008.39723699 12400.32444140
0.17600001 421653.25307002 16792.34159660
0.17700001 416363.10825845 18898.72237645
0.17800001 411134.18708327 12142.84878904
0.17900001 405968.18094446 13153.36968388
0.18000001 400864.12404528 10883.46148191
0.18100001 395822.36154368 15128.33137281
0.18200001 390839.06092934 10728.53272930
0.18300001 385916.86608091 10651.30600699
0.18400001 381054.00973782 14803.94897766
0.18500001 376251.70125255 13646.64984913
0.18600001 371506.19007457 14589.04877347
0.18700001 366818.48352077 12413.13806880
0.18800001 362188.18107885 13348.44604432
0.18900001 357616.46931564 15288.10478557
0.19000001 353096.96999088 13151.09726868
0.19100001 348637.43353191 11044.83441616
0.19200001 344229.63326639 10961.99318934
0.19300001 339878.58449999 17802.84109734
0.19400001 335579.30187953 10797.26454819
0.19500001 331334.08917796 12663.58948680
0.19600001 327140.95540153 12567.12039563
0.19700001 322999.49640816 12471.01114567
0.19800001 318909.68363871 12375.29085844
0.19900001 314870.87797394 11335.35214277
0.20000001 310880.51119563 11247.65742664
0.20100001 306940.98127053 12090.40582367
0.20200001 303048.75354647 11073.40197796
0.20300001 299206.13847771 13733.56240524
0.20400001 295410.21774192 12717.41047489
0.20500001 291660.88142044 13518.48249281
0.20600001 287957.81044394 9835.19948060
0.20700001 284300.79562215 9757.20376697
0.20800001 280687.44069044 15839.19302688
0.20900001 277120.73737908 12221.02509612
0.21000001 273595.81290621 9525.23867661
0.21100001 270114.66454248 11166.54076007
0.21200001 266675.67577829 8520.28824391
0.21300001 263277.86414114 9296.34182231
0.21400001 259922.33968677 8382.49585119
0.21500001 256608.27835894 10808.34119547
0.21600001 253333.21694986 10719.79558205
0.21700001 250097.85685983 12267.30045897
0.21800001 246901.64185121 8110.71931829
0.21900001 243742.98063502 10456.57436365
0.22000001 240621.82528368 11167.25943943
0.22100001 237539.53024472 9492.08007740
0.22200001 234493.82073515 8628.20054193
0.22300001 231482.95910544 10111.17613184
0.22400001 228507.28681429 12339.39407146
0.22500001 225569.16235871 9940.83345522
0.22600001 222663.16928076 11372.52190880
0.22700001 219793.47974146 8268.63109889
0.22800001 216955.95478978 8942.92487935
0.22900001 214150.69200681 10343.47891308
0.23000001 211379.08416675 9521.57129658
0.23100001 208640.25184862 10891.02166156
0.23200001 205931.31526873 10795.94971354
0.23300001 203254.10604246 7847.64140545
0.23400001 200608.18790719 7071.43895817
0.23500001 197990.77278631 9812.42316338
0.23600001 195404.62783145 8335.96181756
0.23700001 192847.18292328 9638.50265839
0.23800001 190318.81589129 6822.92987242
0.23900001 187818.48437920 8113.75890896
0.24000001 185346.18447513 9380.37083998
0.24100001 182902.53870289 10622.97995034
0.24200001 180485.60332759 8552.31071822
0.24300001 178095.74076962 8473.79574665
0.24400001 175731.92017367 6458.14837188
0.24500001 173394.27376190 7038.07390493
0.24600001 171082.62611047 6972.47275697
0.24700001 168796.79171042 8163.01323328
0.24800001 166535.79629872 9952.17965762
0.24900001 164298.55980663 6161.19628422
0.25000001 162086.98300332 10984.63535780
0.25100001 159898.31239439 9670.65039112
0.25200001 157734.97498026 5986.04258370
0.25300001 155594.97524321 6520.98572095
0.25400001 153477.71418900 7044.62741456
0.25500001 151383.05988552 6975.73172956
0.25600001 149311.62153951 7482.75226748
0.25700001 147261.81294636 6838.83891680
0.25800001 145234.95837250 8463.56759960
0.25900001 143229.85836614 8937.54358492
0.26000001 141246.31759760 7188.73167427
0.26100001 139283.46142384 6021.22432225
0.26200001 137342.79977214 6501.80844886
0.26300001 135422.14133308 6435.26046065
0.26400001 133522.46280517 5838.26996241
0.26500001 131643.77832470 8404.13920592
0.26600001 129784.28538140 8316.57740078
0.26700001 127946.05893673 7715.14771897
0.26800001 126127.93230636 5598.18854033
0.26900001 124328.00886568 5035.28459734
0.27000001 122548.79840630 7472.41333644
0.27100001 120788.15617093 5420.97270549
0.27200001 119048.31083500 5362.53141534
0.27300001 117326.46458918 5786.54150738
0.27400001 115621.63394058 6677.14967606
0.27500001 113938.31335384 5660.45567530
0.27600001 112271.01928112 6997.29160785
0.27700001 110623.91684906 5996.92281620
0.27800001 108993.94077082 6385.95529199
0.27900001 107383.31059886 5412.11911033
0.28000001 105789.04045883 4459.00826638
0.28100001 104213.49323706 5289.87716708
0.28200001 102656.04376879 4793.52419066
0.28300001 101115.81353592 4738.28724656
0.28400001 99592.62721748  6812.13602410
0.28500001 98087.42202291  5891.13084553
0.28600001 96599.07151692  4990.30827077
0.28700001 95127.83513791  5753.33174146
0.28800001 93672.80102486  4466.78772830
0.28900001 92236.66557018  5617.21319911
0.29000001 90815.66245410  4360.51423914
0.29100001 89412.15738725  4307.87794683
0.29200001 88025.18546525  4642.44850119
0.29300001 86654.71867659  4585.76792944
0.29400001 85300.00537034  4906.88304120
0.29500001 83962.73754008  4846.32944022
0.29600001 82640.88369466  4417.98185145
0.29700001 81335.30869516  5817.10155325
0.29800001 80045.66065275  4667.06246529
0.29900001 78772.63831254  3899.24578106
0.30000001 77514.66666872  5249.68104866
0.30100001 76273.69243152  4146.23811686
0.30200001 75046.59583961  5116.30191357
0.30300001 73836.69517797  4040.34415141
0.30400001 72642.16826698  4652.73109777
0.30500001 71462.87148932  3608.16055231
0.30600001 70297.96246951  5179.55411997
0.30700001 69149.74146322  5431.02095164
0.30800001 68016.11669213  4098.31130531
0.30900001 66897.77150733  3732.89582684
0.31000001 65794.86380264  3990.12970422
0.31100001 64705.88524440  4239.52980193
0.31200001 63632.75004495  3286.31353166
0.31300001 62573.68121301  3831.38668207
0.31400001 61530.52262254  3198.04906472
0.31500001 60501.11573124  4301.62953216
0.31600002 59486.71726188  3677.17160165
0.31700002 58486.69392844  3347.77851898
0.31800002 57501.00548753  3576.85021571
0.31900002 56529.94885270  3798.81274277
0.32000002 55573.26934710  3746.19426407
0.32100002 54630.11920811  2902.49837096
0.32200002 53702.33297799  3122.25378718
0.32300002 52786.87751066  3335.07507904
0.32400002 51886.02194889  3035.33242774
0.32500002 50998.94786149  3242.00326907
0.32600002 50126.04061817  2704.55064962
0.32700002 49266.07421760  3878.22554605
0.32800002 48420.66966949  2867.47219361
0.32900002 47587.92208583  2355.60225479
0.33000002 46769.54377858  3250.95114199
0.33100002 45961.98875832  2288.90714855
0.33200002 45170.80533003  2256.28183308
0.33300002 44391.18947088  2668.79843737
0.33400002 43625.03118450  2411.37371292
0.33500002 42870.92975266  2592.83395423
0.33600002 42130.57081491  2981.58063777
0.33700002 41401.97869925  3148.62062919
0.33800002 40686.96631198  2896.50526892
0.33900002 39983.61944233  2243.08115694
0.34000002 39293.24284726  2411.81936018
0.34100002 38614.92539808  2179.04034341
0.34200002 37949.36187219  3514.49056943
0.34300002 37294.89430327  2116.85830091
0.34400002 36653.66850825  2276.19292216
0.34500002 36023.47039443  2804.42730302
0.34600002 35406.15712686  2395.75773545
0.34700002 34798.71648496  2179.79170385
0.34800002 34204.54185588  2148.72942115
0.34900002 33620.97819863  2471.14201464
0.35000002 33048.90603552  2262.03248074
0.35100002 32488.83467668  1886.95160739
0.35200002 31938.39089196  1860.25166561
0.35300002 31399.51897898  1834.04599043
0.35400002 30871.95968516  1972.71831732
0.35500002 30355.09474667  2269.34699075
0.35600002 29848.04146986  2077.87150534
0.35700002 29352.05439461  2049.06701434
0.35800002 28866.98146748  2020.83313335
0.35900002 28392.04115870  1839.80435423
0.36000002 27927.51535227  1663.50253075
0.36100002 27472.34358164  1790.09799257
0.36200002 27028.19806655  1471.68545443
0.36300002 26592.92958763  1742.36882911
0.36400002 26167.39647227  1719.19802966
0.36500002 25751.43251702  1555.12908337
0.36600002 25345.23112644  1534.78054356
0.36700002 24947.83885664  2478.81738621
0.36800002 24561.18542010  1903.24634836
0.36900002 24182.63186526  1610.56335852
0.37000002 23812.70762494  1325.17724210
0.37100002 23451.55452841  1570.31616561
0.37200002 23100.11426092  1680.18689036
0.37300002 22756.53181512  1787.29809342
0.37400002 22421.58501507  1765.69990358
0.37500002 22095.43184771  1495.41889829
0.37600002 21777.72250859  1600.98934606
0.37700002 21467.50253723  1338.92819667
0.37800002 21165.24718104  1323.56879517
0.37900002 20871.56923061  1784.51925375
0.38000002 20585.56562244  1529.40467037
0.38100002 20306.30116057  1745.32666743
0.38200002 20035.57721592  1611.46155182
0.38300002 19771.63672146  1708.26949366
0.38400002 19515.68158401  1352.43679784
0.38500002 19265.82635688  1227.04053880
0.38600002 19024.15369778  1214.78739192
0.38700002 18788.85993047  1202.86286973
0.38800002 18560.48234244  1083.00419599
0.38900002 18338.25751870  1609.18217350
0.39000002 18123.79783169  1062.96079319
0.39100002 17914.74666712  1158.72586933
0.39200002 17712.65591462  1566.24167345
0.39300002 17516.42561503  1242.26496347
0.39400002 17327.67231203  1129.33109644
0.39500002 17143.59643423  1018.32967644
0.39600002 16965.61904758  1717.51452565
0.39700002 16793.38655771  1002.56522500
0.39800002 16627.13233436  1293.67409257
0.39900002 16466.20676297  1284.36418836
0.40000002 16310.62595440  1177.30103717
0.40100002 16160.73193322  1169.39061809
0.40200002 16016.14981105  968.17630195
0.40300002 15876.26513594  1539.36274052
0.40400002 15741.76277485  1530.09941421
0.40500002 15612.33170952  1140.94925539
0.40600002 15487.59890648  1418.27693706
0.40700002 15367.57383405  1034.54511953
0.40800002 15252.31091617  1216.44811476
0.40900002 15141.34066645  1303.66949315
0.41000002 15035.24293443  1390.38415624
0.41100002 14933.25092327  1107.44994094
0.41200002 14835.15320360  919.03778451
0.41300002 14741.96016012  1007.02334625
0.41400002 14652.21438764  1003.31042773
0.41500002 14566.69281261  1181.65017695
0.41600002 14484.52238999  1177.80899395
0.41700002 14406.49865513  1264.60251187
0.41800002 14333.14965400  1261.17389782
0.41900002 14261.37353829  1168.00654813
0.42000002 14194.32783232  1075.64621410
0.42100002 14131.01376835  1252.29049949
0.42200002 14070.98165745  1249.92535986
0.42300002 14013.65962403  891.26879432
0.42400002 13959.39247511  978.90244370
0.42500002 13908.72481975  1155.39782553
0.42600002 13860.06597850  887.73726799
0.42700002 13815.70693202  1153.05895519
0.42800002 13773.17524508  1063.56464282
0.42900002 13734.63191117  885.88380025
0.43000002 13698.15028450  974.14400364
0.43100002 13663.34450945  1062.46171940
0.43200002 13632.21306089  1151.03596434
0.43300002 13603.31644378  974.13353670
0.43400002 13576.83990466  974.47773034
0.43500002 13552.48241056  1240.86534831
0.43600002 13530.81708533  1685.19569375
0.43700002 13510.73716368  1242.71766321
0.43800002 13492.74812374  1066.19700726
0.43900002 13477.50049213  1334.27261195
0.44000002 13463.80538559  1157.81999900
0.44100002 13452.36730410  981.08119398
0.44200002 13442.54927854  982.58318608
0.44300002 13434.70523428  1342.12711651
0.44400002 13428.87046923  1254.92800482
0.44500002 13423.51542326  1167.44319169
0.44600002 13420.26494362  989.81168783
0.44700002 13419.59911294  1533.05507532
0.44800002 13418.90374343  1355.64481493
0.44900002 13421.32104083  1268.31489847
0.45000002 13424.49965550  1180.61767816
0.45100002 13428.69511445  1183.60524348
0.45200002 13434.47069869  1095.44679269
0.45300002 13441.17176156  1281.48137648
0.45400002 13449.51735649  1193.30848401
0.45500002 13458.93609026  1288.82778109
0.45600002 13469.28703880  1107.98360432
0.45700002 13480.75810612  1203.96656352
0.45800002 13492.85257231  1393.47441545
0.45900002 13506.10094171  1025.11311006
0.46000002 13520.96461843  1495.95959628
0.46100002 13535.61725632  1125.62198438
0.46200002 13551.91372058  941.18045250
0.46300002 13569.07879623  1133.28951477
0.46400002 13586.14937150  1042.39735993
0.46500002 13604.55851285  1046.05455363
0.46600002 13623.34477532  1431.47302011
0.46700002 13642.49636284  1436.55493509
0.46800002 13663.23540217  1153.45038732
0.46900002 13683.44483344  1157.61948778
0.47000002 13704.55664215  1258.69506446
0.47100002 13726.23979338  971.81782343
0.47200002 13748.44781442  1365.63338613
0.47300002 13771.20611277  979.13280103
0.47400002 13793.60848271  1474.19197646
0.47500002 13816.79721638  1578.43098881
0.47600002 13840.81742217  1188.37264019
0.47700002 13864.23998641  1391.69247580
