# SAXS profile: number of points = 501, q_min = 0, q_max = 0.5, delta_q = 0.001
#    q    intensity    error
0.00000000 1700912.83420644 357.19169518
0.00100000 1700825.06438803 612.29703772
0.00200000 1700561.71801484 918.30335681
0.00300000 1700123.01763929 1122.08123161
0.00400000 1699508.84418838 1529.55801789
0.00500000 1698719.84380930 1528.84791994
0.00600000 1697755.86953283 2317.43685626
0.00700000 1696617.67260780 2035.94129174
0.00800000 1695305.01953832 2975.26043491
0.00900000 1693819.37248459 3302.94791754
0.01000000 1692160.08668159 3629.68354266
0.01100000 1690328.77231454 4563.88788396
0.01200000 1688325.28434576 4609.12822835
0.01300000 1686151.07662954 4249.10090051
0.01400000 1683806.16688450 6061.70246951
0.01500000 1681292.29262393 5245.63218657
0.01600000 1678609.04097228 6848.72519333
0.01700000 1675758.63904166 4977.00338122
0.01800000 1672741.55179256 6674.23909198
0.01900000 1669558.88536918 5509.54457032
0.02000000 1666211.25159663 9447.41822391
0.02100000 1662701.59002724 6584.29859503
0.02200000 1659028.31860403 7440.74234699
0.02300000 1655194.90706908 7746.31251768
0.02400000 1651201.65403854 6192.00648498
0.02500000 1647051.04323911 8992.89910680
0.02600000 1642743.50987493 6653.11151930
0.02700000 1638281.03633521 6880.78066776
0.02800000 1633664.09388613 7817.08304773
0.02900000 1628896.13588475 8063.03624284
0.03000000 1623977.56175582 9061.79521113
0.03100000 1618910.28120573 9324.92364881
0.03200000 1613695.31385618 8786.57138864
0.03300000 1608337.03276859 10663.27501884
0.03400000 1602833.77547973 9256.36548049
0.03500000 1597189.80038271 11212.27291645
0.03600000 1591405.73243174 10598.76266780
0.03700000 1585484.53834806 10844.71474384
0.03800000 1579427.81951907 10163.61848897
0.03900000 1573238.14408073 11327.31516195
0.04000000 1566915.61433405 13491.14406458
0.04100000 1560464.37146440 10814.01859566
0.04200000 1553885.88657530 12027.07732006
0.04300000 1547182.05582288 13274.82265515
0.04400000 1540355.91946163 11437.14323317
0.04500000 1533409.32229877 15870.78722323
0.04600000 1526343.38684027 13988.93779069
0.04700000 1519162.13428709 13125.56145068
0.04800000 1511867.01077111 13334.66765544
0.04900000 1504460.95239998 12411.80343504
0.05000000 1496945.46315847 16032.28665699
0.05100000 1489324.53087270 12778.40507016
0.05200000 1481597.65802929 12956.57212326
0.05300000 1473770.16340928 19100.06220819
0.05400000 1465843.01033717 13302.52593916
0.05500000 1457819.80437301 13470.25562078
0.05600000 1449701.63690027 13634.44453129
0.05700000 1441493.27473589 17557.38890584
0.05800000 1433193.97477364 17757.27417658
0.05900000 1424808.16291456 16670.25628470
0.06000000 1416339.18672580 16847.35541319
0.06100000 1407788.70468458 17020.16623501
0.06200000 1399159.44071364 15866.46879935
0.06300000 1390454.77170401 17352.87636221
0.06400000 1381674.02286059 16165.58682348
0.06500000 1372823.68796374 19027.33720523
0.06600000 1363905.07936852 16448.69602679
0.06700000 1354919.58449693 15202.19844950
0.06800000 1345871.31133896 13929.76872440
0.06900000 1336763.74418349 16843.22396529
0.07000000 1327596.34228312 21208.35256113
0.07100000 1318374.04659296 15662.28440711
0.07200000 1309098.64718505 15768.09394403
0.07300000 1299773.55548884 14427.48714193
0.07400000 1290401.71195545 15968.72193381
0.07500000 1280983.54898993 18984.17708587
0.07600000 1271522.89494975 16154.69913768
0.07700000 1262023.05764797 22148.50570023
0.07800000 1252485.56968579 17810.34563617
0.07900000 1242912.35489664 19389.43364582
0.08000000 1233308.62691587 19480.11067597
0.08100000 1223675.21765555 22576.80882501
0.08200000 1214013.23444912 25694.59131284
0.08300000 1204326.67560519 21244.32355471
0.08400000 1194618.29329912 22847.07593176
0.08500000 1184890.05588603 19870.60717004
0.08600000 1175144.62843759 21469.89336960
0.08700000 1165384.04433746 15383.07010761
0.08800000 1155610.13081188 29312.05234465
0.08900000 1145826.63857662 20109.25845155
0.09000000 1136035.31739793 18608.25937311
0.09100000 1126238.28858067 17096.29802386
0.09200000 1116437.16971780 20246.58902415
0.09300000 1106636.77268314 18724.29507369
0.09400000 1096835.22233054 17192.89291805
0.09500000 1087037.43211337 17218.67373400
0.09600000 1077244.77567195 18808.69466739
0.09700000 1067462.06073853 15691.69303057
0.09800000 1057688.02653646 18848.00151907
0.09900000 1047927.03482252 17290.79688763
0.10000000 1038178.08961353 17301.23867704
0.10100000 1028445.48658666 15735.21668483
0.10200000 1018731.13145689 17313.33639347
0.10300000 1009036.18565558 18889.15828403
0.10400000 999363.36729494 22035.96328554
0.10500000 989716.06208472 15736.48612754
0.10600001 980091.01689939 17303.50771755
0.10700001 970495.91167786 17294.23795993
0.10800001 960928.05476892 15711.17443487
0.10900001 951392.25477174 18837.56753108
0.11000001 941888.86608846 20387.18546610
0.11100001 932419.26223129 20364.03764574
0.11200001 922985.99186717 20337.99728825
0.11300001 913589.20807929 17184.61381304
0.11400001 904231.90251290 20277.40136860
0.11500001 894915.86657143 18685.84417389
0.11600001 885641.33939202 18651.60748593
0.11700001 876410.70418432 15512.47019462
0.11800001 867223.72025187 17027.93854913
0.11900001 858082.57986971 21623.68203123
0.12000001 848988.74008131 20031.89026582
0.12100001 839944.79304158 21519.38661146
0.12200001 830950.02733981 16864.13159935
0.12300001 822007.29682466 18347.20372954
0.12400001 813115.97535446 22868.88788437
0.12500001 804277.45839319 18241.01361588
0.12600001 795494.78042511 19700.42916558
0.12700001 786767.24510625 22658.89772689
0.12800001 778095.49430858 19572.99308179
0.12900001 769482.01912708 16505.39008821
0.13000001 760926.68466742 17942.65207018
0.13100001 752429.76193378 23836.97598168
0.13200001 743992.72867744 19295.45232784
0.13300001 735617.93452187 23657.47388951
0.13400001 727303.34863690 19146.26155553
0.13500001 719052.36307405 22003.00334747
0.13600001 710863.08000099 21912.35547421
0.13700001 702738.51071454 14546.68785771
0.13800001 694676.50611859 17380.80700269
0.13900001 686681.28995260 18746.40009975
0.14000001 678750.43748817 15791.12967288
0.14100001 670885.61184277 14289.86420620
0.14200001 663086.66021440 17067.85143893
0.14300001 655355.57915257 15571.24929512
0.14400001 647689.06975897 16904.68551810
0.14500001 640092.16717318 22428.83059576
0.14600001 632562.14237131 19527.19425618
0.14700001 625102.07941131 18040.44686290
0.14800001 617707.43391679 16566.91415925
0.14900001 610382.82217732 20600.42122043
0.15000001 603126.19108151 16392.97064706
0.15100001 595938.76970966 16304.88550860
0.15200001 588820.82432411 17567.47012267
0.15300001 581772.82889505 18814.53417431
0.15400001 574791.50105650 16036.68363626
0.15500001 567881.26816415 15946.10676259
0.15600001 561037.55980112 14533.67867256
0.15700001 554266.78629725 14449.73580075
0.15800001 547561.31711150 15671.20563539
0.15900001 540927.22551085 15578.70483004
0.16000001 534359.78044633 12904.78930692
0.16100001 527863.97787351 14109.80479460
0.16200001 521435.73528887 15298.92519558
0.16300001 515075.44848843 13937.94229408
0.16400001 508783.96107348 15110.88435726
0.16500001 502559.81165652 16267.86187135
0.16600001 496404.69261105 12434.93813700
0.16700001 490315.27511915 13591.54006802
0.16800001 484292.79572051 14732.18754142
0.16900001 478339.29950638 15856.94852737
0.17000001 472450.85910792 18177.54766252
0.17100001 466628.70299048 15650.72743735
0.17200001 460872.73533670 19135.43687481
0.17300001 455182.33642907 13068.28549602
0.17400001 449557.19234599 15341.13991331
0.17500001 443996.30479435 14065.80360018
0.17600001 438498.12729447 11642.12582952
0.17700001 433065.98919939 15031.72119507
0.17800001 427695.25396631 12631.97992253
0.17900001 422388.06934819 12544.92625218
0.18000001 417143.24136485 13590.52744562
0.18100001 411961.59889154 16869.82827148
0.18200001 406838.72446652 14518.04056839
0.18300001 401777.83180320 14415.78928609
0.18400001 396776.68747790 13212.66431719
0.18500001 391836.73543155 12025.46997850
0.18600001 386954.25780414 13024.88093303
0.18700001 382130.12566447 14008.89106871
0.18800001 377364.01022599 11768.09721489
0.18900001 372657.15511862 11682.80236495
0.19000001 368003.09376880 14760.60478849
0.19100001 363409.82545914 11512.82381453
0.19200001 358868.95644478 17661.73652597
0.19300001 354385.30349411 10312.61281898
0.19400001 349954.31379317 14330.62982701
0.19500001 345577.84522751 11175.98804278
0.19600001 341254.29723944 15126.09743994
0.19700001 336983.22201984 11009.24238366
0.19800001 332764.35612973 10926.31814988
0.19900001 328597.30318552 12815.29542989
0.20000001 324479.25531728 13696.27001424
0.20100001 320412.97914338 11650.21647227
0.20200001 316394.53307557 10597.63538625
0.20300001 312426.65848968 14340.38430247
0.20400001 308505.98159041 13281.18313521
0.20500001 304632.75421516 11295.78306021
0.20600001 300806.66224987 11208.05676521
0.20700001 297027.30656628 12047.42812380
0.20800001 293292.13487106 9194.70886284
0.20900001 289604.66365492 11859.31153727
0.21000001 285959.50143854 9955.68051321
0.21100001 282359.13531189 9876.92302013
0.21200001 278801.53775538 11580.02241811
0.21300001 275285.95823129 9720.34764468
0.21400001 271813.34649866 9642.57892291
0.21500001 268383.15669904 9565.17615697
0.21600001 264992.62032598 9488.06121935
0.21700001 261642.57551787 11122.42641113
0.21800001 258332.59709966 11032.09408074
0.21900001 255060.89714749 9258.71100422
0.22000001 251827.44618337 10852.50430641
0.22100001 248633.78535640 10763.35707701
0.22200001 245477.29027457 13137.94519672
0.22300001 242356.67843370 8957.50325847
0.22400001 239271.64795546 8075.41850035
0.22500001 236225.48406581 8008.04428851
0.22600001 233212.13662457 11117.22307861
0.22700001 230235.91873079 9448.88255154
0.22800001 227292.27846664 10149.73717491
0.22900001 224381.96760219 7741.17824836
0.23000001 221506.29574033 8442.71286141
0.23100001 218664.04036058 9892.36165375
0.23200001 215852.33810064 9807.25144542
0.23300001 213073.48008442 9722.54335607
0.23400001 210326.68912227 10379.62259909
0.23500001 207608.82993696 8084.28822010
0.23600001 204923.39692911 9470.53523701
0.23700001 202267.31710443 11553.50969946
0.23800001 199641.22537027 8588.56592166
0.23900001 197043.82540297 7802.93585503
0.24000001 194475.30049316 9139.36717897
0.24100001 191936.35887292 11147.66425064
0.24200001 189424.78470362 11047.25396647
0.24300001 186941.06046670 8210.45176407
0.24400001 184484.34022687 7457.77980645
0.24500001 182054.45195312 7389.59055434
0.24600001 179651.44551104 7987.30364526
0.24700001 177274.82458311 9232.47330104
0.24800001 174924.04190775 9146.77858406
0.24900001 172597.77064324 7119.65837585
0.25000001 170297.98769889 7694.06344823
0.25100001 168021.71824716 8256.58762528
0.25200001 165771.63072166 6920.13705187
0.25300001 163545.69470737 9969.74602103
0.25400001 161343.23085598 8022.79253388
0.25500001 159164.00361843 7945.46743655
0.25600001 157008.95797015 6657.96517773
0.25700001 154876.29238608 8391.19791849
0.25800001 152767.26186425 8902.51260635
0.25900001 150680.76135363 8227.16995917
0.26000001 148616.49324645 8727.50397884
0.26100001 146573.78616830 7488.45508966
0.26200001 144553.84628459 6843.17940691
0.26300001 142554.66618852 6209.68155300
0.26400001 140577.36252371 10058.31076451
0.26500001 138621.66952793 7190.30633865
0.26600001 136685.92028088 7663.97991281
0.26700001 134772.08352019 8126.75702083
0.26800001 132879.16202036 6434.00932949
0.26900001 131005.10689442 5305.70708030
0.27000001 129152.33934881 6300.05141157
0.27100001 127319.06757941 6753.00366398
0.27200001 125507.19283852 5139.51978996
0.27300001 123713.97094384 6610.03778034
0.27400001 121938.42788691 5029.96038838
0.27500001 120185.13169938 6965.93056296
0.27600001 118448.47026585 6890.14784145
0.27700001 116732.76099724 6814.85890954
0.27800001 115034.78875395 5777.04736463
0.27900001 113356.78325306 6189.28065854
0.28000001 111695.86324570 5178.77894449
0.28100001 110054.34402024 6051.88866410
0.28200001 108431.42420991 5063.20559312
0.28300001 106826.49359436 4550.80884251
0.28400001 105239.17508755 7648.25741149
0.28500001 103670.49730213 5336.95745372
0.28600001 102119.28922423 7473.60053562
0.28700001 100585.85152140 5648.90168882
0.28800001 99069.03297076  4724.10706082
0.28900001 97571.96961952  4668.81896729
0.29000001 96090.41797673  4194.34694322
0.29100001 94627.16469000  4144.67000961
0.29200001 93180.86283551  5733.41876166
0.29300001 91751.74809756  4450.87751090
0.29400001 90338.98328642  4397.25021962
0.29500001 88944.24092818  5923.68672623
0.29600001 87565.42769147  5071.35198482
0.29700001 86203.35297127  4238.61906625
0.29800001 84857.76351160  4567.04504839
0.29900001 83529.58763545  5638.24743230
0.30000001 82216.80418309  3712.08888460
0.30100001 80921.53324246  4032.32019236
0.30200001 79640.95055950  5067.55392400
0.30300001 78377.86188440  3931.43373824
0.30400001 77130.53401811  3881.59430822
0.30500001 75898.98039876  3832.13970176
0.30600001 74682.63600310  3783.04910584
0.30700001 73483.17286243  4752.89184576
0.30800001 72299.05623049  4691.48598091
0.30900001 71130.49809661  3969.08198170
0.31000001 69978.03662365  3917.37067566
0.31100001 68839.84708534  3866.04599535
0.31200001 67717.92859465  4133.16396746
0.31300001 66610.74497076  3451.10286033
0.31400001 65519.92249058  4334.14307796
0.31500001 64443.05058980  3970.98096536
0.31600002 63381.74931652  3013.80232270
0.31700002 62335.24316073  4162.74773537
0.31800002 61303.75974534  4986.75457260
0.31900002 60287.12106945  4051.29472769
0.32000002 59285.44604953  3996.43210743
0.32100002 58297.57481863  3660.50489619
0.32200002 57325.60055900  3055.16802646
0.32300002 56366.13867867  3287.27336340
0.32400002 55421.80762797  3512.35722474
0.32500002 54491.77335243  2931.11262742
0.32600002 53576.35381615  3416.29636286
0.32700002 52674.15782544  2850.72555650
0.32800002 51786.77409452  2811.24516484
0.32900002 50912.59734474  3780.26053186
0.33000002 50053.15899865  3230.68130055
0.33100002 49205.05760075  3920.65917529
0.33200002 48373.37821899  3866.00057034
0.33300002 47553.73317544  2620.68635940
0.33400002 46748.06419300  3288.72647172
0.33500002 45954.64720513  3474.17149323
0.33600002 45175.52630980  2968.70985204
0.33700002 44408.25845043  2701.79857207
0.33800002 43655.25329511  2663.84368222
0.33900002 42913.91366583  3282.91455091
0.34000002 42186.01240953  2805.15902802
0.34100002 41470.46642281  2765.66553672
0.34200002 40768.08372470  2307.26980767
0.34300002 40076.91966867  2688.35989869
0.34400002 39399.64067671  2038.93150158
0.34500002 38733.42898682  2211.29156558
0.34600002 38080.43599581  3369.54753867
0.34700002 37437.70336685  2149.67302914
0.34800002 36808.51480844  2312.31100978
0.34900002 36190.16279298  2279.98036394
0.35000002 35583.79503870  2248.18427702
0.35100002 34989.45471994  2032.18762638
0.35200002 34405.26115544  2186.11039736
0.35300002 33832.80947559  1976.17449507
0.35400002 33271.87844982  1948.90037251
0.35500002 32722.18813988  1747.36492943
0.35600002 32182.37805392  1895.70306905
0.35700002 31653.74063867  1699.80595281
0.35800002 31136.47426884  1676.69921879
0.35900002 30629.63710442  2646.40077117
0.36000002 30133.50372744  1631.72930413
0.36100002 29646.77188866  2092.76572675
0.36200002 29171.57522046  1747.23158059
0.36300002 28705.28080976  1724.03924710
0.36400002 28249.12477560  2938.61534398
0.36500002 27802.61445531  1678.99996649
0.36600002 27366.31795056  1657.16746199
0.36700002 26938.91907123  2081.83976444
0.36800002 26522.58468394  2348.84021087
0.36900002 26114.54610856  1884.16459098
0.37000002 25715.34030144  1574.16463112
0.37100002 25325.10193642  1554.45483049
0.37200002 24944.90649502  1395.66758451
0.37300002 24572.71247569  1378.52923519
0.37400002 24209.42763885  1634.13644303
0.37500002 23855.09101210  1749.05535586
0.37600002 23509.46809944  1728.29862920
0.37700002 23171.52568326  1576.59068217
0.37800002 22841.82486084  1558.26936582
0.37900002 22520.94590663  1925.54096623
0.38000002 22207.81945183  1523.01233016
0.38100002 21901.64559691  1631.45365780
0.38200002 21604.30966700  1985.86823867
0.38300002 21313.78885951  1595.97658541
0.38400002 21031.67794804  1457.49535085
0.38500002 20755.67886796  1562.28002240
0.38600002 20488.37585652  1427.22032978
0.38700002 20227.19974761  1648.11231351
0.38800002 19973.45525424  1515.08652009
0.38900002 19725.91419845  1384.75924234
0.39000002 19486.44553814  1600.03211894
0.39100002 19252.46919127  2037.68143574
0.39200002 19025.67333683  1345.87619561
0.39300002 18804.84190452  1555.91269289
0.39400002 18591.84260685  1542.19341730
0.39500002 18383.71457203  1637.98904597
0.39600002 18181.75806658  1732.35799066
0.39700002 17985.78012368  1181.12623668
0.39800002 17795.98077723  1278.10739998
0.39900002 17611.56803122  1373.70237152
0.40000002 17432.80286451  1153.44145618
0.40100002 17259.83165867  1561.15184749
0.40200002 17092.50149080  1756.51099892
0.40300002 16929.90831125  1333.73823995
0.40400002 16772.92377845  1222.74620138
0.40500002 16621.20481513  1214.67770544
0.40600002 16474.19626130  1609.19956705
0.40700002 16332.32203500  1099.49197149
0.40800002 16195.26319060  993.57944382
0.40900002 16062.70713240  1580.57045672
0.41000002 15935.25497883  1178.89021919
0.41100002 15811.89254044  977.17500530
0.41200002 15692.74118403  1263.81497114
0.41300002 15578.62853042  1354.40602861
0.41400002 15468.20118061  962.89556912
0.41500002 15362.14607779  1246.17734888
0.41600002 15259.50205882  1049.93008891
0.41700002 15161.33895293  1140.73919687
0.41800002 15067.85884156  1136.41796768
0.41900002 14976.20264055  1037.85089217
0.42000002 14889.56270851  1222.35870848
0.42100002 14806.67280046  1124.71491922
0.42200002 14727.30338912  1214.78167761
0.42300002 14650.70343122  1211.32021709
0.42400002 14577.50856997  1672.76918767
0.42500002 14507.89862340  1019.76024256
0.42600002 14440.61956112  1294.89041741
0.42700002 14377.67583593  923.04683241
0.42800002 14316.98534877  921.29805085
0.42900002 14260.16734846  1103.73700507
0.43000002 14205.66752768  1102.07573902
0.43100002 14153.10000701  1100.54510870
0.43200002 14104.30343601  1282.50437221
0.43300002 14057.90130817  1189.72024409
0.43400002 14014.18382764  1280.19575332
0.43500002 13972.66503927  1279.33727162
0.43600002 13934.06866581  1187.39171763
0.43700002 13897.17569385  1004.34893499
0.43800002 13862.47874325  1277.98197590
0.43900002 13830.80887392  1095.40011472
0.44000002 13800.85868745  1460.68295270
0.44100002 13773.27776113  1643.70304591
0.44200002 13747.57308438  1187.58415717
0.44300002 13723.86662876  1188.21242903
0.44400002 13702.45412382  1097.56662733
0.44500002 13681.67710168  915.30424148
0.44600002 13663.14067861  916.11362592
0.44700002 13647.41164992  1100.52732761
0.44800002 13631.75582713  1193.52843801
0.44900002 13619.47174430  919.31438631
0.45000002 13608.07796225  1196.76247311
0.45100002 13597.84288955  1751.67420405
0.45200002 13589.45706728  923.40365148
0.45300002 13582.03035724  1109.92357340
0.45400002 13576.43031031  1111.90969511
0.45500002 13572.18760119  1021.17144351
0.45600002 13569.00693201  930.15546927
0.45700002 13567.17510120  1118.47796835
0.45800002 13566.09790838  1120.83106231
0.45900002 13566.22047129  1029.67618257
0.46000002 13568.29708118  1125.89734516
0.46100002 13570.19611973  940.41463567
0.46200002 13574.06770557  1036.99095152
0.46300002 13578.82347275  1228.61200604
0.46400002 13583.79813304  1042.21696115
0.46500002 13590.19184121  1139.94534567
0.46600002 13597.17421935  1047.73030913
0.46700002 13604.57661008  955.04132329
0.46800002 13613.88482006  1628.15263222
0.46900002 13622.81716548  1056.44952126
0.47000002 13632.82704486  1348.42298692
0.47100002 13643.47038562  1062.55352399
0.47200002 13654.95742267  1162.58313007
0.47300002 13667.09363100  1068.90344354
0.47400002 13679.04801126  1559.41154720
0.47500002 13691.97051656  1173.12808946
0.47600002 13705.94722823  1274.85874186
0.47700002 13719.43254985  1180.42003254
