# SAXS profile: number of points = 501, q_min = 0, q_max = 0.5, delta_q = 0.001
#    q    intensity    error
0.00000000 1682732.95097188 252.40994265
0.00100000 1682645.65808424 555.27308035
0.00200000 1682383.75014664 832.77998269
0.00300000 1681947.43770503 1211.00219829
0.00400000 1681336.61538697 1387.10276040
0.00500000 1680551.92098843 1966.24582538
0.00600000 1679593.20334850 1939.93022885
0.00700000 1678461.21811192 2819.81496362
0.00800000 1677155.74375247 2490.57638462
0.00900000 1675678.21739127 2513.51743353
0.01000000 1674027.99420491 3314.57557165
0.01100000 1672206.69353709 3009.97217942
0.01200000 1670214.20212196 4559.68497171
0.01300000 1668051.88511157 5954.94549249
0.01400000 1665719.86567298 5247.01780948
0.01500000 1663219.77570492 5189.24593127
0.01600000 1660551.25551324 8045.37119262
0.01700000 1657716.53690247 4923.41833546
0.01800000 1654716.06102446 4715.94098613
0.01900000 1651550.93167622 7431.97952789
0.02000000 1648221.80838030 5711.08882438
0.02100000 1644731.53591485 8141.42147190
0.02200000 1641078.61141207 6227.89361326
0.02300000 1637266.42204883 7662.40720397
0.02400000 1633295.33821326 8574.80091661
0.02500000 1629167.90706344 9530.63269159
0.02600000 1624884.27448483 6580.78161266
0.02700000 1620446.78469576 8847.63984967
0.02800000 1615855.59260465 7028.97215018
0.02900000 1611114.33943059 7250.01486032
0.03000000 1606223.40231946 11950.30266256
0.03100000 1601184.59688387 10759.96098616
0.03200000 1595999.05150484 10270.25436946
0.03300000 1590671.07525556 8923.66514357
0.03400000 1585198.88833749 13315.67127643
0.03500000 1579587.01304050 10235.72431717
0.03600000 1573835.81254978 9608.26807965
0.03700000 1567948.44976473 9831.03723469
0.03800000 1561926.26633473 9137.26908093
0.03900000 1555772.04678679 11201.55925561
0.04000000 1549485.83317313 9529.33831559
0.04100000 1543071.77941115 10693.48792714
0.04200000 1536531.27735850 12883.81535837
0.04300000 1529866.17623743 10097.11723185
0.04400000 1523079.86822655 14393.10542318
0.04500000 1516173.70871675 13600.07879912
0.04600000 1509149.02855028 10639.50114588
0.04700000 1502009.82082934 10814.47121293
0.04800000 1494757.66198930 14282.41012484
0.04900000 1487395.28631513 12271.01168328
0.05000000 1479924.24870033 12453.56313273
0.05100000 1472348.54649053 13781.18303713
0.05200000 1464667.74096806 16301.75271666
0.05300000 1456886.98461622 11800.78512552
0.05400000 1449007.46860182 13149.74339078
0.05500000 1441032.56058363 18157.01111037
0.05600000 1432963.46086083 14702.20579450
0.05700000 1424804.84240792 12395.80270757
0.05800000 1416556.08689704 18804.78293160
0.05900000 1408221.55013325 13941.39399746
0.06000000 1399804.60709693 16650.67657932
0.06100000 1391306.76107454 15526.98417919
0.06200000 1382730.91823577 18293.53090336
0.06300000 1374080.35147193 14510.28918998
0.06400000 1365354.36443310 14643.42624337
0.06500000 1356559.50597435 16115.92768484
0.06600000 1347696.97805546 14898.79078950
0.06700000 1338768.28290234 15020.98083713
0.06800000 1329777.51770618 16515.83754300
0.06900000 1320727.93279826 16641.17273238
0.07000000 1311619.28374686 15365.62062864
0.07100000 1302456.40748783 16879.83583166
0.07200000 1293240.85091308 16993.18557707
0.07300000 1283976.38610053 15677.35240886
0.07400000 1274665.60937784 15773.98765529
0.07500000 1265309.37810973 27406.60241447
0.07600000 1255911.00430600 17406.92733573
0.07700000 1246474.22646558 16042.12404680
0.07800000 1237000.21744758 24919.37054911
0.07900000 1227490.96295583 19148.85992026
0.08000000 1217952.05334337 19237.55358501
0.08100000 1208383.69298707 16349.43213320
0.08200000 1198787.40204758 19402.37501260
0.08300000 1189167.07781431 16481.85647203
0.08400000 1179525.43638117 21054.53002768
0.08500000 1169864.36130744 22636.87645399
0.08600000 1160186.74092140 18168.52521587
0.08700000 1150494.26947012 15186.52507013
0.08800000 1140789.10505482 16752.48879449
0.08900000 1131074.83069676 16796.46202477
0.09000000 1121353.06431825 16837.11705167
0.09100000 1111626.12011528 16874.48529613
0.09200000 1101895.49774039 18445.73149888
0.09300000 1092165.91940106 16939.49420593
0.09400000 1082435.85851123 16967.18287958
0.09500000 1072709.81556591 16991.72427722
0.09600000 1062989.30107509 17013.14456346
0.09700000 1053279.13694035 17031.52444502
0.09800000 1043578.06757816 17046.84853539
0.09900000 1033890.35879076 18610.02733332
0.10000000 1024214.98791477 18620.22935595
0.10100000 1014556.47733607 15522.71483330
0.10200000 1004916.37886248 18631.15054045
0.10300000 995296.14970033 20184.60686542
0.10400000 985698.44444407 18629.70147643
0.10500000 976126.50649575 21728.57705691
0.10600001 966577.05125638 18616.27488316
0.10700001 957057.71869861 18605.20292702
0.10800001 947566.12415144 17041.97754489
0.10900001 938106.91372709 18574.51776602
0.11000001 928680.21824772 23193.78954246
0.11100001 919287.61356766 15444.03263494
0.11200001 909931.47811699 18508.00713620
0.11300001 900612.31715807 24640.75415755
0.11400001 891332.63732960 26138.33082040
0.11500001 882094.52911668 16883.29008229
0.11600001 872898.14695457 22979.04480070
0.11700001 863745.67075680 16817.12900164
0.11800001 854637.25871231 16780.80336516
0.11900001 845574.71070684 19786.44916251
0.12000001 836559.76043074 18220.27244045
0.12100001 827594.90069835 19688.48361510
0.12200001 818679.29645276 16615.09710427
0.12300001 809815.70269294 22593.85916963
0.12400001 801004.03121283 16520.70892218
0.12500001 792244.91245689 20962.80137139
0.12600001 783541.95180361 17911.76986230
0.12700001 774894.09384781 17853.56076363
0.12800001 766302.29639760 20759.13018777
0.12900001 757768.42492578 23642.37597200
0.13000001 749293.18399043 17668.33411129
0.13100001 740876.34060601 19070.15790612
0.13200001 732519.54102588 16075.14208560
0.13300001 724224.76096998 14556.91838175
0.13400001 715990.57121644 14498.80975069
0.13500001 707819.71953776 15883.47525530
0.13600001 699710.77593973 17254.86854825
0.13700001 691666.18216032 15749.23971042
0.13800001 683684.63130865 15680.30775848
0.13900001 675769.58815124 17029.39442449
0.14000001 667918.96323854 18364.43276032
0.14100001 660134.38353152 14060.86303237
0.14200001 652415.49103888 13994.31294283
0.14300001 644764.59510192 18104.99068443
0.14400001 637178.24743960 16630.35304263
0.14500001 629661.28052071 19305.41577144
0.14600001 622211.22328784 19207.66136900
0.14700001 614830.85240972 15014.17012416
0.14800001 607516.14767955 13577.98654123
0.14900001 600271.20934397 16207.32341696
0.15000001 593094.12671118 16120.29912461
0.15100001 585986.30020867 24048.87889531
0.15200001 578947.53886004 19930.26996571
0.15300001 571978.71237401 19819.06331900
0.15400001 565076.47729375 14451.83158878
0.15500001 558245.15881751 13062.93733281
0.15600001 551480.43372670 15584.83779264
0.15700001 544788.23096467 15493.77801989
0.15800001 538161.20337122 19252.71795931
0.15900001 531605.51596532 14034.38628392
0.16000001 525116.09716003 16486.02064852
0.16100001 518698.20824890 17646.11387760
0.16200001 512347.74158700 13779.59316046
0.16300001 506065.08067026 18673.80235828
0.16400001 499850.95777336 13608.44296783
0.16500001 493703.98331739 15981.19869448
0.16600001 487625.69709384 17101.03400447
0.16700001 481613.07122557 13350.31496470
0.16800001 475666.92368773 15675.60421027
0.16900001 469789.68542332 19167.42007032
0.17000001 463977.35663170 19041.63161530
0.17100001 458230.76702922 13004.58978238
0.17200001 452550.36774847 17615.52389647
0.17300001 446935.13299694 17497.51128314
0.17400001 441384.77150195 16220.89111874
0.17500001 435898.57083810 17261.58422041
0.17600001 430474.81029195 12572.01742834
0.17700001 425116.57468387 12485.67438817
0.17800001 419819.76535465 13526.59347862
0.17900001 414586.17707565 15671.35823367
0.18000001 409414.44921264 15561.84394964
0.18100001 404305.64672012 16556.31701525
0.18200001 399255.33415639 10959.55944030
0.18300001 394266.51285419 14146.28314947
0.18400001 389337.37912275 14045.34661537
0.18500001 384469.05383489 11799.35581962
0.18600001 379657.69020847 11714.33858481
0.18700001 374904.44584151 14801.22822110
0.18800001 370208.83618320 12594.50520199
0.18900001 365572.27227181 12502.57230241
0.19000001 360988.00557720 15513.46027267
0.19100001 356464.20101333 12319.40336911
0.19200001 351992.48828365 14266.25622424
0.19300001 347577.55513806 11125.95806570
0.19400001 343214.95711629 11042.94176704
0.19500001 338906.47088614 13949.39100085
0.19600001 334650.66713876 12855.60598564
0.19700001 330446.71344538 11777.12142375
0.19800001 326294.63647154 10713.88489487
0.19900001 322194.06433607 12565.56910296
0.20000001 318142.10539762 12469.58041039
0.20100001 314141.47717146 14277.73081224
0.20200001 310188.35258102 10389.75936076
0.20300001 306285.23615823 10309.56153636
0.20400001 302429.14310841 11159.63590817
0.20500001 298619.88832317 11072.82598240
0.20600001 294857.25964033 10070.85017904
0.20700001 291141.14494304 9991.96456676
0.20800001 287468.89558353 11715.79539331
0.20900001 283843.90079282 11623.40828692
0.21000001 280260.65326034 15966.45017101
0.21100001 276721.62539687 10559.69772434
0.21200001 273225.28612996 9602.50313499
0.21300001 269770.35543627 8659.62881889
0.21400001 266357.94317853 9449.04848098
0.21500001 262987.58029234 12781.19700647
0.21600001 259656.37676758 11832.54164872
0.21700001 256365.32492728 10059.77582577
0.21800001 253113.77088458 9977.74532002
0.21900001 249900.13261435 9896.04571943
0.22000001 246724.40877507 11450.48035266
0.22100001 243587.86791512 9733.77166213
0.22200001 240488.02865443 8044.32493886
0.22300001 237423.75820588 10370.67024881
0.22400001 234394.69190996 9492.98547124
0.22500001 231403.75083312 10197.96378145
0.22600001 228445.26743844 10112.13024135
0.22700001 225523.50688141 8484.19473009
0.22800001 222634.05065407 9941.72400210
0.22900001 219777.35782834 8340.55112402
0.23000001 216954.78271465 9020.98029189
0.23100001 214165.23154678 8943.54049236
0.23200001 211405.90821877 7388.63684168
0.23300001 208678.67383095 11719.39487661
0.23400001 205983.10588927 10165.26675641
0.23500001 203316.29217661 8636.87650015
0.23600001 200681.20575942 7847.63892239
0.23700001 198075.12036429 7778.41034461
0.23800001 195498.47987384 7008.62083498
0.23900001 192950.20285807 11808.55297345
0.24000001 190430.31514699 8260.86746182
0.24100001 187939.50993904 8868.86589353
0.24200001 185475.79705696 7436.65243477
0.24300001 183039.23052021 8039.08338472
0.24400001 180629.26161267 7965.75081393
0.24500001 178245.82901176 6577.27140167
0.24600001 175888.57689823 8471.67370706
0.24700001 173557.46827479 8393.23956282
0.24800001 171251.74180892 7675.50343098
0.24900001 168970.14956482 6970.01899928
0.25000001 166714.42847133 6904.47838178
0.25100001 164481.86364247 8082.63916177
0.25200001 162275.06156778 7390.00665342
0.25300001 160091.94895877 7319.40425268
0.25400001 157931.81149057 6644.98128285
0.25500001 155794.53124861 6580.76131129
0.25600001 153680.99444622 7109.28313944
0.25700001 151589.46586814 5866.51260666
0.25800001 149521.01096603 8132.44817122
0.25900001 147474.68071551 8627.26923005
0.26000001 145450.30728907 5694.37979980
0.26100001 143446.77988728 6201.20458794
0.26200001 141465.87351208 7813.16056377
0.26300001 139505.20517579 6629.28766364
0.26400001 137565.87509624 6015.06817321
0.26500001 135647.90349304 7577.29224767
0.26600001 133749.38588707 6427.99578990
0.26700001 131872.31509862 6891.64751317
0.26800001 130015.79185841 7344.59242963
0.26900001 128177.71622260 5710.31752794
0.27000001 126360.62209819 7191.18334391
0.27100001 124562.55955604 6098.58320447
0.27200001 122785.37776734 5530.86760327
0.27300001 121026.55338266 5471.61073737
0.27400001 119285.01665519 8364.86218881
0.27500001 117565.37477764 5840.64809536
0.27600001 115861.85493384 5295.46633036
0.27700001 114178.98408641 4761.26386174
0.27800001 112513.39138009 5179.55421732
0.27900001 110867.39225464 7915.93218163
0.28000001 109238.17336657 4604.38922532
0.28100001 107627.90528862 5463.19273102
0.28200001 106035.93788297 5851.59350903
0.28300001 104461.41675074 6230.07918989
0.28400001 102904.22088995 4399.15565126
0.28500001 101365.38203872 7392.57766198
0.28600001 99843.53893140  5157.91746533
0.28700001 98339.09135157  5097.89873696
0.28800001 96851.02127057  4198.49197081
0.28900001 95382.28843430  6223.69461493
0.29000001 93928.70040691  4919.98556020
0.29100001 92493.02146712  4861.43343843
0.29200001 91074.03600940  5203.51529371
0.29300001 89671.90729415  4745.43755864
0.29400001 88285.66276073  4687.96891451
0.29500001 86917.18599994  5016.86021340
0.29600001 85564.22657751  4193.07512192
0.29700001 84227.78955303  5647.47355687
0.29800001 82907.51310315  5577.60320805
0.29900001 81604.19277206  4773.84550315
0.30000001 80315.94361148  6164.65054373
0.30100001 79044.99936079  5729.18182489
0.30200001 77788.30141168  5303.21769980
0.30300001 76548.93484194  4537.82107226
0.30400001 75325.02185789  3790.73190446
0.30500001 74116.47761997  4082.33578057
0.30600001 72922.83339225  5037.14495504
0.30700001 71745.84695624  3314.65828630
0.30800001 70583.74835081  4253.02395823
0.30900001 69437.12954215  4197.47467955
0.31000001 68306.25352423  3823.78425332
0.31100001 67189.39986125  4087.80328110
0.31200001 66088.39772183  3723.42050394
0.31300001 65001.96828708  3673.91142153
0.31400001 63931.47651527  3926.99113088
0.31500001 62874.78882926  4470.39769742
0.31600002 61833.42176962  4410.26901653
0.31700002 60806.63787703  4060.66746969
0.31800002 59794.46469455  3433.39832533
0.31900002 58797.02425710  3386.70875757
0.32000002 57814.04762929  3618.87048271
0.32100002 56844.78319261  4392.96505313
0.32200002 55891.17155144  3249.51286787
0.32300002 54949.86043163  4272.90134949
0.32400002 54023.46880224  3687.10192034
0.32500002 53111.08367517  3116.55853763
0.32600002 52212.92949552  3073.25317563
0.32700002 51327.88757200  2777.86540694
0.32800002 50457.53277036  3486.11110418
0.32900002 49600.01118430  3682.80100483
0.33000002 48756.99369073  4115.33424734
0.33100002 47925.14270581  3818.67555163
0.33200002 47109.57276651  3059.06025245
0.33300002 46305.85455514  2783.90810769
0.33400002 45515.67383530  3888.17662151
0.33500002 44737.75379974  2705.73947794
0.33600002 43973.74711232  2889.73492833
0.33700002 43221.58056725  3725.26820551
0.33800002 42483.36442877  2592.33502021
0.33900002 41756.67677756  3194.38592476
0.34000002 41043.27492319  2519.23633409
0.34100002 40341.89861548  2069.53949698
0.34200002 39653.53356192  2856.24415773
0.34300002 38976.33726043  2212.29700767
0.34400002 38312.74554842  2180.95314363
0.34500002 37660.09421059  2540.92667673
0.34600002 37020.38343009  2504.98436343
0.34700002 36390.94005220  2469.48930890
0.34800002 35774.66554739  2060.08421311
0.34900002 35169.20177616  2769.57477104
0.35000002 34575.53006960  1820.40174438
0.35100002 33993.70584422  2333.32807966
0.35200002 33421.90786210  1769.69010512
0.35300002 32861.73818591  2442.94173245
0.35400002 32312.78727974  1720.65600414
0.35500002 31775.00759357  2205.82113162
0.35600002 31246.98386970  1840.60367202
0.35700002 30730.09837990  2805.35081398
0.35800002 30224.24644593  2278.60604749
0.35900002 29728.81147570  2086.96266444
0.36000002 29243.89883110  1900.26863605
0.36100002 28768.33162474  2030.75662558
0.36200002 28304.03296601  2003.50106840
0.36300002 27848.66226037  1672.59073458
0.36400002 27403.20906576  1650.35834416
0.36500002 26967.34532153  2072.71025959
0.36600002 26541.44877882  2045.54955428
0.36700002 26124.54037290  1442.07469689
0.36800002 25718.39403176  2277.62108334
0.36900002 25320.53444540  1826.87664677
0.37000002 24931.33478304  1526.17173104
0.37100002 24551.10136448  1369.95152103
0.37200002 24180.58547808  1623.48458590
0.37300002 23818.16992246  1469.81933554
0.37400002 23464.53651783  1451.86826582
0.37500002 23119.72351387  1564.74296154
0.37600002 22783.52234888  1546.08989984
0.37700002 22454.90531927  1527.83183030
0.37800002 22134.45370938  1258.34375299
0.37900002 21822.67748754  1492.67121086
0.38000002 21518.66769686  1475.75030056
0.38100002 21221.49521063  1337.59090649
0.38200002 20932.97548263  1683.63929783
0.38300002 20651.31295659  1427.41881918
0.38400002 20377.91173362  1647.55424171
0.38500002 20110.65961626  1979.49231981
0.38600002 19851.82772306  1382.87838470
0.38700002 19599.20529328  1140.67380211
0.38800002 19353.86719264  1468.08766545
0.38900002 19114.64106426  1341.84786628
0.39000002 18883.45761405  1107.51484153
0.39100002 18657.78871562  1206.78583130
0.39200002 18439.10848081  1630.47824466
0.39300002 18226.41520767  1184.89930879
0.39400002 18021.36985448  1067.76621447
0.39500002 17821.19202657  1164.43674218
0.39600002 17627.14858545  1364.60577239
0.39700002 17438.97962881  1145.21784648
0.39800002 17256.98994385  1032.83089707
0.39900002 17080.34061322  1229.78458242
0.40000002 16909.22102465  1220.50763139
0.40100002 16743.91573753  1211.58980017
0.40200002 16584.06588851  1403.50956264
0.40300002 16428.98871028  1194.71611562
0.40400002 16279.44255433  1285.66903664
0.40500002 16135.16494855  1080.89475112
0.40600002 15995.57184125  976.52970718
0.40700002 15861.03068709  1164.83414885
0.40800002 15731.14261298  1061.61620954
0.40900002 15605.83985918  1151.71103618
0.41000002 15485.59357089  1336.56164443
0.41100002 15369.36806777  1519.72318655
0.41200002 15257.33326905  1039.71102488
0.41300002 15150.34215986  1034.91992198
0.41400002 15046.83230375  1123.99842635
0.41500002 14947.74411704  1212.56106023
0.41600002 14852.10032158  1207.69859487
0.41700002 14760.79348677  1018.05197502
0.41800002 14674.21795598  1014.50210646
0.41900002 14589.40599259  1011.04588319
0.42000002 14509.45933923  1099.52688083
0.42100002 14433.41662211  913.63531547
0.42200002 14360.69957545  1002.30507436
0.42300002 14290.83083218  908.89688400
0.42400002 14224.25618717  1088.15564988
0.42500002 14161.31758867  995.39906048
0.42600002 14100.63746524  1806.29174489
0.42700002 14044.30664430  1081.97343515
0.42800002 13990.14924309  1350.39921968
0.42900002 13939.84038582  1258.76764649
0.43000002 13891.85499113  987.91931451
0.43100002 13845.70425882  1345.80251773
0.43200002 13803.35239470  1344.79167078
0.43300002 13763.34639409  1075.19267126
0.43400002 13725.91700670  985.17773984
0.43500002 13690.78683845  984.91525183
0.43600002 13658.53138770  1342.97516234
0.43700002 13627.93576837  1432.56867586
0.43800002 13599.49501183  1074.63214676
0.43900002 13574.06038822  1075.06563369
0.44000002 13550.29170083  1165.25739003
0.44100002 13528.89877974  1076.35923792
0.44200002 13509.30172287  1167.00108463
0.44300002 13491.82020221  1257.97737527
0.44400002 13476.45560982  899.55345459
0.44500002 13461.73152075  900.58988142
0.44600002 13449.31785347  1172.30984625
0.44700002 13439.55627117  1174.07969149
0.44800002 13430.00499209  1356.76631862
0.44900002 13423.70489213  1177.93016011
0.45000002 13418.23722831  1180.06692897
0.45100002 13413.96330867  1091.36010652
0.45200002 13411.44933807  1002.43882828
0.45300002 13409.95432316  1095.86151922
0.45400002 13410.30251259  1006.77850885
0.45500002 13411.84811423  1100.84454539
0.45600002 13414.53086214  1103.47936102
0.45700002 13418.45724611  1290.58727910
0.45800002 13423.17377118  924.18555795
0.45900002 13429.05631199  926.60492944
0.46000002 13436.81603119  1114.98704711
0.46100002 13444.49775474  1211.21486013
0.46200002 13453.96894089  1121.25382468
0.46300002 13464.43599149  937.12478942
0.46400002 13474.99146148  939.88069898
0.46500002 13487.02140112  1225.56569281
0.46600002 13499.56992929  1418.46737755
0.46700002 13512.56244319  1043.44012132
0.46800002 13527.35911376  1617.80458989
0.46900002 13541.82871758  1241.10866079
0.47000002 13557.30931861  1149.38873851
0.47100002 13573.42184079  960.99831188
0.47200002 13590.32677839  1060.65710369
0.47300002 13607.89003161  1161.02523253
0.47400002 13625.22251141  1067.87686495
0.47500002 13643.52689139  1168.97743946
0.47600002 13662.72149677  1368.59487720
0.47700002 13681.56929257  1275.25913420
