# SAXS profile: number of points = 501, q_min = 0, q_max = 0.5, delta_q = 0.001
#    q    intensity    error
0.00000000 1682732.95097188 328.13292544
0.00100000 1682645.67776031 706.71120144
0.00200000 1682383.81892561 908.48729099
0.00300000 1681947.60272393 1513.75289638
0.00400000 1681336.90180754 1387.10299670
0.00500000 1680552.36588019 1663.74690807
0.00600000 1679593.84273206 2116.28832800
0.00700000 1678462.09010068 2618.40096938
0.00800000 1677156.87163852 2716.99424677
0.00900000 1675679.64033357 3267.57543833
0.01000000 1674029.76778093 3314.57908333
0.01100000 1672208.84787307 4514.96408584
0.01200000 1670216.72643886 4559.69186309
0.01300000 1668054.86841592 3502.91537817
0.01400000 1665723.30681643 4122.66536713
0.01500000 1663223.75218800 5588.43205620
0.01600000 1660555.76945313 5504.74262182
0.01700000 1657721.64744311 5818.60324354
0.01800000 1654721.78543334 5187.55303076
0.01900000 1651557.31461133 5945.60660088
0.02000000 1648228.87619599 6749.49755334
0.02100000 1644739.28643430 7598.69584784
0.02200000 1641087.11313773 6227.92587731
0.02300000 1637275.74280864 9430.70870785
0.02400000 1633305.45943840 7349.87490261
0.02500000 1629178.85081443 8259.93715087
0.02600000 1624896.14660514 9213.16157265
0.02700000 1620459.52472668 7486.52334713
0.02800000 1615869.32220242 8434.83824871
0.02900000 1611129.04959323 9425.10537287
0.03000000 1606239.07195073 8962.81443346
0.03100000 1601201.32993512 8454.34341107
0.03200000 1596016.89027736 8690.31236782
0.03300000 1590689.96740101 12168.77881160
0.03400000 1585218.98070786 11651.36004580
0.03500000 1579608.23300214 10235.86182253
0.03600000 1573858.20912611 8734.91346432
0.03700000 1567972.01243124 8937.44088419
0.03800000 1561951.15345831 10051.15613767
0.03900000 1555798.21744333 10268.26871065
0.04000000 1549513.29969161 12388.35940510
0.04100000 1543100.61298236 9721.53431254
0.04200000 1536561.50585082 12884.06882429
0.04300000 1529897.82867725 12116.79136556
0.04400000 1523112.80341218 11309.11309055
0.04500000 1516208.17480116 12554.20427068
0.04600000 1509185.01154761 12767.70579122
0.04700000 1502047.38081275 10814.74164482
0.04800000 1494796.74244859 12085.43222501
0.04900000 1487435.83933523 15618.07704000
0.05000000 1479966.44941159 14718.26702477
0.05100000 1472392.50037998 12633.12824176
0.05200000 1464713.15562311 13973.36415582
0.05300000 1456934.18362146 11801.16743748
0.05400000 1449056.36426437 15541.13023148
0.05500000 1441083.09327872 20578.66753200
0.05600000 1433015.78460032 17153.19974211
0.05700000 1424858.90361675 14875.52764813
0.05800000 1416611.95864723 17551.82298718
0.05900000 1408279.27895561 20279.22256412
0.06000000 1399864.12531960 23055.76322115
0.06100000 1391368.14196522 12939.72432497
0.06200000 1382794.12130825 23521.32910292
0.06300000 1374145.43845354 14510.97650853
0.06400000 1365421.31364259 22631.85933204
0.06500000 1356628.51136354 13430.62289075
0.06600000 1347767.93571853 17608.58890404
0.06700000 1338841.17797095 17753.03485072
0.06800000 1329852.26746133 19269.56025750
0.06900000 1320804.76063614 18028.98582678
0.07000000 1311698.19380935 13969.58641824
0.07100000 1302537.35845465 15474.14454322
0.07200000 1293323.94696142 16994.27745920
0.07300000 1284061.58420157 14253.08425247
0.07400000 1274752.88307067 17209.16472795
0.07500000 1265398.76135717 15868.10121120
0.07600000 1256002.41559576 20309.56001231
0.07700000 1246567.71065311 20418.78005790
0.07800000 1237095.92836718 19057.46367022
0.07900000 1227588.87451719 16204.17390366
0.08000000 1218052.05303039 16279.26645243
0.08100000 1208485.87416351 19323.69003451
0.08200000 1198891.94649561 20896.68760800
0.08300000 1189273.65049458 19480.30330935
0.08400000 1179634.36052327 16544.37268291
0.08500000 1169975.60088746 18111.22315197
0.08600000 1160300.23859214 18170.30258948
0.08700000 1150609.94406701 25819.68835730
0.08800000 1140907.01669023 18277.33126575
0.08900000 1131195.00178577 18325.35988967
0.09000000 1121475.54016545 16838.95602660
0.09100000 1111750.82977264 16876.37838882
0.09200000 1102022.60210335 15373.21602168
0.09300000 1092295.33762541 21561.91097797
0.09400000 1082567.42633140 16969.24520526
0.09500000 1072843.81766063 16993.84687050
0.09600000 1063125.63438664 24749.56593194
0.09700000 1053417.71075683 18582.28929136
0.09800000 1043719.12588376 18599.07569773
0.09900000 1034033.59300660 15510.50462444
0.10000000 1024360.67014956 23278.59732388
0.10100000 1014704.49929985 18629.97548335
0.10200000 1005066.68967915 23292.42162890
0.10300000 995448.89623296 24846.40561877
0.10400000 985853.60209300 18632.63395613
0.10500000 976283.78427575 18627.49548039
0.10600001 966736.66414562 21722.57386548
0.10700001 957219.85874134 17057.65868546
0.10800001 947730.43237292 20144.01128810
0.10900001 938273.58625378 21674.12086257
0.11000001 928849.26935420 20104.94338150
0.11100001 919458.94532997 15446.91100868
0.11200001 910105.20769306 21596.79759527
0.11300001 900788.27436113 16943.82823846
0.11400001 891511.03609871 21529.99253551
0.11500001 882275.26008503 15351.59024835
0.11600001 873081.16854715 18387.09027548
0.11700001 863931.04867438 19879.05436620
0.11800001 854824.94347659 18310.35115166
0.11900001 845764.70881012 16746.14202321
0.12000001 836752.02132996 16705.75489278
0.12100001 827789.49775902 22722.82278391
0.12200001 818876.19778545 19640.74652918
0.12300001 810014.87341795 16572.90509095
0.12400001 801205.30149016 16524.86012184
0.12500001 792448.56050040 17972.73419903
0.12600001 783747.80239669 16423.43597315
0.12700001 775102.21945432 17858.35597783
0.12800001 766512.70491577 20764.83015480
0.12900001 757981.11144994 20692.88531788
0.13000001 749507.95142345 16200.61513363
0.13100001 741093.34768896 19075.74366870
0.13200001 732738.68793182 20465.39251868
0.13300001 724446.18285404 20385.91654657
0.13400001 716214.02487237 17404.00162492
0.13500001 708045.28914265 18777.36195338
0.13600001 699938.45498789 17260.48311385
0.13700001 691896.15398090 14322.25106275
0.13800001 683916.75489972 17111.59801450
0.13900001 676003.69938676 22713.72537053
0.14000001 668155.14103535 15544.63008928
0.14100001 660372.56629536 23912.09175332
0.14200001 652655.78493926 13999.46724724
0.14300001 645006.88539166 13932.14938161
0.14400001 637422.53550853 15250.33488140
0.14500001 629907.53903890 15174.47333126
0.14600001 622459.48235417 13725.23223339
0.14700001 615081.18473053 17751.24382877
0.14800001 607768.28335343 13583.62177381
0.14900001 600525.17038661 17565.36206256
0.15000001 593350.11872162 16127.25698778
0.15100001 586244.14332687 16039.64051825
0.15200001 579207.35538485 18609.93320666
0.15300001 572240.37961333 14540.62873213
0.15400001 565340.02262408 13144.15614630
0.15500001 558510.46220891 14376.05997571
0.15600001 551747.36924079 15592.38139063
0.15700001 545057.03388272 18084.99323778
0.15800001 538431.67434455 14125.75564315
0.15900001 531877.73729499 16594.58618688
0.16000001 525390.07445505 17763.43925580
0.16100001 518974.00843507 16394.38970035
0.16200001 512625.10568101 18800.52663835
0.16300001 506344.06595093 14947.27753250
0.16400001 500131.48984383 12378.25495801
0.16500001 493986.18802854 14760.30799515
0.16600001 487909.41595789 14666.55773615
0.16700001 481898.23835138 12143.83617982
0.16800001 475953.74869448 15685.05652882
0.16900001 470078.08610642 15583.08929023
0.17000001 464267.00105263 13099.29405324
0.17100001 458521.93024897 14195.83963085
0.17200001 452842.95228465 14101.53020006
0.17300001 447229.15520947 14007.21780264
0.17400001 441680.19397050 15072.33733105
0.17500001 436195.32945085 17273.33586203
0.17600001 430772.99484064 11437.02355318
0.17700001 425416.09939068 11358.61039021
0.17800001 420120.30358229 11280.23068397
0.17900001 414887.99231035 17923.16211438
0.18000001 409717.54032739 13348.59809439
0.18100001 404610.02503116 14359.61046665
0.18200001 399560.78772719 14258.32738358
0.18300001 394573.25376212 19602.40017291
0.18400001 389645.10144894 10812.65207601
0.18500001 384777.83461386 12882.36251146
0.18600001 379967.54854456 11723.89926422
0.18700001 375215.43824202 12697.29102999
0.18800001 370520.91141310 14705.97566879
0.18900001 365885.21467307 14598.82075521
0.19000001 361301.94835288 11386.43144034
0.19100001 356779.09081868 11302.76213119
0.19200001 352308.13073536 11219.25295339
0.19300001 347894.15862387 15185.58074149
0.19400001 343532.38730421 12057.98736416
0.19500001 339224.81909938 11967.85218337
0.19600001 334969.69045827 12867.86126704
0.19700001 330766.55902923 14735.65090112
0.19800001 326615.24404867 10724.41204516
0.19900001 322515.32471915 12578.09825849
0.20000001 318464.15039175 10561.86404691
0.20100001 314464.06082177 11433.91379187
0.20200001 310511.63063628 11346.09551971
0.20300001 306609.06336225 14073.35667350
0.20400001 302753.51742836 10240.63821105
0.20500001 298944.83575368 12932.35420598
0.20600001 295182.83502851 10998.51295304
0.20700001 291467.13697369 14550.04016549
0.20800001 287795.37741517 11729.10116099
0.20900001 284170.72927100 12531.92975325
0.21000001 280587.96077612 11544.79219188
0.21100001 277049.36682539 9691.18730969
0.21200001 273553.38079162 10488.03711537
0.21300001 270098.71924995 14739.28780628
0.21400001 266686.57660873 12900.96375336
0.21500001 263316.48992174 9384.60014449
0.21600001 259985.62457932 9308.78572817
0.21700001 256694.76541145 9233.31114840
0.21800001 253443.39690048 11655.86237455
0.21900001 250229.90022646 11560.62193707
0.22000001 247054.22957895 10646.80252711
0.22100001 243917.82405006 11371.44949490
0.22200001 240818.17170969 11277.51551442
0.22300001 237753.82358989 11183.94039051
0.22400001 234724.88232383 7921.96515303
0.22500001 231733.93019019 10212.51478640
0.22600001 228775.43013915 9347.76451752
0.22700001 225853.62456171 8496.61375781
0.22800001 222964.06957849 9190.57938265
0.22900001 220107.25754499 10631.18104218
0.23000001 217284.53287717 7528.90942025
0.23100001 214494.77326969 8210.86030908
0.23200001 211735.16737603 10360.20222968
0.23300001 209007.84420798 10270.64595012
0.23400001 206312.06299063 10908.75084656
0.23500001 203644.89643488 9371.73857718
0.23600001 201009.58645841 10718.83670486
0.23700001 198403.23002728 7082.99564698
0.23800001 195826.23532493 9126.48212899
0.23900001 193277.60352091 9741.19167821
0.24000001 190757.34915788 8964.64204771
0.24100001 188266.11717344 9567.68452732
0.24200001 185801.83641444 7449.72498342
0.24300001 183364.96865969 8053.38980448
0.24400001 180954.50549073 7980.09406963
0.24500001 178570.49602746 6589.25161511
0.24600001 176212.87008527 7834.42457460
0.24700001 173881.21641059 8408.89602341
0.24800001 171574.90015527 7689.98738875
0.24900001 169292.58264373 7618.16657936
0.25000001 167036.28118801 8175.59116952
0.25100001 164803.02852299 7475.46572746
0.25200001 162595.61336934 7404.60458315
0.25300001 160411.75169660 9167.53204318
0.25400001 158250.95796535 6658.40937141
0.25500001 156113.03276981 5994.74074198
0.25600001 153998.66078076 7717.64325017
0.25700001 151906.28647164 5878.77356460
0.25800001 149837.09812464 5821.17153757
0.25900001 147789.96912478 8069.33269601
0.26000001 145764.62187991 6277.35373827
0.26100001 143760.38551642 6214.76175993
0.26200001 141778.52240847 7830.42816313
0.26300001 139816.96696897 6644.10258475
0.26400001 137876.79609739 7672.84406588
0.26500001 135957.85194096 5424.71854914
0.26600001 134058.36294338 7516.65276592
0.26700001 132180.39420140 5845.01730817
0.26800001 130322.78195954 6310.22940109
0.26900001 128483.77370537 5203.59308131
0.27000001 126665.60703919 7208.54003772
0.27100001 124866.43642657 5604.00593202
0.27200001 123088.29849776 7560.69909302
0.27300001 121328.33935526 5485.25448184
0.27400001 119585.71892867 5426.20225318
0.27500001 117864.85572363 6831.44736104
0.27600001 116160.17647586 7239.68334148
0.27700001 114476.17876122 5728.38825632
0.27800001 112809.47008366 6609.50716501
0.27900001 111162.24553795 4668.81453356
0.28000001 109531.81726190 6001.79621092
0.28100001 107920.27478074 6847.54175893
0.28200001 106327.01411727 4964.94015919
0.28300001 104751.29881275 5354.88664876
0.28400001 103192.89844100 6617.24492573
0.28500001 101652.65853700 6105.25896070
0.28600001 100129.61419154 5603.75412347
0.28700001 98623.83200692  4686.60471880
0.28800001 97134.44929799  5895.09000693
0.28900001 95664.30013770  4577.53697826
0.29000001 94209.39685559  6990.80862457
0.29100001 92772.38246894  4469.77359893
0.29200001 91351.97498404  4817.90338872
0.29300001 89948.39208932  5156.74156258
0.29400001 88560.74549875  5094.45712597
0.29500001 87190.84687593  4645.52854146
0.29600001 85836.44328945  3824.01372956
0.29700001 84498.58058722  4154.79540415
0.29800001 83176.84517401  3730.48168265
0.29900001 81872.06826391  4052.66757091
0.30000001 80582.41600790  5093.61475699
0.30100001 79309.90500561  3952.01275352
0.30200001 78051.75398654  3547.45238663
0.30300001 76810.76311761  4203.08515677
0.30400001 75585.30414772  3803.83061131
0.30500001 74375.36267064  3413.82930820
0.30600001 73180.11640797  3706.93897214
0.30700001 72001.55090900  3326.47180948
0.30800001 70837.94751809  3283.33902291
0.30900001 69689.68412232  4212.74160464
0.31000001 68557.16852704  4797.28809481
0.31100001 67438.65111667  3787.35482603
0.31200001 66336.13534732  4671.72255302
0.31300001 65248.07924331  5224.41395237
0.31400001 64176.07883609  3942.01582915
0.31500001 63117.72309574  3290.95823803
0.31600002 62074.69154885  3541.98206748
0.31700002 61046.18050033  4367.85442161
0.31800002 60032.36634797  3159.80375234
0.31900002 59033.22358733  3967.03281290
0.32000002 58048.69310276  3633.55811681
0.32100002 57077.71296615  3308.22440016
0.32200002 56122.42202832  4622.52350924
0.32300002 55179.37190933  3218.06112213
0.32400002 54251.31792040  3967.12781078
0.32500002 53337.19064932  4694.73974326
0.32600002 52437.37061066  2829.25846527
0.32700002 51550.67069784  2789.92243028
0.32800002 50678.52717699  2500.98543461
0.32900002 49819.30402235  3452.47793224
0.33000002 48974.61182317  2674.74855138
0.33100002 48141.00517805  2637.16438853
0.33200002 47323.61961745  3545.72236774
0.33300002 46518.12417601  2563.61394474
0.33400002 45726.29911543  3446.61995904
0.33500002 44946.54779018  3397.95917385
0.33600002 44180.82550904  2680.00900229
0.33700002 43426.87718034  2642.09133277
0.33800002 42686.86977420  2604.75291698
0.33900002 41958.38305099  3637.79198280
0.34000002 41243.15795360  3164.38144385
0.34100002 40540.04284283  2703.61558523
0.34200002 39849.97728358  2460.33771401
0.34300002 39170.93916106  2627.58672336
0.34400002 38505.53130157  2789.72587492
0.34500002 37851.04814884  1964.46949196
0.34600002 37209.59724061  2905.13944215
0.34700002 36578.23989809  2100.32263442
0.34800002 35960.32135209  2070.77520314
0.34900002 35353.01713001  2412.84353340
0.35000002 34757.51348514  2012.98148883
0.35100002 34173.90448904  2165.25869098
0.35200002 33600.27689133  1957.04822023
0.35300002 33038.24723835  2456.06341603
0.35400002 32487.58953756  2248.95349226
0.35500002 31947.97733966  2388.43089904
0.35600002 31418.13813178  1682.44137664
0.35700002 30899.40480563  1659.29811665
0.35800002 30391.78554855  2291.23682103
0.35900002 29894.47124238  2260.02213297
0.36000002 29407.76971383  2707.13236923
0.36100002 28930.34096532  2042.19286547
0.36200002 28464.29414669  1704.86897867
0.36300002 28007.02034947  2140.85673692
0.36400002 27559.77080337  1508.89752296
0.36500002 27122.04657277  1637.90047011
0.36600002 26694.39824130  1469.52669279
0.36700002 26275.59334441  1595.45410345
0.36800002 25867.64548562  1718.12909454
0.36900002 25467.91057998  1837.50983539
0.37000002 25076.90115971  1535.08257721
0.37100002 24694.87894842  1515.77174166
0.37200002 24322.61920713  1496.93567001
0.37300002 23958.31122822  2150.49811772
0.37400002 23602.84951729  1460.42638306
0.37500002 23256.23670524  1705.14735600
0.37600002 22918.14210019  1296.02099716
0.37700002 22587.73073660  2049.15902950
0.37800002 22265.52123363  1518.95393051
0.37900002 21951.91720047  1501.51120764
0.38000002 21646.03886017  1360.77829741
0.38100002 21347.01334233  1590.13909920
0.38200002 21056.71512782  1693.59167796
0.38300002 20773.24352668  1675.15443735
0.38400002 20498.06036164  1420.51565036
0.38500002 20228.90865019  1288.37925297
0.38600002 19968.31558244  1390.99292937
0.38700002 19713.88493515  1262.08297334
0.38800002 19466.72052457  1249.47151606
0.38900002 19225.73604755  1349.64673448
0.39000002 18992.70945800  1113.92246248
0.39100002 18765.16579522  1103.39180103
0.39200002 18544.70740713  1421.17371948
0.39300002 18330.18386353  1299.97670119
0.39400002 18123.36553595  1073.80945888
0.39500002 17921.42281560  1170.98582225
0.39600002 17725.57724839  1161.11399267
0.39700002 17535.64627351  1360.94157177
0.39800002 17351.77204955  1350.05468828
0.39900002 17173.32372188  1133.43941935
0.40000002 17000.47147055  1227.09408888
0.40100002 16833.34733808  1319.56616035
0.40200002 16671.74847971  1108.58796768
0.40300002 16514.91568526  1501.20590692
0.40400002 16363.60842229  994.08925875
0.40500002 16217.45277246  1185.17150477
0.40600002 16076.16106786  1079.59464766
0.40700002 15939.74724630  1170.61509323
0.40800002 15808.19358360  1357.76581123
0.40900002 15681.08306480  1060.82531960
0.41000002 15559.00152360  1151.05498725
0.41100002 15441.04863050  1049.68253564
0.41200002 15327.22313966  1139.42582219
0.41300002 15218.43172603  1039.57112046
0.41400002 15113.25296025  1128.96004962
0.41500002 15012.39483077  1030.45083001
0.41600002 14914.97494987  1585.98393644
0.41700002 14821.94652106  1022.26970000
0.41800002 14733.59738633  1389.00995941
0.41900002 14647.03467916  1015.03955136
0.42000002 14565.42315636  1287.72912227
0.42100002 14487.51561871  1008.76576033
0.42200002 14413.15214199  1005.96600142
0.42300002 14341.54152851  1003.33429288
0.42400002 14273.24099505  1273.88681917
0.42500002 14208.56957214  1271.09869416
0.42600002 14146.17787736  1268.48783037
0.42700002 14088.07332254  1085.34522020
0.42800002 14032.17075311  1083.56427690
0.42900002 13980.13654016  991.89073453
0.43000002 13930.43937604  900.60294834
0.43100002 13882.58115703  1079.50956193
0.43200002 13838.51861915  1078.57419229
0.43300002 13796.78490423  1167.62196178
0.43400002 13757.70788299  1436.30477105
0.43500002 13720.80815319  987.07498532
0.43600002 13686.84969303  986.89034388
0.43700002 13654.52402369  986.81249796
0.43800002 13624.45631324  1076.60458889
0.43900002 13597.31602121  1256.39205990
0.44000002 13571.85407448  897.77818957
0.44100002 13548.78893673  988.11322398
0.44200002 13527.52139639  1348.35575908
0.44300002 13508.29859328  989.61800184
0.44400002 13491.35600948  1080.65766757
0.44500002 13474.98113551  991.62390876
0.44600002 13460.82333839  1263.56754666
0.44700002 13449.46379186  1174.94521254
0.44800002 13438.20499794  995.56946445
0.44900002 13430.16975020  997.19015121
0.45000002 13423.12784821  998.88210616
0.45100002 13417.19483913  1000.65443853
0.45200002 13413.01951217  1002.55619095
0.45300002 13409.90370829  1187.17883156
0.45400002 13408.53060698  915.13225730
0.45500002 13408.46094429  1100.56652647
0.45600002 13409.48231324  1378.83008421
0.45700002 13411.80719229  1013.53031756
0.45800002 13414.81402417  1015.97098827
0.45900002 13419.14393398  1111.10517039
0.46000002 13425.28572446  1021.19440703
0.46100002 13431.27127913  1210.02328689
0.46200002 13439.18646798  1026.68669888
0.46300002 13448.00886976  1216.77590021
0.46400002 13456.95898131  1501.79669349
0.46500002 13467.37566736  1412.05440565
0.46600002 13478.32868938  1227.40406027
0.46700002 13489.74779494  1136.37640811
0.46800002 13502.94458561  1044.92541628
0.46900002 13515.78775185  952.86308167
0.47000002 13529.68529619  1051.45954263
0.47100002 13544.22071208  1438.39630780
0.47200002 13559.55027066  1250.66517849
0.47300002 13575.50840214  1640.87177834
0.47400002 13591.28189116  1065.21676871
0.47500002 13607.97515423  1360.25326089
0.47600002 13625.72561093  1072.41278504
0.47700002 13642.92564914  1565.11650465
