# SAXS profile: number of points = 501, q_min = 0, q_max = 0.5, delta_q = 0.001
#    q    intensity    error
0.00000000 1682732.95097188 353.37391970
0.00100000 1682645.62513176 504.79369953
0.00200000 1682383.60680008 832.77991174
0.00300000 1681947.12835847 1311.91880685
0.00400000 1681336.04429631 1513.20249737
0.00500000 1680551.03022396 1663.74558577
0.00600000 1679591.92090838 1939.92874763
0.00700000 1678459.48061344 2215.56660649
0.00800000 1677153.46689283 2716.98873108
0.00900000 1675675.29774230 2513.51305406
0.01000000 1674024.42481438 3314.56850425
0.01100000 1672202.40101525 5116.93956989
0.01200000 1670209.03257124 3582.59853194
0.01300000 1668045.86217242 4203.47575807
0.01400000 1665712.85027218 4497.42489511
0.01500000 1663211.75508271 4790.05006793
0.01600000 1660542.12526747 5081.25913047
0.01700000 1657706.26237051 5370.96853102
0.01800000 1654704.57185941 5187.49906620
0.01900000 1651538.07691658 7431.92168147
0.02000000 1648207.59951414 5711.03959066
0.02100000 1644715.86625861 6513.07512568
0.02200000 1641061.39938103 6793.99450210
0.02300000 1637247.62160907 8251.72838852
0.02400000 1633274.93426253 6124.78128276
0.02500000 1629145.61059876 8259.76862296
0.02600000 1624860.33820996 7238.75313781
0.02700000 1620420.84905413 8847.49824106
0.02800000 1615827.82733259 7731.73650836
0.02900000 1611084.50368038 9424.84477926
0.03000000 1606191.48419222 7468.79074480
0.03100000 1601150.57170685 8454.07540761
0.03200000 1595962.75548212 11060.02240490
0.03300000 1590632.40879490 11357.11592236
0.03400000 1585157.90786858 10818.70322038
0.03500000 1579543.61346377 8529.53590658
0.03600000 1573789.87892917 14848.70819391
0.03700000 1567899.89609404 10724.43578526
0.03800000 1561875.22679798 10964.36459955
0.03900000 1555718.20364485 14001.46448121
0.04000000 1549429.24022277 12387.68734961
0.04100000 1543012.31940941 10693.07586931
0.04200000 1536468.98378197 12883.29302670
0.04300000 1529801.00850882 15145.03068724
0.04400000 1523011.34626720 12336.39247769
0.04500000 1516102.16301573 12553.32649306
0.04600000 1509074.34429715 13830.66700843
0.04700000 1501932.02771993 16220.86665377
0.04800000 1494676.45848962 13183.04697726
0.04900000 1487310.69861029 11154.83075881
0.05000000 1479836.22506096 14716.97194354
0.05100000 1472257.12130943 12631.96668928
0.05200000 1464572.68118659 17465.03003704
0.05300000 1456788.40244627 12979.98527090
0.05400000 1448905.02375377 14344.16040409
0.05500000 1440926.46056872 13314.16111675
0.05600000 1432853.32239065 15926.16542155
0.05700000 1424690.93043831 19831.69867742
0.05800000 1416438.24390809 12535.47904390
0.05900000 1408099.70954067 12672.89797776
0.06000000 1399678.63980894 15368.47218310
0.06100000 1391176.66364043 15525.53229176
0.06200000 1382596.56157500 16985.19955290
0.06300000 1373941.71396827 21103.74571326
0.06400000 1365211.30279528 14641.89190723
0.06500000 1356412.12602128 14771.32874334
0.06600000 1347545.25709641 14897.11351421
0.06700000 1338612.03523906 15019.22773827
0.06800000 1329616.40664514 23394.60177000
0.06900000 1320562.32300846 16639.08604893
0.07000000 1311449.08807582 13966.93344206
0.07100000 1302281.40292967 15471.10379144
0.07200000 1293061.17143609 15574.92253958
0.07300000 1283791.70780889 21375.13293656
0.07400000 1274476.09331356 17205.42806605
0.07500000 1265114.74528404 14422.30877225
0.07600000 1255711.41043810 15953.81421754
0.07700000 1246269.38441342 17497.62297760
0.07800000 1236790.34740854 16121.56293451
0.07900000 1227275.80448873 17672.77241356
0.08000000 1217731.50630983 22193.15774360
0.08100000 1208157.87521736 16346.37681863
0.08200000 1198556.20920692 19398.63315630
0.08300000 1188930.47928872 22470.78711316
0.08400000 1179283.32386334 18043.03570202
0.08500000 1169616.83277075 22632.08677658
0.08600000 1159933.39325105 15137.13149264
0.08700000 1150235.43805872 15183.10849534
0.08800000 1140524.45982519 18271.20270448
0.08900000 1130804.45178274 16792.44689771
0.09000000 1121077.01090076 21423.78268471
0.09100000 1111343.98605633 24538.47636497
0.09200000 1101607.56015964 24587.88189807
0.09300000 1091872.09586992 16934.93700275
0.09400000 1082135.90373307 18504.52482350
0.09500000 1072403.84642560 16986.87772581
0.09600000 1062677.28995839 26285.32400274
0.09700000 1052961.04360326 20122.08648925
0.09800000 1043253.66382597 17041.54939985
0.09900000 1033559.63648788 15503.39527633
0.10000000 1023878.20008835 15511.75546081
0.10100000 1014213.27940375 15517.46390469
0.10200000 1004566.79539502 18624.66926266
0.10300000 994940.27731758 18625.28286753
0.10400000 985335.96447933 20174.75482184
0.10500000 975757.58858048 18617.45566605
0.10600001 966201.57743112 18609.04325694
0.10700001 956675.80133170 20147.59332414
0.10800001 947177.49812451 18583.62338778
0.10900001 937711.53785952 20113.91343376
0.11000001 928278.16602556 18546.99863019
0.11100001 918878.70671206 20068.31189927
0.11200001 909516.13221636 15416.29916682
0.11300001 900190.02023030 16932.57507773
0.11400001 890903.69941493 18441.70744621
0.11500001 881658.44668402 24545.37231148
0.11600001 872455.35914455 21436.22918365
0.11700001 863295.98015624 19864.44143891
0.11800001 854180.61747154 21345.97463597
0.11900001 845111.15909382 16733.20173822
0.12000001 836089.08761661 18210.02118607
0.12100001 827117.05241823 16649.86704952
0.12200001 818194.54364819 16605.25904564
0.12300001 809323.74452366 16558.76459311
0.12400001 800504.79419067 16510.41215811
0.12500001 791738.76862073 14963.86343204
0.12600001 783028.62135439 17900.03512767
0.12700001 774373.43065522 17841.56468310
0.12800001 765774.43725070 22226.60408872
0.12900001 757233.67768649 19195.87463409
0.13000001 748750.96376965 17655.54855788
0.13100001 740326.89386881 20521.86246540
0.13200001 731962.65946521 14602.65574470
0.13300001 723660.66818001 17454.69613937
0.13400001 715418.89829761 21730.85006030
0.13500001 707240.74024721 15870.48295941
0.13600001 699124.59197431 27297.32098073
0.13700001 691072.88401141 17166.25124829
0.13800001 683083.78654616 17090.75714531
0.13900001 675161.30440729 15596.22686730
0.14000001 667303.22023041 16936.15652817
0.14100001 659511.17569817 15452.34757539
0.14200001 651784.95547186 13980.78795428
0.14300001 644126.70014605 19478.39233117
0.14400001 636532.66204713 17997.96186834
0.14500001 629008.29572035 13775.28232609
0.14600001 621550.83042846 24669.35362347
0.14700001 614163.38109515 16361.31324424
0.14800001 606840.86524834 17631.76217163
0.14900001 599588.49700224 14839.81600096
0.15000001 592404.12274384 20126.93101987
0.15100001 585288.66257664 18682.41499098
0.15200001 578242.66415702 14597.73674547
0.15300001 571266.47354578 19794.38424244
0.15400001 564356.98773791 14433.43064253
0.15500001 557518.19081284 20873.48204911
0.15600001 550745.97116960 18158.09552643
0.15700001 544046.44544707 14183.29150221
0.15800001 537412.08258781 21789.37391695
0.15900001 530848.95072598 16562.48804441
0.16000001 524352.30558158 15195.73053303
0.16100001 517927.30277508 17619.88767214
0.16200001 511569.35873279 13758.65855261
0.16300001 505279.42010862 14915.84918575
0.16400001 499057.98371334 19762.69708804
0.16500001 492903.81290718 15955.29717708
0.16600001 486818.30097072 18292.19852261
0.16700001 480798.40392518 12116.12035097
0.16800001 474845.08669470 16852.25292250
0.16900001 468960.71701556 11958.49884855
0.17000001 463141.06817871 16631.39654363
0.17100001 457387.66033430 16520.84307141
0.17200001 451700.22985644 18754.59442929
0.17300001 446077.96247429 16299.68951855
0.17400001 440520.59431048 16189.13260546
0.17500001 435027.45688778 14930.14302550
0.17600001 429596.91387840 12546.37846237
0.17700001 424231.88896190 11326.99197026
0.17800001 418928.12297735 12373.04269654
0.17900001 413687.56379861 16754.34712521
0.18000001 408509.21826489 16636.53869967
0.18100001 403393.69074917 12113.91310542
0.18200001 398336.87831210 12027.78260880
0.18300001 393341.45528109 16284.33701790
0.18400001 388405.71577298 15089.56277062
0.18500001 383530.73238455 10700.50793904
0.18600001 378713.07403246 12747.48267417
0.18700001 373953.44709207 14763.68278870
0.18800001 369251.57925450 12561.93931974
0.18900001 364608.57114003 12469.61372215
0.19000001 360018.22306489 10314.52257816
0.19100001 355488.17465671 10238.05991386
0.19200001 351010.22197512 14226.44496887
0.19300001 346589.48184116 11094.32983797
0.19400001 342220.64491893 14013.93607164
0.19500001 337906.46066836 10927.89545441
0.19600001 333644.62997114 11831.03913787
0.19700001 329435.01905251 11741.06463389
0.19800001 325277.36076126 12622.38858086
0.19900001 321171.02661777 10598.64437928
0.20000001 317113.50645086 9560.97267136
0.20100001 313107.42828740 10435.87107804
0.20200001 309148.76343715 11296.29634990
0.20300001 305240.36794478 10274.39127064
0.20400001 301378.90185607 10194.14183712
0.20500001 297564.50363088 10114.21795648
0.20600001 293797.00871784 10034.63730708
0.20700001 290075.82217130 9955.40268750
0.20800001 286398.63413622 11672.17688597
0.20900001 282768.46303032 10688.64840781
0.21000001 279180.64984260 10603.28158226
0.21100001 275637.08739432 12271.36371090
0.21200001 272136.00519961 10433.69493260
0.21300001 268676.59326997 12936.77857754
0.21400001 265259.89962904 9410.09538422
0.21500001 261885.14593674 10182.09495541
0.21600001 258549.78127628 9257.37535627
0.21700001 255254.60796113 15024.28693493
0.21800001 251999.08523615 11589.43847797
0.21900001 248781.47329582 8209.78900693
0.22000001 245601.79612737 10584.20990456
0.22100001 242461.51163725 8881.36559121
0.22200001 239358.26920256 9607.84138009
0.22300001 236290.32285645 11909.03283509
0.22400001 233257.72637174 11021.42809223
0.22500001 230263.63415342 10147.71883700
0.22600001 227302.04548937 7739.63501491
0.22700001 224377.10044325 9208.43663765
0.22800001 221484.61872991 9890.39611710
0.22900001 218625.00057797 7542.56287663
0.23000001 215799.64295801 8972.94957854
0.23100001 213007.39328911 10377.72069184
0.23200001 210245.43715555 7348.07837610
0.23300001 207515.89031344 10197.33133228
0.23400001 204818.11429479 10107.77441850
0.23500001 202149.01159026 11449.72055800
0.23600001 199511.85665409 7801.91152347
0.23700001 196903.83952573 8435.36088426
0.23800001 194325.38413096 7663.22188566
0.23900001 191775.39946947 11046.26353192
0.24000001 189253.88335368 8209.83384821
0.24100001 186761.62062903 6779.44714951
0.24200001 184296.31832228 11419.92190503
0.24300001 181858.79195698 7321.63531052
0.24400001 179447.73571470 6594.70459947
0.24500001 177063.17005364 10453.81005448
0.24600001 174705.36072120 9061.96748929
0.24700001 172373.55894222 7694.75603519
0.24800001 170067.05979526 10163.20797415
0.24900001 167784.89281135 6921.12715589
0.25000001 165528.77526840 8725.02215716
0.25100001 163296.07447194 8024.36947918
0.25200001 161089.21613630 6113.33604159
0.25300001 158906.03990247 8476.04856940
0.25400001 156746.20676170 10192.42257690
0.25500001 154609.31427002 8311.79712840
0.25600001 152496.19176546 8230.21985898
0.25700001 150405.06096199 8731.01420194
0.25800001 148337.41459822 6339.19971279
0.25900001 146291.91890148 9128.61617137
0.26000001 144268.38920214 6212.91847496
0.26100001 142266.15429376 6709.27215395
0.26200001 140286.35455184 8301.44542340
0.26300001 138327.10690368 5477.75369258
0.26400001 136389.38628937 9758.66105077
0.26500001 134472.99383461 8584.75633262
0.26600001 132576.19934415 6371.61244198
0.26700001 130701.10078194 5779.60295007
0.26800001 128846.58290195 5718.85585272
0.26900001 127010.82666608 6172.72646807
0.27000001 125195.93431025 5089.21497054
0.27100001 123400.21316705 5538.20182902
0.27200001 121625.68640861 5478.62930354
0.27300001 119869.56714505 5911.96733137
0.27400001 118130.77280268 9258.49975657
0.27500001 116414.05198872 5301.49617846
0.27600001 114713.81796611 6672.90310689
0.27700001 113034.07454239 6127.57747094
0.27800001 111371.92666093 5127.00688648
0.27900001 109729.43138549 5530.36360357
0.28000001 108103.79227934 5012.23256625
0.28100001 106497.23253069 4955.31646418
0.28200001 104909.20270293 8461.45214448
0.28300001 103338.80198975 5282.67980775
0.28400001 101785.82349160 6091.88182431
0.28500001 100251.16619477 6021.08532664
0.28600001 98733.77389684  5525.63591768
0.28700001 97233.93338640  4620.55673322
0.28800001 95750.60005144  4980.94645044
0.28900001 94286.54611282  4511.61144505
0.29000001 92837.95109150  4862.85210835
0.29100001 91407.37290280  4804.37174719
0.29200001 89993.56449580  4746.26081617
0.29300001 88596.65476130  3907.11265992
0.29400001 87215.92115925  4631.16563278
0.29500001 85852.97751485  5336.62133494
0.29600001 84505.69634623  4517.67474053
0.29700001 83175.07912214  5205.09669786
0.29800001 81860.67671713  5140.03213439
0.29900001 80563.38352516  4350.42291630
0.30000001 79281.42203148  4295.46764901
0.30100001 78016.75503227  4240.99100432
0.30200001 76766.45445448  3837.93907214
0.30300001 75533.47387757  4477.62454344
0.30400001 74316.20859390  4079.96004496
0.30500001 73114.53229535  3355.95719124
0.30600001 71927.68745463  3643.49718051
0.30700001 70757.64862608  5230.40563406
0.30800001 69602.66006542  3226.08344677
0.30900001 68463.22478187  3501.89411339
0.31000001 67339.40997836  3141.38362422
0.31100001 66229.93054055  4029.42916486
0.31200001 65136.54222873  4281.42512340
0.31300001 64057.55636501  4525.66657146
0.31400001 62994.83478549  2976.50608454
0.31500001 61946.02870327  3817.11446942
0.31600002 60912.51983892  3475.66854657
0.31700002 59893.67661250  3428.31421162
0.31800002 58889.53105944  3663.22345300
0.31900002 57900.09122310  3057.12496133
0.32000002 56925.52964135  4111.44657302
0.32100002 55964.63652695  3514.01969392
0.32200002 55019.37003170  3198.82632511
0.32300002 54086.66692758  2891.47335086
0.32400002 53168.74844662  3369.56959236
0.32500002 52264.91516490  4600.35805065
0.32600002 51375.60431356  2771.97086200
0.32700002 50499.41747798  3229.94289484
0.32800002 49637.92529206  2449.63172916
0.32900002 48789.38054095  3622.61167671
0.33000002 47955.54881364  3571.48966702
0.33100002 47132.71028934  3286.09271698
0.33200002 46326.29979505  2545.39866278
0.33300002 45531.84174165  2965.48899306
0.33400002 44751.05650573  2698.48883508
0.33500002 43982.40630048  3103.39873553
0.33600002 43227.93547985  2403.68946619
0.33700002 42485.20596095  3015.60006192
0.33800002 41756.42287223  2972.63988505
0.33900002 41039.35548415  2511.60867457
0.34000002 40335.49350789  2682.10876783
0.34100002 39643.94178402  2237.10774082
0.34200002 38965.37302864  2806.67595217
0.34300002 38297.86950896  2569.02120833
0.34400002 37644.02943069  2142.88647683
0.34500002 37001.29942868  2688.51454382
0.34600002 36371.60073728  2082.45609884
0.34700002 35752.00363744  3732.50935652
0.34800002 35145.76020335  2023.86869716
0.34900002 34550.36815791  1813.89441420
0.35000002 33966.54107757  2861.34155589
0.35100002 33394.92339614  1763.25203883
0.35200002 32833.08920547  1912.36337135
0.35300002 32282.98571881  3085.60792115
0.35400002 31744.31845511  2028.46204536
0.35500002 31216.67055808  2000.36434411
0.35600002 30698.77288550  2137.09517565
0.35700002 30192.02503381  1783.44300322
0.35800002 29696.54633392  1759.07500541
0.35900002 29211.18359102  1577.40398863
0.36000002 28736.39029019  2489.72097267
0.36100002 28271.01759190  1688.62796075
0.36200002 27816.97715527  1817.56137342
0.36300002 27371.72300511  1643.94576156
0.36400002 26936.46492277  1769.72582925
0.36500002 26510.78039311  1892.07448628
0.36600002 26095.13858681  1580.19119197
0.36700002 25688.28726630  2126.99028640
0.36800002 25292.37071722  1679.91934261
0.36900002 24904.59146178  1520.42538076
0.37000002 24525.58391126  1501.33369025
0.37100002 24155.37904496  1617.44425747
0.37200002 23795.08171563  1331.33488506
0.37300002 23442.68477901  1578.16161408
0.37400002 23098.99756798  1429.25054222
0.37500002 22764.25453172  1283.90401641
0.37600002 22438.00846454  1395.75638266
0.37700002 22119.32142018  1254.16558394
0.37800002 21808.73963973  1487.79228870
0.37900002 21506.85556616  1593.65807295
0.38000002 21212.60834416  1212.30062430
0.38100002 20925.25340510  1318.91878460
0.38200002 20646.50582359  1897.82690521
0.38300002 20374.50321286  1290.92858472
0.38400002 20110.81772431  1277.53975646
0.38500002 19852.98561242  1379.38550570
0.38600002 19603.75688040  1820.79702531
0.38700002 19360.70498986  1352.15170055
0.38800002 19124.66770350  1562.29417871
0.38900002 18894.96084834  1215.89078819
0.39000002 18673.00928157  1314.20645550
0.39100002 18456.51534068  1193.76746879
0.39200002 18247.03406238  1505.92779251
0.39300002 18043.46814902  1492.91662538
0.39400002 17847.47772016  1374.70203652
0.39500002 17656.22885913  1887.80407906
0.39600002 17471.02826162  1664.63965163
0.39700002 17291.74964567  1238.78100331
0.39800002 17118.42300607  1229.44519855
0.39900002 16950.46318081  1423.83897465
0.40000002 16787.90813444  1211.75126656
0.40100002 16631.04275273  1203.42231061
0.40200002 16479.69044994  1095.81706839
0.40300002 16332.91689080  1088.75229153
0.40400002 16191.64231625  1377.09924424
0.40500002 16055.49324835  1368.89141921
0.40600002 15923.97972387  1069.37490902
0.40700002 15797.25753905  1063.47142792
0.40800002 15675.44113478  961.68835918
0.40900002 15557.86923175  1052.48990340
0.41000002 15445.21052706  1237.85645634
0.41100002 15336.60832437  1421.70365903
0.41200002 15232.05119524  1132.35073951
0.41300002 15132.28340792  1033.68632857
0.41400002 15036.17070783  1029.60183800
0.41500002 14944.27720349  1119.02753002
0.41600002 14855.68991677  1022.14579316
0.41700002 14771.32860521  1018.77858217
0.41800002 14691.60990259  1108.04127136
0.41900002 14613.46279293  1012.71301954
0.42000002 14540.24305934  1193.68131052
0.42100002 14470.60856849  1190.78643553
0.42200002 14404.39291298  1005.35465100
0.42300002 14340.83478394  1094.49256257
0.42400002 14280.40047335  1365.56335997
0.42500002 14223.49416645  1272.43384843
0.42600002 14168.72221434  1361.26005125
0.42700002 14118.20345953  1268.94418707
0.42800002 14069.59268212  1358.06749800
0.42900002 14024.95327714  1809.21905849
0.43000002 13982.37585952  1084.75277059
0.43100002 13941.55541095  903.41283344
0.43200002 13904.42825217  1264.32972088
0.43300002 13869.52798445  993.19694603
0.43400002 13837.10157296  1173.73219655
0.43500002 13806.76075140  1083.55463512
0.43600002 13779.12567152  993.54390363
0.43700002 13753.15780995  1174.65726421
0.43800002 13729.18465707  1175.28690826
0.43900002 13708.10185766  995.20824203
0.44000002 13688.46503399  1086.59040589
0.44100002 13671.19770768  906.40045097
0.44200002 13655.59836432  998.15600974
0.44300002 13641.84647238  999.40171993
0.44400002 13630.24536471  1000.80081333
0.44500002 13619.09953532  1002.22958230
0.44600002 13610.01672284  1460.08266322
0.44700002 13603.66649552  1005.58307501
0.44800002 13597.19499709  1007.34823910
0.44900002 13593.87120531  917.58634984
0.45000002 13591.36014500  1103.34666886
0.45100002 13589.78404168  921.38740169
0.45200002 13589.93222346  1569.84109519
0.45300002 13590.95788118  1018.09870313
0.45400002 13593.62072652  1020.54112441
0.45500002 13597.45388702  1116.07906794
0.45600002 13602.17837183  1398.64405737
0.45700002 13608.05153579  1121.84782178
0.45800002 13614.62387406  1124.84027779
0.45900002 13622.27352305  939.93691764
0.46000002 13631.65379952  1225.41757639
0.46100002 13640.70442322  945.30086133
0.46200002 13651.65213842  1611.78238611
0.46300002 13663.15657079  1426.43361360
0.46400002 13674.84183284  953.82026305
0.46500002 13687.75702950  1243.80654022
0.46600002 13701.22605276  1343.67930268
0.46700002 13714.90745713  1540.45847860
0.46800002 13730.28744330  1062.51834416
0.46900002 13745.12730286  1162.83782494
0.47000002 13760.88946573  1361.08964157
0.47100002 13777.24592743  1268.05777526
0.47200002 13794.19526017  1565.91712015
0.47300002 13811.65044231  1178.41007159
0.47400002 13828.79704179  1083.83201952
0.47500002 13846.75831924  1285.25616811
0.47600002 13865.61530048  1091.29330395
0.47700002 13883.83206240  1095.01788666
