# SAXS profile: number of points = 501, q_min = 0, q_max = 0.5, delta_q = 0.001
#    q    intensity    error
0.00000000 1664650.74656090 274.66737318
0.00100000 1664563.91729809 499.36918705
0.00200000 1664303.38710157 823.83020270
0.00300000 1663869.39236566 1197.98600518
0.00400000 1663261.77896794 1372.19101979
0.00500000 1662481.23194499 1945.10311837
0.00600000 1661527.57242170 2442.44563090
0.00700000 1660401.57651028 3187.97115939
0.00800000 1659102.99258611 2911.72587492
0.00900000 1657633.24589988 3481.02996520
0.01000000 1655991.78475303 3278.86387539
0.01100000 1654180.15483215 3573.02929000
0.01200000 1652198.15379794 4188.32250351
0.01300000 1650047.33219638 4158.11946053
0.01400000 1647727.66499454 3707.38741059
0.01500000 1645240.89178783 5133.15181095
0.01600000 1642586.53320426 5026.31501630
0.01700000 1639766.94654026 4427.37095426
0.01800000 1636782.47829777 6530.76238228
0.01900000 1633634.17896291 6861.26386124
0.02000000 1630322.89810182 7189.72430586
0.02100000 1626851.23068900 5905.47023515
0.02200000 1623217.86502011 6160.11207762
0.02300000 1619426.14001257 7578.91468024
0.02400000 1615476.40723068 7875.44784435
0.02500000 1611371.08945634 8169.65179666
0.02600000 1607110.64874435 9112.31779516
0.02700000 1602697.01145784 7404.46053207
0.02800000 1598130.71935002 7647.05584278
0.02900000 1593415.09098464 7170.36823865
0.03000000 1588550.64872962 10341.46519858
0.03100000 1583539.29496605 9121.18675870
0.03200000 1578381.99953676 8594.29038331
0.03300000 1573083.00963301 12836.35795037
0.03400000 1567640.77146372 9053.12587292
0.03500000 1562059.70747762 9278.63509089
0.03600000 1556340.00960277 8637.68745248
0.03700000 1550485.03151011 13256.64763250
0.03800000 1544496.21074491 9938.83357611
0.03900000 1538375.94603811 15691.43537626
0.04000000 1532124.57266944 12249.33652611
0.04100000 1525746.21288885 9612.20158688
0.04200000 1519242.25554560 18618.31470547
0.04300000 1512614.43861129 10981.58133406
0.04400000 1505865.88110540 11181.05468648
0.04500000 1498998.66039031 11377.40036101
0.04600000 1492013.60849510 15778.04464331
0.04700000 1484914.91540628 19244.49819869
0.04800000 1477703.81836247 10861.12357031
0.04900000 1470383.23133638 17644.59959735
0.05000000 1462954.85061279 16787.40769251
0.05100000 1455422.71894974 13622.75728397
0.05200000 1447785.81390600 14962.86708401
0.05300000 1440050.04649360 12830.84651240
0.05400000 1432215.97866825 17723.67356254
0.05500000 1424287.37321730 22731.62753696
0.05600000 1416265.06735147 18163.60033637
0.05700000 1408154.17117445 13476.03604718
0.05800000 1399953.83720154 16106.46964905
0.05900000 1391668.42190366 13777.51802034
0.06000000 1383301.18674886 16454.36838511
0.06100000 1374853.71342887 15343.36815888
0.06200000 1366328.82077234 18076.53114378
0.06300000 1357729.93186931 14337.62875090
0.06400000 1349056.15387907 15783.95773855
0.06500000 1340314.50895909 14596.02568533
0.06600000 1331505.66589017 17396.12233879
0.06700000 1322631.17418975 14839.92246890
0.06800000 1313694.90773425 16316.09151780
0.06900000 1304700.90412593 16439.23216165
0.07000000 1295648.47584244 19318.11967945
0.07100000 1286542.24195120 18063.05392303
0.07200000 1277383.97619619 15386.09071407
0.07300000 1268177.26455012 14076.76829608
0.07400000 1258924.77680499 16995.48528335
0.07500000 1249627.48509824 14245.75399785
0.07600000 1240288.44809612 18622.93192122
0.07700000 1230911.54424736 20162.33204015
0.07800000 1221498.17792598 18817.18031340
0.07900000 1212049.81619066 18907.97801943
0.08000000 1202572.38008258 17533.50612412
0.08100000 1193065.99803555 17609.65495722
0.08200000 1183532.39017545 25049.46421351
0.08300000 1173974.90429752 19229.70983488
0.08400000 1164396.84014138 16330.66644952
0.08500000 1154799.81142309 17876.30192004
0.08600000 1145186.42144804 14944.68350157
0.08700000 1135558.76035308 17987.25160863
0.08800000 1125918.77239176 19540.32121255
0.08900000 1116270.21256101 18083.57829287
0.09000000 1106614.61554253 22657.93531760
0.09100000 1096953.90528871 15137.96460418
0.09200000 1087290.31430344 19718.01077638
0.09300000 1077628.01244677 15194.55568952
0.09400000 1067965.45043968 19784.06089920
0.09500000 1058307.54450791 19811.51816438
0.09600000 1048655.43936468 25938.49351200
0.09700000 1039013.95349631 18328.20700133
0.09800000 1029382.03944716 16814.95640497
0.09900000 1019763.47880899 15296.45290141
0.10000000 1010158.03924364 16834.28451566
0.10100000 1000569.53710225 18370.45756519
0.10200000 990999.60331238 16842.03905048
0.10300000 981450.17886077 15310.62351045
0.10400000 971923.37968320 18369.35274020
0.10500000 962422.51384140 21423.52616607
0.10600001 952944.39659335 16824.23411350
0.10700001 943496.89591191 15284.65043303
0.10800001 934077.00999668 21381.02376505
0.10900001 924689.94104050 18308.86169432
0.11000001 915335.65045561 24384.54287591
0.11100001 906015.47336031 18265.27280275
0.11200001 896732.38975687 19759.49913851
0.11300001 887486.16713729 16693.61558980
0.11400001 878279.81059376 16665.36019070
0.11500001 869114.86093323 22683.89893850
0.11600001 859992.15013882 16602.14924025
0.11700001 850913.28940898 19579.51571140
0.11800001 841878.80286605 18033.04480672
0.11900001 832890.18977759 19489.63135879
0.12000001 823949.22489534 17945.61496355
0.12100001 815058.64775397 19390.24614351
0.12200001 806217.51082464 14874.71377548
0.12300001 797428.14856109 16315.38068825
0.12400001 788690.90994342 16266.75078403
0.12500001 780006.63252252 17690.55125920
0.12600001 771378.38839800 14694.75899145
0.12700001 762805.12771226 23433.37462765
0.12800001 754288.34121917 14595.48009047
0.12900001 745829.40476767 17452.40889413
0.13000001 737428.87275655 20286.66924574
0.13100001 729087.06525328 15879.51702974
0.13200001 720805.21589020 17256.07768187
0.13300001 712585.45052766 18619.85870008
0.13400001 704426.08079113 22823.40609366
0.13500001 696330.19021652 17046.16386020
0.13600001 688296.42209457 16973.39056916
0.13700001 680326.92518340 16899.32161841
0.13800001 672420.41517113 15421.96294918
0.13900001 664580.03919714 16747.41777755
0.14000001 656804.25158517 15280.55163377
0.14100001 649094.47120827 19355.99804432
0.14200001 641450.33051838 16510.93228629
0.14300001 633874.23069396 16430.02083455
0.14400001 626362.28122475 17710.39433703
0.14500001 618919.86052592 14909.78014340
0.14600001 611544.22238028 20226.82610942
0.14700001 604238.56203744 14755.50638107
0.14800001 596997.73453515 13342.89999636
0.14900001 589826.80800736 13271.10380631
0.15000001 582723.95312766 15838.43779331
0.15100001 575689.92301268 21001.16938244
0.15200001 568725.02441970 18273.13589686
0.15300001 561829.83854908 16871.75084779
0.15400001 555001.21490860 14194.15674112
0.15500001 548243.13122461 16677.55683892
0.15600001 541551.46087273 16579.59875709
0.15700001 534932.25265957 22820.21097550
0.15800001 528378.02890530 15122.17990102
0.15900001 521894.96043067 12525.47964155
0.16000001 515478.08612684 17428.31491461
0.16100001 509132.75345299 14846.31179150
0.16200001 502854.10235301 14753.74005950
0.16300001 496643.38057277 17104.39883439
0.16400001 490500.77363307 16995.85260875
0.16500001 484425.38053219 13268.41179920
0.16600001 478418.20069153 17976.56473971
0.16700001 472476.49456768 13097.04904779
0.16800001 466601.12017967 15376.84064156
0.16900001 460794.47932747 12925.28575544
0.17000001 455052.11227123 14006.50467709
0.17100001 449375.78153657 16231.45399557
0.17200001 443765.16837749 13818.84799584
0.17300001 438219.53229123 16012.54246611
0.17400001 432738.29716528 12495.31892075
0.17500001 427321.11536478 11281.27797842
0.17600001 421966.32344300 15684.48898314
0.17700001 416676.49976409 11125.26306915
0.17800001 411447.59761233 12152.10536945
0.17900001 406281.85551319 10969.61061699
0.18000001 401177.81841113 11981.17611278
0.18100001 396136.36050551 15140.33241370
0.18200001 391153.06809996 12884.58267185
0.18300001 386230.96532126 11725.97266108
0.18400001 381368.17706062 13757.85763739
0.18500001 376565.80799761 12607.42384736
0.18600001 371820.23665666 13558.42557023
0.18700001 367132.54505422 12423.76591159
0.18800001 362502.18161712 12332.32480127
0.18900001 357930.25926310 12241.21544516
0.19000001 353410.65653746 13162.78052466
0.19100001 348950.93659510 14069.70242831
0.19200001 344542.84868650 9974.51594078
0.19300001 340191.68407552 11879.49416925
0.19400001 335891.96497204 11789.80852763
0.19500001 331646.58398931 9750.41003004
0.19600001 327453.09987267 12579.11142605
0.19700001 323311.34141367 10562.58202315
0.19800001 319221.16532412 11434.50268229
0.19900001 315181.85968884 9455.45623753
0.20000001 311191.10296016 12197.13585697
0.20100001 307251.13369798 10240.68077015
0.20200001 303358.41929513 12932.17002577
0.20300001 299515.28441637 13747.75220449
0.20400001 295718.78882352 11821.35914197
0.20500001 291968.94445624 13532.76121520
0.20600001 288265.34181673 10740.76714379
0.20700001 284607.74565829 13319.64312642
0.20800001 280993.86266257 10570.98961306
0.20900001 277426.44204470 11360.61333876
0.21000001 273900.85215842 10402.75485674
0.21100001 270419.05477072 11179.12425270
0.21200001 266979.40020064 11088.98991156
0.21300001 263580.79457560 10999.22707763
0.21400001 260224.53677413 11749.13839081
0.21500001 256909.71944384 12485.81295527
0.21600001 253633.91976956 12383.67671823
0.21700001 250397.85052669 9825.61211922
0.21800001 247200.84749404 12180.82233618
0.21900001 244041.24909280 8858.69776092
0.22000001 240919.32480270 8785.12359431
0.22100001 237836.21425439 11879.91946373
0.22200001 234789.62467008 8639.08464823
0.22300001 231777.80030694 9345.28135027
0.22400001 228801.26042005 9266.45148519
0.22500001 225862.20644541 8422.40207662
0.22600001 222955.31007748 7591.62866713
0.22700001 220084.71343184 9032.27706637
0.22800001 217246.19956540 8208.64803877
0.22900001 214439.93005298 8137.99573036
0.23000001 211667.42024153 7334.27645822
0.23100001 208927.54501698 11633.08625671
0.23200001 206217.49842901 10810.95286643
0.23300001 203539.35439533 12145.19385117
0.23400001 200892.51324860 11330.33828309
0.23500001 198273.96116979 9826.45798033
0.23600001 195686.78241067 6956.66544373
0.23700001 193128.34802072 7584.15058549
0.23800001 190598.84708580 9566.15658770
0.23900001 188097.45131816 6771.50856774
0.24000001 185624.06113600 7381.34114021
0.24100001 183179.37455315 8644.23509405
0.24200001 180761.28625017 7906.49903458
0.24300001 178370.46481718 9792.53898168
0.24400001 176005.51812847 9055.48433607
0.24500001 173666.67177862 10253.28078683
0.24600001 171354.07868370 7618.40269867
0.24700001 169067.07853997 8176.08430497
0.24800001 166804.88528076 9968.26041594
0.24900001 164566.53317888 8022.61887200
0.25000001 162353.78143967 7335.14419246
0.25100001 160163.91261348 7265.03541985
0.25200001 157999.60460392 8994.12791759
0.25300001 155858.32324877 8907.30359508
0.25400001 153739.99774389 7056.66623030
0.25500001 151644.22835049 6405.45250858
0.25600001 149571.58265630 6919.18174105
0.25700001 147520.58752672 6850.85640888
0.25800001 145492.64457940 6782.86741122
0.25900001 143486.36319253 6155.56527221
0.26000001 141501.56823682 6647.74399031
0.26100001 139537.62543130 6032.21183282
0.26200001 137595.74983268 7056.59836406
0.26300001 135673.96702541 6984.49615296
0.26400001 133773.17478756 9039.72271401
0.26500001 131893.33589805 7893.81652702
0.26600001 130032.61435650 7290.92903197
0.26700001 128193.19574368 5153.36671275
0.26800001 126373.88113842 8668.61678690
0.26900001 124572.92046857 7063.28492481
0.27000001 122792.44042892 5989.81552757
0.27100001 121030.70033967 8394.68977282
0.27200001 119289.70601039 4884.91369230
0.27300001 117566.57588077 5315.18514711
0.27400001 115860.56476159 4779.24852259
0.27500001 114176.07956736 4726.88991779
0.27600001 112507.62389078 6544.56879145
0.27700001 110859.37838797 6934.25444634
0.27800001 109228.33859326 6399.68866106
0.27900001 107616.41995009 4971.87883700
0.28000001 106021.06347845 7150.06085939
0.28100001 104444.30042277 6626.99117547
0.28200001 102885.75174844 6988.00058949
0.28300001 101344.29942590 5612.44756784
0.28400001 99820.03495585  5547.49870524
0.28500001 98313.60739302  5482.95014382
0.28600001 96824.13738728  5001.93517418
0.28700001 95351.76530535  4119.19645616
0.28800001 93895.64823260  4070.37654355
0.28900001 92458.30518067  6032.90469860
0.29000001 91036.14739828  5563.21923084
0.29100001 89631.52464203  4711.03315818
0.29200001 88243.43617547  4266.12912384
0.29300001 86871.84826430  5363.46816572
0.29400001 85516.01622461  4540.90067648
0.29500001 84177.63998061  4858.73360968
0.29600001 82854.58636474  5167.64079619
0.29700001 81547.95681068  4009.71322619
0.29800001 80257.15266316  6119.20689448
0.29900001 78983.02471811  4620.50716474
0.30000001 77723.98894936  4562.00974735
0.30100001 76481.81563913  3464.62641247
0.30200001 75253.70297679  4104.33715466
0.30300001 74042.62532450  4051.61264956
0.30400001 72847.00800456  4332.57600618
0.30500001 71666.62145412  3947.39769657
0.30600001 70500.65648884  4220.52200052
0.30700001 69351.27137224  3204.02888909
0.30800001 68216.59213269  4110.39095356
0.30900001 67097.17951051  4056.02469344
0.31000001 65993.06193986  3386.43413377
0.31100001 64903.04171714  5163.68624349
0.31200001 63828.76385403  5094.49302821
0.31300001 62768.63400710  3547.68336205
0.31400001 61724.52922576  4374.72621600
0.31500001 60693.92419556  2876.89214308
0.31600002 59678.46151815  3689.02427341
0.31700002 58677.31803357  3918.47148381
0.31800002 57690.62845784  3312.59604290
0.31900002 56718.36747807  2994.72994464
0.32000002 55760.69927243  3758.82891593
0.32100002 54816.44854021  3971.45188479
0.32200002 53887.58564368  2871.93901287
0.32300002 52970.99653649  3089.26866429
0.32400002 52069.10777075  3807.55368603
0.32500002 51180.92305951  3754.12088418
0.32600002 50306.93175111  2467.55511924
0.32700002 49445.98483580  3892.38811059
0.32800002 48599.44652936  2398.38279979
0.32900002 47765.53684930  3546.59127900
0.33000002 46946.19046991  2563.96631393
0.33100002 46137.52102705  2527.41352155
0.33200002 45345.19404756  2944.49031491
0.33300002 44564.52874772  2679.21959519
0.33400002 43797.32508714  2640.97882782
0.33500002 43042.04384423  2603.18293498
0.33600002 42300.66606777  2352.12864809
0.33700002 41571.00378480  2950.70998838
0.33800002 40854.91500086  2492.96703141
0.33900002 40150.43217067  2252.43935144
0.34000002 39458.95242394  2421.99061448
0.34100002 38779.50579205  2586.20536375
0.34200002 38112.91102448  2157.00030158
0.34300002 37457.28041872  2126.07533726
0.34400002 36815.01686615  2857.76581958
0.34500002 36183.69524949  2441.31403410
0.34600002 35565.25321620  2036.28866933
0.34700002 34956.69093823  2189.68722408
0.34800002 34361.41296965  2518.34807582
0.34900002 33776.77417321  1950.60880089
0.35000002 33203.50859450  2797.06369648
0.35100002 32642.26911506  1895.86308000
0.35200002 32090.70949313  1699.20314814
0.35300002 31550.72608654  1842.87799800
0.35400002 31022.03513172  1651.92344901
0.35500002 30504.09871664  2606.27031779
0.35600002 29995.86364886  2088.16214682
0.35700002 29498.66827506  1584.07856140
0.35800002 29012.55015341  1562.32589976
0.35900002 28536.37393769  1540.96426562
0.36000002 28070.64984090  1824.03091306
0.36100002 27614.26673501  1499.45475473
0.36200002 27169.04387225  1479.35450892
0.36300002 26732.49122403  1897.47231696
0.36400002 26305.81823292  1440.24361647
0.36500002 25888.58253639  1847.66822314
0.36600002 25481.23796355  1543.01643797
0.36700002 25082.66291305  1938.38828174
0.36800002 24694.81456119  1640.22966085
0.36900002 24314.94340135  1484.42736497
0.37000002 23943.83103832  1598.96911248
0.37100002 23581.49198772  1973.77097287
0.37200002 23228.78334638  1689.54563673
0.37300002 22883.95051893  1668.92659040
0.37400002 22547.73146189  1775.63393674
0.37500002 22220.34917254  1253.22775270
0.37600002 21901.32637184  1486.22407800
0.37700002 21589.80741371  1346.55635218
0.37800002 21286.36859513  1936.20817914
0.37900002 20991.38566680  1316.15994366
0.38000002 20704.06890492  1419.88511276
0.38100002 20423.45697128  1521.34338186
0.38200002 20151.45821349  1389.24159505
0.38300002 19886.10796956  1603.61582263
0.38400002 19628.96654899  1246.93015910
0.38500002 19377.65676766  1795.14620800
0.38600002 19134.78630204  1221.85183720
0.38700002 18898.09205425  1099.86900966
0.38800002 18668.31331427  1089.29613349
0.38900002 18444.75978403  1186.92034833
0.39000002 18228.93904565  1069.12732568
0.39100002 18018.46043448  1059.48552374
0.39200002 17814.95025579  1155.21050407
0.39300002 17617.34514842  1145.30366236
0.39400002 17427.18961132  1032.56103339
0.39500002 17241.70213236  1331.40430174
0.39600002 17062.30190351  1422.48417709
0.39700002 16888.69170540  1209.90593110
0.39800002 16720.90302895  1701.26835928
0.39900002 16558.54516105  1192.21530808
0.40000002 16401.52724971  1085.20710189
0.40100002 16250.15691901  979.88450864
0.40200002 16104.11528347  973.49381501
0.40300002 15962.71259304  1547.74468635
0.40400002 15826.76764486  1153.77141598
0.40500002 15695.84534292  955.87702667
0.40600002 15569.62823076  1330.73618793
0.40700002 15448.00947710  1701.75280463
0.40800002 15331.29766752  1034.63267211
0.40900002 15218.77798905  1403.93233601
0.41000002 15111.12284576  1117.92092110
0.41100002 15007.54498170  1483.94611810
0.41200002 14907.94621011  923.54731148
0.41300002 14813.08986880  1195.86080177
0.41400002 14721.85127759  1008.07881400
0.41500002 14634.75844045  1187.17166094
0.41600002 14551.01202917  1456.26535288
0.41700002 14471.37520260  1270.29737548
0.41800002 14396.42520158  1266.74151351
0.41900002 14322.99938195  1804.69800764
0.42000002 14254.40340283  1170.21530281
0.42100002 14189.38158480  1167.64426594
0.42200002 14127.78010867  1344.61153556
0.42300002 14068.81188881  1252.68706994
0.42400002 14012.85463823  1071.98343062
0.42500002 13960.50745942  1070.49176271
0.42600002 13910.21713793  1069.13933988
0.42700002 13864.17526113  1068.09611273
0.42800002 13819.92840143  1156.10616521
0.42900002 13779.70208141  888.79082637
0.43000002 13741.51963760  1154.90607267
0.43100002 13705.03803614  976.89515751
0.43200002 13672.23660750  1420.81889558
0.43300002 13641.59554177  976.87470304
0.43400002 13613.40292904  1332.41187482
0.43500002 13587.30960180  1244.05412609
0.43600002 13563.89784998  978.02490082
0.43700002 13542.08522792  978.68654580
0.43800002 13522.33611987  1246.62422597
0.43900002 13505.40468170  891.35675123
0.44000002 13489.87037537  1249.29695467
0.44100002 13476.71649210  1072.20761492
0.44200002 13465.14263621  1073.71052469
0.44300002 13455.48620338  985.74896597
0.44400002 13447.92916469  1077.17917714
0.44500002 13440.80388380  1168.94676917
0.44600002 13435.71579768  1171.12422301
0.44700002 13433.31472199  992.99067131
0.44800002 13430.83495602  1085.48013259
0.44900002 13431.37246327  1450.58829478
0.45000002 13432.80161906  1090.47488712
0.45100002 13435.16266495  1001.99447904
0.45200002 13439.07072627  1004.50338904
0.45300002 13444.01944906  1190.19909823
0.45400002 13450.50249647  1193.39589056
0.45500002 13458.10944263  1012.58820245
0.45600002 13466.61973982  1477.01892306
0.45700002 13476.25982151  1296.14673106
0.45800002 13486.51966501  928.54692294
0.45900002 13497.95833390  1117.63100302
0.46000002 13510.99632929  1027.71398450
0.46100002 13523.73190252  1030.91413179
0.46200002 13538.31060668  1504.37714591
0.46300002 13553.50749857  1131.98899993
0.46400002 13568.77167814  946.42186941
0.46500002 13585.29001040  1234.49536175
0.46600002 13602.31788038  1333.97937775
0.46700002 13619.62419929  1242.92696334
0.46800002 13638.48882975  1343.25482851
0.46900002 13656.83257023  1059.08741602
0.47000002 13676.09968166  1739.18967895
0.47100002 13695.96925801  1066.64213637
0.47200002 13716.31844214  1459.75925939
0.47300002 13737.22838072  1367.40377783
0.47400002 13757.78302620  1176.29050449
0.47500002 13779.12895044  1278.97880980
0.47600002 13801.32338865  1086.23320879
0.47700002 13822.86611569  1090.20950222
