# SAXS profile: number of points = 501, q_min = 0, q_max = 0.5, delta_q = 0.001
#    q    intensity    error
0.00000000 1664650.74656090 274.66737318
0.00100000 1664564.12834748 599.24310044
0.00200000 1664304.24842865 973.61801616
0.00300000 1663871.31475497 1297.81967174
0.00400000 1663265.20544500 1746.42853208
0.00500000 1662486.58486365 1496.23798560
0.00600000 1661535.27591209 1919.07332181
0.00700000 1660412.06003212 2191.74401033
0.00800000 1659116.70002398 2239.80763960
0.00900000 1657650.60949317 3232.41882669
0.01000000 1656013.17138175 2732.42185076
0.01100000 1654205.94994927 3275.32792351
0.01200000 1652228.85988248 3866.21570163
0.01300000 1650083.31939924 4851.24517300
0.01400000 1647769.37314534 4448.97750472
0.01500000 1645288.67823916 4343.56230397
0.01600000 1642640.86006127 4607.60781845
0.01700000 1639828.14860242 4870.28981982
0.01800000 1636850.93676841 6064.53299362
0.01900000 1633710.37609962 5391.24448440
0.02000000 1630407.08553265 5649.36080692
0.02100000 1626943.94865522 7516.48138357
0.02200000 1623319.43081636 6160.49751983
0.02300000 1619536.86451701 8745.49946647
0.02400000 1615596.73413845 8481.88324098
0.02500000 1611501.33216417 7541.82657897
0.02600000 1607251.15968250 7160.30424389
0.02700000 1602848.18307093 8078.35521268
0.02800000 1598292.87689744 8343.08920002
0.02900000 1593588.47991069 8605.37818663
0.03000000 1588735.83248028 8865.14635273
0.03100000 1583736.34265977 10642.70871238
0.03200000 1578591.37732047 7814.02767764
0.03300000 1573305.00392071 12035.78383485
0.03400000 1567875.67312444 9054.48243007
0.03500000 1562307.74841102 14341.98579270
0.03600000 1556601.61254897 15550.45082801
0.03700000 1550760.42870798 9723.26833768
0.03800000 1544785.63462918 9940.69601889
0.03900000 1538679.67421387 13848.11770923
0.04000000 1532442.92690860 12251.88176837
0.04100000 1526079.32697124 11537.16024684
0.04200000 1519590.26632500 11761.62920701
0.04300000 1512977.74965404 9985.65361123
0.04400000 1506244.90561297 13217.29966059
0.04500000 1499393.33553361 10345.81449590
0.04600000 1492424.16671110 12625.90903731
0.04700000 1485341.47508764 10694.45911801
0.04800000 1478146.75087223 15210.13077417
0.04900000 1470842.69530881 12134.45280113
0.05000000 1463430.98111801 11195.24752687
0.05100000 1455915.42527029 11356.14084612
0.05200000 1448295.72048277 12665.34666584
0.05300000 1440576.80875098 14002.40723382
0.05400000 1432760.03258622 16548.37914809
0.05500000 1424848.84134914 16756.22315593
0.05600000 1416844.07855536 12114.01743694
0.05700000 1408750.61755928 18384.19641730
0.05800000 1400567.90676345 16113.53451969
0.05900000 1392300.09244934 17542.98198422
0.06000000 1383950.63744335 12663.14892421
0.06100000 1375520.98418091 15350.81490082
0.06200000 1367014.24377483 14210.11372827
0.06300000 1358433.07592186 15649.14976630
0.06400000 1349777.52499212 14476.36463255
0.06500000 1341053.56023649 14604.07395412
0.06600000 1332262.71323094 14728.16498388
0.06700000 1323406.14883428 14848.61768482
0.06800000 1314488.10263145 16325.94299889
0.06900000 1305511.92121760 20561.81372186
0.07000000 1296477.38543458 15188.23328161
0.07100000 1287388.93468947 15294.18126046
0.07200000 1278248.40764708 16796.18486333
0.07300000 1269059.31244629 16903.87083383
0.07400000 1259824.69912577 14173.02852937
0.07500000 1250544.70124800 14256.21026245
0.07600000 1241223.23451002 14336.12903068
0.07700000 1231863.85321296 17295.36931006
0.07800000 1222467.55610849 15934.86534116
0.07900000 1213036.39643120 17467.72492791
0.08000000 1203575.86849174 23397.51598108
0.08100000 1194086.40299743 27905.80054734
0.08200000 1184569.18195672 16222.67570815
0.08300000 1175028.52617291 22208.04018694
0.08400000 1165466.59262686 16345.66972884
0.08500000 1155885.54304281 26839.66356945
0.08600000 1146288.09579892 16454.96638778
0.08700000 1136676.26316961 24006.60380544
0.08800000 1127051.87523217 16550.75756507
0.08900000 1117418.52959443 18102.18102968
0.09000000 1107778.00329027 19657.52159181
0.09100000 1098132.13084410 21215.91376466
0.09200000 1088482.97092180 19739.63960517
0.09300000 1078834.91597551 16732.73033309
0.09400000 1069186.60116336 21330.27369568
0.09500000 1059542.31645090 21360.37410365
0.09600000 1049903.46133209 18331.31529657
0.09700000 1040275.30554333 21408.86679457
0.09800000 1030656.13393639 22957.86646286
0.09900000 1021050.24559257 18378.90528489
0.10000000 1011456.93128475 18388.28787551
0.10100000 1001880.33613569 22993.15479572
0.10200000 992322.13064363 15331.37763958
0.10300000 982783.70947876 16864.56924798
0.10400000 973267.65421662 16861.86290257
0.10500000 963777.38743768 16856.46729937
0.10600001 954309.66761576 19911.67215172
0.10700001 944871.48966236 24491.07016454
0.10800001 935461.36002758 16824.27335187
0.10900001 926083.12233561 18336.44668526
0.11000001 916737.44190353 15263.67912615
0.11100001 907425.61383940 18293.70123615
0.11200001 898150.18553967 16746.01099774
0.11300001 888911.49953937 15200.38735777
0.11400001 879712.08218523 24280.05461152
0.11500001 870553.65543880 18177.16118149
0.11600001 861437.07997371 18141.86575857
0.11700001 852363.89020986 18104.20988067
0.11800001 843334.78324485 21074.93722588
0.11900001 834351.07246494 18021.98401411
0.12000001 825414.54596364 14981.27471493
0.12100001 816527.86198904 20919.44480963
0.12200001 807690.15874575 14901.88413091
0.12300001 798904.01408535 17831.53843451
0.12400001 790169.48778467 16297.24645344
0.12500001 781487.09977287 17724.12825802
0.12600001 772860.68307184 23556.79473011
0.12700001 764288.67236460 17609.21184114
0.12800001 755772.43240052 17549.03670741
0.12900001 747313.94462434 20401.67164982
0.13000001 738913.38879030 15971.61365152
0.13100001 730571.00330236 14465.30654725
0.13200001 722288.09490513 17291.57780716
0.13300001 714066.62844340 17223.28789001
0.13400001 705905.38594688 14294.58473935
0.13500001 697806.73453606 18505.83547241
0.13600001 689770.02166870 21262.16192046
0.13700001 681796.99539209 15524.51831711
0.13800001 673886.56325058 15455.58905697
0.13900001 666041.83688839 16784.25508110
0.14000001 658261.12671692 18098.89053264
0.14100001 650545.98438005 22170.60819330
0.14200001 642896.02716698 15169.13247646
0.14300001 635313.60577911 17839.60689173
0.14400001 627794.96794182 16385.44943618
0.14500001 620345.23451526 14944.11740442
0.14600001 612961.94695152 14867.39272467
0.14700001 605647.83496586 14789.92082760
0.14800001 598398.63329853 17386.47311076
0.14900001 591218.75610073 13302.42263989
0.15000001 584106.28512935 17199.01037713
0.15100001 577062.18583962 17104.12399534
0.15200001 570086.76298619 14391.84101069
0.15300001 563180.51514988 15611.36461664
0.15400001 556340.51925999 14228.40945153
0.15500001 549570.76713539 14145.95221365
0.15600001 542866.95765593 14062.96920178
0.15700001 536235.07849514 13979.64915616
0.15800001 529667.81967562 12632.57809550
0.15900001 523171.21741203 13811.72079160
0.16000001 516740.22798762 14975.13251394
0.16100001 510380.38950196 26044.71250571
0.16200001 504087.08804819 16022.40884997
0.16300001 497861.28379094 17146.34342320
0.16400001 491703.23458842 15820.55231976
0.16500001 485611.75098134 13300.90648733
0.16600001 479588.31213650 13215.05656484
0.16700001 473630.01932094 14322.57246050
0.16800001 467737.45745316 14228.57412755
0.16900001 461913.27369812 12956.66793902
0.17000001 456153.37360273 15210.43496101
0.17100001 450458.58182002 16270.56474366
0.17200001 444829.65660910 12697.66314753
0.17300001 439264.92848516 14904.25972735
0.17400001 433764.60691722 11386.32146931
0.17500001 428327.81418425 12438.64031136
0.17600001 422953.10300613 14598.22703972
0.17700001 417643.03905531 16726.60450417
0.17800001 412394.06983604 12180.05942790
0.17900001 407207.41616428 15392.44105805
0.18000001 402082.40343171 14191.49909946
0.18100001 397019.52593627 15174.08699805
0.18200001 392014.69541256 11836.88428713
0.18300001 387070.65744451 11751.46571515
0.18400001 382185.82291303 12726.78850423
0.18500001 377361.12590950 10528.37591026
0.18600001 372593.07192775 12541.48339359
0.18700001 367882.25046572 12449.13594392
0.18800001 363228.78621301 15446.30486349
0.18900001 358633.70430266 11243.16716110
0.19000001 354090.69007240 13188.10837487
0.19100001 349607.30665668 15103.03636119
0.19200001 345175.66021292 9992.83583534
0.19300001 340800.15995348 12892.47066024
0.19400001 336476.48493208 12794.51894413
0.19500001 332206.51267841 10743.55912771
0.19600001 327988.61860782 12599.68337923
0.19700001 323822.22905222 9617.52065735
0.19800001 319707.22335695 9543.26106821
0.19900001 315643.23186470 12310.08662450
0.20000001 311627.36589536 11274.67863095
0.20100001 307662.37899296 10254.38757648
0.20200001 303744.41651341 12023.72329597
0.20300001 299876.16070580 9176.21095131
0.20400001 296054.43897350 12745.14420022
0.20500001 292279.05623602 10837.70791750
0.20600001 288549.87609286 13439.21111427
0.20700001 284866.83661626 8887.84572255
0.20800001 281227.32175469 14106.36312603
0.20900001 277634.45936635 8745.48588345
0.21000001 274083.33350428 9542.21170703
0.21100001 270575.89088201 8604.31373680
0.21200001 267110.66869795 8534.18626835
0.21300001 263686.52005799 11850.07277162
0.21400001 260304.71114999 11752.75826405
0.21500001 256964.43488483 9158.21289227
0.21600001 253663.03358239 11559.42498686
0.21700001 250401.48059345 10644.56744330
0.21800001 247179.14411222 12179.75290200
0.21900001 243994.36451371 8856.99585062
0.22000001 240847.24654917 8782.49526067
0.22100001 237738.97047108 10291.72051832
0.22200001 234667.23392179 11774.42901877
0.22300001 231630.69227764 9339.34995425
0.22400001 228629.27778586 7716.23849015
0.22500001 225665.41837655 9180.06965366
0.22600001 222733.93474119 9859.31808755
0.22700001 219838.85109261 10525.88468807
0.22800001 216976.16045629 10434.38404979
0.22900001 214145.76929372 7388.02939002
0.23000001 211349.22304636 8787.90110986
0.23100001 208585.69294630 7258.78245782
0.23200001 205852.12916845 8633.43870563
0.23300001 203150.35822675 9269.75128429
0.23400001 200480.22434424 9187.00671508
0.23500001 197838.70690571 12606.28300026
0.23600001 195228.71404118 10410.57166864
0.23700001 192647.51338216 7565.26820834
0.23800001 190095.71393270 7496.42483351
0.23900001 187572.15899245 10804.15686900
0.24000001 185076.82730809 8028.63314838
0.24100001 182610.47638484 9280.26484884
0.24200001 180171.21883938 9194.13773227
0.24300001 177758.78879174 7156.56917528
0.24400001 175373.04791630 7089.45579737
0.24500001 173013.71838093 6384.20651026
0.24600001 170680.38636157 6956.07947522
0.24700001 168373.33525156 6889.83720442
0.24800001 166091.45832158 6203.51626178
0.24900001 163833.63631958 7372.51398316
0.25000001 161601.79210157 6692.73853651
0.25100001 159393.02512163 12050.11326927
0.25200001 157209.97426570 7159.34256677
0.25300001 155050.59347148 6498.17067982
0.25400001 152914.10172616 7603.65406807
0.25500001 150800.66733320 6369.82048952
0.25600001 148710.83051163 10319.04501742
0.25700001 146642.93862940 7945.11479085
0.25800001 144598.27395027 6179.40752964
0.25900001 142575.71897916 7784.63462459
0.26000001 140575.18793486 6604.22264166
0.26100001 138595.36677544 7080.83762360
0.26200001 136638.33842821 5929.42097665
0.26300001 134701.60787375 6934.43910146
0.26400001 132786.12907178 6333.89865643
0.26500001 130892.21334927 6267.11947172
0.26600001 129017.74270663 6200.59300789
0.26700001 127164.83265075 5623.22916591
0.26800001 125332.48489440 6068.59920576
0.26900001 123518.71754028 6503.26078624
0.27000001 121725.98042009 5937.79360588
0.27100001 119952.25724874 6362.26802555
0.27200001 118199.58574290 5808.32791828
0.27300001 116465.36424804 5265.39936683
0.27400001 114748.52945373 5206.71477037
0.27500001 113053.67033451 7020.63326003
0.27600001 111375.20410271 4627.63994948
0.27700001 109717.16573326 5490.24723313
0.27800001 108076.71687807 4975.31189695
0.27900001 106455.96753877 5365.38101789
0.28000001 104852.07896552 4419.51533757
0.28100001 103267.23573278 6115.48598954
0.28200001 101700.97869836 5180.64810009
0.28300001 100152.17268872 5973.07586186
0.28400001 98620.82299289  4216.04038249
0.28500001 97107.92448115  4999.11618890
0.28600001 95612.11141549  5762.54222776
0.28700001 94133.91923249  4879.90260399
0.28800001 92672.26492245  4419.07716200
0.28900001 91229.92977425  4365.35234633
0.29000001 89803.04359427  4703.88364612
0.29100001 88394.09005941  5033.15972623
0.29200001 87002.08896543  4206.11619013
0.29300001 85626.86323555  4153.75933218
0.29400001 84267.83602886  4101.73711287
0.29500001 82926.67810804  4418.33361875
0.29600001 81601.29698691  3998.87174814
0.29700001 80292.42168394  3589.07141917
0.29800001 78999.92633364  4960.40560931
0.29900001 77724.41003815  3847.35847902
0.30000001 76464.19955219  5178.53815982
0.30100001 75221.49340994  3748.28719406
0.30200001 73992.92239405  4371.87202662
0.30300001 72782.08175819  3318.86308529
0.30400001 71586.80815557  3930.11595380
0.30500001 70407.01168693  3554.85018837
0.30600001 69242.14032991  3507.46078446
0.30700001 68094.18058765  3775.14155051
0.30800001 66961.11165602  4034.74197385
0.30900001 65843.77485958  6735.81848704
0.31000001 64742.28127538  3926.29583383
0.31100001 63654.92609825  3872.76588717
0.31200001 62583.64112143  4407.45313465
0.31300001 61526.86378907  2897.91542167
0.31400001 60486.09780738  3143.76508239
0.31500001 59459.56669377  3382.06031367
0.31600002 58448.30157991  3335.06024606
0.31700002 57451.73365441  3836.62695510
0.31800002 56469.80692182  4053.12058372
0.31900002 55502.80710584  3463.37532739
0.32000002 54550.38922445  3414.58177518
0.32100002 53611.75073013  2848.39245116
0.32200002 52688.78411878  2808.04888257
0.32300002 51778.53632407  2516.43698451
0.32400002 50882.92908903  2480.54291055
0.32500002 50001.51173428  3423.10365542
0.32600002 49134.44700968  3133.05816193
0.32700002 48280.52779878  2612.94228820
0.32800002 47441.54687303  2575.36449395
0.32900002 46615.34226468  2999.69741678
0.33000002 45803.68569018  2274.15310221
0.33100002 45003.19635151  3137.62299821
0.33200002 44219.26820566  3092.25357206
0.33300002 43447.08189361  2612.03868714
0.33400002 42688.46943447  3861.17224320
0.33500002 41942.33991991  2325.28343528
0.33600002 41210.00373090  2916.43210215
0.33700002 40489.60649766  2258.10546131
0.33800002 39783.07342478  2832.15713123
0.33900002 39088.32196357  2192.85496601
0.34000002 38406.66748083  2160.95124815
0.34100002 37737.23365486  2129.51219599
0.34200002 37080.67983733  1907.80106798
0.34300002 36435.48565523  2256.08537862
0.34400002 35803.62038953  2964.53990865
0.34500002 35183.01974521  2373.79845463
0.34600002 34575.26856389  1799.64281398
0.34700002 33977.68550102  1950.99879387
0.34800002 33393.25488848  2797.01916193
0.34900002 32819.73122111  1895.33956779
0.35000002 32257.81296333  2038.04871955
0.35100002 31707.90576726  1674.17750380
0.35200002 31167.84592636  2145.43877596
0.35300002 30639.40264085  2277.73330020
0.35400002 30122.23648559  2085.21191948
0.35500002 29616.02320185  1739.64528527
0.35600002 29119.58909437  2962.77273274
0.35700002 28634.38487102  1998.96650253
0.35800002 28160.04984430  1971.34438272
0.35900002 27696.03779083  1495.58611154
0.36000002 27242.44277783  1770.21401555
0.36100002 26798.23076268  1600.65839927
0.36200002 26365.01623897  2296.92032354
0.36300002 25940.83370965  1416.36958764
0.36400002 25526.39407658  1677.08417027
0.36500002 25121.53368104  1930.84117018
0.36600002 24726.50274806  1361.19404076
0.36700002 24340.31249665  1612.30237615
0.36800002 23964.79930198  1591.74204504
0.36900002 23597.43487481  1571.58923711
0.37000002 23238.66402036  1939.84757099
0.37100002 22888.65611500  1532.62448606
0.37200002 22548.26106515  1513.89031963
0.37300002 22215.91491629  1370.94417443
0.37400002 21892.13542114  1970.29228124
0.37500002 21577.05038408  1825.41854897
0.37600002 21270.52262168  1323.13292236
0.37700002 20971.33037348  1664.70428391
0.37800002 20680.08721533  1881.06082222
0.37900002 20397.45555963  1511.45152857
0.38000002 20122.44557411  1954.99629237
0.38100002 19854.05847832  1365.16512564
0.38200002 19594.18485301  1125.68597313
0.38300002 19341.02080056  1336.85142107
0.38400002 19095.81986019  1323.34037900
0.38500002 18856.76672049  1200.98752932
0.38600002 18625.71554607  1405.58969027
0.38700002 18400.93271575  1178.02776827
0.38800002 18183.05111479  2015.86405734
0.38900002 17971.25589641  1261.58222370
0.39000002 17767.13182511  1458.85926327
0.39100002 17568.45545245  1756.14289023
0.39200002 17376.50464281  1024.34499722
0.39300002 17190.42191798  1015.95398349
0.39400002 17011.60608594  1411.11279168
0.39500002 16837.42849297  1100.15762985
0.39600002 16669.32317209  1290.45571451
0.39700002 16506.78632954  1182.54622868
0.39800002 16350.29184157  1565.70402093
0.39900002 16198.83280013  1360.70201968
0.40000002 16052.65967226  965.56752503
0.40100002 15912.13744788  1055.45212692
0.40200002 15776.75003456  1144.44550173
0.40300002 15645.96027251  1042.95976118
0.40400002 15520.38387291  1131.43603794
0.40500002 15399.95353288  1781.92870772
0.40600002 15283.93245104  933.08412035
0.40700002 15172.63126550  1114.27809293
0.40800002 15065.82068512  1016.71695711
0.40900002 14963.30998523  1012.26796846
0.41000002 14865.59952312  1008.11067943
0.41100002 14771.68635999  1460.62441648
0.41200002 14681.67904399  1455.24809579
0.41300002 14596.41888859  1178.36895271
0.41400002 14514.48416484  903.52668207
0.41500002 14436.66138616  1081.01725582
0.41600002 14362.07386082  988.18253882
0.41700002 14291.47364153  1164.89807172
0.41800002 14225.41367210  1162.28747915
0.41900002 14160.80294853  1516.62206765
0.42000002 14100.74918507  979.50858855
0.42100002 14044.48949413  1155.72109524
0.42200002 13991.16295246  1242.83506396
0.42300002 13940.45576108  1063.93563410
0.42400002 13892.76579388  1151.36301973
0.42500002 13848.55877550  1061.90753722
0.42600002 13806.10958050  1414.85017685
0.42700002 13767.96550427  1060.68411271
0.42800002 13731.57379825  1413.80290526
0.42900002 13698.85568177  971.93385668
0.43000002 13668.12546396  1060.37322374
0.43100002 13639.01239123  972.18884932
0.43200002 13613.40386937  1149.44781018
0.43300002 13589.93043361  884.70451315
0.43400002 13568.67681612  1062.42744505
0.43500002 13549.52691574  974.75301251
0.43600002 13532.88490163  1064.49677681
0.43700002 13517.71694778  1243.35966378
0.43800002 13504.45818798  1422.82978211
0.43900002 13493.92924040  1068.71924649
0.44000002 13484.76012602  1159.62200199
0.44100002 13477.72410219  982.93046535
0.44200002 13472.21864558  1163.79766285
0.44300002 13468.60800631  897.00933573
0.44400002 13466.77826076  988.79824066
0.44500002 13465.37178379  1261.16678104
0.44600002 13466.06063340  993.18934908
0.44700002 13469.05473180  995.63257296
0.44800002 13472.07122950  1723.95367658
0.44900002 13478.11554355  1182.70469500
0.45000002 13484.60178749  1733.24337290
0.45100002 13492.08077540  1189.19205590
0.45200002 13501.13188501  1284.36273709
0.45300002 13510.90273197  1104.11102358
0.45400002 13522.29880540  1107.47632465
0.45500002 13534.62355760  1388.65244282
0.45600002 13547.85341023  1114.44647434
0.45700002 13562.04200482  1024.88356288
0.45800002 13576.83413404  1028.24158187
0.45900002 13592.54252539  1500.61676592
0.46000002 13609.87379360  1694.02107138
0.46100002 13626.97591433  1038.78442318
0.46200002 13645.52056050  947.68144784
0.46300002 13664.89979767  1141.29248519
0.46400002 13684.09641509  1240.80550125
0.46500002 13704.56656570  1149.53909801
0.46600002 13725.30193088  1249.89467958
0.46700002 13746.33070891  1350.98944610
0.46800002 13768.89679005  1065.50612860
0.46900002 13790.86027343  1069.48126489
0.47000002 13813.63685651  1171.12018820
0.47100002 13836.90876865  1077.61850598
0.47200002 13860.66120433  983.41395906
0.47300002 13884.94779991  1283.38578597
0.47400002 13908.78486720  1585.60155001
0.47500002 13933.37048509  1193.81123975
0.47600002 13958.58501225  1198.48416596
0.47700002 13983.32123492  1303.38543409
