# SAXS profile: number of points = 501, q_min = 0, q_max = 0.5, delta_q = 0.001
#    q    intensity    error
0.00000000 1646666.22097351 296.39991978
0.00100000 1646580.07832224 543.37143875
0.00200000 1646321.63283034 889.01370988
0.00300000 1645891.08203892 1382.54855816
0.00400000 1645288.31126682 1357.36290837
0.00500000 1644513.98350383 1628.06890811
0.00600000 1643567.91780166 1725.74638395
0.00700000 1642450.89182822 2365.12938253
0.00800000 1641162.69133876 2658.68367222
0.00900000 1639704.69932304 2705.51286954
0.01000000 1638076.30450351 3243.39122296
0.01100000 1636279.05838348 3239.83267666
0.01200000 1634312.92385780 3505.60137537
0.01300000 1632179.24785524 4455.84954317
0.01400000 1629878.15159842 5134.11640514
0.01500000 1627411.20542979 4296.36577365
0.01600000 1624778.07150342 6629.09482808
0.01700000 1621981.01085507 4817.28381834
0.01800000 1619020.35558156 5537.04986524
0.01900000 1615897.28463581 5332.46127991
0.02000000 1612612.44088884 6095.67530230
0.02100000 1609168.64313638 6372.30811573
0.02200000 1605564.40702717 6647.03694708
0.02300000 1601803.01505495 7496.43845168
0.02400000 1597884.98833597 6591.27587743
0.02500000 1593812.67146813 6215.86970261
0.02600000 1589586.35231999 9656.73753203
0.02700000 1585208.27226877 7989.45005816
0.02800000 1580678.65218156 8251.14294278
0.02900000 1576000.88550622 7801.20474144
0.03000000 1571175.78088268 9497.75803200
0.03100000 1566204.69511534 9021.33945896
0.03200000 1561089.05641980 10818.34765926
0.03300000 1555832.87573211 10315.17244164
0.03400000 1550434.57233747 10581.71644445
0.03500000 1544898.62730957 10845.18886452
0.03600000 1539225.25645346 9396.97062492
0.03700000 1533417.82818247 9614.53022735
0.03800000 1527477.43362071 14297.18944036
0.03900000 1521406.86782978 14605.50660755
0.04000000 1515206.30243857 12114.07494935
0.04100000 1508879.80777807 9505.94322976
0.04200000 1502428.58918339 13566.93078973
0.04300000 1495854.70194669 14808.96223667
0.04400000 1489161.55115528 12062.20912455
0.04500000 1482350.29913375 12273.86104713
0.04600000 1475422.24890434 12482.07280598
0.04700000 1468381.47112157 10572.34708377
0.04800000 1461229.61183504 19332.06866406
0.04900000 1453969.09356119 11995.24558023
0.05000000 1446601.70710853 12173.15393217
0.05100000 1439131.27016505 15715.31420229
0.05200000 1431557.48787440 12518.97081486
0.05300000 1423885.13470401 12686.81714165
0.05400000 1416115.88715807 12851.25227526
0.05500000 1408252.80309383 11829.32409782
0.05600000 1400297.05688271 15564.30251355
0.05700000 1392253.16232228 16957.64430864
0.05800000 1384120.82794372 15924.31086904
0.05900000 1375904.10486254 17336.39253098
0.06000000 1367606.53861827 18770.40061947
0.06100000 1359229.39653831 16433.08417209
0.06200000 1350775.86514358 16594.28227896
0.06300000 1342248.66983774 18039.82296608
0.06400000 1333647.72154381 16903.98566111
0.06500000 1324979.04228550 23611.12763800
0.06600000 1316244.10877797 14551.07930336
0.06700000 1307444.13428046 14669.52387315
0.06800000 1298583.42060072 16128.40683882
0.06900000 1289665.10023179 16249.78102372
0.07000000 1280689.14135800 13639.33999417
0.07100000 1271659.93708111 17854.10635287
0.07200000 1262579.07244166 22120.38638545
0.07300000 1253450.44790091 19478.62087306
0.07400000 1244276.64797010 16797.73553481
0.07500000 1235058.40668894 16895.59979544
0.07600000 1225799.06361360 14157.97984847
0.07700000 1216502.52754710 15656.38826364
0.07800000 1207169.48993897 15735.45503929
0.07900000 1197802.11938836 18685.71393889
0.08000000 1188406.16164844 15883.04909552
0.08100000 1178981.52521424 17401.76812862
0.08200000 1169529.90959339 21840.97208655
0.08300000 1160055.17066373 26310.05250544
0.08400000 1150559.75684763 19070.52886489
0.08500000 1141045.76394123 19135.33835961
0.08600000 1131515.86339509 16242.91098167
0.08700000 1121971.91657602 16291.03299367
0.08800000 1112416.08115798 16335.83091900
0.08900000 1102851.76624916 20843.89936114
0.09000000 1093280.47721935 19400.26297959
0.09100000 1083704.51310974 20937.17217693
0.09200000 1074125.66796028 19479.26990373
0.09300000 1064548.19053168 19513.16924941
0.09400000 1054971.18873997 21046.67620450
0.09500000 1045398.36613660 16559.11089793
0.09600000 1035831.37023816 18085.61657452
0.09700000 1026275.56543784 21120.75212966
0.09800000 1016729.18678913 16608.27204708
0.09900000 1007196.32532742 15107.94559032
0.10000000 997676.34213893 18137.75675305
0.10100000 988173.58695777 16630.96225068
0.10200000 978689.44225316 18144.90311284
0.10300000 969225.46297553 19655.89331377
0.10400000 959784.33070718 16628.26431178
0.10500000 950369.13816578 16621.95700857
0.10600001 940976.78686964 18123.21376787
0.10700001 931614.14525175 22638.22479492
0.10800001 922280.00381693 21110.99028089
0.10900001 912978.04862984 18076.96621368
0.11000001 903708.86781388 19560.77936455
0.11100001 894473.86190174 24043.45853973
0.11200001 885275.23050921 19507.04062261
0.11300001 876113.89513980 14981.54831223
0.11400001 866991.84950281 22433.41516215
0.11500001 857911.12423466 22391.48139689
0.11600001 848872.42576833 16387.48295117
0.11700001 839877.13352384 19325.57375252
0.11800001 830926.39541542 20764.85159942
0.11900001 822021.02136067 20714.93071400
0.12000001 813163.05596105 16234.80117700
0.12100001 804355.22804213 20607.58191322
0.12200001 795596.40706851 19082.38072253
0.12300001 786889.18727758 21954.20935940
0.12400001 778233.95230187 16051.07602251
0.12500001 769630.67795984 23273.63279817
0.12600001 761083.76364381 18848.24029483
0.12700001 752591.14891563 17339.70088817
0.12800001 744154.61154624 17279.27089446
0.12900001 735775.49664382 18651.90971902
0.13000001 727454.73348167 18582.83204269
0.13100001 719192.14318037 17088.00612745
0.13200001 710989.08251617 19857.92601079
0.13300001 702847.40882614 18365.40365843
0.13400001 694766.33341608 15475.92080647
0.13500001 686747.49629526 15410.61454345
0.13600001 678790.76136967 18133.89604502
0.13700001 670897.48691584 18053.85222420
0.13800001 663067.21776362 17972.43778499
0.13900001 655302.43838597 17889.75741159
0.14000001 647601.66676489 15066.45348783
0.14100001 639966.41233454 14994.41374818
0.14200001 632396.24733912 13564.90014522
0.14300001 624893.70507852 16197.24559962
0.14400001 617454.96204840 17458.53987544
0.14500001 610084.96601698 20041.29207905
0.14600001 602781.28208520 13291.32789699
0.14700001 595546.58261256 19831.70213659
0.14800001 588376.99510736 14465.24910717
0.14900001 581276.60139669 15694.46897819
0.15000001 574243.19597127 15607.93080293
0.15100001 567278.52051339 14227.34596579
0.15200001 560381.98801407 14146.84395496
0.15300001 553554.62819018 15344.53501753
0.15400001 546793.38991467 15255.53629854
0.15500001 540102.36662861 17693.75436577
0.15600001 533477.15280612 13819.72629566
0.15700001 526923.56754647 17483.32479635
0.15800001 520434.50899867 13653.59998801
0.15900001 514015.94622064 16037.29827905
0.16000001 507662.69740277 14712.06566518
0.16100001 501380.50939900 17056.96573492
0.16200001 495164.67889734 15738.81006172
0.16300001 489016.22463448 13232.77966330
0.16400001 482935.15584262 13147.91023852
0.16500001 476920.44326830 15437.91547744
0.16600001 470973.73791952 15337.26049947
0.16700001 465091.77602387 12892.34464009
0.16800001 459275.41259948 11642.63225912
0.16900001 453527.11030517 15034.42441651
0.17000001 447843.03332275 13784.60921658
0.17100001 442223.58424267 12550.30591345
0.17200001 436669.88079957 11331.58394186
0.17300001 431179.85748474 13504.55377417
0.17400001 425754.12575416 16764.06949327
0.17500001 420391.73966500 12208.17669643
0.17600001 415091.10052105 13224.80308720
0.17700001 409854.66829956 15320.36822463
0.17800001 404679.25634151 11952.20240057
0.17900001 399565.88367635 14024.76317948
0.18000001 394513.70286051 11782.15229246
0.18100001 389523.32054538 12760.78458384
0.18200001 384590.74614802 10557.01648045
0.18300001 379718.59819479 13624.30394683
0.18400001 374905.37259284 14565.07441330
0.18500001 370152.00457871 11359.96555719
0.18600001 365454.65328661 13326.30456168
0.18700001 360814.52048391 13227.46094587
0.18800001 356231.20474481 10099.15513166
0.18900001 351706.08108822 13030.71091999
0.19000001 347232.61508827 10943.03638155
0.19100001 342818.34256622 10860.48560566
0.19200001 338455.61805932 12737.77778754
0.19300001 334148.48449089 11668.46562979
0.19400001 329892.89005949 10614.30423923
0.19500001 325690.64913727 11490.36664454
0.19600001 321540.10655737 9501.51059778
0.19700001 317440.49310448 10370.78139982
0.19800001 313392.12956652 12161.18216255
0.19900001 309394.08163050 12994.55204260
0.20000001 305444.15714527 11050.97012780
0.20100001 301544.41423120 12791.51465624
0.20200001 297691.53931599 11784.12014078
0.20300001 293887.66432469 9892.25924872
0.20400001 290130.29687716 12490.10987092
0.20500001 286418.54831620 8850.33356130
0.20600001 282752.54310430 10535.36025405
0.20700001 279132.47212692 10450.72025043
0.20800001 275555.46864873 9502.53078554
0.20900001 272024.84363466 9425.66127750
0.21000001 268535.30156871 13598.62831428
0.21100001 265089.00390964 9272.81379512
0.21200001 261684.62111551 10869.07125186
0.21300001 258320.75201846 8292.09653181
0.21400001 254998.87899107 9868.45708350
0.21500001 251718.12366048 10602.36786983
0.21600001 248475.68064127 12131.82568089
0.21700001 245272.93700408 8020.42541924
0.21800001 242108.58533217 7953.26740420
0.21900001 238981.61259354 8675.03294731
0.22000001 235891.85450424 10947.74148518
0.22100001 232840.41227035 9304.30331426
0.22200001 229825.08394103 13069.00401627
0.22300001 226844.49937696 7621.97553947
0.22400001 223898.76441797 12090.53385029
0.22500001 220989.76330555 8240.70866334
0.22600001 218112.92676029 11140.11826108
0.22700001 215271.90831016 8098.52957360
0.22800001 212463.02136358 10217.34718055
0.22900001 209685.98101765 7234.16668722
0.23000001 206942.19475147 8604.65686470
0.23100001 204231.04756034 7817.96487034
0.23200001 201549.54037849 9861.81947712
0.23300001 198899.06966338 9773.90074551
0.23400001 196279.88591627 10378.29945867
0.23500001 193689.09787543 8227.91326690
0.23600001 191129.10252221 6794.63991603
0.23700001 188597.60285493 6732.93474037
0.23800001 186095.03463753 9340.11023023
0.23900001 183620.29351186 6610.33087909
0.24000001 181173.22802232 7859.29500336
0.24100001 178754.71337348 7137.67604262
0.24200001 176362.95521948 8356.95902838
0.24300001 173997.37709551 8278.79559381
0.24400001 171658.12576104 6939.28006214
0.24500001 169344.93927952 8123.47712151
0.24600001 167057.13290777 8665.25389384
0.24700001 164795.20854408 7969.49666220
0.24800001 162558.01665819 6071.54220941
0.24900001 160344.59809045 6614.21498413
0.25000001 158156.46564464 8931.88681983
0.25100001 155991.09296817 8844.69538973
0.25200001 153850.93746453 7006.37202360
0.25300001 151734.09916838 8671.60417773
0.25400001 149639.60207733 6868.45806030
0.25500001 147567.84743093 6233.26617039
0.25600001 145519.11819058 6731.71472599
0.25700001 143492.08236274 6108.45823519
0.25800001 141487.63467223 6046.47435380
0.25900001 139504.95704324 7072.90165674
0.26000001 137543.97242178 8077.27016265
0.26100001 135602.95009446 6395.03542904
0.26200001 133684.74745265 6856.02259751
0.26300001 131786.19537523 6784.35365894
0.26400001 129908.41810820 7229.40380980
0.26500001 128051.78583399 5109.26649654
0.26600001 126214.28085943 5560.37040638
0.26700001 124397.84345200 5500.87289775
0.26800001 122601.60921754 5441.67268263
0.26900001 120823.41833791 5872.01840910
0.27000001 119066.03379502 5808.04140337
0.27100001 117327.16095189 5265.64323271
0.27200001 115608.90395618 5681.02180925
0.27300001 113908.73572378 5149.81418578
0.27400001 112225.57928116 7406.88858309
0.27500001 110564.02419580 6866.02622750
0.27600001 108918.45274476 4978.11811829
0.27700001 107292.85185450 6263.75698771
0.27800001 105684.35049858 4865.17930546
0.27900001 104095.44185855 4809.20964147
0.28000001 102522.85742885 5617.74023869
0.28100001 100968.98937345 4698.08729790
0.28200001 99433.27381138  5065.13120768
0.28300001 97914.61261647  4171.16269488
0.28400001 96413.03758591  4121.65755188
0.28500001 94929.62439279  6923.21783465
0.28600001 93462.89031366  4828.29314214
0.28700001 92013.31954514  5564.96582949
0.28800001 90580.01321977  6675.29439019
0.28900001 89165.67018396  5042.31888757
0.29000001 87766.54863176  4597.21203494
0.29100001 86384.73496782  4162.01672776
0.29200001 85019.73976369  4857.60306133
0.29300001 83671.13221758  4058.88681601
0.29400001 82338.31889284  5465.20617522
0.29500001 81022.98076698  3957.16256798
0.29600001 79723.22667959  3906.83690837
0.29700001 78439.56633699  4558.12341562
0.29800001 77172.04191957  4499.51611712
0.29900001 75921.06379059  3758.09283554
0.30000001 74685.08810032  3709.23507610
0.30100001 73466.31361699  4659.23383016
0.30200001 72261.26912828  4269.55728857
0.30300001 71073.84459008  3565.06421341
0.30400001 69901.53737759  3837.59458371
0.30500001 68744.46264521  3786.44518176
0.30600001 67601.92490936  4358.29630524
0.30700001 66476.10869810  3378.31600398
0.30800001 65364.71468024  3029.65466886
0.30900001 64268.94987864  3287.35694193
0.31000001 63188.63617874  3537.30002076
0.31100001 62122.26216839  3779.51860927
0.31200001 61071.63053767  3727.50714635
0.31300001 60035.18975112  3110.42332827
0.31400001 59014.37557754  3346.11525367
0.31500001 58007.66623733  3024.51986082
0.31600002 57016.03694348  2982.22395353
0.31700002 56038.72888321  3474.96174258
0.31800002 55075.78577038  3425.98941606
0.31900002 54127.53051939  2598.12158795
0.32000002 53193.55112887  2817.39656894
0.32100002 52273.14772846  3787.18973225
0.32200002 51368.18614872  3235.42535778
0.32300002 50475.72620312  2698.43245059
0.32400002 49597.62293692  2659.67265593
0.32500002 48733.46450289  2621.37317974
0.32600002 47883.31538754  2348.67673097
0.32700002 47046.20104817  2546.14052129
0.32800002 46223.81059127  2281.14516070
0.32900002 45413.92742232  2922.38636801
0.33000002 44618.32782902  2658.36009794
0.33100002 43833.67068444  2619.50028415
0.33200002 43065.42289659  2796.45336822
0.33300002 42308.78356446  2755.57120404
0.33400002 41565.29064834  3132.98393098
0.33500002 40834.26832309  2881.26610932
0.33600002 40116.65139796  2027.89682420
0.33700002 39410.96736453  2197.94975401
0.33800002 38718.82958627  2165.73783547
0.33900002 38038.28901318  1939.95283154
0.34000002 37370.70192181  2676.11609136
0.34100002 36715.07583466  2260.18017542
0.34200002 36072.14652546  2412.68563462
0.34300002 35440.54605520  2194.47871567
0.34400002 34821.95978916  1982.24015488
0.34500002 34214.42702869  2308.44750095
0.34600002 33619.62952763  1924.89197977
0.34700002 33034.84946666  2069.30306860
0.34800002 32462.95605757  1869.37941311
0.34900002 31901.90935375  2344.79044855
0.35000002 31352.28235762  1980.83729317
0.35100002 30814.42670176  2603.20289106
0.35200002 30286.36985099  2565.86137530
0.35300002 29769.77656172  1896.93025236
0.35400002 29264.21911334  2337.47961239
0.35500002 28769.45929091  1689.91811879
0.35600002 28284.37671555  1817.55413383
0.35700002 27810.53570003  1941.45358918
0.35800002 27347.14930862  1914.43727803
0.35900002 26894.08322826  1452.28056311
0.36000002 26451.28302726  1575.57074815
0.36100002 26017.76005516  1695.31732549
0.36200002 25594.98850338  1672.37662803
0.36300002 25181.28762686  1512.38820651
0.36400002 24777.12841457  1492.20262945
0.36500002 24382.48037316  1874.03753025
0.36600002 23997.42905096  2113.69365093
0.36700002 23621.22457337  1955.83748732
0.36800002 23255.44259610  1802.06433213
0.36900002 22897.80436039  1397.91102242
0.37000002 22548.59237755  1254.82922525
0.37100002 22208.13972889  1734.89995780
0.37200002 21877.02645315  1346.42165684
0.37300002 21553.93735351  1451.01113137
0.37400002 21239.35979880  1553.12825886
0.37500002 20933.29240141  1298.70152210
0.37600002 20635.73695108  1633.73137181
0.37700002 20345.36621813  1384.29878306
0.37800002 20062.92352432  1710.86588458
0.37900002 19788.96755715  1127.97120419
0.38000002 19522.52662809  1561.99742951
0.38100002 19262.61231958  1324.49728584
0.38200002 19011.12710583  1529.06502556
0.38300002 18766.34660120  1189.03577698
0.38400002 18529.35820108  1284.08458417
0.38500002 18298.60955914  1377.33640677
0.38600002 18075.52651204  1049.28436373
0.38700002 17858.71546923  1351.19047641
0.38800002 17648.78101758  1338.74834751
0.38900002 17444.77173641  1122.57111442
0.39000002 17248.47764161  1112.78558777
0.39100002 17057.56874761  1203.58210785
0.39200002 16873.23045763  1193.61237912
0.39300002 16694.77850969  1282.65989367
0.39400002 16523.41989658  1076.91394278
0.39500002 16356.65412639  971.58530114
0.39600002 16195.96724350  964.46989505
0.39700002 16040.72574212  1149.15764661
0.39800002 15891.52399104  951.10775593
0.39900002 15747.30482641  1039.32216778
0.40000002 15608.23928506  1314.36989247
0.40100002 15474.85080538  1119.76025733
0.40200002 15346.44185524  927.69245410
0.40300002 15222.60166130  1014.73867482
0.40400002 15103.92135167  1101.07591871
0.40500002 14990.43135363  1278.08423777
0.40600002 14881.25836750  999.35095302
0.40700002 14776.75340508  1537.37349711
0.40800002 14676.56408331  1260.57014884
0.40900002 14580.79266497  1076.06254966
0.41000002 14489.75906391  982.62305748
0.41100002 14402.41218199  1068.08293802
0.41200002 14318.96544955  1064.47194196
0.41300002 14240.23053252  1149.61386536
0.41400002 14164.70217101  881.75275193
0.41500002 14093.27447940  1055.30444302
0.41600002 14025.08452110  1666.81124889
0.41700002 13960.80217684  962.87657176
0.41800002 13901.11419289  961.05357526
0.41900002 13842.75728180  1133.72187510
0.42000002 13788.84071360  1131.99493202
0.42100002 13738.82082491  1043.60087931
0.42200002 13691.57458200  955.60349323
0.42300002 13647.01034966  1041.53987924
0.42400002 13605.39300663  1301.01576791
0.42500002 13567.27690366  866.94903523
0.42600002 13530.79833583  953.31244192
0.42700002 13498.70349965  1039.94016689
0.42800002 13468.22663663  1040.01651016
0.42900002 13441.40488092  953.66772149
0.43000002 13416.62214055  1040.86159499
0.43100002 13393.38029009  1041.46930071
0.43200002 13373.56109561  868.61283432
0.43300002 13355.87991413  1217.25495306
0.43400002 13340.31658161  870.45569820
0.43500002 13326.94631726  1045.89879654
0.43600002 13316.02864880  1396.58515087
0.43700002 13306.54369578  1223.93594714
0.43800002 13298.93230808  1050.88168078
0.43900002 13294.01304484  965.14539279
0.44000002 13290.43864589  967.07881390
0.44100002 13288.95754880  881.05792724
0.44200002 13288.98775128  883.05327792
0.44300002 13290.94756775  1150.73029495
0.44400002 13294.55456232  1331.11733863
0.44500002 13298.56103963  1067.60853086
0.44600002 13304.79335177  981.29508016
0.44700002 13313.10218089  984.10455985
0.44800002 13321.56652698  1345.81132217
0.44900002 13332.95420359  989.97189653
0.45000002 13344.72357152  993.04765164
0.45100002 13357.54101481  1267.89785321
0.45200002 13371.85328265  1090.34096834
0.45300002 13386.92816120  911.64985098
0.45400002 13403.57367948  1097.75273638
0.45500002 13421.08924824  1101.60305770
0.45600002 13439.48742757  1197.65997887
0.45700002 13458.79328850  1017.08105702
0.45800002 13478.71637583  1206.41256640
0.45900002 13499.53249063  1769.78879340
0.46000002 13521.96009510  1215.55666036
0.46100002 13544.11776442  1314.05036778
0.46200002 13567.62842425  1601.86212583
0.46300002 13592.06187071  1135.20906125
0.46400002 13616.16908710  1329.61897437
0.46500002 13641.63194345  1430.32517706
0.46600002 13667.23197125  1436.08446744
0.46700002 13693.21495082  1153.51648213
0.46800002 13720.63948486  965.24703351
0.46900002 13747.42371876  1066.11275992
0.47000002 13774.98098924  1654.44417013
0.47100002 13803.04343351  1465.88328212
0.47200002 13831.56268527  1472.02412855
0.47300002 13860.60804642  1281.13606245
0.47400002 13889.15810594  1187.52307434
0.47500002 13918.44908103  1291.91050494
0.47600002 13948.21511073  1097.79432232
0.47700002 13977.59372868  1503.29027677
0.47800002 14007.26580515  1107.06430538
