# SAXS profile: number of points = 501, q_min = 0, q_max = 0.5, delta_q = 0.001
#    q    intensity    error
0.00000000 1664650.74656090 249.69761198
0.00100000 1664564.23475988 699.11699520
0.00200000 1664304.67863645 973.61826783
0.00300000 1663872.27818866 1297.82042322
0.00400000 1663266.92851446 1621.68531692
0.00500000 1662489.27458981 1795.48848762
0.00600000 1661539.14964825 2442.46264942
0.00700000 1660417.32457473 1992.50087230
0.00800000 1659123.57078332 3583.70706420
0.00900000 1657659.32019754 2735.13799525
0.01000000 1656023.91391123 3005.68353353
0.01100000 1654218.95074438 4466.39136147
0.01200000 1652244.30808525 4188.43950463
0.01300000 1650101.42676372 3811.73446394
0.01400000 1647790.36161698 4449.03417360
0.01500000 1645312.79135256 4343.62596259
0.01600000 1642668.24425676 6283.20631516
0.01700000 1639859.04431336 6641.42942740
0.01800000 1636885.54096855 5131.63640185
0.01900000 1633748.89651716 4901.24691071
0.02000000 1630449.73515380 5135.91689806
0.02100000 1626990.93787755 6442.88440611
0.02200000 1623370.97366046 7840.88215901
0.02300000 1619593.14390051 6413.58914178
0.02400000 1615657.89425534 6664.58911769
0.02500000 1611567.73412166 6285.11445012
0.02600000 1607322.81604602 7160.62347300
0.02700000 1602925.42198390 8751.97320488
0.02800000 1598375.80318016 8343.52207523
0.02900000 1593677.32866440 7171.54830827
0.03000000 1588830.79338725 8865.67623461
0.03100000 1583837.54748309 9122.90469328
0.03200000 1578699.10627204 10158.92921676
0.03300000 1573419.49663769 11234.21572390
0.03400000 1567997.04021808 10701.58029326
0.03500000 1562436.14206734 9280.87111245
0.03600000 1556737.21339855 11231.85951374
0.03700000 1550903.46846706 11492.19523283
0.03800000 1544936.24553656 12653.02843652
0.03900000 1538838.09347005 12002.93768492
0.04000000 1532609.29730124 10368.10237669
0.04100000 1526253.75496114 10576.93901230
0.04200000 1519773.02020618 10782.79007861
0.04300000 1513168.87890817 10985.60657080
0.04400000 1506444.72766532 13219.05309918
0.04500000 1499601.94438769 15520.88084559
0.04600000 1492641.71460652 10523.12457716
0.04700000 1485568.04098559 11765.69943180
0.04800000 1478382.67585567 16299.16975968
0.04900000 1471088.00622684 15446.42478437
0.05000000 1463685.83516994 17915.51545674
0.05100000 1456180.00264765 15901.48636967
0.05200000 1448570.14045818 17274.19972996
0.05300000 1440861.17295074 15172.26885847
0.05400000 1433054.65672515 13004.97161625
0.05500000 1425153.73139180 21548.32542386
0.05600000 1417159.52640109 13328.38596776
0.05700000 1409076.55969122 19614.34662647
0.05800000 1400904.56756464 16117.40780239
0.05900000 1392647.54633124 15040.59420286
0.06000000 1384309.00483513 17732.99918040
0.06100000 1375890.46974520 15354.93835991
0.06200000 1367394.90700009 14214.07072268
0.06300000 1358825.13534499 14349.19410014
0.06400000 1350181.00297975 14480.69193417
0.06500000 1341468.53676784 17264.70087581
0.06600000 1332689.29457506 14732.88084086
0.06700000 1323844.48269721 16203.85722654
0.06800000 1314938.35537326 16331.53513820
0.06900000 1305974.21216493 13712.72986975
0.07000000 1296951.67451490 23481.31116669
0.07100000 1287875.35125014 18081.77077846
0.07200000 1278747.03554813 16802.73683426
0.07300000 1269570.37542754 15501.45501030
0.07400000 1260348.10679864 18432.59192576
0.07500000 1251080.72556377 15688.55303393
0.07600000 1241771.71810905 14342.46401654
0.07700000 1232425.09554363 17303.24915276
0.07800000 1223041.41565464 17391.64974621
0.07900000 1213623.10664696 16019.82575913
0.08000000 1204175.46298455 24872.24535473
0.08100000 1194698.85020540 14694.79654698
0.08200000 1185194.77587853 25084.64860857
0.08300000 1175667.09643835 14813.40611035
0.08400000 1166118.12065839 20815.20943079
0.08500000 1156550.31746262 14919.49979567
0.08600000 1146966.10325405 22451.86252535
0.08700000 1137367.40991393 22519.87577378
0.08800000 1127756.32923326 24088.87632373
0.08900000 1118136.37789660 19623.29435379
0.09000000 1108509.04156734 15131.14912819
0.09100000 1098876.64072397 22746.74753166
0.09200000 1089240.87444597 21272.87527747
0.09300000 1079606.19890037 15222.44811983
0.09400000 1069971.33739856 27444.76609411
0.09500000 1060340.53657460 15268.90444435
0.09600000 1050715.16353759 24460.65015700
0.09700000 1041100.40854961 18365.01207021
0.09800000 1031494.87363590 22976.54939054
0.09900000 1021902.40269832 22992.80514189
0.10000000 1012322.50194229 18404.02395080
0.10100000 1002759.46936255 18410.66472338
0.10200000 993214.84941630 15345.17014526
0.10300000 983689.71216964 23018.34034757
0.10400000 974187.30570143 18412.14094396
0.10500000 964710.38896563 15338.89590624
0.10600001 955256.12801714 16865.04773370
0.10700001 945831.26491888 15322.46721273
0.10800001 936434.54435418 16841.77607281
0.10900001 927069.64391844 16826.31482906
0.11000001 917737.32401881 16808.35988057
0.11100001 908438.78975411 16787.94962492
0.11200001 899176.48982742 16765.14644209
0.11300001 889951.01314654 16739.97934542
0.11400001 880764.70623941 19751.14946739
0.11500001 871619.58947856 21232.65419950
0.11600001 862515.91428606 16650.87050941
0.11700001 853455.58435963 18127.39746551
0.11800001 844439.45420803 19595.21845780
0.11900001 835468.58917088 21053.80943878
0.12000001 826544.86763465 16501.96905965
0.12100001 817671.16094977 17956.05954033
0.12200001 808846.01138392 22384.81441963
0.12300001 800072.39477124 23810.15559019
0.12400001 791350.42878573 17805.38548662
0.12500001 782680.37828237 22188.98976986
0.12600001 774066.28002494 16220.55966229
0.12700001 765506.64340202 17637.27389516
0.12800001 757002.62875152 24901.60264637
0.12900001 748555.95399228 20435.57850716
0.13000001 740167.49133593 15998.72107932
0.13100001 731836.99424646 17388.44780295
0.13200001 723565.87074800 18765.68174247
0.13300001 715356.13488005 18692.25668562
0.13400001 707206.51033805 15753.02576047
0.13500001 699119.28831542 15688.23756947
0.13600001 691093.94107872 18462.57550644
0.13700001 683132.01864564 21211.25017913
0.13800001 675232.79894947 15486.46497418
0.13900001 667399.04969874 15416.91877507
0.14000001 659629.32012418 16741.39293429
0.14100001 651924.90838277 18051.80156450
0.14200001 644285.46891895 19347.89354419
0.14300001 636713.70178953 16503.61992882
0.14400001 629205.59931993 16422.26691689
0.14500001 621765.98102569 21786.68100286
0.14600001 614392.78429272 14902.09768602
0.14700001 607088.51692094 17520.57542490
0.14800001 599849.20235396 13406.63030512
0.14900001 592679.05384414 13335.27934066
0.15000001 585575.93335043 13263.29551619
0.15100001 578541.45176873 14509.82029501
0.15200001 571575.13430616 14429.41494644
0.15300001 564677.95595419 20870.49823693
0.15400001 557846.82405054 15563.92712549
0.15500001 551085.85060154 15474.49141518
0.15600001 544390.76204238 21794.68518697
0.15700001 537767.31167226 12745.08588816
0.15800001 531208.34159727 13936.25149958
0.15900001 524719.74808192 12593.27454838
0.16000001 518296.73346348 17523.61338556
0.16100001 511944.76253954 13684.28414864
0.16200001 505659.18027117 16072.37780363
0.16300001 499440.80156087 12286.24429840
0.16400001 493290.01824217 17092.49993902
0.16500001 487205.58591452 15770.84556062
0.16600001 481189.13409943 15669.92489177
0.16700001 475237.49706817 17963.97823734
0.16800001 469351.75595322 16657.29460528
0.16900001 463533.92672738 13002.12725864
0.17000001 457780.26728798 15264.68373351
0.17100001 452091.54777066 12830.35873160
0.17200001 446468.37778353 17378.78242590
0.17300001 440909.34251525 11507.73438309
0.17400001 435414.58034792 12572.59660130
0.17500001 429983.04307961 13621.86344809
0.17600001 424613.43546979 16910.23086624
0.17700001 419308.29095488 12315.08508699
0.17800001 414063.96257879 15564.66508849
0.17900001 408882.08101367 17663.70673411
0.18000001 403761.29304147 12058.33158626
0.18100001 398702.61853050 11973.04020004
0.18200001 393701.72308934 11887.82409024
0.18300001 388761.51394902 12875.78195023
0.18400001 383880.24148558 12783.21264536
0.18500001 379059.06421120 16921.19742578
0.18600001 374293.98983773 14698.52567534
0.18700001 369586.27553464 15633.50019372
0.18800001 364935.58960954 11380.51689966
0.18900001 360343.25034759 11296.76143214
0.19000001 355802.57268678 12232.49302694
0.19100001 351321.42890982 12141.66915682
0.19200001 346891.87807586 11046.77237930
0.19300001 342518.08390607 10964.00438391
0.19400001 338196.14096504 10881.46134974
0.19500001 333927.53887195 10799.21711744
0.19600001 329710.95462264 13640.14283732
0.19700001 325545.52889532 11602.44319813
0.19800001 321431.48539171 14392.09543857
0.19900001 317368.00884348 9521.04071527
0.20000001 313352.66727638 9447.58336489
0.20100001 309387.88761658 10311.89878162
0.20200001 305470.09825319 9301.56493143
0.20300001 301601.54319303 11074.80918949
0.20400001 297779.48024079 9156.71945020
0.20500001 294003.71058724 11810.12961252
0.20600001 290273.71887647 13519.49909571
0.20700001 286589.77550213 8941.60141833
0.20800001 282949.10435709 13305.68226135
0.20900001 279355.18392688 10559.62645160
0.21000001 275802.43523584 8729.14748786
0.21100001 272293.28685993 9524.81962463
0.21200001 268826.20649261 10306.79724417
0.21300001 265399.89953479 9371.27089560
0.21400001 262015.76537331 9295.00971605
0.21500001 258673.11216850 10895.31199964
0.21600001 255369.04465554 11637.16791514
0.21700001 252104.80686831 14014.50687641
0.21800001 248879.33666486 9810.82391519
0.21900001 245691.37597280 9729.37894854
0.22000001 242540.90343959 8040.23132919
0.22100001 239429.11346681 8770.28884098
0.22200001 236353.58149345 8696.63044227
0.22300001 233313.10120489 11758.98085675
0.22400001 230307.67339696 8550.17277917
0.22500001 227339.47918212 10789.53219219
0.22600001 224403.49311376 9169.12716222
0.22700001 221503.86886321 10605.60574270
0.22800001 218636.29808858 9763.20435285
0.22900001 215801.00045843 11912.21578865
0.23000001 212999.41787902 10332.60224996
0.23100001 210230.53788900 10974.03459680
0.23200001 207491.50620764 8702.19418191
0.23300001 204784.07945997 7187.92152899
0.23400001 202108.12688085 9974.03653330
0.23500001 199460.61549577 9885.26857151
0.23600001 196844.50142627 11196.51577069
0.23700001 194257.09194610 7628.47636153
0.23800001 191698.77810878 7559.64167228
0.23900001 189168.67283300 7491.07979851
0.24000001 186666.53706443 12146.39214131
0.24100001 184193.31388421 7354.83937129
0.24200001 181747.07520519 7287.14932505
0.24300001 179327.32681372 7219.71851903
0.24400001 176934.22576090 7152.56641473
0.24500001 174567.44001970 8374.00049387
0.24600001 172226.45396952 7019.08946357
0.24700001 169911.54700122 8216.92280169
0.24800001 167621.86084472 6886.74447859
0.24900001 165356.06500048 7441.02327704
0.25000001 163115.98004559 10440.23879673
0.25100001 160898.82974925 9731.16168361
0.25200001 158707.40941164 6022.94647212
0.25300001 156539.45689034 6560.56894866
0.25400001 154394.24126763 7677.25401025
0.25500001 152272.01181761 8186.14374262
0.25600001 150173.16198793 6368.09323539
0.25700001 148096.34382440 6877.59453261
0.25800001 146042.43549720 5673.74888751
0.25900001 144010.53332610 6178.05217200
0.26000001 142000.65039942 7783.05601665
0.26100001 140011.23753855 7153.17446431
0.26200001 138044.76453991 8713.38595005
0.26300001 136098.22226195 7006.33681357
0.26400001 134172.99582474 5866.71452004
0.26500001 132269.11777842 5805.29185399
0.26600001 130384.65100453 5744.09607181
0.26700001 128521.62455334 6199.88346183
0.26800001 126679.05473951 7156.10014087
0.26900001 124854.92874579 6067.94982419
0.27000001 123051.85629991 7503.08729295
0.27100001 121267.71979484 5937.26784212
0.27200001 119504.52632264 5872.45270140
0.27300001 117759.65393878 5807.90640711
0.27400001 116032.15627201 7658.12267637
0.27500001 114326.53815662 5206.43079405
0.27600001 112637.10386325 5148.07907571
0.27700001 110968.30748601 6015.59223351
0.27800001 109316.81216252 5947.38144717
0.27900001 107685.01829879 5879.60227738
0.28000001 106070.09510552 5365.02566436
0.28100001 104474.10592695 4861.18037886
0.28200001 102896.53388413 5241.54968414
0.28300001 101336.43434553 6475.39846116
0.28400001 99793.79321222  6399.27729262
0.28500001 98269.49905273  5480.49022157
0.28600001 96762.32089741  4998.74173416
0.28700001 95272.57879918  4938.93071872
0.28800001 93799.41297445  4066.20474491
0.28900001 92345.58501736  4017.03313840
0.29000001 90907.12923854  3968.09637909
0.29100001 89486.56684212  4311.46299454
0.29200001 88082.88056454  5032.61561928
0.29300001 86696.02704793  3823.29497379
0.29400001 85325.25673909  4908.33562626
0.29500001 83972.32459094  4846.88280483
0.29600001 82635.21202692  4049.53875707
0.29700001 81314.56075972  4725.18934943
0.29800001 80010.35075520  4306.15728149
0.29900001 78723.07058112  3542.53834385
0.30000001 77451.03502867  4895.68015592
0.30100001 76196.41895175  3796.86773611
0.30200001 74956.06416540  3747.42860535
0.30300001 73733.42851844  4034.69339954
0.30400001 72526.19381258  3318.07352401
0.30500001 71334.62741767  3601.68550883
0.30600001 70157.90969869  3230.77189458
0.30700001 68998.16850280  3506.48708932
0.30800001 67853.25107981  4088.49783738
0.30900001 66724.16464627  4343.74332412
0.31000001 65610.87048995  4285.04615457
0.31100001 64511.78096210  3019.15149197
0.31200001 63428.68141402  3871.36975340
0.31300001 62360.26086271  3818.31895341
0.31400001 61307.78926976  2896.79318015
0.31500001 60269.45896284  3142.44973911
0.31600002 59246.59517168  3098.89330718
0.31700002 58238.36185500  3333.56399042
0.31800002 57244.89492991  3013.08518730
0.31900002 56266.36531909  3240.94279584
0.32000002 55302.33352870  3727.93047969
0.32100002 54352.15198861  3675.29269149
0.32200002 53417.80624299  3364.52068553
0.32300002 52496.03676730  3061.56900924
0.32400002 51589.15798878  3269.46304235
0.32500002 50696.47746103  2974.86943828
0.32600002 49818.08440440  2687.93487132
0.32700002 48952.94033774  2890.18173440
0.32800002 48102.77951151  2373.87228130
0.32900002 47265.44593615  3977.38746387
0.33000002 46442.64348519  3228.22830152
0.33100002 45631.22348709  3181.40905217
0.33200002 44836.23342045  3359.35494811
0.33300002 44053.23610465  2207.06723336
0.33400002 43283.74399624  3480.01318210
0.33500002 42526.88574178  2357.69065718
0.33600002 41783.75876672  2323.38601625
0.33700002 41052.79709999  2913.92767615
0.33800002 40335.79814784  2256.18297625
0.33900002 39630.43936675  2223.26775376
0.34000002 38938.43695869  2390.04137371
0.34100002 38258.59388440  2551.46574698
0.34200002 37591.77494118  2127.50660355
0.34300002 36936.44235243  2477.69667034
0.34400002 36294.53065017  3193.01148517
0.34500002 35663.80155415  3146.61736015
0.34600002 35046.01090078  2188.97394453
0.34700002 34438.61928428  2876.31361885
0.34800002 33844.37337891  2834.80484848
0.34900002 33261.13985106  1746.20992488
0.35000002 32689.66803733  2581.66665552
0.35100002 32130.09375567  1696.46903065
0.35200002 31580.74719456  2173.86083610
0.35300002 31042.95687181  1648.38108797
0.35400002 30516.44508281  1787.50085539
0.35500002 30001.13183787  2883.70892884
0.35600002 29495.61577828  2053.33738966
0.35700002 29001.50323527  2024.59503675
0.35800002 28518.12396279  1689.27115295
0.35900002 28045.40034617  1817.34202851
0.36000002 27583.15107548  1642.99047163
0.36100002 27130.32408438  1620.49433432
0.36200002 26688.60628121  1598.51414893
0.36300002 26256.06734335  2007.01388279
0.36400002 25833.38135264  1697.25323526
0.36500002 25420.25521078  1395.57207718
0.36600002 25017.15701617  2065.79183846
0.36700002 24623.08571122  1766.95271434
0.36800002 24239.62271192  1609.99581679
0.36900002 23864.53031350  1324.48149514
0.37000002 23498.07497277  1569.20152101
0.37100002 23140.61562488  1807.74497825
0.37200002 22792.71082456  1402.77745415
0.37300002 22452.98069898  1763.45718763
0.37400002 22122.01040415  1866.54471627
0.37500002 21799.75281963  2090.16039936
0.37600002 21486.17969077  1701.06092670
0.37700002 21180.04670061  1320.99957529
0.37800002 20882.09257187  1305.86172084
0.37900002 20592.80119061  1643.30561286
0.38000002 20311.18142643  1392.94088821
0.38100002 20036.28042776  1836.92627664
0.38200002 19770.02480074  1476.52437219
0.38300002 19510.60305148  1460.95402571
0.38400002 19259.27220989  1445.88992965
0.38500002 19014.27197921  1100.92639975
0.38600002 18777.38203118  1090.02707855
0.38700002 18546.60265671  1403.23602349
0.38800002 18323.13025160  1176.07017092
0.38900002 18105.65512589  1376.93513756
0.39000002 17896.12987020  1259.52967994
0.39100002 17692.08826170  1144.32432298
0.39200002 17494.83289049  1340.71658208
0.39300002 17303.60036763  1124.90711319
0.39400002 17119.74659030  1014.34503353
0.39500002 16940.65677939  1610.04009659
0.39600002 16767.77019839  1198.22491515
0.39700002 16600.52564789  1189.26171376
0.39800002 16439.42568701  1180.67960878
0.39900002 16283.46569942  1270.11038473
0.40000002 16132.93818155  970.39627760
0.40100002 15988.19681545  1060.49714501
0.40200002 15848.59987013  1053.85269830
0.40300002 15713.75532732  1047.47897975
0.40400002 15584.21148807  946.74089276
0.40500002 15459.93911690  1223.96343788
0.40600002 15340.18299903  1311.12550305
0.40700002 15225.33379334  1397.68570845
0.40800002 15114.87503370  1112.75715270
0.40900002 15009.01109901  1015.35964896
0.41000002 14908.04824464  1194.80558318
0.41100002 14810.86608597  1006.84272423
0.41200002 14717.78952030  911.76710398
0.41300002 14629.54244299  999.34409163
0.41400002 14544.69138397  1177.02920602
0.41500002 14464.05815159  1353.83590714
0.41600002 14386.74703808  899.89106987
0.41700002 14313.54846119  1256.44334346
0.41800002 14244.97021202  895.29642025
0.41900002 14177.99679609  1250.49937667
0.42000002 14115.64433100  1247.96417444
0.42100002 14057.10537917  978.79629393
0.42200002 14001.64364001  977.24476416
0.42300002 13948.90538074  887.15042425
0.42400002 13899.30081224  1063.29656252
0.42500002 13853.21697006  885.22060633
0.42600002 13809.04926757  884.46964750
0.42700002 13769.20725631  1060.77977729
0.42800002 13731.33321906  1237.05586832
0.42900002 13697.08293073  1060.15426908
0.43000002 13664.99106279  971.78588548
0.43100002 13634.60123193  1236.93108238
0.43200002 13607.78716556  1148.97356377
0.43300002 13583.12894624  884.26173630
0.43400002 13560.81994258  1238.78096046
0.43500002 13540.68539200  1239.78521324
0.43600002 13523.21636183  1506.95968669
0.43700002 13507.22167285  1419.87920954
0.43800002 13493.21005865  1243.93909426
0.43900002 13482.03481171  1156.75864166
0.44000002 13472.29237104  1069.43061909
0.44100002 13464.74683974  1339.06913667
0.44200002 13458.82355350  1162.64052777
0.44300002 13454.86282049  1523.35964073
0.44400002 13452.76256138  897.97194353
0.44500002 13451.07711221  1079.85252174
0.44600002 13451.68241786  1082.32241863
0.44700002 13454.57331093  1265.80631708
0.44800002 13457.65230626  1722.10855898
0.44900002 13463.69404776  1090.55926955
0.45000002 13470.35135861  1002.39624386
0.45100002 13478.06841657  1096.57569834
0.45200002 13487.35591145  916.46587762
0.45300002 13497.46294796  1011.09499735
0.45400002 13509.26559813  1106.40890492
0.45500002 13522.00619253  1202.37684762
0.45600002 13535.75553520  1484.60173746
0.45700002 13550.48060415  1210.19348011
0.45800002 13565.90076355  1307.61723657
0.45900002 13582.26336093  1312.04670285
0.46000002 13600.28876291  1034.50601378
0.46100002 13618.12400119  1415.60405702
0.46200002 13637.50582725  1231.26227197
0.46300002 13657.74890965  1235.75317991
0.46400002 13677.84070373  1049.43237773
0.46500002 13699.32209923  1627.89052221
0.46600002 13721.02359584  1441.73662266
0.46700002 13743.09607476  1061.24192919
0.46800002 13766.75024073  1452.73638801
0.46900002 13789.85139327  1361.05839702
0.47000002 13813.79444213  1073.53908595
0.47100002 13838.21189276  1371.64362782
0.47200002 13863.31026538  1081.96210094
0.47300002 13888.91543019  1975.00386778
0.47400002 13914.06196087  1586.20313872
0.47500002 13940.03728156  1194.38245089
0.47600002 13966.60498664  1299.10382441
0.47700002 13992.79957490  1103.61215478
