# SAXS profile: number of points = 501, q_min = 0, q_max = 0.5, delta_q = 0.001
#    q    intensity    error
0.00000000 1646666.22097350 444.59987966
0.00100000 1646580.09811982 691.56365763
0.00200000 1646321.70082455 889.01374660
0.00300000 1645891.24572141 1086.28826087
0.00400000 1645288.59759141 1480.75979410
0.00500000 1644514.43171691 2220.09457069
0.00600000 1643568.55680619 1725.74705491
0.00700000 1642451.76974995 1970.94220561
0.00800000 1641163.81976570 2880.24262529
0.00900000 1639706.12471037 4181.25079675
0.01000000 1638078.07958924 3243.39473763
0.01100000 1636281.21572706 3828.89821151
0.01200000 1634315.45662130 3505.60680815
0.01300000 1632182.23019755 3770.34111805
0.01400000 1629881.58979942 4033.95711358
0.01500000 1627415.18595874 5858.69493033
0.01600000 1624782.59963392 6629.11330285
0.01700000 1621986.10784893 4817.29895641
0.01800000 1619026.08405557 5075.64700191
0.01900000 1615903.66955814 6786.79571838
0.02000000 1612619.50646255 5079.75167514
0.02100000 1609176.40214459 5310.28236784
0.02200000 1605572.91538685 7754.91753364
0.02300000 1601812.34407097 7496.48211148
0.02400000 1597895.10345267 8388.94967564
0.02500000 1593823.63789332 6837.50371884
0.02600000 1589598.23542086 10300.59703666
0.02700000 1585221.03452270 9321.10010991
0.02800000 1580692.39088071 10314.01832349
0.02900000 1576015.62103263 7801.27768230
0.03000000 1571191.46183668 8036.64469670
0.03100000 1566221.44498787 8269.64961005
0.03200000 1561106.89673868 10818.47129268
0.03300000 1555851.80034467 8728.32900231
0.03400000 1550454.66285621 8139.88735557
0.03500000 1544919.86986982 10011.08121905
0.03600000 1539247.65976863 9397.10739716
0.03700000 1533441.39056024 9614.67796347
0.03800000 1527502.33719359 11616.65581197
0.03900000 1521433.04175010 10954.31840790
0.04000000 1515233.77587037 12114.29459945
0.04100000 1508908.63078650 11407.34977767
0.04200000 1502458.85430479 14536.29008978
0.04300000 1495886.34480202 10860.13536737
0.04400000 1489194.51491104 10052.06344249
0.04500000 1482384.78319841 12274.14657520
0.04600000 1475458.25085067 10401.98115205
0.04700000 1468419.04579665 10572.61762145
0.04800000 1461268.69641765 12888.39050208
0.04900000 1454009.67682185 15267.10231727
0.05000000 1446643.93269821 13280.19192058
0.05100000 1439175.22886829 14593.23750054
0.05200000 1431602.91644868 13657.49245938
0.05300000 1423932.36179473 14994.00846869
0.05400000 1416164.76435714 12851.69583587
0.05500000 1408303.35310531 20110.57282049
0.05600000 1400349.33457441 13170.28610625
0.05700000 1392307.22205270 18169.61009592
0.05800000 1384176.68170326 18374.94630758
0.05900000 1375961.84622589 16098.75435275
0.06000000 1367666.06162831 15016.97405825
0.06100000 1359290.75928319 12641.40465208
0.06200000 1350839.06045566 15318.51566161
0.06300000 1342313.73666904 14174.83372197
0.06400000 1333714.64260487 16904.83388560
0.06500000 1325048.02341379 15741.57125451
0.06600000 1316315.07302152 15874.76052340
0.06700000 1307517.01261977 14670.34156815
0.06800000 1298658.16447209 16129.33515774
0.06900000 1289741.92931939 17604.97815946
0.07000000 1280767.97306579 21824.28728304
0.07100000 1271740.83136370 16481.76194644
0.07200000 1262662.08656755 13826.15049563
0.07300000 1253535.56185941 16697.09446632
0.07400000 1244363.87379113 19598.73193069
0.07500000 1235147.76168598 18304.89068618
0.07600000 1225890.41363331 15574.93843537
0.07700000 1216595.96431476 18504.42548487
0.07800000 1207265.12385294 18597.92010513
0.07900000 1197899.97058930 17249.76038556
0.08000000 1188506.09809576 18772.45470006
0.08100000 1179083.69649279 18853.54919149
0.08200000 1169634.30710890 16018.14258751
0.08300000 1160161.69308888 14618.03801897
0.08400000 1150668.57800109 14671.02505815
0.08500000 1141156.81605550 20609.29306547
0.08600000 1131629.21416832 29535.52387653
0.08700000 1122087.49094916 17773.86669125
0.08800000 1112533.87189401 19308.02625350
0.08900000 1102971.76403424 20846.16731939
0.09000000 1093402.82861670 17909.93917407
0.09100000 1083829.04565971 20939.57814591
0.09200000 1074252.58757118 17982.98916090
0.09300000 1064677.44501917 16513.14794824
0.09400000 1055102.55932195 16538.73339465
0.09500000 1045532.20085738 21077.93016000
0.09600000 1035967.50178731 21102.65900340
0.09700000 1026413.95683762 16597.11446234
0.09800000 1016869.96692804 16610.57169076
0.09900000 1007339.33302825 22665.13605891
0.10000000 997821.76835457 22675.50075222
0.10100000 988321.37901243 16633.44959108
0.10200000 978839.43357327 21172.29794406
0.10300000 969377.90768269 18146.75528546
0.10400000 959939.11434840 18142.85011472
0.10500000 950526.12749539 16624.70275208
0.10600001 941136.05285638 19636.80466683
0.10700001 931775.91985119 16604.24767311
0.10800001 922443.94061747 19606.54688054
0.10900001 913144.33435000 15066.88222591
0.11000001 903877.49709867 16554.51713858
0.11100001 894644.72518910 22545.04813604
0.11200001 885448.55293976 18010.02441465
0.11300001 876289.45538581 19479.91551036
0.11400001 867169.72476898 14958.67845659
0.11500001 858091.33567722 19410.02692700
0.11600001 849054.91619564 17881.09737713
0.11700001 840061.99559485 19329.82742897
0.11800001 831113.49544934 22253.06488874
0.11900001 822210.37481506 16279.76618814
0.12000001 813354.68564542 14762.38823985
0.12100001 804549.20218570 16195.57620294
0.12200001 795792.63504955 17618.84977004
0.12300001 787087.62588076 16103.81358424
0.12400001 778434.56253035 17514.77848218
0.12500001 769833.67365362 17459.82854118
0.12600001 761288.83848371 17403.06366783
0.12700001 752798.46536547 18789.85058102
0.12800001 744364.18644879 18724.48199259
0.12900001 735987.30614757 18657.27909020
0.13000001 727668.65590851 20018.16566760
0.13100001 719408.24215918 22790.85418591
0.13200001 711207.34605133 17026.30466709
0.13300001 703067.90964624 14131.66565010
0.13400001 694988.79136593 14073.52368867
0.13500001 686972.08201974 15415.65424734
0.13600001 679017.51814549 16744.57278699
0.13700001 671126.47754417 23616.94185840
0.13800001 663298.29936536 17978.70125210
0.13900001 655535.40519494 19272.74182160
0.14000001 647836.69536257 15071.92142841
0.14100001 640203.40870033 14999.96657329
0.14200001 632635.39227726 16284.03576526
0.14300001 625134.79353302 14853.20339493
0.14400001 617698.01474746 17465.41219083
0.14500001 610329.86191980 16039.46952787
0.14600001 603028.17606807 15956.12629148
0.14700001 595795.55758889 15871.99440295
0.14800001 588627.72613386 14471.41332974
0.14900001 581529.03794496 18318.16555953
0.15000001 574497.70769496 16916.08580123
0.15100001 567534.83084665 12939.79475387
0.15200001 560640.18370084 19300.03923461
0.15300001 553814.70501528 17910.36840537
0.15400001 547055.22729818 19078.55195236
0.15500001 540365.93839244 12644.56355512
0.15600001 533742.34638245 15083.55942064
0.15700001 527190.50313051 13743.85706528
0.15800001 520703.11398170 13660.64684008
0.15900001 514286.24216944 13577.15743412
0.16000001 507934.76506179 18399.93773289
0.16100001 501654.29422090 13409.21991750
0.16200001 495439.98349446 15747.56061875
0.16300001 489293.10089785 14443.93302037
0.16400001 483213.53588835 11959.53557784
0.16500001 477200.49408363 15446.98072276
0.16600001 471255.19351097 12985.43747028
0.16700001 465374.67229639 18763.90767292
0.16800001 459559.89595646 17474.76586884
0.16900001 453813.09774723 13886.68144677
0.17000001 448130.18065727 13793.44761195
0.17100001 442512.28626921 15983.54453481
0.17200001 436959.88346772 12473.02046260
0.17300001 431471.29639533 12387.54150451
0.17400001 426046.86353888 12302.10376566
0.17500001 420685.79335145 13327.32656279
0.17600001 415386.43594970 13234.21247440
0.17700001 410151.34671965 13141.24976957
0.17800001 404976.95979738 15223.08463780
0.17900001 399864.77056987 12955.61917840
0.18000001 394813.78929592 11791.11437428
0.18100001 389824.65189698 10642.21349949
0.18200001 384893.14148240 10565.31723278
0.18300001 380022.07271125 19928.35843438
0.18400001 375209.85294361 13535.69608438
0.18500001 370457.51048539 13436.49454007
0.18600001 365761.18278828 14363.44232667
0.18700001 361122.07877082 15275.46465369
0.18800001 356539.77090773 10107.90298279
0.18900001 352015.49971616 13042.17488069
0.19000001 347542.90963072 14935.65724707
0.19100001 343129.55070156 14823.19729070
0.19200001 338767.50287455 10788.05163879
0.19300001 334461.24868084 9732.82279651
0.19400001 330206.37067899 11590.24415852
0.19500001 326005.00842574 12459.91201083
0.19600001 321855.10927954 11412.98271439
0.19700001 317756.20613585 15099.77562915
0.19800001 313708.49520075 9364.19902428
0.19900001 309711.13433017 9291.33446901
0.20000001 305761.79724680 13828.07793402
0.20100001 301862.68790100 10061.08386325
0.20200001 298010.29072022 10889.29653758
0.20300001 294207.01110156 9002.73496522
0.20400001 290449.93874928 9824.46964256
0.20500001 286738.80565717 10632.27541632
0.20600001 283073.35448009 10547.31368648
0.20700001 279453.59855107 9590.84795562
0.20800001 275876.97505893 11243.36665000
0.20900001 272346.63990970 8578.91956269
0.21000001 268857.42056828 9360.27153957
0.21100001 265411.50142838 10128.10337330
0.21200001 262007.32751762 11719.58831390
0.21300001 258643.79628201 9132.71287847
0.21400001 255322.11578735 9057.55248577
0.21500001 252041.47065243 10615.98724578
0.21600001 248799.32373244 11337.78571852
0.21700001 245596.64794313 8834.11184419
0.21800001 242432.48253905 9556.68891354
0.21900001 239305.52031659 8686.79079822
0.22000001 236215.74969960 10179.71821463
0.22100001 233164.33910988 8540.81014543
0.22200001 230149.06219349 10008.03244271
0.22300001 227168.31740321 9922.71257337
0.22400001 224222.57666672 10594.51724848
0.22500001 221313.61009970 10503.54443202
0.22600001 218436.53321335 8925.31716916
0.22700001 215595.47955091 8110.70232425
0.22800001 212786.41829053 8771.05657672
0.22900001 210009.09643671 7245.31416970
0.23000001 207265.17444112 7899.91249742
0.23100001 204553.67839818 10677.70251736
0.23200001 201871.84159356 10583.13179606
0.23300001 199221.17581206 9090.46268223
0.23400001 196601.70319536 10395.31554810
0.23500001 194010.43725299 9615.15772502
0.23600001 191450.11299549 6806.05183890
0.23700001 188918.26886532 9442.13552448
0.23800001 186415.21809418 10024.47882716
0.23900001 183940.01119117 9270.57700253
0.24000001 181492.45852760 8529.23849194
0.24100001 179073.37895459 7800.43675623
0.24200001 176681.04164614 7728.02912715
0.24300001 174315.09436928 8931.90585799
0.24400001 171975.15514546 6952.09597561
0.24500001 169661.32403753 7512.60378376
0.24600001 167373.01927950 7441.40478918
0.24700001 165110.43711126 8598.95197154
0.24800001 162872.55283828 8516.60619081
0.24900001 160658.36415082 8434.56451694
0.25000001 158469.54424193 6563.01648526
0.25100001 156303.38700630 7680.74880086
0.25200001 154162.57318881 7020.56391516
0.25300001 152044.87820872 8110.07418734
0.25400001 149949.67255350 7456.24782049
0.25500001 147877.03566630 6246.32628207
0.25600001 145827.45746734 8432.47312701
0.25700001 143799.46819135 6121.54365054
0.25800001 141794.15881780 7712.18466300
0.25900001 139810.57098497 6543.13503168
0.26000001 137848.54903759 5936.44804519
0.26100001 135906.73824586 7477.58909210
0.26200001 133987.47128026 5814.38659133
0.26300001 132087.89501126 5753.74897894
0.26400001 130209.15004853 7763.72093901
0.26500001 128351.44712309 5633.34528080
0.26600001 126512.84726868 6586.89170473
0.26700001 124695.37624220 6015.30523457
0.26800001 122897.99449047 5454.82774359
0.26900001 121118.75896663 5395.84096730
0.27000001 119360.20861547 7763.18833572
0.27100001 117620.19121063 5278.79443134
0.27200001 115900.76272001 5695.36374959
0.27300001 114199.39630385 5632.31449225
0.27400001 112515.04433604 6497.74411791
0.27500001 110852.19053743 6424.99326761
0.27600001 109205.28259256 4991.22767711
0.27700001 107578.51813563 4486.02441856
0.27800001 105968.85380782 5321.75609009
0.27900001 104378.57028373 6137.46022316
0.28000001 102804.70594077 4333.21856049
0.28100001 101249.44266274 4711.13679007
0.28200001 99712.32899755  5502.62513617
0.28300001 98192.33302853  5019.59230200
0.28400001 96689.43106520  7440.25207262
0.28500001 95204.57404775  5717.98698795
0.28600001 93736.47026684  4035.35523599
0.28700001 92285.47644196  4385.40604809
0.28800001 90850.79671542  4332.22044643
0.28900001 89434.95916578  4668.50508943
0.29000001 88034.32855505  5764.04793498
0.29100001 86651.13692402  5692.97996538
0.29200001 85284.59684870  6746.86477607
0.29300001 83934.47321806  5182.11462178
0.29400001 82600.10533585  4386.06580095
0.29500001 81283.29232781  4330.77402023
0.29600001 79981.93146437  5344.79282312
0.29700001 78696.79994309  4221.29654878
0.29800001 77427.69614737  4167.15880392
0.29900001 76175.15723371  3770.67046157
0.30000001 74937.63443373  3721.77779034
0.30100001 73717.23570134  3673.33002889
0.30200001 72510.61353138  5272.97206563
0.30300001 71321.47376686  4553.16310083
0.30400001 70147.55915609  4172.02627832
0.30500001 68988.94844823  3483.25217206
0.30600001 67844.69362736  4686.37243418
0.30700001 66717.22335945  4007.03662467
0.30800001 65604.27953504  3952.98605053
0.30900001 64506.73724391  3299.51976624
0.31000001 63424.76007179  3846.39475666
0.31100001 62356.57006472  3793.77390235
0.31200001 61304.27629596  4029.53027171
0.31300001 60266.09801930  2838.53335110
0.31400001 59243.75506246  3359.12107108
0.31500001 58235.23678306  3864.49049590
0.31600002 57241.86798609  2721.85095161
0.31700002 56262.78782383  2952.10861689
0.31800002 55298.09856515  3969.02121244
0.31900002 54348.09771301  3130.45057649
0.32000002 53412.35238880  3343.34635608
0.32100002 52490.21226171  2535.27737229
0.32200002 51583.45534549  3248.98408878
0.32300002 50689.13455693  2709.84126173
0.32400002 49809.30999674  2913.84477278
0.32500002 48943.33597196  3589.99386354
0.32600002 48091.47454052  2830.66432549
0.32700002 47252.56899936  2557.30915534
0.32800002 46428.35127033  2520.36316806
0.32900002 45616.64503693  3612.83845801
0.33000002 44819.27672710  2225.27719488
0.33100002 44032.75953230  2631.39783426
0.33200002 43262.67976204  3025.35933902
0.33300002 42504.15391727  2342.40403331
0.33400002 41758.93963435  2518.06417920
0.33500002 41026.01524782  2067.71126641
0.33600002 40306.60090217  2648.74840372
0.33700002 39599.06715530  3011.50919978
0.33800002 38905.06559004  2176.15494684
0.33900002 38222.68056014  1949.35680088
0.34000002 37553.23783550  1920.84820625
0.34100002 36895.76055132  2649.85364829
0.34200002 36250.98700797  2238.13604387
0.34300002 35617.49760758  2573.00814903
0.34400002 34997.02531311  1992.20576030
0.34500002 34387.67775428  1784.72055997
0.34600002 33791.01479214  1934.70464355
0.34700002 33204.30868363  2079.91799445
0.34800002 32630.67022927  2562.32350111
0.34900002 32067.69402955  1851.90941792
0.35000002 31516.15637095  1659.32571152
0.35100002 30976.50447110  1962.67141625
0.35200002 30446.54575939  1934.57360918
0.35300002 29928.04192202  2224.85074186
0.35400002 29420.69054138  2193.31258374
0.35500002 28924.03553623  2162.36099911
0.35600002 28437.07525766  1675.08599739
0.35700002 27961.31384126  1651.67488683
0.35800002 27496.13239393  1480.66679954
0.35900002 27041.17502844  1752.26822484
0.36000002 26596.48765861  1728.23984992
0.36100002 26161.06509788  1420.54590210
0.36200002 25736.50847415  1821.75883863
0.36300002 25320.89511200  1797.27722018
0.36400002 24914.87866524  2182.54347446
0.36500002 24518.28858030  1884.47574955
0.36600002 24131.42908770  1461.27875762
0.36700002 23753.33880935  1573.42123726
0.36800002 23385.68416296  1423.83744771
0.36900002 23026.14967940  2555.90273548
0.37000002 22675.09542803  1388.05603238
0.37100002 22332.80232468  1993.87268600
0.37200002 21999.88218019  1353.98281292
0.37300002 21674.93229259  1580.75288698
0.37400002 21358.45972860  1321.55475831
0.37500002 21050.58836670  1305.97856414
0.37600002 20751.11466108  1525.51826658
0.37700002 20458.93244143  1392.02582926
0.37800002 20174.65176793  1376.31480881
0.37900002 19898.82098679  1361.07941997
0.38000002 19630.55528133  1458.45217372
0.38100002 19368.79416219  1220.81515388
0.38200002 19115.48371658  1098.18459154
0.38300002 18868.85376141  1630.26904222
0.38400002 18630.04943696  1506.23956833
0.38500002 18397.38958996  1065.20890772
0.38600002 18172.54878361  1160.40815755
0.38700002 17953.94124706  1253.90331610
0.38800002 17742.19836708  1449.36025327
0.38900002 17536.39089520  1538.81837396
0.39000002 17338.26136981  1016.88907752
0.39100002 17145.46133631  1108.96849177
0.39200002 16959.33449176  1399.65394192
0.39300002 16779.03001430  1090.80479291
0.39400002 16605.93697785  1082.29199381
0.39500002 16437.39110465  1074.01918566
0.39600002 16274.91909291  1163.00577348
0.39700002 16117.91833121  1539.58363194
0.39800002 15966.83147637  1051.17640005
0.39900002 15820.85515157  949.25135407
0.40000002 15680.04788379  1226.10140236
0.40100002 15544.85984382  1031.09060229
0.40200002 15414.68730303  1024.99968078
0.40300002 15289.09308931  1297.12671915
0.40400002 15168.71779241  1197.94954441
0.40500002 15053.33569745  1375.12228112
0.40600002 14942.49416355  1277.13503667
0.40700002 14836.13583744  1089.56586753
0.40800002 14734.30545665  1084.73961912
0.40900002 14636.74729227  990.17600124
0.41000002 14543.89777432  1075.95760833
0.41100002 14454.86523889  982.64178550
0.41200002 14369.67226930  1513.34210675
0.41300002 14289.19508989  976.09496284
0.41400002 14211.95163082  973.16343403
0.41500002 14138.85197864  1146.94372685
0.41600002 14068.92723774  1144.01487254
0.41700002 14002.93343712  1053.58076173
0.41800002 13941.52508849  963.84738266
0.41900002 13881.48333703  961.98684084
0.42000002 13825.94198423  1135.04076098
0.42100002 13774.10798987  1133.47140020
0.42200002 13725.26409539  1045.04165774
0.42300002 13679.05001564  1043.98514666
0.42400002 13635.71750500  956.20473535
0.42500002 13595.90226195  1042.53383485
0.42600002 13557.80814631  868.37765292
0.42700002 13523.98888886  1041.88815337
0.42800002 13491.81031810  1475.93665969
0.42900002 13463.37348240  1128.90391999
0.43000002 13436.90811250  955.56576570
0.43100002 13412.01478206  1042.91831887
0.43200002 13390.57498150  1304.57682939
0.43300002 13371.21932768  957.51306143
0.43400002 13354.09798382  1481.30338905
0.43500002 13339.05306457  1134.08634529
0.43600002 13326.50354439  960.90758360
0.43700002 13315.36491197  1049.78341941
0.43800002 13306.20201099  1051.45613274
0.43900002 13299.64418804  965.55421381
0.44000002 13294.45425771  1055.31382899
0.44100002 13291.39100903  969.34119223
0.44200002 13289.84342143  1148.04317837
0.44300002 13290.14937663  1062.14878852
0.44400002 13292.26872652  1242.16257136
0.44500002 13294.70487908  1156.24053813
0.44600002 13299.27895013  1248.40337421
0.44700002 13306.10245733  1162.42116576
0.44800002 13312.95758568  1613.92992460
0.44900002 13322.72993215  1348.92646956
0.45000002 13333.03705535  1082.37599945
0.45100002 13344.30371554  1085.69260175
0.45200002 13356.99264410  998.36846250
0.45300002 13370.57396252  910.53613000
0.45400002 13385.64591606  1370.35556560
0.45500002 13401.62389085  1375.00667637
0.45600002 13418.49703339  1195.78941980
0.45700002 13436.29763231  1384.61053663
0.45800002 13454.65534748  1482.16490332
0.45900002 13474.03453374  1301.59179765
0.46000002 13494.91384697  1213.12533777
0.46100002 13515.52163813  936.62569391
0.46200002 13537.59438017  940.18597426
0.46300002 13560.50672341  1132.57357522
0.46400002 13583.13753345  1042.16627665
0.46500002 13607.09812156  1046.24982415
0.46600002 13631.26324586  1241.33104632
0.46700002 13655.79636500  1342.09173036
0.46800002 13681.73031079  1251.26270488
0.46900002 13707.04148694  1449.51970595
0.47000002 13733.17249576  1164.29841937
0.47100002 13759.79346191  1071.61276560
0.47200002 13786.87924003  1075.99704129
0.47300002 13814.46082515  1375.09149571
0.47400002 13841.58172436  1183.45529353
0.47500002 13869.41943563  1188.33191357
0.47600002 13897.83620518  1093.82925037
0.47700002 13925.77884435  1597.56542475
