# SAXS profile: number of points = 501, q_min = 0, q_max = 0.5, delta_q = 0.001
#    q    intensity    error
0.00000000 1682732.95097188 429.09690250
0.00100000 1682645.90861764 605.75254149
0.00200000 1682384.76153342 1135.60974999
0.00300000 1681949.70761219 1412.83780472
0.00400000 1681340.64594966 1387.10608562
0.00500000 1680558.23021184 1815.00296047
0.00600000 1679602.26963349 2116.29894590
0.00700000 1678473.55851035 2215.58518931
0.00800000 1677171.87066579 2490.60033309
0.00900000 1675698.59947921 2513.54800667
0.01000000 1674053.12729415 3590.84411310
0.01100000 1672237.09671133 5418.04842924
0.01200000 1670250.31336442 3908.38590463
0.01300000 1668094.23553014 6655.69629331
0.01400000 1665768.93602807 4497.57632666
0.01500000 1663276.07952256 7185.35298349
0.01600000 1660615.19442967 5081.48272211
0.01700000 1657788.65138224 6714.04433928
0.01800000 1654796.80916637 5187.78823017
0.01900000 1651640.73489270 5945.90691391
0.02000000 1648321.15224445 5192.21186444
0.02100000 1644840.86358681 5970.77260553
0.02200000 1641198.45258287 7360.77539425
0.02300000 1637397.12259199 7663.01888254
0.02400000 1633437.40552257 6125.39055001
0.02500000 1629321.75868125 8896.09720869
0.02600000 1625050.33504819 7239.59957377
0.02700000 1620625.43954493 7487.28987362
0.02800000 1616047.36192403 9138.74825078
0.02900000 1611319.46076568 7976.03169700
0.03000000 1606442.44223525 11204.93654963
0.03100000 1601417.85560956 8455.48666668
0.03200000 1596247.02975075 11852.13474179
0.03300000 1590934.05126713 11359.26964971
0.03400000 1585477.40218085 13318.01079282
0.03500000 1579881.24424774 12797.03866935
0.03600000 1574146.15716377 8736.51157601
0.03700000 1568275.31753118 12514.83761268
0.03800000 1562270.10226160 11881.06467755
0.03900000 1556133.01358553 11204.15821668
0.04000000 1549864.38564195 12391.16633740
0.04100000 1543468.02657368 12641.00372376
0.04200000 1536945.76730370 11895.96079082
0.04300000 1530299.17105931 10099.97499781
0.04400000 1523531.45089571 10283.83777115
0.04500000 1516644.43827213 13604.30124342
0.04600000 1509639.19306991 15964.43520885
0.04700000 1502519.41429313 15145.39640046
0.04800000 1495287.19781973 12089.39755687
0.04900000 1487944.87895739 13391.50453396
0.05000000 1480494.12033263 12458.35860274
0.05100000 1472939.02545041 12637.81742709
0.05200000 1465278.97311761 11648.96837914
0.05300000 1457519.21578212 14167.08743784
0.05400000 1449660.87636165 15547.61362402
0.05500000 1441707.53138395 13321.37821142
0.05600000 1433659.84536459 13483.57147485
0.05700000 1425522.91137369 13642.25489865
0.05800000 1417296.18895722 22577.52934429
0.05900000 1408983.55434269 13948.93783949
0.06000000 1400588.68853623 21786.15806800
0.06100000 1392113.29298147 14241.31965272
0.06200000 1383559.81790076 14382.10497935
0.06300000 1374931.70030807 17159.14842213
0.06400000 1366228.51449899 15984.87436720
0.06500000 1357456.16359570 14782.69831306
0.06600000 1348616.59745591 14908.95718244
0.06700000 1339710.60538822 17764.56345881
0.06800000 1330742.64107809 20659.78046980
0.06900000 1321716.09466262 18041.42553682
0.07000000 1312630.50308512 20969.27326874
0.07100000 1303490.36617622 18301.00559829
0.07200000 1294297.99238749 17007.07641670
0.07300000 1285056.43919912 21396.19071520
0.07400000 1275768.62995655 20093.35686347
0.07500000 1266435.29611886 14437.36305247
0.07600000 1257059.66038920 20326.65566142
0.07700000 1247645.80861760 18976.69363886
0.07800000 1238194.61130827 16139.86751530
0.07900000 1228708.04918806 17693.39673819
0.08000000 1219191.58038203 16294.49623620
0.08100000 1209645.89396036 14878.64519379
0.08200000 1200072.01255227 20917.25616033
0.08300000 1190474.08284553 20999.96380697
0.08400000 1180854.54359795 16561.48575134
0.08500000 1171215.54395734 16619.54934896
0.08600000 1161559.76912506 18190.02683855
0.08700000 1151889.10447237 19766.41796093
0.08800000 1142205.55943745 24397.51189538
0.08900000 1132512.65812492 22933.38240420
0.09000000 1122812.15487661 18391.66396084
0.09100000 1113106.13570313 19969.12501269
0.09200000 1103396.31511922 20010.09311490
0.09300000 1093687.38279710 24673.58851537
0.09400000 1083977.66113990 18536.01887664
0.09500000 1074271.82774375 18563.41805594
0.09600000 1064571.14071509 18587.41299064
0.09700000 1054880.63446602 18608.09526680
0.09800000 1045198.95909756 21729.68738132
0.09900000 1035530.25423165 21746.13636142
0.10000000 1025873.67503491 20204.58297998
0.10100000 1016233.79279457 15548.37776102
0.10200000 1006612.08812666 15552.15749307
0.10300000 997009.65871245 21774.69197058
0.10400000 987429.49996394 18662.41842729
0.10500000 977874.77408520 32651.24024292
0.10600001 968342.40273152 21758.65481320
0.10700001 958839.49651438 17086.52063194
0.10800001 949364.19906138 18626.52646218
0.10900001 939920.68473224 17059.56123081
0.11000001 930509.55596686 18591.58180332
0.11100001 921132.02868978 17022.52069149
0.11200001 911790.73102093 15454.85361837
0.11300001 902485.90756201 18519.01169506
0.11400001 893220.35204978 27734.49323701
0.11500001 883995.68437517 16919.67819565
0.11600001 874812.46216166 19958.84726411
0.11700001 865672.58581133 16854.64603951
0.11800001 856576.60140264 15289.89305517
0.11900001 847526.05300937 25934.29844363
0.12000001 838522.44047874 18263.01961390
0.12100001 829568.77359334 16699.22019910
0.12200001 820663.68771832 22711.86862759
0.12300001 811810.11840882 19629.56958796
0.12400001 803008.04203742 19573.32194691
0.12500001 794258.10934132 15011.47897390
0.12600001 785563.98869380 16461.49415880
0.12700001 776924.37949621 17900.33854717
0.12800001 768340.34944448 20814.34104742
0.12900001 759813.90896626 19261.28350012
0.13000001 751345.51135365 16240.33399340
0.13100001 742935.11720377 20594.16241965
0.13200001 734584.14317879 14654.95434726
0.13300001 726294.83516495 23357.64300005
0.13400001 718065.43186617 14540.82568083
0.13500001 709898.92122619 15930.13254339
0.13600001 701793.96732280 18748.42672103
0.13700001 693752.96575698 17232.82448199
0.13800001 685774.38387921 22877.43452501
0.13900001 677861.50907343 17082.11083421
0.14000001 670013.03577711 17004.93164999
0.14100001 662229.68646301 16926.59158430
0.14200001 654511.74295787 18251.06081320
0.14300001 646861.38364552 18163.86850951
0.14400001 639274.95765603 19465.92337883
0.14500001 631757.26444053 19369.67864146
0.14600001 624306.00327616 22025.51683462
0.14700001 616924.21002514 15065.28991954
0.14800001 609607.26244320 19074.61214176
0.14900001 602359.68592010 17619.02164444
0.15000001 595179.45547051 14828.89683272
0.15100001 588067.90130776 14748.74366072
0.15200001 581025.06096243 16001.43093397
0.15300001 574051.62073477 13260.59306473
0.15400001 567144.24319939 14504.71470432
0.15500001 560307.32163938 14422.31113963
0.15600001 553536.45339604 14339.36250197
0.15700001 546837.67594738 16848.06959111
0.15800001 540203.55253920 15460.62640339
0.15900001 533640.10990078 15368.83589056
0.16000001 527142.55246559 14003.54256725
0.16100001 520716.28385751 17714.76881304
0.16200001 514356.70804210 16348.82873688
0.16300001 508064.50109212 17497.74224364
0.16400001 501840.36599092 16146.71453804
0.16500001 495682.81129735 13576.75284241
0.16600001 489593.64660566 14717.18571181
0.16700001 483569.56721722 18278.93050385
0.16800001 477611.62937761 14528.94645167
0.16900001 471722.10197403 12028.91416832
0.17000001 465897.00002929 15535.33619955
0.17100001 460137.19529062 14245.84823891
0.17200001 454443.17709795 14151.36120310
0.17300001 448813.78737644 12885.44444409
0.17400001 443249.14009433 12798.81952466
0.17500001 437747.89136964 16179.16282912
0.17600001 432308.96944260 14921.14478502
0.17700001 426934.88625809 11399.16200148
0.17800001 421621.92543122 11320.54923252
0.17900001 416371.78460297 14614.65032987
0.18000001 411183.13362035 13396.34712613
0.18100001 406057.14991876 12193.89678806
0.18200001 400989.16824534 12107.86850712
0.18300001 395982.40755202 16393.67244708
0.18400001 391034.73929090 15191.70033912
0.18500001 386147.71571384 10773.52177738
0.18600001 381317.26451364 18183.11461737
0.18700001 376544.52495058 13804.12293686
0.18800001 371829.15900576 15812.03573378
0.18900001 367172.50373201 11510.85853586
0.19000001 362567.94813528 13503.84386634
0.19100001 358023.39216478 11342.18159970
0.19200001 353530.70706459 13305.12878906
0.19300001 349094.41351729 11174.51270471
0.19400001 344710.17247277 11091.05032341
0.19500001 340379.85681367 12008.60191585
0.19600001 336101.84256731 12911.35289237
0.19700001 331875.60779245 16756.40022931
0.19800001 327701.00331568 9781.87541125
0.19900001 323577.42509429 15531.71713855
0.20000001 319502.39329336 14449.49641959
0.20100001 315478.46657135 13382.59718445
0.20200001 311501.74799424 9485.22867473
0.20300001 307574.79374898 10352.96804692
0.20400001 303694.76987864 11206.33753820
0.20500001 299861.43543779 10192.29067229
0.20600001 296074.48205323 11031.73572275
0.20700001 292333.87117830 10032.89893309
0.20800001 288636.85645565 9953.64246538
0.20900001 284987.10249495 9874.80356824
0.21000001 281378.92233851 12467.90063821
0.21100001 277814.87259909 12368.31871280
0.21200001 274293.17406947 8763.66732582
0.21300001 270812.91140493 10431.71384048
0.21400001 267375.01271310 11209.69793795
0.21500001 263979.17483909 11974.09593681
0.21600001 260622.29160877 9331.58159224
0.21700001 257305.63952071 9255.28429115
0.21800001 254028.31561812 8344.83056260
0.21900001 250788.78551951 9931.23637614
0.22000001 247587.06740219 9849.01400695
0.22100001 244424.60960122 8953.27387303
0.22200001 241298.90182009 10492.88324180
0.22300001 238208.55213150 8804.18850309
0.22400001 235153.51839965 8730.07478340
0.22500001 232136.47523839 9443.31225925
0.22600001 229151.93097901 10143.41070445
0.22700001 226204.27231581 7736.18647904
0.22800001 223288.83507203 13805.94932539
0.22900001 220406.18856480 9885.21802461
0.23000001 217557.67875465 7538.37392535
0.23100001 214742.24640059 7473.03052816
0.23200001 211957.01028447 11852.63657566
0.23300001 209204.01726282 10280.28589450
0.23400001 206482.82111329 14557.03957697
0.23500001 203790.35802440 10099.85062137
0.23600001 201129.77537990 10725.24577941
0.23700001 198498.25271812 9212.30434437
0.23800001 195896.24651758 7725.16884681
0.23900001 193322.76886131 9047.50601065
0.24000001 190777.73359747 7586.27693534
0.24100001 188262.06866909 8884.08744072
0.24200001 185773.52880813 7448.58998990
0.24300001 183312.19978113 8051.07219523
0.24400001 180877.75971300 6647.25798389
0.24500001 178469.92872599 7244.09474967
0.24600001 176088.39942795 9786.11326114
0.24700001 173733.31534459 7109.16760021
0.24800001 171403.73550391 11523.47368307
0.24900001 169098.46452983 6341.19271985
0.25000001 166819.26401848 6280.74558743
0.25100001 164563.37727116 7464.59514616
0.25200001 162333.62269173 6776.61739987
0.25300001 160127.60991276 7321.03467157
0.25400001 157944.79110934 7853.80510948
0.25500001 155785.20126612 6580.36721281
0.25600001 153649.41410588 8292.45927163
0.25700001 151535.97776672 7037.33114045
0.25800001 149445.88075519 6386.57001625
0.25900001 147378.07433690 8046.84323953
0.26000001 145332.50966566 6827.72162715
0.26100001 143308.02649297 7321.60741996
0.26200001 141306.50175906 7804.35846143
0.26300001 139325.44133033 7172.47405907
0.26400001 137366.04616850 5460.30059357
0.26500001 135428.29668832 8105.38394033
0.26600001 133510.18477588 6416.49978395
0.26700001 131613.90973209 10052.67090103
0.26800001 129738.42230083 6805.42926383
0.26900001 127881.67826038 6215.04985756
0.27000001 126046.24292420 8198.04802774
0.27100001 124230.12048059 7602.88373320
0.27200001 122435.25819707 6517.84127857
0.27300001 120658.98560778 6446.80990611
0.27400001 118900.34970221 5885.56758879
0.27500001 117163.84537376 4850.58342803
0.27600001 115444.02994393 5756.03960541
0.27700001 113744.97199525 6640.43177935
0.27800001 112063.62953537 6096.82205342
0.27900001 110402.17063755 6955.33707935
0.28000001 108757.83002816 4584.14275265
0.28100001 107132.75110864 4531.71558638
0.28200001 105526.44890441 5823.47735841
0.28300001 103937.79063999 4427.75009083
0.28400001 102366.89195126 6564.27725707
0.28500001 100814.58130642 6487.41861413
0.28600001 99279.68851976  5556.18803099
0.28700001 97762.46572420  4645.67259111
0.28800001 96262.12049637  5424.85205735
0.28900001 94781.38692623  6184.48578967
0.29000001 93316.18591039  4480.57687857
0.29100001 91869.18240034  4828.64445552
0.29200001 90439.25444010  3974.80542079
0.29300001 89026.49337031  4318.67539782
0.29400001 87630.02601332  5040.91748504
0.29500001 86251.64220637  4595.48771429
0.29600001 84889.24192468  4916.36067880
0.29700001 83543.64831972  4107.84138234
0.29800001 82214.52433782  5530.98238666
0.29900001 80902.77183058  4004.68739519
0.30000001 79606.46695316  5391.34822963
0.30100001 78327.77187872  5677.19717453
0.30200001 77063.58227964  4203.04797651
0.30300001 75817.24483066  5185.89979192
0.30400001 74586.58145356  5800.97164718
0.30500001 73371.73972125  3704.53931391
0.30600001 72172.05626176  4652.93268748
0.30700001 70989.44754845  3607.68389521
0.30800001 69822.04762569  3883.50247280
0.30900001 68670.51912261  3512.49721942
0.31000001 67534.99637017  5985.96468667
0.31100001 66413.84760478  4040.61867958
0.31200001 65308.93174002  3986.13083748
0.31300001 64218.86524126  3629.65043529
0.31400001 63145.08548054  4177.04760231
0.31500001 62085.49480050  4119.99363003
0.31600002 61041.55494900  3192.77868278
0.31700002 60012.44439285  4007.63122631
0.31800002 58998.28722559  3952.29544838
0.31900002 57999.16376948  3062.35599203
0.32000002 57014.88940995  3294.32046609
0.32100002 56044.59329679  3519.04017973
0.32200002 55090.22621795  3202.94590397
0.32300002 54148.54408202  2894.78130369
0.32400002 53222.03413116  3632.40400145
0.32500002 52309.87691130  3069.54372250
0.32600002 51412.15783309  2521.76646112
0.32700002 50527.96545183  3231.76882333
0.32800002 49658.68452151  2940.78743662
0.32900002 48802.48454834  3140.44002940
0.33000002 47961.08499766  2857.52157948
0.33100002 47131.20542444  3520.70121193
0.33200002 46317.80481402  2544.93190602
0.33300002 45516.46293855  2508.41239133
0.33400002 44729.04472576  2697.16152469
0.33500002 43954.12185430  2879.87420027
0.33600002 43193.30282236  2183.42156107
0.33700002 42444.67319671  3873.50105937
0.33800002 41710.20691920  2333.06053451
0.33900002 40987.46623175  3135.54131522
0.34000002 40278.27897902  2678.30428755
0.34100002 39581.33919877  2030.52279706
0.34200002 38897.62911914  2601.66804685
0.34300002 38225.34244496  1972.42776357
0.34400002 37566.85492365  2138.49331781
0.34500002 36919.52160744  2490.96024083
0.34600002 36285.35507946  2455.24866773
0.34700002 35661.62811938  2419.99819879
0.34800002 35051.28341523  1834.93477369
0.34900002 34451.97924722  2713.09349422
0.35000002 33864.59496001  1782.97100909
0.35100002 33289.27703485  1933.44130176
0.35200002 32724.20796292  1906.02158307
0.35300002 32170.89665782  2562.41204016
0.35400002 31628.99828111  1684.24423824
0.35500002 31098.40583010  1992.78593998
0.35600002 30577.70551560  2456.15431187
0.35700002 30068.33931859  3713.74076514
0.35800002 29570.14984068  1910.82317321
0.35900002 29082.51209644  2198.63801863
0.36000002 28605.53342188  1703.88867898
0.36100002 28138.03002158  2291.84265381
0.36200002 27681.85864599  1507.27727467
0.36300002 27234.83168148  2081.83063234
0.36400002 26797.83769943  1760.61802025
0.36500002 26370.52849204  1592.51629107
0.36600002 25953.33450522  1714.47735863
0.36700002 25545.17182386  1692.11226176
0.36800002 25147.92324653  1531.13137939
0.36900002 24758.95048981  1374.12181728
0.37000002 24378.85691403  2170.69352245
0.37100002 24007.78363716  2277.37846370
0.37200002 23646.48069855  1455.32272353
0.37300002 23293.35159115  1568.10850340
0.37400002 22949.03637793  1549.06002889
0.37500002 22613.60305590  1530.48872732
0.37600002 22286.91550055  1260.32513126
0.37700002 21967.85545505  1370.13520964
0.37800002 21656.96946652  1477.43852700
0.37900002 21354.86902975  1338.95035159
0.38000002 21060.54139833  1323.97099773
0.38100002 20772.98588447  1309.32136232
0.38200002 20494.26049808  2237.05111064
0.38300002 20222.35540037  1514.25004412
0.38400002 19958.73239315  1959.44864552
0.38500002 19701.34984093  1140.70820983
0.38600002 19452.31991711  1129.20722468
0.38700002 19209.49318751  1341.59106777
0.38800002 18973.99555884  1549.98577063
0.38900002 18744.65353869  1535.18719755
0.39000002 18523.32414842  1195.03231405
0.39100002 18307.42150221  1076.47643533
0.39200002 18098.57963493  1280.29358403
0.39300002 17895.70023752  1374.92671439
0.39400002 17700.47855371  1258.50408479
0.39500002 17509.99365393  1144.10303955
0.39600002 17325.78945818  1031.75081112
0.39700002 17147.30245011  1228.43280573
0.39800002 16974.98893192  1015.95313571
0.39900002 16807.98045239  1411.87042489
0.40000002 16646.48781097  1201.54354712
0.40100002 16490.78114522  1491.59122526
0.40200002 16340.42768800  1185.33468065
0.40300002 16194.83883380  1177.68873579
0.40400002 16054.68803009  1560.51575046
0.40500002 15919.78384067  1454.27232275
0.40600002 15789.48459981  963.94808049
0.40700002 15664.16309018  1246.24087450
0.40800002 15543.46493561  1239.66910468
0.40900002 15427.30233382  1043.65705233
0.41000002 15316.08391659  1038.66028002
0.41100002 15208.80612366  1127.88511557
0.41200002 15105.69137666  935.79762512
0.41300002 15007.42413000  1025.15719089
0.41400002 14912.72412586  928.31712082
0.41500002 14822.31202813  1387.36847157
0.41600002 14735.22177159  1198.19461513
0.41700002 14652.40611498  1653.67063249
0.41800002 14574.18081596  1099.18476922
0.41900002 14497.69673583  913.35493764
0.42000002 14425.98304954  911.00087275
0.42100002 14358.04270522  999.75056094
0.42200002 14293.32461812  1541.74953299
0.42300002 14231.37953792  995.62735965
0.42400002 14172.62307354  1084.20571650
0.42500002 14117.41978229  1172.73411689
0.42600002 14064.31777396  1441.31135377
0.42700002 14015.52610079  1259.71554563
0.42800002 13968.73872993  1168.55489383
0.42900002 13925.76928182  1526.96067411
0.43000002 13884.91873352  987.42604253
0.43100002 13845.85955144  1435.53878632
0.43200002 13810.48822152  1435.18600399
0.43300002 13777.32635019  1076.28478548
0.43400002 13746.65873370  1345.45428732
0.43500002 13718.18436397  1256.03701989
0.43600002 13692.39449154  897.53650145
0.43700002 13668.17179914  1077.59871571
0.43800002 13646.02966076  988.45020532
0.43900002 13626.82203951  1349.05544584
0.44000002 13609.05387862  1080.28674808
0.44100002 13593.57437642  991.37942625
0.44200002 13579.84859503  1353.57147286
0.44300002 13568.01641459  903.62993603
0.44400002 13558.24234956  1086.01526367
0.44500002 13548.98402221  1178.35519626
0.44600002 13541.91033618  1089.58215729
0.44700002 13537.35270297  1000.68115923
0.44800002 13532.87040402  1002.58275140
0.44900002 13531.58100736  1278.73446580
0.45000002 13530.95045601  1189.97949425
0.45100002 13531.46464877  1284.40668533
0.45200002 13533.58519128  919.60715733
0.45300002 13536.52218466  1290.57208625
0.45400002 13541.27460793  924.19203579
0.45500002 13547.04903018  1389.92729637
0.45600002 13553.90412857  1022.03218925
0.45700002 13561.85522733  1118.03939793
0.45800002 13570.48213654  1775.22270483
0.45900002 13580.14069326  1218.13867792
0.46000002 13591.59882866  1127.83092426
0.46100002 13602.79903833  942.67401803
0.46200002 13615.77731179  1323.86209077
0.46300002 13629.56393261  1138.34123360
0.46400002 13643.34769391  1141.94825610
0.46500002 13658.52866556  1145.67743877
0.46600002 13673.99583126  1053.64979872
0.46700002 13689.92026226  1057.13569276
0.46800002 13707.52941126  1446.48710968
0.46900002 13724.65317559  1064.34690421
0.47000002 13742.65715730  1068.01065160
0.47100002 13761.20807532  1169.15229349
0.47200002 13780.45528418  1271.04035338
0.47300002 13800.29900000  1177.44156649
0.47400002 13819.78580897  1181.59174267
0.47500002 13840.10470460  1383.45693184
0.47600002 13861.24531124  1090.94936393
0.47700002 13881.91954886  1293.93378248
