# SAXS profile: number of points = 501, q_min = 0, q_max = 0.5, delta_q = 0.001
#    q    intensity    error
0.00000000 1664650.74656090 324.60689558
0.00100000 1664564.07251755 699.11692706
0.00200000 1664304.03295069 1198.29894167
0.00300000 1663870.82289502 1197.98703516
0.00400000 1663264.33384222 1496.93795734
0.00500000 1662485.23508006 2094.73147911
0.00600000 1661533.32266416 2965.83710170
0.00700000 1660409.39710111 2789.48790306
0.00800000 1659113.24502537 2911.74386795
0.00900000 1657646.21577824 3481.05720194
0.01000000 1656007.73528791 3005.65416933
0.01100000 1654199.40130100 4466.33857797
0.01200000 1652221.10261707 3544.01442050
0.01300000 1650074.20252743 3811.67157595
0.01400000 1647758.84513382 5190.44059227
0.01500000 1645276.57881035 4738.39675797
0.01600000 1642627.07674249 6701.91877271
0.01700000 1639812.64130951 6641.24149522
0.01800000 1636833.61457790 4664.97601146
0.01900000 1633691.06393678 6371.39543685
0.02000000 1630385.76102411 6676.42999341
0.02100000 1626920.43376965 6979.48897731
0.02200000 1623293.71310023 8400.54534695
0.02300000 1619508.76274958 6413.25499241
0.02400000 1615566.21806556 8481.72303159
0.02500000 1611468.37187350 11940.98118093
0.02600000 1607215.50113382 7811.06769278
0.02700000 1602809.86758971 6731.80175220
0.02800000 1598251.72775741 7647.63486804
0.02900000 1593544.47291531 10039.33064031
0.03000000 1588688.83503669 7387.40342248
0.03100000 1583686.34106030 9882.20322293
0.03200000 1578538.24999907 8595.14116712
0.03300000 1573248.64682579 12035.35270305
0.03400000 1567816.07275463 9054.13823792
0.03500000 1562244.79531034 9279.73451266
0.03600000 1556535.19599725 12958.15610552
0.03700000 1550690.59950798 11490.61787377
0.03800000 1544712.15597890 10843.87983682
0.03900000 1538602.56359479 12001.10055181
0.04000000 1532362.09494812 14136.04098095
0.04100000 1525994.69593819 11536.52043620
0.04200000 1519501.87874007 10780.86632982
0.04300000 1512885.43191552 9985.04431413
0.04400000 1506148.64787127 11183.15422981
0.04500000 1499293.06932580 15517.68398855
0.04600000 1492319.92660228 12625.02716595
0.04700000 1485232.95295125 12832.41331031
0.04800000 1478034.12388763 15208.97184245
0.04900000 1470725.87610513 12133.48904265
0.05000000 1463309.81635113 16791.48092454
0.05100000 1455790.02399307 12490.67898773
0.05200000 1448165.93003206 12664.21164830
0.05300000 1440442.68618312 12834.34493220
0.05400000 1432621.52244788 14182.95373364
0.05500000 1424705.90063842 11967.53012364
0.05600000 1416696.58522604 13324.03200581
0.05700000 1408598.60924628 17156.73186147
0.05800000 1400411.44032816 17351.09855583
0.05900000 1392139.00921854 16288.02716860
0.06000000 1383784.98298782 12661.63318587
0.06100000 1375350.86058762 16627.99268155
0.06200000 1366839.35178127 18083.28546934
0.06300000 1358253.65350804 14343.15925166
0.06400000 1349593.55205316 15790.24529748
0.06500000 1340864.87277345 15929.47543369
0.06600000 1332069.46345877 14726.02860755
0.06700000 1323208.19229713 20245.08628960
0.06800000 1314285.53662562 14963.14153489
0.06900000 1305304.68749867 16446.83983251
0.07000000 1296265.54805434 19327.32022656
0.07100000 1287172.38568487 23632.48610807
0.07200000 1278027.35677956 19592.16029726
0.07300000 1268833.66315693 16900.86518515
0.07400000 1259594.23717891 18421.56658205
0.07500000 1250309.90108461 15678.88689451
0.07600000 1240983.80540840 15766.69998687
0.07700000 1231619.90260140 21614.93030415
0.07800000 1222219.20392735 21724.94736863
0.07900000 1212783.42386812 20374.76247664
0.08000000 1203318.55357495 14620.32111179
0.08100000 1193824.66673430 14684.04408978
0.08200000 1184303.08792632 16219.03155023
0.08300000 1174757.98811601 14801.95134495
0.08400000 1165191.87422816 17827.43651249
0.08500000 1155606.54547282 16398.05765007
0.08600000 1146004.97796371 20937.51193044
0.08700000 1136388.90694525 16500.36770366
0.08800000 1126760.41616021 25571.82884571
0.08900000 1117122.98865578 16589.27716073
0.09000000 1107478.42502816 19652.20557530
0.09100000 1097828.69160676 19695.04765272
0.09200000 1088175.65337204 21252.07150892
0.09300000 1078523.76910773 15207.18585904
0.09400000 1068871.76349860 19800.85034940
0.09500000 1059223.74532131 19828.66944442
0.09600000 1049581.28531129 24434.25347065
0.09700000 1039949.57295036 19873.43727339
0.09800000 1030326.92398145 27540.63997292
0.09900000 1020717.63618285 24497.22442031
0.10000000 1011120.85029293 15318.48160232
0.10100000 1001541.10944151 16855.93766467
0.10200000 991979.66988768 21456.52126891
0.10300000 982438.26175080 16858.64136469
0.10400000 972919.21159079 18388.17396414
0.10500000 963426.08705963 21445.86570696
0.10600001 953955.45007039 16842.08426347
0.10700001 944514.58763315 21421.59185557
0.10800001 935101.72383448 24462.26224675
0.10900001 925721.01154068 15274.39740932
0.11000001 916372.87771325 15257.60913209
0.11100001 907058.71495854 16762.44584150
0.11200001 897780.92989186 19782.60372148
0.11300001 888540.09636300 21271.65090842
0.11400001 879338.65710987 21236.02956909
0.11500001 870178.18367232 19683.43144152
0.11600001 861059.80938541 22667.40054951
0.11700001 851984.79576049 24128.21055225
0.11800001 842954.04487489 19560.74953260
0.11900001 833968.79047707 16512.58282922
0.12000001 825030.81730465 19466.60305128
0.12100001 816142.85488208 14935.41494792
0.12200001 807303.98284969 19363.18694087
0.12300001 798516.62970943 28219.57902348
0.12400001 789781.11789219 17770.07598986
0.12500001 781097.82939544 19191.57457256
0.12600001 772470.73090144 19130.23855226
0.12700001 763897.98005691 16133.52609912
0.12800001 755381.24653937 23386.60449505
0.12900001 746922.18101588 20390.97650280
0.13000001 738521.33691082 20316.72293604
0.13100001 730178.69713340 17349.04666168
0.13200001 721895.67910476 15842.00142475
0.13300001 713674.26368011 17213.82405148
0.13400001 705513.23767830 15715.30811019
0.13500001 697414.93364235 14227.26531709
0.13600001 689378.49799628 22666.76608287
0.13700001 681405.97988251 19747.14622814
0.13800001 673496.21483842 18255.11576403
0.13900001 665652.13862799 18172.30424152
0.14000001 657872.42421006 15305.40267106
0.14100001 650158.10430367 16618.04192976
0.14200001 642509.27643820 13781.82462962
0.14300001 634928.02799789 15085.89065680
0.14400001 627410.75484037 13646.18456147
0.14500001 619962.57563320 19008.05346556
0.14600001 612580.69336842 14858.14541857
0.14700001 605268.30124125 14780.65261361
0.14800001 598020.95518566 14702.34587688
0.14900001 590842.97101833 22599.74470773
0.15000001 583732.32177944 15865.84525456
0.15100001 576690.40772417 14463.39610818
0.15200001 569717.25607107 14382.51280818
0.15300001 562813.46837292 14301.09090621
0.15400001 555975.86848249 12926.43955223
0.15500001 549208.69574623 19277.22613044
0.15600001 542507.57333557 16608.87014152
0.15700001 535878.54105776 20320.51523597
0.15800001 529314.19765398 15148.97305187
0.15900001 522820.59695019 16312.00339478
0.16000001 516392.68417578 16212.14908495
0.16100001 510036.08614373 17351.42846967
0.16200001 503746.18020265 16011.57309358
0.16300001 497523.71813942 13462.99244841
0.16400001 491369.20993928 14593.66622416
0.16500001 485281.25926673 15708.55510409
0.16600001 479261.73340173 24011.01397706
0.16700001 473307.13601490 11927.34039072
0.16800001 467418.49276325 15403.77715632
0.16900001 461598.37983441 16479.06293820
0.17000001 455842.70826954 16369.31242691
0.17100001 450152.05298075 16259.49292146
0.17200001 444527.38755467 13842.58350214
0.17300001 438966.97883351 17185.55803291
0.17400001 433471.16827260 15930.06618633
0.17500001 428038.96430276 20340.41254430
0.17600001 422668.87459581 11221.85915052
0.17700001 417363.47430429 13372.32634829
0.17800001 412119.28243865 13278.48390734
0.17900001 406937.58472681 13184.77836791
0.18000001 401817.43392885 18545.88453900
0.18100001 396759.66035819 12997.84708731
0.18200001 391759.89263154 10753.80956072
0.18300001 386821.06983295 14946.76684442
0.18400001 381941.36957713 13778.53555840
0.18500001 377122.03195323 14730.38726399
0.18600001 372359.29148669 12533.61434357
0.18700001 367653.97553323 11404.62685985
0.18800001 363005.91555847 10291.21819230
0.18900001 358416.35350776 12257.83986912
0.19000001 353878.98949915 11152.49688101
0.19100001 349401.16760599 13081.58033327
0.19200001 344975.31800200 15979.25748489
0.19300001 340605.55349954 14867.43311278
0.19400001 336287.61724014 11803.69592290
0.19500001 332023.50760567 9761.49158489
0.19600001 327811.54369077 12592.88104597
0.19700001 323651.01717102 10573.67923066
0.19800001 319541.99846635 13353.66074699
0.19900001 315483.86800644 9464.51648749
0.20000001 311474.17077877 11269.13603137
0.20100001 307515.19437961 15840.10841113
0.20200001 303603.30634096 12018.13744953
0.20300001 299741.07839832 10089.28517575
0.20400001 295925.59291433 10919.65489466
0.20500001 292156.30222518 9930.39318201
0.20600001 288433.31391626 12538.19674860
0.20700001 284756.51506559 15103.48627301
0.20800001 281123.10284016 9694.53065971
0.20900001 277536.59315354 10490.88371712
0.21000001 273991.62021847 10406.20222782
0.21100001 270490.31871346 10321.91105006
0.21200001 267031.40607286 11091.14997556
0.21300001 263613.47768492 9308.19233710
0.21400001 260237.84727323 10910.47226274
0.21500001 256903.84770809 10820.79057705
0.21600001 253608.64485940 9905.95413655
0.21700001 250353.39132855 10642.52316855
0.21800001 247137.22208527 8118.45812935
0.21900001 243958.62941867 9660.76218176
0.22000001 240817.67896344 11974.65965265
0.22100001 237715.56766272 8707.52165521
0.22200001 234650.00638355 10988.66031853
0.22300001 231619.56098967 7782.41761725
0.22400001 228624.23821408 10802.49576643
0.22500001 225666.43388735 8415.10171759
0.22600001 222740.99114621 8342.76421790
0.22700001 219851.98615922 9022.72593865
0.22800001 216995.24347096 8199.16566229
0.22900001 214170.88325475 8127.78540389
0.23000001 211380.19450459 9521.62131175
0.23100001 208622.54481885 8712.07788365
0.23200001 205894.86847610 11513.64158970
0.23300001 203198.89259991 9271.96590785
0.23400001 200534.48218434 8482.60899759
0.23500001 197898.69834345 8406.73710324
0.23600001 195294.31427775 7636.98452104
0.23700001 192718.75675511 8256.07192988
0.23800001 190172.52448291 10226.52798777
0.23900001 187654.43990922 7431.11617189
0.24000001 185164.59444692 8032.44048704
0.24100001 182703.65991584 6632.14316865
0.24200001 180269.67892643 7884.99612922
0.24300001 177862.53681527 7160.74607091
0.24400001 175482.01510851 7738.75723236
0.24500001 173127.83345701 8943.78429947
0.24600001 170799.58185934 8226.56224941
0.24700001 168497.54390560 6894.91982279
0.24800001 166220.58041206 7450.00676650
0.24900001 163967.71835237 7378.54767492
0.25000001 161740.60850988 8525.34787787
0.25100001 159536.58084068 6633.53134518
0.25200001 157358.15648975 7166.09078557
0.25300001 155203.39094929 6504.57442242
0.25400001 153071.37370434 6440.47835332
0.25500001 150962.36433294 7536.04158405
0.25600001 148876.85601306 5739.20307084
0.25700001 146813.27908773 8522.51125427
0.25800001 144772.74594012 5624.42144589
0.25900001 142754.29203757 8351.12647933
0.26000001 140757.73504781 8265.99838179
0.26100001 138781.82725934 8181.18910404
0.26200001 136828.69916887 7017.26016891
0.26300001 134895.71437763 5341.87054212
0.26400001 132983.87672211 7929.16402475
0.26500001 131093.50373344 6276.75725577
0.26600001 129222.53443385 6210.43529877
0.26700001 127372.96962905 5632.43298352
0.26800001 125543.96288565 6078.83897058
0.26900001 123733.34685379 5011.20078472
0.27000001 121943.72887660 6444.11665743
0.27100001 120173.02097076 8335.20112898
0.27200001 118423.26774428 5819.31965234
0.27300001 116691.90306250 5755.24493140
0.27400001 114977.78121198 5217.11706939
0.27500001 113285.49708211 5628.02376139
0.27600001 111609.65395625 6492.33387789
0.27700001 109954.04173430 5043.59213305
0.27800001 108315.87564963 6799.52941571
0.27900001 106697.45425986 4481.29329100
0.28000001 105095.68035765 5758.71807775
0.28100001 103512.89637860 4816.45529645
0.28200001 101948.62982863 4760.49149516
0.28300001 100401.63039508 4277.10965727
0.28400001 98872.00442799  4649.45622829
0.28500001 97360.74532348  5012.13140648
0.28600001 95866.54143473  5777.87672575
0.28700001 94389.75055862  6116.45612571
0.28800001 92929.47444594  6445.58865266
0.28900001 91488.43519692  6367.59539111
0.29000001 90062.72137800  6289.98075877
0.29100001 88654.77405190  5436.31100219
0.29200001 87263.76730712  6903.43695844
0.29300001 85889.46634187  5302.81590296
0.29400001 84531.16539210  5610.75636849
0.29500001 83190.63733339  4063.03091969
0.29600001 81865.85930285  3647.12420459
0.29700001 80557.44705740  3600.91805393
0.29800001 79265.36762517  3910.55709691
0.29900001 77990.14924569  3860.51257042
0.30000001 76730.17782166  3810.80446191
0.30100001 75487.56080924  4445.46266650
0.30200001 74258.98060402  4387.59207670
0.30300001 73048.09995412  3330.99351560
0.30400001 71852.60446222  3287.25680977
0.30500001 70672.55473110  5190.19266517
0.30600001 69507.33424467  3840.97547220
0.30700001 68358.94843311  4105.63863727
0.30800001 67225.34340688  4050.66325876
0.30900001 66107.46497286  3688.79672013
0.31000001 65005.20756144  5155.23822973
0.31100001 63917.08832751  4486.97981303
0.31200001 62844.89453379  3540.68152567
0.31300001 61787.17128325  4365.26385784
0.31400001 60745.35394708  3731.28354286
0.31500001 59717.71657953  3113.68188988
0.31600002 58705.24967536  3908.00865592
0.31700002 57707.38930306  3027.90686010
0.31800002 56724.10669938  3257.09836090
0.31900002 55755.62758214  3211.52430079
0.32000002 54801.70219362  3694.18291979
0.32100002 53861.51096434  3121.81332331
0.32200002 52936.86190094  3077.74929665
0.32300002 52024.84699868  2781.24845224
0.32400002 51127.48607301  3738.69759612
0.32500002 50244.17987184  2456.94051207
0.32600002 49375.09389207  3390.58785812
0.32700002 48519.21803955  2864.57476870
0.32800002 47678.10674005  2588.20614694
0.32900002 46849.73736469  2782.87453124
0.33000002 46035.86215068  2742.81679682
0.33100002 45233.10843419  2928.39157870
0.33200002 44446.81069826  2220.11829951
0.33300002 43672.22692629  2406.77653988
0.33400002 42911.16553239  2371.91478713
0.33500002 42162.49077287  2337.48859914
0.33600002 41427.54276530  2722.41110175
0.33700002 40704.59230235  2682.83980570
0.33800002 39995.36902552  2033.76461126
0.33900002 39297.84917814  2405.02848360
0.34000002 38613.47453615  2370.09517927
0.34100002 37941.16467735  2919.57276019
0.34200002 37281.73155790  2493.58873334
0.34300002 36633.58002620  3213.49779209
0.34400002 35998.77860223  2049.23056898
0.34500002 35375.10159408  2386.75821759
0.34600002 34764.31049791  2171.37893654
0.34700002 34163.64493156  2140.01081987
0.34800002 33576.05903517  2285.01880586
0.34900002 32999.38328461  3291.68863854
0.35000002 32434.25452316  2561.49537228
0.35100002 31881.11866764  1851.65545992
0.35200002 31337.74915286  2157.13406511
0.35300002 30806.06724386  1635.80224813
0.35400002 30285.52096525  1612.70406778
0.35500002 29775.93075265  2067.04521075
0.35600002 29276.12052601  2194.83085979
0.35700002 28787.48279845  2318.83184925
0.35800002 28309.73432951  1981.82304561
0.35900002 27842.21093646  2255.21919267
0.36000002 27385.13724456  1631.19577724
0.36100002 26937.41748342  1462.70183863
0.36200002 26500.65958735  2020.14537603
0.36300002 26072.91415413  1993.01365234
0.36400002 25654.94039038  1825.99046878
0.36500002 25246.54853100  1940.44981201
0.36600002 24847.87258351  1641.45054062
0.36700002 24458.07606505  1755.11162156
0.36800002 24078.98006864  1466.04877092
0.36900002 23707.95609286  1973.68743822
0.37000002 23345.56799103  1559.01710429
0.37100002 22991.95349974  1411.24617266
0.37200002 22647.91556913  1393.86602973
0.37300002 22311.94905620  1376.87044148
0.37400002 21984.49937763  1731.27940800
0.37500002 21665.77935607  1344.14501492
0.37600002 21355.59307445  1690.72238380
0.37700002 21052.77804129  1313.06182864
0.37800002 20757.91538221  1416.10505446
0.37900002 20471.61743976  1283.57047428
0.38000002 20192.99208503  1500.23841803
0.38100002 19920.97963099  1483.91384301
0.38200002 19657.52264275  1242.25720226
0.38300002 19400.72891110  1117.48203822
0.38400002 19151.96853721  1216.62885896
0.38500002 18909.32670960  1751.76010937
0.38600002 18674.66457649  1192.47076302
0.38700002 18446.33555968  1180.93445848
0.38800002 18224.91116465  1382.45070189
0.38900002 18009.56541531  1158.91558938
0.39000002 17801.94933308  1252.90125342
0.39100002 17599.74863803  1448.81137652
0.39200002 17404.32515205  1128.58351795
0.39300002 17214.78423776  1424.35131531
0.39400002 17032.53779168  1311.93128556
0.39500002 16854.97286613  1201.42252282
0.39600002 16683.47125372  1092.85083625
0.39700002 16517.55774631  986.09824417
0.39800002 16357.68611274  1076.90831625
0.39900002 16202.91645622  1361.04504681
0.40000002 16053.43681203  965.61426999
0.40100002 15909.63681382  1151.22137439
0.40200002 15771.03329960  1811.38211545
0.40300002 15637.01052491  1042.36317098
0.40400002 15508.26569773  1318.97806009
0.40500002 15384.66985334  936.92643846
0.40600002 15265.50357212  1025.15494096
0.40700002 15151.10109936  1112.69691746
0.40800002 15041.22821780  1107.33527386
0.40900002 14935.70427833  1377.81878496
0.41000002 14834.96714460  1097.49092136
0.41100002 14738.08518091  910.81370734
0.41200002 14645.17073331  997.99520691
0.41300002 14557.01217856  1355.98574868
0.41400002 14472.19952861  990.98390968
0.41500002 14391.57067858  1167.44426876
0.41600002 14314.17035977  895.35139843
0.41700002 14240.80184399  1160.76781331
0.41800002 14172.04515333  1068.85569611
0.41900002 14104.74358815  1155.17855461
0.42000002 14042.03335319  1064.10533793
0.42100002 13983.20253710  1150.67779130
0.42200002 13927.27753861  1237.16012238
0.42300002 13874.07013506  882.39090240
0.42400002 13823.88855539  1057.52752460
0.42500002 13777.21709274  1056.43705673
0.42600002 13732.40994850  1583.20961798
0.42700002 13691.91763432  1318.53173067
0.42800002 13653.11897273  1230.00954654
0.42900002 13618.17522935  878.37234392
0.43000002 13585.20719336  878.28368667
0.43100002 13553.85152536  1053.94754456
0.43200002 13526.09011236  878.51959443
0.43300002 13500.52457897  1230.43786844
0.43400002 13477.17914465  879.38598086
0.43500002 13456.02008077  1232.03325698
0.43600002 13437.38027862  1145.06641471
0.43700002 13420.26462089  1234.39599833
0.43800002 13405.11366825  1324.09016533
0.43900002 13392.74555984  1325.88187326
0.44000002 13381.72956866  1150.76188879
0.44100002 13372.89155560  1063.94730258
0.44200002 13365.67597108  888.14921037
0.44300002 13360.38074980  1067.76168013
0.44400002 13356.89980234  980.73041446
0.44500002 13353.92199193  1250.72839304
0.44600002 13353.06055522  895.32275266
0.44700002 13354.52223577  1166.65111781
0.44800002 13356.02159465  1079.43371644
0.44900002 13360.66010884  1082.21352010
0.45000002 13365.74820728  1356.28936361
0.45100002 13371.92902072  1087.94019669
0.45200002 13379.66934441  909.14857504
0.45300002 13388.16483517  1002.90747533
0.45400002 13398.37994339  1097.32736937
0.45500002 13409.51482503  1375.81628625
0.45600002 13421.61510944  1472.08281497
0.45700002 13434.72810197  1015.26245078
0.45800002 13448.47434180  1203.70575301
0.45900002 13463.19443628  1114.75255216
0.46000002 13479.57819319  932.11287624
0.46100002 13495.73920917  1122.30572583
0.46200002 13513.42485768  1313.91036119
0.46300002 13531.98078133  1036.00849772
0.46400002 13550.38490935  1134.16727067
0.46500002 13570.12535318  1043.40698786
0.46600002 13590.12304490  1427.98224662
0.46700002 13610.49589560  1051.00254287
0.46800002 13632.44836360  1246.75562418
0.46900002 13653.84930538  1058.85606382
0.47000002 13676.08049850  1256.07967292
0.47100002 13698.86618035  1163.85572585
0.47200002 13722.15050160  1168.30394908
0.47300002 13745.98611386  1270.54155672
0.47400002 13769.44433913  1471.60943349
0.47500002 13793.70052679  1181.84431715
0.47600002 13818.59586295  988.72058086
0.47700002 13843.07572828  1091.80343444
