# SAXS profile: number of points = 501, q_min = 0, q_max = 0.5, delta_q = 0.001
#    q    intensity    error
0.00000000 1682732.95097188 277.65093691
0.00100000 1682645.91801788 504.79378739
0.00200000 1682384.79496825 1135.60977256
0.00300000 1681949.78760428 1009.16990851
0.00400000 1681340.78738392 1387.10620230
0.00500000 1680558.43780293 1512.50265389
0.00600000 1679602.58296688 2292.65761909
0.00700000 1678473.98350004 2417.00263669
0.00800000 1677172.41888832 2264.18286109
0.00900000 1675699.30175321 2764.90396609
0.01000000 1674054.00052383 3590.84598617
0.01100000 1672238.11662121 5418.05173375
0.01200000 1670251.55040981 4234.08786593
0.01300000 1668095.68635519 4904.20153418
0.01400000 1665770.59073561 3747.98399531
0.01500000 1663277.96703919 4391.05402851
0.01600000 1660617.38041011 6351.86176402
0.01700000 1657791.06282274 4923.63967745
0.01800000 1654799.48396098 6602.65023811
0.01900000 1651643.74450027 5945.91774850
0.02000000 1648324.44203320 5711.44445001
0.02100000 1644844.49951984 9770.37677012
0.02200000 1641202.40252547 6228.36340055
0.02300000 1637401.42817819 8841.96811463
0.02400000 1633442.03641686 7963.03029063
0.02500000 1629326.69988517 6989.81186174
0.02600000 1625055.70095090 7897.77106785
0.02700000 1620631.18293640 8848.64666411
0.02800000 1616053.47357425 7029.83293243
0.02900000 1611326.00195197 7976.06407588
0.03000000 1606449.35502716 8216.98882866
0.03100000 1601425.18270749 9224.20947683
0.03200000 1596254.73425876 8691.60742836
0.03300000 1590942.16514910 8925.18595794
0.03400000 1585485.89030436 10820.94170061
0.03500000 1579890.17198356 10237.68878721
0.03600000 1574155.54638687 11357.53279206
0.03700000 1568285.06254372 14302.76043187
0.03800000 1562280.21977634 11881.14162125
0.03900000 1556143.64013191 13071.60718245
0.04000000 1549875.35314360 12391.25402258
0.04100000 1543479.51623160 9723.92140312
0.04200000 1536957.51791609 12887.38938561
0.04300000 1530311.38567300 12120.06673712
0.04400000 1523544.09463704 10283.92311641
0.04500000 1516657.43659459 12557.92415851
0.04600000 1509652.47878199 10643.05047018
0.04700000 1502533.16863981 12981.88718081
0.04800000 1495301.27491519 13188.55785839
0.04900000 1487959.30148224 13391.63433669
0.05000000 1480509.01294398 13591.07337171
0.05100000 1472954.15191947 17233.56438027
0.05200000 1465294.43178603 12814.00040312
0.05300000 1457534.99866007 12986.63744347
0.05400000 1449676.88424531 13155.81833803
0.05500000 1441723.70489531 12110.47968607
0.05600000 1433676.48337984 12257.93450490
0.05700000 1425539.71477083 14882.63531691
0.05800000 1417313.13477644 18814.83274267
0.05900000 1409000.71256015 15217.20840638
0.06000000 1400606.07547195 17941.76466501
0.06100000 1392130.73404821 18125.54300434
0.06200000 1383577.44794994 18304.73049201
0.06300000 1374949.40001268 15839.41782872
0.06400000 1366246.29213709 17317.17256270
0.06500000 1357474.00877359 21502.38930481
0.06600000 1348634.42355422 14909.15424997
0.06700000 1339728.38615966 17764.79923185
0.06800000 1330760.49672317 20660.05767871
0.06900000 1321733.75569014 16653.84610141
0.07000000 1312648.02326191 19571.58294334
0.07100000 1303507.91344482 15485.67473704
0.07200000 1294315.26087342 18424.57860167
0.07300000 1285073.53128427 14264.31686562
0.07400000 1275785.58792399 22964.14165883
0.07500000 1266451.89932979 17325.06279490
0.07600000 1257076.06951513 17423.07514028
0.07700000 1247661.81139506 20436.70142890
0.07800000 1238210.16045383 26411.02396106
0.07900000 1228723.29769681 17693.61631673
0.08000000 1219206.41169205 16294.69445667
0.08100000 1209660.21809319 14878.82138063
0.08200000 1200085.73761005 17929.28176123
0.08300000 1190487.27985693 34500.32298942
0.08400000 1180867.20406330 21078.48058193
0.08500000 1171227.43099839 16619.71802608
0.08600000 1161571.07788740 18190.20393377
0.08700000 1151899.65588575 16725.58378886
0.08800000 1142215.35241712 18298.29080508
0.08900000 1132521.57425582 19875.75456175
0.09000000 1122820.26042832 18391.79672978
0.09100000 1113113.31779804 18433.15740875
0.09200000 1103402.65020257 23088.70154035
0.09300000 1093692.66381119 16963.17401285
0.09400000 1083981.95743220 15446.74361937
0.09500000 1074274.95495039 20110.42810192
0.09600000 1064573.11720156 20136.40145844
0.09700000 1054881.44779933 18608.10961400
0.09800000 1045198.54478366 18625.43894377
0.09900000 1035528.67757680 17086.22398345
0.10000000 1025870.77304292 21758.72011949
0.10100000 1016229.46784289 24877.29854282
0.10200000 1006606.25140860 24883.30770524
0.10300000 997002.48454568 15553.23949055
0.10400000 987420.91616216 17107.06817731
0.10500000 977864.62354170 21767.26754417
0.10600001 968330.53054478 20204.21747050
0.10700001 958826.08735856 15532.98334615
0.10800001 949349.15699329 17074.04539206
0.10900001 939903.90729535 17059.25672032
0.11000001 930491.00869681 17041.94362644
0.11100001 921111.65168700 21664.54706750
0.11200001 911768.43368161 20090.81838199
0.11300001 902461.81528471 21604.93687509
0.11400001 893194.20641160 21570.64110048
0.11500001 883967.49507609 16919.13865244
0.11600001 874782.32847687 15352.43058774
0.11700001 865640.54228042 16854.02215194
0.11800001 856542.38010865 21404.99508705
0.11900001 847489.63568621 16780.29557697
0.12000001 838483.81006759 16740.33005655
0.12100001 829527.76622566 16698.39472075
0.12200001 820620.42374463 16654.49228451
0.12300001 811764.72953914 18118.58961696
0.12400001 802960.29280092 19572.15805921
0.12500001 794207.89487868 16511.58291256
0.12600001 785511.31114312 16460.39030067
0.12700001 776869.32268304 22373.83754767
0.12800001 768282.72022294 17839.52560434
0.12900001 759753.82729886 17778.24039672
0.13000001 751282.90283443 17715.25168384
0.13100001 742869.87470074 19121.47147614
0.13200001 734516.28451702 17584.32068027
0.13300001 726224.31709060 17516.53135401
0.13400001 717992.31780880 14539.34512109
0.13500001 709822.95939252 21720.58358150
0.13600001 701715.27849579 18746.32454892
0.13700001 693671.54955574 22974.40280460
0.13800001 685690.18719011 18585.63340021
0.13900001 677774.56402923 19926.57312216
0.14000001 669923.08763070 17002.64876592
0.14100001 662136.94091834 16924.22100807
0.14200001 654416.18005522 23863.28713123
0.14300001 646762.78208434 15367.08442715
0.14400001 639173.43499662 18072.62972701
0.14500001 631652.92525387 16599.83965872
0.14600001 624198.78247565 16516.30056345
0.14700001 616814.00946860 16431.92598744
0.14800001 609494.10447164 19071.07142867
0.14900001 602243.57875465 14905.52927743
0.15000001 595060.43329247 14825.93139501
0.15100001 587945.89257473 13405.16698323
0.15200001 580900.03615315 22663.81597995
0.15300001 573923.58125552 14583.39888788
0.15400001 567013.15970805 14501.36224387
0.15500001 560173.36352579 13108.05732511
0.15600001 553399.40582392 14335.81228445
0.15700001 546697.57983990 12956.73325372
0.15800001 540060.43579265 15456.53040191
0.15900001 533494.13467686 17925.40377123
0.16000001 526993.66686681 17817.65671780
0.16100001 520564.36469397 16444.62905694
0.16200001 514201.70550925 20115.57166910
0.16300001 507906.61950149 12494.50342957
0.16400001 501679.52702181 16141.53954396
0.16500001 495519.13824476 18507.64068721
0.16600001 489427.07766403 14712.17864919
0.16700001 483400.17946328 12181.68509763
0.16800001 477439.41144263 18154.63447730
0.16900001 471546.98186096 19239.11776836
0.17000001 465719.05034659 17918.54130819
0.17100001 459956.38503647 13053.56282374
0.17200001 454259.69836482 17682.05959385
0.17300001 448627.60403761 16392.85342568
0.17400001 443060.19200970 15119.42976636
0.17500001 437556.33205994 15016.93402551
0.17600001 432114.63233818 14914.43723955
0.17700001 426738.15473827 14812.08205055
0.17800001 421422.63379481 14709.75772738
0.17900001 416169.86992003 11236.58701858
0.18000001 410978.79295895 13389.68970706
0.18100001 405850.39460114 14403.63118477
0.18200001 400779.93230490 13201.69159374
0.18300001 395770.84532641 14200.25860112
0.18400001 390820.88989494 13014.33624831
0.18500001 385931.56085428 12920.98926782
0.18600001 381098.93722007 13896.77340226
0.18700001 376323.99510576 11673.57087970
0.18800001 371606.53691194 12642.05498303
0.18900001 366947.74130793 16732.81779422
0.19000001 362341.22437430 13495.39953946
0.19100001 357794.74448951 10304.48912819
0.19200001 353300.20857285 12273.64982577
0.19300001 348862.01598626 12182.26217388
0.19400001 344476.09547004 10075.92626863
0.19500001 340144.01843733 13000.30499901
0.19600001 335864.36490222 12902.23018743
0.19700001 331636.48091089 12804.48513308
0.19800001 327460.32086977 12707.09835187
0.19900001 323335.32039575 17460.10812653
0.20000001 319258.95089178 10588.22360674
0.20100001 315233.62101678 15282.52666918
0.20200001 311255.66853453 10425.50911031
0.20300001 307327.71606092 10344.65141155
0.20400001 303446.54233512 12130.27610319
0.20500001 299612.06943540 11109.61605978
0.20600001 295824.16726737 9185.34082782
0.20700001 292082.67003551 10935.57568304
0.20800001 288384.83084462 14465.38379895
0.20900001 284734.34040936 16144.43786438
0.21000001 281125.50302590 9787.38485052
0.21100001 277560.95630400 10591.72659327
0.21200001 274038.77786699 11382.20117679
0.21300001 270558.04365100 9553.40497296
0.21400001 267119.82654612 8614.61481338
0.21500001 263723.67067857 11962.50626754
0.21600001 260366.68047562 10169.92302020
0.21700001 257049.79484601 10927.18729554
0.21800001 253772.48443723 9170.06915871
0.21900001 250533.01709580 11574.62593709
0.22000001 247331.57344447 8199.04204736
0.22100001 244169.34219331 12196.25921924
0.22200001 241043.86023040 13706.95976013
0.22300001 237953.99730387 10393.83109371
0.22400001 234899.44792530 8720.64241659
0.22500001 231882.98776987 7860.83365712
0.22600001 228899.09238329 10132.21880348
0.22700001 225952.09040979 7727.56185744
0.22800001 223037.48289429 9193.60547967
0.22900001 220155.64942352 9114.44431716
0.23000001 217308.20138036 9788.64839410
0.23100001 214493.87637085 8210.82597579
0.23200001 211709.80605532 10358.96130020
0.23300001 208958.00600902 11001.63953669
0.23400001 206238.17221844 9450.86468889
0.23500001 203547.06316792 7205.56637694
0.23600001 200887.97817987 9998.19514690
0.23700001 198258.03693037 9201.15592913
0.23800001 195657.75291004 9820.06308303
0.23900001 193085.97539975 7646.20498749
0.24000001 190542.80107477 6888.12258466
0.24100001 188028.97930536 8190.54272596
0.24200001 185542.49371093 7439.32663723
0.24300001 183083.16096484 8041.01280994
0.24400001 180650.88115777 7302.81221625
0.24500001 178245.29766962 7892.70215417
0.24600001 175866.11079789 8470.59162728
0.24700001 173513.33646327 8391.10534831
0.24800001 171186.19452420 7672.56560154
0.24900001 168883.41124753 6333.12822139
0.25000001 166606.87130176 6900.02390139
0.25100001 164353.68714876 8076.34056857
0.25200001 162126.58690893 7998.51554356
0.25300001 159923.48052994 7311.70187575
0.25400001 157743.50335971 7240.42714676
0.25500001 155586.83856317 7169.44186019
0.25600001 153454.12299652 6507.22239354
0.25700001 151343.77756394 7028.40536261
0.25800001 149256.76759838 5798.62569555
0.25900001 147192.26028307 6314.54826491
0.26000001 145149.94356687 7955.66878333
0.26100001 143128.80301573 6749.95466960
0.26200001 141130.69392597 6681.12736659
0.26300001 139153.07771289 9367.78563489
0.26400001 137197.18788138 8180.38271451
0.26500001 135262.96929904 5936.69200345
0.26600001 133348.55564799 5874.67089706
0.26700001 131455.98369046 5812.98387386
0.26800001 129584.21865813 5228.72347028
0.26900001 127731.27766730 6725.05208742
0.27000001 125899.66596188 5629.60382989
0.27100001 124087.45521684 5062.76841243
0.27200001 122296.43533283 7011.25496943
0.27300001 120524.18067048 5944.25287197
0.27400001 118769.57307020 8328.71670570
0.27500001 117037.14504417 5329.87183755
0.27600001 115321.33680871 7187.40265675
0.27700001 113626.39300241 9950.26370613
0.27800001 111949.19459610 5153.58141714
0.27900001 110291.91633950 7411.61712879
0.28000001 108651.85132883 7785.44877544
0.28100001 107030.97175138 7243.85651098
0.28200001 105428.90533548 4923.00296764
0.28300001 103844.58938680 6635.66957588
0.28400001 102277.98854500 5246.86106070
0.28500001 100730.02660308 6049.84568413
0.28600001 99199.52461288  4270.53973672
0.28700001 97686.71237855  4642.07279195
0.28800001 96190.69129789  4586.85333165
0.28900001 94714.31140779  4944.08728951
0.29000001 93253.57087429  6105.77784201
0.29100001 91810.98727330  5629.85000609
0.29200001 90385.54092697  6355.91153884
0.29300001 88977.14221965  4316.28137339
0.29400001 87585.16479721  5038.33684346
0.29500001 86211.23256011  4976.11257892
0.29600001 84853.33782497  4536.25965486
0.29700001 83512.08684308  5226.18664204
0.29800001 82187.40323025  5160.54729312
0.29900001 80880.13823104  4731.48831050
0.30000001 79588.16100438  5390.10845919
0.30100001 78313.88439449  4257.14295722
0.30200001 77054.14350892  4902.95538358
0.30300001 75812.14180114  4839.84736171
0.30400001 74585.87990384  4094.76500057
0.30500001 73375.35684120  4041.51484615
0.30600001 72180.01293612  4985.83462961
0.30700001 71001.69406740  3936.33410546
0.30800001 69838.61105177  4531.82768570
0.30900001 68691.23593221  3832.97114649
0.31000001 67560.00564325  3782.00929497
0.31100001 66442.96891575  3420.48420173
0.31200001 65342.26279649  3374.60132190
0.31300001 64256.32197475  4842.35665328
0.31400001 63186.64387699  4478.35359682
0.31500001 62131.05690029  4123.01713112
0.31600002 61091.10522154  3485.85862899
0.31700002 60065.91379984  3151.65864630
0.31800002 59055.74699535  4238.72644129
0.31900002 58060.50843200  3065.59499036
0.32000002 57080.09549418  3572.92874663
0.32100002 56113.58632955  3523.37225246
0.32200002 55162.96660997  3474.43961644
0.32300002 54225.00818651  2635.33552265
0.32400002 53302.03757147  4157.55912744
0.32500002 52393.40570010  2818.24142606
0.32600002 51499.34911355  2778.64751300
0.32700002 50618.55425695  3984.69277979
0.32800002 49752.70066205  2700.82548333
0.32900002 48899.86756969  2904.65227119
0.33000002 48061.75027659  2624.89261566
0.33100002 47235.02312910  2822.76511587
0.33200002 46424.76941912  3246.48427922
0.33300002 45626.51859051  2514.47755860
0.33400002 44842.11904229  2703.97990630
0.33500002 44070.21122465  2887.48037618
0.33600002 43312.27176392  2846.26607376
0.33700002 42566.37900650  3021.36172496
0.33800002 41834.67030268  3190.93962845
0.33900002 41114.58323821  2725.89699779
0.34000002 40407.94152877  3306.98609133
0.34100002 39713.54108903  3055.95713153
0.34200002 39032.27529138  2008.21065885
0.34300002 38362.34983482  2177.44707975
0.34400002 37706.09020954  2731.80636506
0.34500002 37061.01492985  2115.81344255
0.34600002 36428.96811152  2275.35345601
0.34700002 35807.24748920  2242.96608895
0.34800002 35198.91452844  2579.72856797
0.34900002 34601.43151744  2543.20533698
0.35000002 34015.86324029  2149.12234131
0.35100002 33442.26534497  2825.20271015
0.35200002 32878.82974331  2437.30776431
0.35300002 32326.98408191  1888.21922966
0.35400002 31786.56663770  1692.63475363
0.35500002 31257.34676052  1836.05663568
0.35600002 30737.91579632  1810.61701574
0.35700002 30229.79321953  2110.34196461
0.35800002 29732.66042856  2561.76614386
0.35900002 29246.07453619  1895.14571971
0.36000002 28770.02478820  1557.89691607
0.36100002 28303.33569485  2151.61968144
0.36200002 27847.94940887  1516.32091714
0.36300002 27401.57767133  1645.73883289
0.36400002 26965.21119256  2066.88353581
0.36500002 26538.32317206  1456.95401116
0.36600002 26121.61547451  1725.59399998
0.36700002 25713.73886449  1703.27814307
0.36800002 25316.69352365  1821.66276878
0.36900002 24927.92500140  1660.19988374
0.37000002 24547.86549638  1639.30653550
0.37100002 24176.69594400  2023.58954637
0.37200002 23815.29856807  1732.20582340
0.37300002 23461.93104533  1579.45727279
0.37400002 23117.38470018  1560.42354118
0.37500002 22781.57111822  1670.34487351
0.37600002 22454.43402464  1650.73779552
0.37700002 22134.81525369  1631.55730964
0.37800002 21823.30625839  1736.91702739
0.37900002 21520.49511723  1472.00193575
0.38000002 21225.35988958  1698.24112522
0.38100002 20936.91957934  1199.68554873
0.38200002 20657.23526338  2373.51644420
0.38300002 20384.29742271  1526.37626332
0.38400002 20119.50313410  1742.85204156
0.38500002 19860.93306818  1379.93769495
0.38600002 19610.68020223  1138.40003967
0.38700002 19366.43265880  1465.26436438
0.38800002 19129.54265298  1227.82975335
0.38900002 18898.65389777  1216.12843594
0.39000002 18675.69895827  1095.32979579
0.39100002 18458.20526311  1085.34252089
0.39200002 18247.59762250  1613.54389621
0.39300002 18042.91631262  1172.97004506
0.39400002 17845.79591497  1586.04518709
0.39500002 17653.40441819  1048.61227212
0.39600002 17467.21337961  1040.17260604
0.39700002 17286.62118846  1444.81586738
0.39800002 17112.22513150  1331.41673944
0.39900002 16942.96616971  1118.23582018
0.40000002 16779.17737756  1110.19432379
0.40100002 16621.12066584  1002.25362364
0.40200002 16468.36825810  1393.71807172
0.40300002 16320.35063154  989.01329513
0.40400002 16177.69956783  1769.03153156
0.40500002 16040.21500589  976.84914014
0.40600002 15907.28761867  1262.48194167
0.40700002 15779.30321739  1062.26274293
0.40800002 15655.89948085  1056.53842653
0.40900002 15536.92872022  1051.07327772
0.41000002 15422.91347114  1331.15172477
0.41100002 15312.73082567  946.32680987
0.41200002 15206.67262966  1413.08012107
0.41300002 15105.45956765  1125.65890032
0.41400002 15007.75145807  1214.50234429
0.41500002 14914.28899221  1116.78201265
0.41600002 14824.11370568  1483.59736996
0.41700002 14738.15771869  1201.30729257
0.41800002 14656.78741174  1013.29704572
0.41900002 14577.07025345  1193.86211033
0.42000002 14502.16155796  1373.71731867
0.42100002 14430.93193178  1278.86924839
0.42200002 14362.92943328  911.32791573
0.42300002 14297.63819174  1091.19579850
0.42400002 14235.51805735  1452.02291066
0.42500002 14176.99268667  1087.09185073
0.42600002 14120.45379636  904.41510851
0.42700002 14068.25524483  1445.09124723
0.42800002 14018.06470009  1172.68125806
0.42900002 13971.59086470  901.16765348
0.43000002 13927.27613539  1080.47813378
0.43100002 13884.78044668  1439.57410493
0.43200002 13845.87743854  989.21876047
0.43300002 13809.19578355  1258.57016335
0.43400002 13775.02751246  1078.58470534
0.43500002 13742.98078782  1078.54918334
0.43600002 13713.67611268  988.82466296
0.43700002 13685.90433781  1078.99674913
0.43800002 13660.19393060  1349.28571944
0.43900002 13637.43880123  1440.11360566
0.44000002 13616.15804018  990.77978675
0.44100002 13597.12847955  991.63862701
0.44200002 13579.86669476  902.38218463
0.44300002 13564.47711444  1264.75190609
0.44400002 13551.20169808  1085.45130746
0.44500002 13538.43367016  1086.86550655
0.44600002 13527.87565571  1088.45292684
0.44700002 13519.79547748  1090.23635897
0.44800002 13511.87330329  910.02471010
0.44900002 13507.11590393  1002.90340340
0.45000002 13503.01101321  1096.17448600
0.45100002 13500.05886536  1281.42564823
0.45200002 13498.75373378  917.24035968
0.45300002 13498.35789813  1103.08585971
0.45400002 13499.63899227  1289.89056684
0.45500002 13502.12118955  1108.25415976
0.45600002 13505.66926791  1018.39503941
0.45700002 13510.32487469  1020.97529917
0.45800002 13515.68556502  1209.72149383
0.45900002 13522.09203936  1026.32683443
0.46000002 13530.35069222  1216.31093312
0.46100002 13538.38838011  1876.42071842
0.46200002 13548.21173113  1129.10801919
0.46300002 13558.86921806  943.69734230
0.46400002 13569.59171177  1325.07069346
0.46500002 13581.70765719  1234.16983330
0.46600002 13594.20475265  1047.50149686
0.46700002 13607.17756462  1241.79108340
0.46800002 13621.84472818  1149.95618646
0.46900002 13636.08899373  1249.74761551
0.47000002 13651.28206551  1253.80206073
0.47100002 13667.02958897  1257.91346299
0.47200002 13683.54361598  1553.35594491
0.47300002 13700.66510318  1071.52906851
0.47400002 13717.53427050  1172.84923572
0.47500002 13735.24798957  1078.76642823
0.47600002 13753.80786055  984.08499907
0.47700002 13771.96365430  1086.19482490
