# SAXS profile: number of points = 501, q_min = 0, q_max = 0.5, delta_q = 0.001
#    q    intensity    error
0.00000000 1664650.74656090 374.54641798
0.00100000 1664564.26262149 649.18007784
0.00200000 1664304.78734303 898.72461362
0.00300000 1663872.52702906 1597.31768285
0.00400000 1663267.36282812 1496.94068343
0.00500000 1662489.95255599 2094.73742313
0.00600000 1661540.12972587 2093.54064869
0.00700000 1660418.65842790 2590.25321480
0.00800000 1659125.31489693 3583.71083148
0.00900000 1657661.50116418 3481.08930125
0.01000000 1656026.60057154 3005.68840982
0.01100000 1654222.22953954 2977.60014281
0.01200000 1652248.20317344 4188.44937868
0.01300000 1650105.99362030 4158.26728732
0.01400000 1647795.63337789 4819.80244130
0.01500000 1645318.86790257 5133.39509644
0.01600000 1642675.12584411 5026.58610979
0.01700000 1639866.81129806 4870.40464804
0.01800000 1636894.27580316 6064.69356475
0.01900000 1633758.57040975 7351.91389858
0.02000000 1630460.50621317 7190.33115766
0.02100000 1627002.75171270 8590.57491853
0.02200000 1623383.94878496 6720.80985331
0.02300000 1619607.27457060 9911.99697155
0.02400000 1615673.25092787 6664.65246397
0.02500000 1611584.38704704 9427.76909480
0.02600000 1607340.81199270 7160.70364495
0.02700000 1602944.78177506 8078.84207017
0.02800000 1598396.58124334 9038.93308145
0.02900000 1593699.59284028 8605.97819647
0.03000000 1588854.51593201 9604.62599029
0.03100000 1583862.88074583 9123.05061288
0.03200000 1578726.00905223 9377.63292569
0.03300000 1573448.03951680 10431.96098291
0.03400000 1568027.26867642 14817.85837269
0.03500000 1562468.14353116 10968.52687409
0.03600000 1556770.95709737 11232.10297453
0.03700000 1550939.00684028 11492.45857218
0.03800000 1544973.70548889 12653.33523354
0.03900000 1538877.44883201 9233.26512058
0.04000000 1532650.55437530 12253.54175005
0.04100000 1526296.97827237 12500.37283165
0.04200000 1519818.31769568 12743.67718509
0.04300000 1513216.31730996 11984.67378940
0.04400000 1506494.03515626 12202.60225148
0.04500000 1499653.47306968 10347.60944498
0.04600000 1492695.43499291 14732.90462827
0.04700000 1485623.95963959 11766.14230756
0.04800000 1478440.82383845 14126.50272906
0.04900000 1471148.39875303 14343.69755551
0.05000000 1463748.49808010 13437.21183809
0.05100000 1456245.03087884 12494.58294699
0.05200000 1448637.44190429 11516.66819983
0.05300000 1440931.02171128 17507.31272995
0.05400000 1433126.82655005 16552.61561857
0.05500000 1425228.37384555 16760.68645830
0.05600000 1417236.53435506 13329.11022760
0.05700000 1409156.08264845 17163.52188783
0.05800000 1400986.66472177 18598.09884257
0.05900000 1392732.16693909 12534.59008789
0.06000000 1384396.19134132 12667.22574257
0.06100000 1375980.28556271 17915.26415523
0.06200000 1367487.15464097 15507.30505849
0.06300000 1358920.16891788 19568.45134735
0.06400000 1350278.60364892 19747.82550191
0.06500000 1341568.81824190 21250.45107500
0.06600000 1332792.37431340 13394.56398856
0.06700000 1323950.21312252 13504.29280584
0.06800000 1315046.65319603 17693.95354699
0.06900000 1306085.28297606 17828.06494731
0.07000000 1297065.52613225 13813.74850019
0.07100000 1287991.89183842 19474.43831674
0.07200000 1278866.46927674 21005.38274191
0.07300000 1269692.63305586 14093.58888728
0.07400000 1260473.06316994 15598.35488773
0.07500000 1251208.56332583 18542.91177764
0.07600000 1241902.33306445 15778.36988128
0.07700000 1232558.39433862 17305.12066793
0.07800000 1223177.59162903 15944.12065460
0.07900000 1213762.09186271 16021.66036406
0.08000000 1204317.27288401 16095.70110716
0.08100000 1194843.56366977 17635.89182721
0.08200000 1185342.30675422 19184.76613507
0.08300000 1175817.37170915 16296.82953673
0.08400000 1166271.34658947 17843.95244039
0.08500000 1156706.32732295 16413.66355525
0.08600000 1147124.94143581 25448.96802062
0.08700000 1137529.08525764 16516.92309354
0.08800000 1127920.79467471 24092.38930572
0.08900000 1118303.66008680 22645.65018042
0.09000000 1108679.19024335 15133.47165772
0.09100000 1099049.54494584 18200.26131937
0.09200000 1089416.67229473 21276.30860962
0.09300000 1079784.75138261 16747.46228094
0.09400000 1070152.62623427 27449.41615296
0.09500000 1060524.65180809 18325.86684461
0.09600000 1050902.16405668 18348.75264696
0.09700000 1041290.11264267 19899.05498811
0.09800000 1031687.27029776 16852.61235268
0.09900000 1022097.56942979 19930.90354108
0.10000000 1012520.33347832 23009.52566037
0.10100000 1002960.00868496 19948.87551098
0.10200000 993417.98736116 18417.97035199
0.10300000 983895.66713592 23023.15969401
0.10400000 974396.02364734 16881.41190388
0.10500000 964921.73761463 18410.70761990
0.10600001 955469.94418691 18402.35199094
0.10700001 946047.88067399 19923.76930456
0.10800001 936653.61797833 19908.57358706
0.10900001 927291.30741022 15300.30729239
0.11000001 917961.56473799 18340.87292676
0.11100001 908665.41640238 19845.25362841
0.11200001 899405.73097696 22867.39178662
0.11300001 890182.75040892 15222.12574866
0.11400001 880998.96951112 16716.95623358
0.11500001 871856.14996485 21238.41681322
0.11600001 862754.99261391 18169.62100008
0.11700001 853697.11464633 16621.48360495
0.11800001 844683.22757137 21108.63485119
0.11900001 835714.77132335 16547.15325160
0.12000001 826793.27012029 15006.29855955
0.12100001 817921.81996684 20955.15801471
0.12200001 809099.05665483 16420.66612841
0.12300001 800327.58780307 23817.75013518
0.12400001 791607.75922535 20779.70465875
0.12500001 782940.04056717 22196.35119598
0.12600001 774327.96340888 22126.42259708
0.12700001 765770.47221675 20583.91126323
0.12800001 757268.53257836 19049.09083478
0.12900001 748823.98421101 16062.27521837
0.13000001 740437.41247893 18914.47459331
0.13100001 732108.87106069 15945.33196333
0.13200001 723839.60856957 23104.96139472
0.13300001 715631.91064915 15822.62229038
0.13400001 707484.14779792 24355.14293618
0.13500001 699398.79202258 17121.28323595
0.13600001 691375.30595256 14207.76320723
0.13700001 683415.25429097 16976.03571706
0.13800001 675517.75342325 15493.00040535
0.13900001 667685.53735065 15423.53664015
0.14000001 659917.62416766 22331.61345501
0.14100001 652214.69667159 13892.17369430
0.14200001 644577.05613121 17974.03205797
0.14300001 637006.65143963 17887.14761612
0.14400001 629500.16206442 20537.44375610
0.14500001 622062.03856501 14985.47521593
0.14600001 614690.26088647 14909.31298114
0.14700001 607387.61979588 17529.20753428
0.14800001 600149.56006424 17437.34629034
0.14900001 592980.67803133 24015.71859335
0.15000001 585878.91216114 15924.18958389
0.15100001 578845.64950578 18476.75400405
0.15200001 571880.58918160 14437.12615513
0.15300001 564984.71815445 16966.49188681
0.15400001 558154.75933993 18167.93827388
0.15500001 551394.91125054 14192.90568539
0.15600001 544700.85824314 14110.47639873
0.15700001 538078.48757346 15302.95290884
0.15800001 531520.48151729 15212.11689902
0.15900001 525032.87491664 16381.02647059
0.16000001 518610.90733111 13776.89940355
0.16100001 512260.00285017 12447.91865685
0.16200001 505975.09765798 18556.63758259
0.16300001 499757.60641690 18441.05654735
0.16400001 493607.57706593 15881.82454187
0.16500001 487523.87350250 14567.21402799
0.16600001 481508.16718121 15680.31420457
0.16700001 475557.22389116 16777.65965103
0.16800001 469672.08615121 14287.42553532
0.16900001 463854.98337374 13011.13289799
0.17000001 458101.77489491 14100.37329708
0.17100001 452413.69536024 15173.95605892
0.17200001 446791.04541800 11594.22817611
0.17300001 441232.48850450 11516.16849381
0.17400001 435738.19387725 14869.56656829
0.17500001 430307.05613897 15904.14954601
0.17600001 424937.92551568 14666.73319187
0.17700001 419633.18470626 14565.46852909
0.17800001 414388.92979640 14464.24627772
0.17900001 409207.38439222 13258.31988055
0.18000001 404086.77511799 17553.53034027
0.18100001 399028.41597238 13072.17152474
0.18200001 394027.72313341 12979.27381313
0.18300001 389087.68365489 11812.70263379
0.18400001 384206.46763886 12794.07597678
0.18500001 379385.32451358 12701.82126478
0.18600001 374620.39075647 15762.15368574
0.18700001 369912.80052398 14604.15805466
0.18800001 365262.06813567 12426.21614507
0.18900001 360669.62457940 15418.62717926
0.19000001 356128.89242132 12243.71189995
0.19100001 351647.66428266 10127.45320986
0.19200001 347217.83595731 13067.54387371
0.19300001 342844.05070905 10974.43858177
0.19400001 338521.76612182 10891.93833966
0.19500001 334253.17960532 11792.45273373
0.19600001 330036.20176035 13653.59831204
0.19700001 325870.61783828 12581.86514932
0.19800001 321756.23615589 10564.86651346
0.19900001 317692.41047944 15249.23642369
0.20000001 313676.77960703 11348.82642254
0.20100001 309711.68400878 10322.69091589
0.20200001 305793.40483115 11173.69154064
0.20300001 301924.39239568 9238.88684398
0.20400001 298101.93628139 10999.96196870
0.20500001 294325.66707062 9094.66354236
0.20600001 290595.32438311 9925.28377345
0.20700001 286910.80072120 9846.77914620
0.20800001 283269.59638180 15984.90407943
0.20900001 279675.11363369 9690.74314550
0.21000001 276121.76638588 9613.17975116
0.21100001 272612.08103934 8669.06458687
0.21200001 269144.33856840 10318.99442854
0.21300001 265717.43978808 8529.53022044
0.21400001 262332.59554652 8460.22660635
0.21500001 258989.26632072 11747.75367571
0.21600001 255684.56415939 9987.03954824
0.21700001 252419.71104935 11555.77491819
0.21800001 249193.48116722 8186.00624338
0.21900001 246004.71569771 9741.78720224
0.22000001 242853.47410497 10465.77096140
0.22100001 239740.87326175 9580.04574852
0.22200001 236664.68888751 9499.72106113
0.22300001 233623.27141446 8634.71651977
0.22400001 230617.06817273 7783.32641887
0.22500001 227648.03074002 10032.44918912
0.22600001 224711.18605481 10711.98274578
0.22700001 221810.71862249 9103.11232275
0.22800001 218942.23914827 11280.99940559
0.22900001 216106.02984232 11183.48757322
0.23000001 213303.57480605 10347.35690319
0.23100001 210533.65485828 8059.22868912
0.23200001 207793.64474928 8714.86587294
0.23300001 205085.36684269 10797.74507494
0.23400001 202408.51367490 8561.88053339
0.23500001 199760.00860680 7071.50463914
0.23600001 197142.91978409 9811.80358172
0.23700001 194554.55694825 9029.27741503
0.23800001 191995.19184427 7571.33074849
0.23900001 189464.10910460 9548.99155053
0.24000001 186960.94245626 8110.36606738
0.24100001 184486.68052033 9375.61354752
0.24200001 182039.31861244 8625.93352047
0.24300001 179618.74133997 8546.26011722
0.24400001 177224.53475281 8466.90254833
0.24500001 174856.67809468 10323.53876306
0.24600001 172514.74086732 8948.34003209
0.24700001 170198.83423166 7597.67631952
0.24800001 167908.02333750 6898.50146517
0.24900001 165641.06710172 7453.84837220
0.25000001 163399.82039310 7997.60458749
0.25100001 161181.64677120 6092.66653619
0.25200001 158989.27117817 6637.00743933
0.25300001 156820.12938577 7767.30137595
0.25400001 154673.90413459 10649.29880350
0.25500001 152550.56976648 8786.91323427
0.25600001 150450.60288588 8699.80652349
0.25700001 148372.64202815 6316.22366998
0.25800001 146317.62152874 6252.88385188
0.25900001 144284.62021785 7315.23059116
0.26000001 142273.54568792 5570.00957723
0.26100001 140283.14861447 5513.12800141
0.26200001 138315.52212588 6002.20236666
0.26300001 136367.81891933 7020.21565015
0.26400001 134441.55201203 7481.67272349
0.26500001 132536.56525695 6345.85104478
0.26600001 130650.91831376 7325.59733650
0.26700001 128786.78519071 6212.67481158
0.26800001 126943.04725702 5122.15219921
0.26900001 125117.90532209 7094.18556747
0.27000001 123313.69427925 6015.24229160
0.27100001 121528.39263170 7933.37384643
0.27200001 119764.13354238 5885.20980078
0.27300001 118018.12173796 7275.81754947
0.27400001 116289.46888780 4796.94081864
0.27500001 114582.62867188 4743.72105151
0.27600001 112892.12131375 7974.13536638
0.27700001 111222.21999985 5101.76347284
0.27800001 109569.75255698 4585.49436153
0.27900001 107936.69928900 5440.00990163
0.28000001 106320.66411506 8066.54916819
0.28100001 104723.52644091 4872.78591592
0.28200001 103144.86044862 5254.19943993
0.28300001 101583.63427895 5625.70193263
0.28400001 100039.87167398 4704.37518813
0.28500001 98514.40319265  6339.40214550
0.28600001 97006.19409762  4593.72853892
0.28700001 95515.30520053  6602.01820795
0.28800001 94041.09179091  5707.35413094
0.28900001 92586.10270219  5235.74435564
0.29000001 91146.53325627  5967.81954744
0.29100001 89724.90223891  4322.94599450
0.29200001 88320.06139431  4658.00025842
0.29300001 86932.15198311  3833.70808393
0.29400001 85560.28175394  4543.25117620
0.29500001 84206.26492422  4860.38584150
0.29600001 82867.96276463  4430.12149911
0.29700001 81546.29419321  4009.63147529
0.29800001 80240.90985100  4678.44647033
0.29900001 78952.61941156  4974.01525839
0.30000001 77679.53133576  4208.67720701
0.30100001 76423.78161189  3461.99747091
0.30200001 75182.35940900  4783.85375567
0.30300001 73958.55061485  4721.51409477
0.30400001 72750.24612910  5325.31826876
0.30500001 71557.69007961  3941.39775618
0.30600001 70379.86378057  3240.99288053
0.30700001 69219.01763153  3837.50251917
0.30800001 68073.15059460  3786.22881533
0.30900001 66942.92968083  3735.41565304
0.31000001 65828.46954483  3685.07789959
0.31100001 64728.21385279  4240.99277243
0.31200001 63644.12457241  3286.90096916
0.31300001 62574.63206422  3831.44490270
0.31400001 61521.17082434  3197.56300499
0.31500001 60481.71185932  3153.51660566
0.31600002 59457.76806700  3675.38210708
0.31700002 58448.41247660  3624.38622928
0.31800002 57453.95214356  2749.17174024
0.31900002 56474.25305138  2981.84070230
0.32000002 55509.19639911  3741.87510644
0.32100002 54557.96540137  3162.17982439
0.32200002 53622.54943135  3377.41643586
0.32300002 52699.55064272  3073.43793901
0.32400002 51791.70091949  2777.33009332
0.32500002 50897.92388901  3733.36289404
0.32600002 50018.46263656  2453.40570850
0.32700002 49152.29881039  4111.09846717
0.32800002 48301.02094618  3098.75214554
0.32900002 47462.56268199  2819.27635681
0.33000002 46638.76309504  2778.73763679
0.33100002 45826.26605025  2738.57778885
0.33200002 45030.09383143  2474.17862273
0.33300002 44245.98610180  3546.75841388
0.33400002 43475.51105128  2840.03789392
0.33500002 42717.47588999  2152.96088681
0.33600002 41973.28749702  3394.79965352
0.33700002 41241.26423276  2300.02541518
0.33800002 40523.11624603  2472.72067043
0.33900002 39816.61397046  2436.77689039
0.34000002 39123.54391087  3001.75404872
0.34100002 38442.55374595  2366.52372068
0.34200002 37774.69027944  3692.66502315
0.34300002 37118.15837421  2489.88618166
0.34400002 36475.19210531  3397.66430552
0.34500002 35843.26867135  2418.34545179
0.34600002 35224.41380200  2016.77390775
0.34700002 34615.83024427  2529.72499406
0.34800002 34020.53574286  1959.07264354
0.34900002 33436.09091328  1930.93434169
0.35000002 32863.46953173  2422.36645391
0.35100002 32302.78466373  2217.26324433
0.35200002 31752.24071858  1849.40934825
0.35300002 31213.30634369  1823.16930989
0.35400002 30685.68337082  2614.42034702
0.35500002 30169.19617736  2416.55272826
0.35600002 29662.56823358  1588.43060414
0.35700002 29167.18540026  1722.90572320
0.35800002 28682.69901267  2162.38878099
0.35900002 28208.69138803  3046.53881421
0.36000002 27745.26145260  1802.88717459
0.36100002 27291.13932888  1926.48161648
0.36200002 26848.35303581  1461.89289204
0.36300002 26414.51052782  1730.67881176
0.36400002 25990.61556381  2276.77803123
0.36500002 25576.22166725  1684.96156325
0.36600002 25171.90283797  1524.28464856
0.36700002 24776.58020048  1641.20075022
0.36800002 24391.84847486  1755.11554015
0.36900002 24015.46170900  1732.71564438
0.37000002 23647.75897473  1973.99677392
0.37100002 23289.09107396  1299.53134349
0.37200002 22939.91307702  1411.83701720
0.37300002 22598.87552788  1267.79697717
0.37400002 22266.55877289  1252.49399031
0.37500002 21943.10414733  1361.35024579
0.37600002 21628.12284136  1467.68448554
0.37700002 21320.69912159  1329.77206721
0.37800002 21021.43929596  1792.60332088
0.37900002 20730.79977923  1417.98677207
0.38000002 20447.82358809  1402.31180810
0.38100002 20171.58152941  1502.58117931
0.38200002 19903.95747483  1257.83065221
0.38300002 19643.16195312  1470.88003673
0.38400002 19390.49885908  1679.70204324
0.38500002 19144.00690303  1551.81327308
0.38600002 18905.77021881  1426.72401715
0.38700002 18673.64362504  1195.48672151
0.38800002 18448.71426841  1291.77903427
0.38900002 18229.84942160  1386.38011419
0.39000002 18018.84240681  1479.52722012
0.39100002 17813.32529166  1466.39300748
0.39200002 17614.66792308  1765.25402954
0.39300002 17421.89744080  1235.56102504
0.39400002 17236.66796275  1531.90893777
0.39500002 17056.08381211  1215.75771173
0.39600002 16881.72328482  1407.42933694
0.39700002 16712.99614928  1197.31910086
0.39800002 16550.27974236  1287.69457636
0.39900002 16392.86979400  1081.92945766
0.40000002 16240.86643657  1172.26579493
0.40100002 16094.52822492  1164.60011753
0.40200002 15953.41534876  964.38400352
0.40300002 15817.00918001  1246.06404224
0.40400002 15686.00716526  1334.09497262
0.40500002 15560.05819504  947.60758898
0.40600002 15438.81165327  1036.79344570
0.40700002 15322.25051958  1125.26613147
0.40800002 15210.31826202  933.15306959
0.40900002 15102.78380661  1486.11399698
0.41000002 15000.15504236  1017.23556240
0.41100002 14901.36532910  1473.44707356
0.41200002 14806.63645436  1284.17964053
0.41300002 14716.75420929  1005.30152767
0.41400002 14630.26641958  1183.95436610
0.41500002 14547.99167739  1180.13314079
0.41600002 14468.99954517  1448.05754309
0.41700002 14394.16006072  1083.01665429
0.41800002 14323.88348521  990.28173167
0.41900002 14255.20175590  987.88552849
0.42000002 14191.17647785  985.79012075
0.42100002 14130.85296217  983.93133838
0.42200002 14073.72077510  982.27538804
0.42300002 14019.28047946  1248.27679304
0.42400002 13967.91041906  1424.72693026
0.42500002 13920.07323204  889.49272168
0.42600002 13874.18999178  888.64191108
0.42700002 13832.57372995  1065.66153065
0.42800002 13792.82775884  976.32535917
0.42900002 13756.85966028  1064.78098816
0.43000002 13722.96676253  887.18984324
0.43100002 13690.78534729  887.16293255
0.43200002 13662.17809418  1153.56606205
0.43300002 13635.69659329  1153.98905738
0.43400002 13611.61678113  1243.42125188
0.43500002 13589.64401715  1066.51531301
0.43600002 13570.34101969  978.48948559
0.43700002 13552.45428065  979.43591728
0.43800002 13536.66483824  1247.94519058
0.43900002 13523.64605240  981.81674993
0.44000002 13511.99689014  983.20050030
0.44100002 13502.62486216  1074.26888494
0.44200002 13494.86416469  1076.08051949
0.44300002 13488.95579761  988.20094856
0.44400002 13485.07757664  990.14186799
0.44500002 13481.55329437  1352.87393720
0.44600002 13480.16560446  994.22966127
0.44700002 13481.22610870  905.93843744
0.44800002 13482.36041890  998.84071897
0.44900002 13486.44074162  910.33479320
0.45000002 13491.24828521  1003.95128872
0.45100002 13497.05081592  1006.61009756
0.45200002 13504.41219012  1009.38733699
0.45300002 13512.62312127  920.20967817
0.45400002 13522.42859812  1292.06811379
0.45500002 13533.24837625  1481.07877249
0.45600002 13545.03355895  1114.21451337
0.45700002 13557.89313484  1024.57003276
0.45800002 13571.29568361  1027.82212731
0.45900002 13585.75588328  1781.09268071
0.46000002 13601.86006564  1504.90986899
0.46100002 13617.64658610  1132.44354377
0.46200002 13635.17710376  1325.74833263
0.46300002 13653.36992939  1235.35696976
0.46400002 13671.56989635  1239.66965911
0.46500002 13691.05889436  957.00506207
0.46600002 13710.81255832  1536.70794437
0.46700002 13730.98517375  963.91520488
0.46800002 13752.64400768  1257.74811733
0.46900002 13773.80074977  1262.36889855
0.47000002 13795.77402828  1072.13862942
0.47100002 13818.24927432  978.33209499
0.47200002 13841.36951038  1571.27234129
0.47300002 13864.96528677  1380.11871006
0.47400002 13888.18419982  1088.48648825
0.47500002 13912.13604230  1191.99187260
0.47600002 13936.87195197  1296.33820606
0.47700002 13961.02992726  1101.10648255
