# SAXS profile: number of points = 501, q_min = 0, q_max = 0.5, delta_q = 0.001
#    q    intensity    error
0.00000000 1646666.22097350 246.99993315
0.00100000 1646580.12524138 543.37145423
0.00200000 1646321.80885434 963.09828868
0.00300000 1645891.49080590 987.53492966
0.00400000 1645289.02720611 1974.34690767
0.00500000 1644515.10153331 1480.06364996
0.00600000 1643569.52650575 2243.47249502
0.00700000 1642453.08481514 1970.94378369
0.00800000 1641165.53880695 2880.24564221
0.00900000 1639708.27745602 5165.08129478
0.01000000 1638080.73461412 3513.68332747
0.01100000 1636284.45896690 4123.43701613
0.01200000 1634319.30569701 3824.30734300
0.01300000 1632186.74257096 4455.87000374
0.01400000 1629886.80087679 4033.97001100
0.01500000 1627421.19064314 4296.39213461
0.01600000 1624789.40129707 4971.85579023
0.01700000 1621993.78898343 6131.13679739
0.01800000 1619034.71402815 6459.94879965
0.01900000 1615913.22400804 5332.51387984
0.02000000 1612630.14686903 5079.78519242
0.02100000 1609188.06335861 7434.44918978
0.02200000 1605585.74054214 8862.83369045
0.02300000 1601826.31031370 6919.88997554
0.02400000 1597910.27318972 5992.16379769
0.02500000 1593840.08903769 6837.57429425
0.02600000 1589616.01861896 10944.50678877
0.02700000 1585240.16364682 7323.80989149
0.02800000 1580712.91895486 11689.37257174
0.02900000 1576037.61142529 9219.82045016
0.03000000 1571214.90203325 8767.37955634
0.03100000 1566246.47579073 12780.57183053
0.03200000 1561133.47479896 11591.41658426
0.03300000 1555879.99503906 9521.98600861
0.03400000 1550484.52097460 8954.04852177
0.03500000 1544951.47829796 10011.28604167
0.03600000 1539281.00236963 11960.21394114
0.03700000 1533476.49622125 9614.89807597
0.03800000 1527539.34146944 10723.32667339
0.03900000 1521471.91456903 13693.24786526
0.04000000 1515274.54045484 11182.72662675
0.04100000 1508951.32891885 9506.39381297
0.04200000 1502503.59458337 10660.26349813
0.04300000 1495933.19859051 13822.42339659
0.04400000 1489243.21777963 12062.87062424
0.04500000 1482435.67653810 11251.68730773
0.04600000 1475511.31667176 12482.82631933
0.04700000 1468474.27286322 16916.82441015
0.04800000 1461326.10385531 10740.74736308
0.04900000 1454069.31360723 10905.52035968
0.05000000 1446705.81689325 13280.76001751
0.05100000 1439239.44110196 13471.28179626
0.05200000 1431669.37740356 15934.48091307
0.05300000 1424001.31251374 12687.85228598
0.05400000 1416236.01898248 12852.34247162
0.05500000 1408377.05894068 13013.40463168
0.05600000 1400425.37351227 17960.45625340
0.05700000 1392385.73462210 15747.88339366
0.05800000 1384257.75170645 12250.68167462
0.05900000 1376045.40735990 16099.73201806
0.06000000 1367752.12286697 15017.91901070
0.06100000 1359379.43036298 20227.56686906
0.06200000 1350930.13232382 17872.80648608
0.06300000 1342407.51263220 12887.11272381
0.06400000 1333810.95795246 14305.12319304
0.06500000 1325147.00482537 14430.85155759
0.06600000 1316416.79678439 14552.98836936
0.06700000 1307621.36521576 14671.51240433
0.06800000 1298765.05088293 16130.66268703
0.06900000 1289851.54981282 14897.78609784
0.07000000 1280880.33214995 15005.51379382
0.07100000 1271855.81536880 16483.25213922
0.07200000 1262779.92595349 19358.41717175
0.07300000 1253656.18408985 13915.58429542
0.07400000 1244487.16429033 16800.57750526
0.07500000 1235273.89847532 14082.12310268
0.07600000 1226019.27345976 18408.68025401
0.07700000 1216727.48347541 27047.85322589
0.07800000 1207399.45502671 15738.45263435
0.07900000 1198037.03707842 24439.95670272
0.08000000 1188645.97220591 14442.04923979
0.08100000 1179226.41721976 17405.38273479
0.08200000 1169779.81624215 20389.26315387
0.08300000 1160309.92131921 24853.83968110
0.08400000 1150819.68669017 17607.54203283
0.08500000 1141310.67890245 16195.19929391
0.08600000 1131785.86806768 22154.70940762
0.08700000 1122246.92551998 17776.39213497
0.08800000 1112696.02296485 25252.63742715
0.08900000 1103136.69665006 23827.75376682
0.09000000 1093570.56461070 14927.23890815
0.09100000 1083999.47768232 14959.19349482
0.09200000 1074425.86390393 19484.71395742
0.09300000 1064853.45606738 25524.53854139
0.09400000 1055281.26901760 21052.86230633
0.09500000 1045713.59376650 16564.10410382
0.09600000 1036151.77471789 21106.41264317
0.09700000 1026600.87659747 24145.65375273
0.09800000 1017059.57757441 15103.33543710
0.09900000 1007531.59797850 24180.75948852
0.10000000 998016.69071222 16631.94893287
0.10100000 988518.94060997 18149.20860319
0.10200000 979039.58359968 18151.39473371
0.10300000 969580.78495814 25713.28362666
0.10400000 960144.68057585 16634.50737355
0.10500000 950734.28995262 16628.34351362
0.10600001 941346.62851360 15108.61409856
0.10700001 931989.22155680 18117.87131965
0.10800001 922659.65287567 16594.03463791
0.10900001 913362.57304709 19591.62811395
0.11000001 904098.26501424 15053.23682104
0.11100001 894867.83165662 16537.15830747
0.11200001 885674.22480645 16513.39669892
0.11300001 876517.56821137 14988.45112208
0.11400001 867400.31782373 19451.45304306
0.11500001 858324.15780157 16428.32515390
0.11600001 849290.17933366 17886.05201905
0.11700001 840299.63133475 22309.95626262
0.11800001 831353.34181974 20775.52099057
0.11900001 822452.58038037 16284.56185856
0.12000001 813599.04170248 20673.55262349
0.12100001 804795.77300383 17673.31600772
0.12200001 796041.54385808 20561.75404654
0.12300001 787338.61434917 16108.94880855
0.12400001 778687.62906740 20440.55122613
0.12500001 770088.93561798 14554.68156900
0.12600001 761546.16176899 15958.20057187
0.12700001 753057.85235378 17350.45373590
0.12800001 744625.63343248 14408.50668598
0.12900001 736250.67526012 15792.57772867
0.13000001 727933.96626657 15734.29342249
0.13100001 719675.43004387 15674.53160522
0.13200001 711476.36331812 14193.95411730
0.13300001 703338.86792287 15550.82310289
0.13400001 695261.54606836 14079.04697165
0.13500001 687246.65867049 16823.79899747
0.13600001 679293.85600023 15355.43833891
0.13700001 671404.64176735 16677.69208791
0.13800001 663578.10664382 15219.16459355
0.13900001 655816.71975566 16526.58211721
0.14000001 648119.74801122 15078.50664859
0.14100001 640487.94821238 19099.35151648
0.14200001 632921.53942150 25794.71855574
0.14300001 625422.30780327 17561.85923147
0.14400001 617987.03655065 18817.70615060
0.14500001 610620.41624216 18721.62284512
0.14600001 603320.00826164 15963.84817169
0.14700001 596088.98756172 15879.81137780
0.14800001 588922.33487585 19743.62220819
0.14900001 581824.85702613 18327.48386103
0.15000001 574794.83738113 14321.01404906
0.15100001 567833.14330154 15535.91553379
0.15200001 560939.67800204 15448.27946113
0.15300001 554115.42635121 15360.08034328
0.15400001 547357.06932701 13998.65770865
0.15500001 540668.82732409 18977.47673468
0.15600001 534046.22644823 15092.14707170
0.15700001 527495.37741730 26253.44617314
0.15800001 521008.91699784 21124.30753672
0.15900001 514592.89519019 14820.27608100
0.16000001 508242.43190199 14728.86637176
0.16100001 501962.96781193 13417.47076297
0.16200001 495749.33576905 16969.50056444
0.16300001 489603.23084590 12044.24004739
0.16400001 483524.39051357 13163.95215320
0.16500001 477511.99194175 14268.05899283
0.16600001 471567.39033244 12994.04005410
0.16700001 465687.50402255 16429.45591763
0.16800001 459873.30653046 11657.78887099
0.16900001 454127.11083803 16212.33862243
0.17000001 448444.60323045 18404.16738562
0.17100001 442827.26913862 13709.93289993
0.17200001 437275.23441378 12482.02215578
0.17300001 431787.21351603 14650.54084646
0.17400001 426363.14604632 17907.25297963
0.17500001 421002.43821289 14448.80436185
0.17600001 415703.46582994 11036.92753905
0.17700001 410468.71591462 13151.41827905
0.17800001 405294.36685010 15235.01596948
0.17900001 400182.41204892 15126.89588995
0.18000001 395131.57445217 11800.60502842
0.18100001 390142.74865295 11715.98729547
0.18200001 385211.29984960 10574.05068037
0.18300001 380340.35309236 10497.39424124
0.18400001 375528.16680661 19799.72353023
0.18500001 370775.80457518 11379.10997999
0.18600001 366079.48914675 15402.79523353
0.18700001 361440.45760572 12231.14566324
0.18800001 356858.08522483 12140.31263293
0.18900001 352333.59836484 11045.65883062
0.19000001 347860.93284284 9966.21619684
0.19100001 343447.40527480 13847.80003499
0.19200001 339085.11573327 10798.16602075
0.19300001 334778.75029497 9742.06209392
0.19400001 330523.54649041 13534.93986836
0.19500001 326321.97593091 12472.02650945
0.19600001 322171.75765953 13328.24624422
0.19700001 318072.59741384 10391.43224858
0.19800001 314024.52405548 12185.72223186
0.19900001 310026.72324186 13951.20320522
0.20000001 306077.02959625 10151.04516631
0.20100001 302177.51898197 10987.17510946
0.20200001 298324.62998652 9992.38395367
0.20300001 294520.90937859 9913.57427824
0.20400001 290763.26045196 9835.06774965
0.20500001 287051.63674474 13304.84399200
0.20600001 283385.73722106 10558.95306796
0.20700001 279765.38270714 10474.41642367
0.20800001 276188.21376165 12987.75136608
0.20900001 272657.21652756 9447.57299928
0.21000001 269167.32926188 9371.06101124
0.21100001 265720.85694560 9294.91601536
0.21200001 262316.01626152 9219.09682734
0.21300001 258951.72786626 9143.58594323
0.21400001 255629.32087356 10717.25978430
0.21500001 252347.95890999 8176.07425523
0.21600001 249105.11741238 11351.72073718
0.21700001 245901.74437595 10453.28364765
0.21800001 242736.83033088 11960.85788007
0.21900001 239608.91912791 8697.80417559
0.22000001 236518.41028152 8624.64423871
0.22100001 233466.23018816 8551.86841615
0.22200001 230450.09397491 7708.55600796
0.22300001 227468.39398071 10700.11375881
0.22400001 224521.81715615 9093.13402481
0.22500001 221611.97809858 7512.64641279
0.22600001 218733.98013145 9682.26008838
0.22700001 215892.05497851 8860.21035531
0.22800001 213082.05337713 11710.99020742
0.22900001 210303.73320042 7255.47913853
0.23000001 207558.97121169 10068.68616965
0.23100001 204846.41589226 7841.52117120
0.23200001 202163.48902465 9185.29855824
0.23300001 199511.92246986 7002.86880989
0.23400001 196891.54515015 7634.47002427
0.23500001 194299.19155509 8253.83004763
0.23600001 191737.84716112 8179.53694676
0.23700001 189205.03309276 11482.85400151
0.23800001 186700.87072995 7362.54918547
0.23900001 184224.57031157 7295.29332940
0.24000001 181775.98132366 10513.92325707
0.24100001 179355.90462029 7161.68161024
0.24200001 176962.40971306 8385.36418090
0.24300001 174595.54381187 7668.23664695
0.24400001 172254.47791650 10128.56378061
0.24500001 169939.48312329 8151.99739105
0.24600001 167650.24637178 6832.58611410
0.24700001 165386.55283943 6767.61806234
0.24800001 163147.54701270 7312.27340303
0.24900001 160932.18446643 6638.45292329
0.25000001 158742.22328835 7171.97398746
0.25100001 156574.91871865 6510.38542832
0.25200001 154433.11058004 8791.10523567
0.25300001 152314.19936878 6383.48839755
0.25400001 150217.91359901 6895.00256041
0.25500001 148144.18455641 6257.61065172
0.25600001 146093.43380832 6758.28256773
0.25700001 144064.26432844 7247.87348129
0.25800001 142057.86207623 8278.42230418
0.25900001 140073.13203749 6555.42288952
0.26000001 138109.84571170 5947.70078699
0.26100001 136166.99200651 5351.36303906
0.26200001 134246.55211998 9003.24544393
0.26300001 132345.83662518 8385.43260535
0.26400001 130466.01046896 6741.83140999
0.26500001 128607.13089450 6157.70971860
0.26600001 126767.33626161 6092.43846902
0.26700001 124948.72480581 6529.82066734
0.26800001 123150.17233723 5962.93162674
0.26900001 121369.89112501 5898.57698780
0.27000001 119610.11397244 8265.65731721
0.27100001 117868.97714837 6251.77084380
0.27200001 116148.42245959 5231.90593728
0.27300001 114445.82076141 5644.46814707
0.27400001 112760.34210508 5581.63719835
0.27500001 111096.27274132 5059.32450007
0.27600001 109448.23932836 6821.36183897
0.27700001 107820.33935999 5844.94087333
0.27800001 106209.63827998 6222.82300133
0.27900001 104618.11476212 7469.73374754
0.28000001 103043.14719762 7383.55706190
0.28100001 101486.67374144 5151.46380293
0.28200001 99948.49794012  4242.81393837
0.28300001 98427.29625920  5031.60362292
0.28400001 96923.30780243  4972.16592560
0.28500001 95437.18272191  4913.10639907
0.28600001 93968.05381206  4854.38988970
0.28700001 92515.92797384  4396.35710541
0.28800001 91080.16589831  5132.82299215
0.28900001 89663.13887680  4680.41607091
0.29000001 88261.35927419  4237.86936615
0.29100001 86877.06037413  4185.73696696
0.29200001 85509.39780164  5261.39349578
0.29300001 84158.19570946  4453.65192776
0.29400001 82822.70068174  4397.88561438
0.29500001 81504.77725899  5066.33719424
0.29600001 80202.24402774  3573.01014057
0.29700001 78916.05103684  4233.05717800
0.29800001 77645.81103024  3830.65626851
0.29900001 76392.19354158  3781.41375932
0.30000001 75153.65715443  4750.46289362
0.30100001 73932.05754432  4688.77131143
0.30200001 72724.38668361  3635.85588437
0.30300001 71534.06099989  4240.53933683
0.30400001 70359.08100441  3862.71373001
0.30500001 69199.40211235  4446.75379026
0.30600001 68054.07890286  5327.61381913
0.30700001 66925.47051926  3091.95688437
0.30800001 65811.49419374  3355.39919032
0.30900001 64712.90078769  3610.98003491
0.31000001 63629.67756129  3561.98951852
0.31100001 62560.47047574  3513.39618826
0.31200001 61507.06287556  3465.30808648
0.31300001 60467.82008862  2848.03446102
0.31400001 59444.53113169  3651.38049764
0.31500001 58434.80446596  4708.67676681
0.31600002 57440.35796401  3823.80481071
0.31700002 56460.17020164  2962.46527075
0.31800002 55494.52339653  2655.41307025
0.31900002 54543.30270798  3141.69438474
0.32000002 53606.54298568  2839.27068367
0.32100002 52683.33148701  2544.60503131
0.32200002 51775.51114771  3762.78545083
0.32300002 50880.00987547  3214.59917615
0.32400002 49999.17101469  3899.93552381
0.32500002 49132.10189920  3363.58385529
0.32600002 48279.18201215  3315.33158576
0.32700002 47439.29325015  2334.01333843
0.32800002 46613.90912190  3910.67409096
0.32900002 45801.08817226  2493.86936907
0.33000002 45002.70272205  2457.82272555
0.33100002 44215.11919845  2642.29564842
0.33200002 43443.89230604  2387.02477579
0.33300002 42684.26470429  2352.32993925
0.33400002 41938.06120926  2528.86521067
0.33500002 41203.94261726  2284.34668688
0.33600002 40483.47099896  3274.30328946
0.33700002 39774.90511395  2218.24656325
0.33800002 39079.78432365  2384.64855236
0.33900002 38396.29486040  2349.85335674
0.34000002 37725.73845287  2701.54025855
0.34100002 37067.13357036  3042.47046754
0.34200002 36421.31331340  2436.03965634
0.34300002 35786.65088725  2400.56865521
0.34400002 35165.11964401  1819.79502776
0.34500002 34554.61197959  2690.07667001
0.34600002 33956.84811147  1944.19943070
0.34700002 33368.99403986  2961.16467134
0.34800002 32794.27106040  3261.88232551
0.34900002 32230.15949992  2030.50014466
0.35000002 31677.46238454  1667.81847354
0.35100002 31136.67409687  2466.02470527
0.35200002 30605.58350380  1620.56572328
0.35300002 30085.94043423  1917.07621527
0.35400002 29577.47050837  2835.00068250
0.35500002 29079.66912482  1708.13984530
0.35600002 28591.58399497  1531.07939545
0.35700002 28114.58573155  1660.72865782
0.35800002 27648.32019254  1637.74832418
0.35900002 27192.11105435  1908.88628643
0.36000002 26746.23550524  1737.97046545
0.36100002 26309.56905225  1714.33160065
0.36200002 25883.91665210  1691.25519416
0.36300002 25467.02410617  1807.64945668
0.36400002 25059.84887384  1372.02679083
0.36500002 24661.97356263  1624.73089527
0.36600002 24273.94276314  1469.90867365
0.36700002 23894.63720802  1714.67924727
0.36800002 23525.78913943  1823.01348677
0.36900002 23164.91637629  2185.60996363
0.37000002 22812.64720491  1904.28581563
0.37100002 22469.15231682  1253.77875867
0.37200002 22134.97631411  1238.45198344
0.37300002 21808.74671717  1345.81782367
0.37400002 21490.94957661  1450.63916514
0.37500002 21181.87598291  1553.05522064
0.37600002 20881.04808445  1180.82332511
0.37700002 20587.58442649  1400.77931074
0.37800002 20302.06756450  1385.00711486
0.37900002 20024.92385434  1483.84692790
0.38000002 19755.30655915  1693.52373501
0.38100002 19492.18730271  1451.97310096
0.38200002 19237.60108833  1326.24028186
0.38300002 18989.55398903  1312.55803390
0.38400002 18749.47098442  1191.06020071
0.38500002 18515.34094340  1286.44594969
0.38600002 18289.23675621  1274.02829279
0.38700002 18069.27768517  1367.12161443
0.38800002 17856.09894002  1146.09376476
0.38900002 17648.94218055  1548.69474971
0.39000002 17449.37603865  1330.42773910
0.39100002 17255.12787158  1318.98203699
0.39200002 17067.58012251  1106.74728548
0.39300002 16885.84481636  1097.74882352
0.39400002 16711.37757012  1089.16408473
0.39500002 16541.36389430  1179.06847425
0.39600002 16377.44029399  1267.85960043
0.39700002 16218.99646085  1065.10154805
0.39800002 16066.36214248  1057.72900176
0.39900002 15918.91367819  1050.64835254
0.40000002 15776.65488896  1328.55217114
0.40100002 15639.95920242  1131.70750151
0.40200002 15508.27349964  1218.71773071
0.40300002 15381.16606437  1211.72831996
0.40400002 15259.35152468  1297.80790866
0.40500002 15142.38001069  1198.82228225
0.40600002 15030.03946036  1192.85913829
0.40700002 14922.05511941  1369.84472487
0.40800002 14818.74245531  1090.95587125
0.40900002 14719.58562887  1538.93275042
0.41000002 14625.11134803  1081.96578879
0.41100002 14534.48693507  1167.70073569
0.41200002 14447.72521847  1074.04394363
0.41300002 14365.58216972  1070.52323401
0.41400002 14286.79769293  1156.15915808
0.41500002 14212.09570921  1596.30266570
0.41600002 14140.52932789  972.93916651
0.41700002 14072.88561554  970.60696689
0.41800002 14009.83928846  1496.88134970
0.41900002 13948.12619519  878.73199193
0.42000002 13890.98129143  1140.38016316
0.42100002 13837.40295214  1051.08917805
0.42200002 13786.93509550  1224.69350257
0.42300002 13739.04726701  873.80344759
0.42400002 13693.95894987  960.28891686
0.42500002 13652.44448038  872.39124364
0.42600002 13612.67455733  1307.83777007
0.42700002 13577.14739210  1045.98348465
0.42800002 13543.17990206  871.50366800
0.42900002 13513.04533940  1307.38719854
0.43000002 13484.83242390  1046.15334902
0.43100002 13458.18767628  872.09060275
0.43200002 13435.02754178  1308.90762028
0.43300002 13413.89083478  1135.21763514
0.43400002 13395.01647758  1048.82983990
0.43500002 13378.17578855  962.42601184
0.43600002 13363.83831813  1313.99946490
0.43700002 13350.88952285  964.86883154
0.43800002 13339.95645869  878.43617443
0.43900002 13331.63959604  1143.85473155
0.44000002 13324.58787493  1145.84798861
0.44100002 13319.74760803  971.40923909
0.44200002 13316.39545306  1415.79923166
0.44300002 13314.81346792  1152.79660468
0.44400002 13315.17015586  977.66641503
0.44500002 13315.81484654  1068.99366654
0.44600002 13318.47610712  893.00386530
0.44700002 13323.50956797  1343.00982810
0.44800002 13328.48806095  1077.20845614
0.44900002 13336.34142077  1440.32494170
0.45000002 13344.85000191  993.05705996
0.45100002 13354.24551044  995.95967737
0.45200002 13365.04713162  908.15499563
0.45300002 13376.80869675  1093.15285851
0.45400002 13389.93780627  1370.79494788
0.45500002 13404.04536311  1191.88777018
0.45600002 13419.02601003  1011.86170424
0.45700002 13434.98040378  1661.36975547
0.45800002 13451.41352149  1203.96882430
0.45900002 13468.93554502  1115.22791598
0.46000002 13487.91826731  1119.22751087
0.46100002 13506.54372012  936.00352417
0.46200002 13526.84342388  1221.27111641
0.46300002 13547.73540742  1414.38364357
0.46400002 13568.53529007  1230.32699574
0.46500002 13590.54728094  1519.96687994
0.46600002 13612.83810867  1430.36903206
0.46700002 13635.49647938  1435.81784733
0.46800002 13659.48826960  1057.03954984
0.46900002 13682.91196583  1350.50347504
0.47000002 13707.12893757  1065.24957587
0.47100002 13731.87442840  1749.99016010
0.47200002 13757.03113222  1366.48596713
0.47300002 13782.68925166  1077.94417746
0.47400002 13807.91045775  1082.19503342
0.47500002 13833.82337369  1086.50853927
0.47600002 13860.39729680  1685.90950511
0.47700002 13886.38318598  1095.21909379
