# SAXS profile: number of points = 501, q_min = 0, q_max = 0.5, delta_q = 0.001
#    q    intensity    error
0.00000000 1682732.95097188 328.13292544
0.00100000 1682645.56282839 605.75241700
0.00200000 1682383.36401038 908.48704533
0.00300000 1681946.57359825 1412.83517215
0.00400000 1681335.07114473 1261.00135127
0.00500000 1680549.51408442 1966.24300931
0.00600000 1679589.73595292 2292.64008291
0.00700000 1678456.50320485 2215.56267631
0.00800000 1677149.59530125 2264.15204925
0.00900000 1675670.43574721 2764.85633717
0.01000000 1674018.38373003 3866.98263339
0.01100000 1672195.07326372 3912.93664180
0.01200000 1670200.37210522 4233.95812892
0.01300000 1668035.69777048 4553.73765575
0.01400000 1665701.13638999 3747.82772302
0.01500000 1663198.36034270 4790.01149108
0.01600000 1660526.87671605 4657.77809741
0.01700000 1657689.11555950 6266.06513790
0.01800000 1654685.40570215 8960.12187506
0.01900000 1651516.80354908 4954.55063421
0.02000000 1648184.12193268 5710.95824084
0.02100000 1644690.04534403 7598.46835399
0.02200000 1641033.25653007 8492.34748837
0.02300000 1637216.96226344 7072.77759892
0.02400000 1633241.59631674 6124.65626546
0.02500000 1629109.73208576 7624.23389436
0.02600000 1624821.68589330 8554.68656750
0.02700000 1620379.40247276 9527.83132293
0.02800000 1615783.44658831 7731.52414649
0.02900000 1611037.12170020 9424.56759467
0.03000000 1606141.10898602 8215.41215009
0.03100000 1601096.96154537 8453.79234595
0.03200000 1595906.06753608 11059.62955741
0.03300000 1590572.50350178 9734.30417019
0.03400000 1585094.87777749 8321.74849230
0.03500000 1579477.17558778 8529.17714204
0.03600000 1573719.93103039 16594.87743963
0.03700000 1567826.67198733 11617.59617671
0.03800000 1561798.45634629 11877.47781020
0.03900000 1555637.98423982 10267.21117146
0.04000000 1549345.56861868 12387.01839511
0.04100000 1542924.89339740 10692.47000702
0.04200000 1536378.15517204 12882.53142877
0.04300000 1529706.44939062 12115.27564154
0.04400000 1522913.32075638 13363.56501027
0.04500000 1516000.64332294 15690.60738745
0.04600000 1508969.32750790 12765.88110416
0.04700000 1501823.17943336 17301.00383171
0.04800000 1494564.10946170 15379.06540192
0.04900000 1487194.69280764 15615.54500134
0.05000000 1479716.69556284 12451.81657299
0.05100000 1472134.07124409 13779.17554873
0.05200000 1464445.90652809 13970.81459934
0.05300000 1456658.11079152 16518.50374643
0.05400000 1448771.42487448 14342.83777512
0.05500000 1440789.41222944 14523.15795277
0.05600000 1432712.94160784 17149.57471132
0.05700000 1424547.16226430 12393.56089021
0.05800000 1416291.23812785 13787.59584695
0.05900000 1407949.46170064 13938.70032185
0.06000000 1399525.18788769 17927.91849441
0.06100000 1391020.07020298 14230.13598317
0.06200000 1382437.03825346 19596.04593323
0.06300000 1373779.17210584 15825.93680261
0.06400000 1365046.05019262 18632.87945653
0.06500000 1356244.04495700 16112.18000778
0.06600000 1347374.37169397 18957.55829673
0.06700000 1338438.45403712 21843.31659213
0.06800000 1329440.44756403 16511.65113164
0.06900000 1320384.00258117 15250.43594382
0.07000000 1311268.39339393 16758.01085233
0.07100000 1302098.40199371 22500.26144031
0.07200000 1292876.12029184 15572.69359845
0.07300000 1283604.77014418 17097.61633944
0.07400000 1274287.29835888 17202.87933404
0.07500000 1264924.28365871 15862.15126058
0.07600000 1255519.25926621 15951.37293679
0.07700000 1246076.01381593 20410.72606333
0.07800000 1236595.60154106 16119.02442201
0.07900000 1227079.83461079 20614.94218838
0.08000000 1217534.46407146 16272.34887567
0.08100000 1207959.94755375 20801.07127282
0.08200000 1198357.70171542 16411.50949511
0.08300000 1188731.32475625 19471.42001334
0.08400000 1179083.72219547 19543.31361273
0.08500000 1169417.03587559 18102.57656518
0.08600000 1159733.73474608 24215.24151844
0.08700000 1150035.56130757 16698.51713431
0.08800000 1140325.02935438 15223.33985683
0.08900000 1130605.36824305 19842.12514464
0.09000000 1120878.60686417 21419.99118339
0.09100000 1111146.21017489 16867.20026290
0.09200000 1101410.83522623 16901.15006068
0.09300000 1091676.50097608 15392.63938710
0.09400000 1081941.73097667 20042.97150831
0.09500000 1072211.19578718 15439.84194505
0.09600000 1062486.24783313 17005.09319594
0.09700000 1052771.77531799 18570.89498968
0.09800000 1043066.73988861 15489.54181563
0.09900000 1033374.82719103 18600.74776409
0.10000000 1023695.83825195 17059.89194675
0.10100000 1014033.68248451 18617.65928604
0.10200000 1004390.34607377 27932.09683813
0.10300000 994766.65533406 23277.54082981
0.10400000 985165.86141383 18619.63565668
0.10500000 975590.77396334 20165.46224659
0.10600001 966038.37666201 24807.86667998
0.10700001 956516.44246228 18594.68051649
0.10800001 947022.17251611 18580.57589920
0.10900001 937560.50511928 17016.72396882
0.11000001 928131.61996492 15453.39219980
0.11100001 918736.84579419 20065.21365668
0.11200001 909378.96791295 16955.37165495
0.11300001 900058.08022137 15390.99389641
0.11400001 890776.89062247 15365.90208673
0.11500001 881537.26193921 18406.49889602
0.11600001 872339.65474309 16840.51782786
0.11700001 863185.94490632 18334.07033325
0.11800001 854076.59851833 16769.79480174
0.11900001 845013.54268822 19773.31783026
0.12000001 835997.74665983 18208.03177994
0.12100001 827032.63865067 16648.16780030
0.12200001 818116.79476095 22641.38336167
0.12300001 809252.99586519 18062.52771872
0.12400001 800441.21795681 21011.58296138
0.12500001 791682.30417177 20947.91475546
0.12600001 782979.74509515 17898.91781633
0.12700001 774332.33404954 14867.18151439
0.12800001 765741.18793629 23707.34829582
0.12900001 757208.13275717 20671.78299857
0.13000001 748733.75301844 23540.19030446
0.13100001 740317.99537172 24919.10489884
0.13200001 731962.54214698 16062.91874463
0.13300001 723669.15405886 20364.05095524
0.13400001 715436.34304916 24628.89727061
0.13500001 707266.96403375 24528.01946914
0.13600001 699159.87484900 21551.60415839
0.13700001 691117.48128198 14306.13253712
0.13800001 683138.03366718 15667.77154098
0.13900001 675224.78509724 14179.72115573
0.14000001 667376.61199586 19761.02241314
0.14100001 659594.27924565 16859.23057265
0.14200001 651877.85314447 15381.05867040
0.14300001 644229.85251272 19481.51165888
0.14400001 636646.22059105 20770.58392653
0.14500001 629131.92345676 15155.78875100
0.14600001 621684.74610982 16449.77915807
0.14700001 614307.66250536 15001.39382609
0.14800001 606995.97135399 16279.63271977
0.14900001 599754.16833956 16193.36330918
0.15000001 592580.51489110 13421.94929557
0.15100001 585476.06372888 13348.85488288
0.15200001 578440.81786672 13275.21739646
0.15300001 571475.51634235 19801.62757568
0.15400001 564577.13193180 17064.34461792
0.15500001 557749.32314889 16966.73521090
0.15600001 550988.36876832 25951.55339377
0.15700001 544300.03982882 15479.89386333
0.15800001 537676.95324432 24364.83228626
0.15900001 531125.04041932 14021.70172890
0.16000001 524639.59246603 13937.05143172
0.16100001 518226.01839366 16370.76069383
0.16200001 511879.52884932 18773.18260676
0.16300001 505600.96593915 14925.34121912
0.16400001 499390.97698576 14831.91271669
0.16500001 493248.08585648 14738.25350120
0.16600001 487174.04579414 12203.71042332
0.16700001 481165.48546294 13337.90788678
0.16800001 475223.74106966 14456.30688591
0.16900001 469350.80611284 11968.44612100
0.17000001 463542.59798241 16645.81547956
0.17100001 457800.26330555 12992.37208613
0.17200001 452124.10859509 12905.88328930
0.17300001 446513.10640302 12819.39189022
0.17400001 440967.10987489 13890.46461705
0.17500001 435484.90514798 13796.16244665
0.17600001 430065.46962286 13701.88650931
0.17700001 424711.39621346 11339.79481448
0.17800001 419418.62262755 12387.52960439
0.17900001 414189.10811355 13419.72773674
0.18000001 409021.46603190 16657.39999096
0.18100001 403916.78502756 11026.92875213
0.18200001 398870.48657960 12043.89491120
0.18300001 393885.56539291 11958.36633023
0.18400001 388960.18632626 11873.01024850
0.18500001 384095.76056497 12859.52667123
0.18600001 379288.12310879 14894.64529816
0.18700001 374538.64565481 13730.58739840
0.18800001 369846.66977909 12582.18430034
0.18900001 365213.64995474 15612.88427323
0.19000001 360632.98117760 12398.56247870
0.19100001 356112.61363166 15384.06563579
0.19200001 351644.20186877 12216.12015015
0.19300001 347232.54645857 11114.91433735
0.19400001 342873.05981564 12034.84496822
0.19500001 338567.70514603 13935.44740233
0.19600001 334314.75312340 10866.90156381
0.19700001 330113.73912530 10784.81636689
0.19800001 325964.64620616 14595.06772363
0.19900001 321866.64023189 13518.39952862
0.20000001 317817.44880008 12456.85549444
0.20100001 313819.21088898 9508.72253934
0.20200001 309868.41544297 14153.24054429
0.20300001 305967.52727082 14980.17084321
0.20400001 302113.61908594 9289.99422599
0.20500001 298306.43479682 9217.66927091
0.20600001 294545.88428429 9145.65013932
0.20700001 290831.42356329 15425.69943496
0.20800001 287160.93630901 10802.99493460
0.20900001 283537.47613568 10717.71710457
0.21000001 279955.80026867 11518.78194657
0.21100001 276418.20216129 12306.13894197
0.21200001 272922.96063148 12207.84460617
0.21300001 269468.97056463 10379.94523687
0.21400001 266057.58995490 8580.35768169
0.21500001 262688.09516024 10213.31362269
0.21600001 259357.58988445 8442.08994987
0.21700001 256067.22613100 9210.73855941
0.21800001 252816.05954830 9966.00953859
0.21900001 249602.67347280 11531.64405968
0.22000001 246427.05969731 14704.30334740
0.22100001 243290.56015980 8911.73364003
0.22200001 240190.82219886 8837.82172070
0.22300001 237126.10953419 11951.15648564
0.22400001 234096.90196012 9480.92497770
0.22500001 231105.38851493 9401.36764935
0.22600001 228146.25620847 10875.73254775
0.22700001 225223.76652034 9243.18381510
0.22800001 222333.51042068 8400.87208852
0.22900001 219475.87975584 8329.11003063
0.23000001 216652.16573995 9759.09726728
0.23100001 213861.31978621 8186.61170858
0.23200001 211100.52391591 7377.96365979
0.23300001 208371.87714812 8045.23855718
0.23400001 205674.65491039 7975.03512133
0.23500001 203006.10773845 7186.41655383
0.23600001 200369.12910832 7835.43516437
0.23700001 197761.05580268 7766.07702869
0.23800001 195182.28395307 6997.28521068
0.23900001 192631.91220071 9015.17391741
0.24000001 190109.68224747 9621.45147364
0.24100001 187616.46341095 12939.90809353
0.24200001 185150.19880890 11472.83261188
0.24300001 182711.01945576 10030.83544261
0.24400001 180298.28887388 6625.96242955
0.24500001 177911.92998249 7221.44557960
0.24600001 175551.91823361 8455.45854171
0.24700001 173217.74277190 7732.44040313
0.24800001 170908.85875833 8936.82464724
0.24900001 168624.06037585 8220.42333221
0.25000001 166364.99127805 9395.46332691
0.25100001 164128.90530059 6824.48020526
0.25200001 161918.75341622 7988.26207771
0.25300001 159732.03946665 8520.10738824
0.25400001 157568.32145268 6026.98858071
0.25500001 155427.45122909 6565.25585053
0.25600001 153310.10532385 12411.22016370
0.25700001 151214.76087536 5852.01152275
0.25800001 149142.45631050 5794.18470181
0.25900001 147092.08745033 5736.59168199
0.26000001 145063.66882568 6247.16719357
0.26100001 143056.15321149 6184.31779595
0.26200001 141071.23250557 6121.78642424
0.26300001 139106.35122367 8262.91765367
0.26400001 137162.92470855 7633.11712122
0.26500001 135240.74737560 8094.15911344
0.26600001 133338.04092735 5340.18879184
0.26700001 131456.74537915 6869.92983860
0.26800001 129595.80664092 6275.02925449
0.26900001 127753.59583300 7243.62922651
0.27000001 125932.12207677 6142.96920560
0.27100001 124129.75289998 5064.49415799
0.27200001 122348.27669298 6012.19460121
0.27300001 120585.14561533 5451.65469126
0.27400001 118839.24753581 5882.54303141
0.27500001 117115.15029022 5333.42419662
0.27600001 115407.46121893 5274.69826464
0.27700001 113720.34124724 6164.77999077
0.27800001 112050.51870363 5627.17731561
0.27900001 110400.24415465 5100.49152134
0.28000001 108766.80898757 5042.97333738
0.28100001 107152.20320875 5439.04609230
0.28200001 105556.16463491 6273.20316116
0.28300001 103977.51397208 5315.33076583
0.28400001 102416.44288745 4816.13345473
0.28500001 100873.40707649 6058.45711577
0.28600001 99347.70454472  4276.91888308
0.28700001 97839.32561009  5494.65678634
0.28800001 96347.54242370  4176.66616176
0.28900001 94874.88297668  4127.05760483
0.29000001 93417.66697027  6524.29017003
0.29100001 91978.44818986  6042.98433212
0.29200001 90555.81077442  4775.91368631
0.29300001 89150.18000059  4717.82774895
0.29400001 87760.52091797  4660.08388134
0.29500001 86388.74660440  4602.79263696
0.29600001 85032.59429076  4924.66293147
0.29700001 83693.10231105  4489.29822048
0.29800001 82369.82545137  4063.71553101
0.29900001 81063.61222092  5836.58035620
0.30000001 79772.66716854  3961.90970248
0.30100001 78498.95298805  3911.60301257
0.30200001 77239.72912572  4212.65502595
0.30300001 75997.78906402  3812.04927992
0.30400001 74771.58653576  4104.96029515
0.30500001 73560.86757186  3714.08837954
0.30600001 72365.12032351  4332.13813326
0.30700001 71186.20477912  4275.44366145
0.30800001 70022.30886314  3894.64100335
0.30900001 68873.99066478  4803.96107631
0.31000001 67741.43626634  4424.19341202
0.31100001 66623.20972731  3429.76299914
0.31200001 65520.98595013  3691.45252320
0.31300001 64433.38923188  4248.73788711
0.31400001 63362.02709385  3592.62710632
0.31500001 62304.52437265  4429.85189264
0.31600002 61262.45440005  3786.93879804
0.31700002 60235.10969416  3160.53635530
0.31800002 59222.59610091  2833.80135761
0.31900002 58224.96188975  3633.23779395
0.32000002 57242.01767111  3307.44393764
0.32100002 56272.79209542  4348.76157905
0.32200002 55319.43412783  4824.40807873
0.32300002 54378.57457905  4228.47815949
0.32400002 53452.91507681  4169.32757341
0.32500002 52541.23079435  3340.04619975
0.32600002 51644.01720514  3546.39482941
0.32700002 50760.12262558  3246.61759687
0.32800002 49891.02640520  2708.33449665
0.32900002 49034.99495445  2427.23236518
0.33000002 48193.63505250  3589.22114050
0.33100002 47363.62955481  2358.70886352
0.33200002 46549.97319052  3487.75690646
0.33300002 45748.38523084  2521.19362946
0.33400002 44960.61799405  3614.83385790
0.33500002 44185.17863734  2895.01304141
0.33600002 43423.88085183  2414.58500911
0.33700002 42674.63447031  2163.60407011
0.33800002 41939.44161934  3625.45520248
0.33900002 41215.90790774  3363.21824455
0.34000002 40505.84271591  2279.06134834
0.34100002 39808.01912935  2450.58177366
0.34200002 39123.45493330  2818.06259231
0.34300002 38450.16784877  2579.23738145
0.34400002 37790.60230478  2542.36289046
0.34500002 37142.20991375  3084.28925731
0.34600002 36506.92200350  1900.18538028
0.34700002 35882.03051753  2060.34628990
0.34800002 35270.60521496  2031.05789750
0.34900002 34670.10674917  2002.19875959
0.35000002 34081.46603883  2332.70605351
0.35100002 33504.87595323  2122.86904094
0.35200002 32938.57059930  2616.14609376
0.35300002 32383.91881472  1719.58617051
0.35400002 31840.81136720  2204.18027129
0.35500002 31308.82566412  2173.45878055
0.35600002 30786.95418035  2308.09806422
0.35700002 30276.26974869  1625.83576251
0.35800002 29776.84892606  2244.87674686
0.35900002 29287.89563804  2372.31965905
0.36000002 28809.67712547  1872.05290828
0.36100002 28340.87811930  1692.80073025
0.36200002 27883.52960121  1973.73573631
0.36300002 27435.20224236  1947.35074740
0.36400002 26997.05088297  2660.55949054
0.36500002 26568.52512218  1604.47330813
0.36600002 26150.23203747  1871.44144441
0.36700002 25740.94119863  1420.90002147
0.36800002 25342.56917797  1963.79577862
0.36900002 24952.53329965  1523.35223010
0.37000002 24571.38506897  1367.39764386
0.37100002 24199.32485148  1350.32239068
0.37200002 23837.13420978  1733.79403888
0.37300002 23483.05301967  1976.09900521
0.37400002 23137.83770876  1561.80411933
0.37500002 22801.63987123  1414.61380462
0.37600002 22474.03188321  1270.90656320
0.37700002 22154.24691134  1381.76044532
0.37800002 21842.76032778  2359.34586857
0.37900002 21540.00300037  1596.11429794
0.38000002 21244.99924106  1942.64282263
0.38100002 20956.98950696  1801.25333345
0.38200002 20677.71824804  1425.52196355
0.38300002 20405.36598445  1292.88405002
0.38400002 20141.40679248  1279.48292711
0.38500002 19883.59570160  1611.76434393
0.38600002 19634.35572105  1253.75184396
0.38700002 19391.31832544  1241.43225801
0.38800002 19155.63467194  1229.50446967
0.38900002 18926.21342589  1107.18353787
0.39000002 18704.81716110  1206.74133632
0.39100002 18488.86632647  1087.14539150
0.39200002 18280.09104526  1293.13370181
0.39300002 18077.32357870  1068.36987412
0.39400002 17882.27950142  1165.47762172
0.39500002 17692.04788952  1681.45231108
0.39600002 17508.07662037  1459.64841699
0.39700002 17329.98724311  1034.60028743
0.39800002 17158.07190747  1334.98384801
0.39900002 16991.50452160  1121.43935156
0.40000002 16830.52363022  1316.06285762
0.40100002 16675.36149592  1005.52434585
0.40200002 16525.70397623  1198.77462323
0.40300002 16380.76029437  1290.47635713
0.40400002 16241.39191561  2170.66213237
0.40500002 16107.18114732  1177.11285402
0.40600002 15977.81732812  1072.99037351
0.40700002 15853.33100733  970.22390362
0.40800002 15733.63601432  1447.88792282
0.40900002 15618.45662019  960.53512765
0.41000002 15508.26461911  1147.30147088
0.41100002 15402.09779102  951.84968859
0.41200002 15300.13757588  1042.62792451
0.41300002 15203.05837319  1132.93196365
0.41400002 15109.63771454  1316.80498922
0.41500002 15020.53616552  1031.00965125
0.41600002 14934.71636987  934.16655320
0.41700002 14853.24940011  1303.81829412
0.41800002 14776.47461605  1578.79250516
0.41900002 14701.45562020  1204.04927235
0.42000002 14631.28110933  1108.75853500
0.42100002 14564.76818455  1198.53483070
0.42200002 14501.67369088  1012.14436322
0.42300002 14441.30375312  1102.16035466
0.42400002 14384.18024678  1467.18645469
0.42500002 14330.64723552  1098.87408209
0.42600002 14279.26670560  1097.50449100
0.42700002 14232.16204071  1279.18678484
0.42800002 14187.10852560  1004.23452457
0.42900002 14145.90088247  1277.37491022
0.43000002 14106.86565763  1094.41068958
0.43100002 14069.61074732  1094.05298356
0.43200002 14036.11113041  1458.63273779
0.43300002 14004.80170246  1185.22642424
0.43400002 13976.00798250  1459.09530252
0.43500002 13949.38767874  1185.97699665
0.43600002 13925.49442394  1004.09782302
0.43700002 13903.24450773  913.44320745
0.43800002 13883.05764663  1005.61932829
0.43900002 13865.74114817  1189.68064689
0.44000002 13849.90389732  916.17118622
0.44100002 13836.40523949  1009.08908194
0.44200002 13824.63375113  1102.37634756
0.44300002 13814.71109312  920.05980240
0.44400002 13806.99767159  1198.10227973
0.44500002 13799.67874183  1107.83826190
0.44600002 13794.46785747  1202.39484778
0.44700002 13791.94405475  1112.18242128
0.44800002 13789.38410984  928.71506381
0.44900002 13789.94462174  1210.06769791
0.45000002 13791.31560709  1586.07032656
0.45100002 13793.69431805  1122.25502290
0.45200002 13797.71735810  937.55493892
0.45300002 13802.62384735  1503.93396568
0.45400002 13809.16387092  1225.21812251
0.45500002 13816.83028142  1228.59260685
0.45600002 13825.49740933  1326.83304926
0.45700002 13835.28201763  1235.62909556
0.45800002 13845.64980057  1429.90955092
0.45900002 13857.16557568  1338.60225805
0.46000002 13870.32312512  959.13288956
0.46100002 13883.15047351  1539.36379746
0.46200002 13897.86100211  1158.24779081
0.46300002 13913.27035094  1452.54549348
0.46400002 13928.66485612  1068.67686174
0.46500002 13945.41476782  1072.26299232
0.46600002 13962.57772395  1173.69433910
0.46700002 13979.95889340  1177.67179300
0.46800002 13999.03882483  1083.31567080
0.46900002 14017.54946389  1185.88474085
0.47000002 14036.97689810  1487.56869728
0.47100002 14056.87300269  1393.31731807
0.47200002 14077.48539929  1098.67740006
0.47300002 14098.55489441  1403.37022071
0.47400002 14119.27594855  1106.59830492
0.47500002 14140.75923135  1110.61528267
0.47600002 14163.10847554  1114.70750540
0.47700002 14184.82710135  1017.05215137
