# SAXS profile: number of points = 501, q_min = 0, q_max = 0.5, delta_q = 0.001
#    q    intensity    error
0.00000000 1664650.74656090 299.63713438
0.00100000 1664563.74814001 599.24296356
0.00200000 1664302.71292698 1048.51074235
0.00300000 1663867.87063616 1098.15283374
0.00400000 1663259.08125163 1496.93323001
0.00500000 1662477.02368627 1945.09819470
0.00600000 1661521.50703758 2442.43671478
0.00700000 1660393.32202799 3187.95531079
0.00800000 1659092.24224216 3135.68447023
0.00900000 1657619.65541541 2486.42958941
0.01000000 1655974.98595800 3278.83061378
0.01100000 1654159.81175797 3870.73412804
0.01200000 1652174.01666225 3866.08736849
0.01300000 1650019.02587510 4504.55213931
0.01400000 1647694.92976703 4819.50788322
0.01500000 1645203.34773199 7107.27877868
0.01600000 1642543.84395266 4188.48698932
0.01700000 1639718.85116501 5755.41342577
0.01800000 1636728.64267869 4664.67684153
0.01900000 1633574.31421515 5880.86779653
0.02000000 1630256.68555317 5648.83967097
0.02100000 1626778.31763521 5905.20556075
0.02200000 1623138.08450569 8399.73996894
0.02300000 1619339.10123670 9327.39364769
0.02400000 1615381.82306388 6663.45032398
0.02500000 1611268.68889029 6283.94817366
0.02600000 1607000.24601927 7810.02155287
0.02700000 1602578.18319129 10096.24301652
0.02800000 1598003.29356396 9731.84050410
0.02900000 1593278.73545725 8603.70556650
0.03000000 1588405.13376282 8124.69263265
0.03100000 1583384.30930619 11400.36755157
0.03200000 1578217.37844236 8593.39402141
0.03300000 1572908.41151189 11230.56657593
0.03400000 1567456.20787606 10697.88911236
0.03500000 1561864.66980979 8434.06960644
0.03600000 1556134.22211086 10363.85439821
0.03700000 1550268.55524380 10603.83740827
0.03800000 1544268.60487288 9033.97175659
0.03900000 1538137.09618349 11074.58760539
0.04000000 1531874.29451713 9421.02734784
0.04100000 1525484.13162470 13454.77066478
0.04200000 1518968.43243748 12736.55089687
0.04300000 1512328.49139224 13973.91590910
0.04400000 1505567.75807497 10162.58283898
0.04500000 1498688.27036314 11375.04450060
0.04600000 1491690.72544244 12619.70412389
0.04700000 1484579.16701079 10688.97049960
0.04800000 1477355.18869601 13030.27337057
0.04900000 1470021.57312745 14332.71100514
0.05000000 1462580.10530967 16783.10748995
0.05100000 1455034.75243766 13619.12591725
0.05200000 1447384.26147295 12657.37595643
0.05300000 1439635.00609527 12827.14850228
0.05400000 1431787.37414496 14174.69566506
0.05500000 1423845.03482733 14352.35862059
0.05600000 1415808.82772816 14526.19925034
0.05700000 1407684.08684265 14696.22255264
0.05800000 1399469.78134763 13623.83895755
0.05900000 1391170.29402140 17528.74652336
0.06000000 1382788.90401747 13917.77096916
0.06100000 1374327.19383106 12781.24349991
0.06200000 1365788.16524110 16778.70839428
0.06300000 1357174.86422316 16937.54309742
0.06400000 1348486.96556753 17092.07308791
0.06500000 1339730.94967076 13263.33702217
0.06600000 1330907.74157405 20063.43514297
0.06700000 1322018.82128616 17529.97039064
0.06800000 1313068.17414469 14949.28186240
0.06900000 1304059.84047736 16431.15475930
0.07000000 1294992.98965746 16550.01118283
0.07100000 1285872.40642410 16664.90716780
0.07200000 1276699.88917732 20969.79666211
0.07300000 1267478.81067075 16882.81854919
0.07400000 1258212.13184200 18401.35329055
0.07500000 1248900.49677682 22779.94612896
0.07600000 1239547.34629674 17180.12702509
0.07700000 1230156.48511505 17271.39786085
0.07800000 1220729.11479375 21698.46103303
0.07900000 1211266.71361740 14535.20124516
0.08000000 1201775.30573784 16061.72771466
0.08100000 1192255.18819419 14664.73950283
0.08200000 1182707.85581431 22087.07024377
0.08300000 1173136.76756172 22172.28594751
0.08400000 1163545.27929329 14835.20300733
0.08500000 1153934.84976316 17862.91231291
0.08600000 1144308.29847265 17919.86879545
0.08700000 1134667.40830814 16475.37154228
0.08800000 1125014.53216365 16520.83918070
0.08900000 1115352.95872640 19574.44534505
0.09000000 1105684.77018313 18111.11738638
0.09100000 1096011.25705180 18149.94726948
0.09200000 1086335.42672928 16669.81790642
0.09300000 1076660.82483557 15180.91834357
0.09400000 1066986.26168531 18245.46593231
0.09500000 1057316.44564682 21315.50054613
0.09600000 1047652.49709716 18292.01345918
0.09700000 1037999.40129697 19836.16949134
0.09800000 1028356.26838196 19852.41869453
0.09900000 1018726.35572640 19865.16487077
0.10000000 1009110.05026201 15288.01798042
0.10100000 999510.70354703 22938.77172526
0.10200000 989930.38351320 19882.75268807
0.10300000 980370.51932459 18352.53698507
0.10400000 970833.63631080 19877.81963862
0.10500000 961322.71416035 25984.55418631
0.10600001 951834.87956244 27498.51096446
0.10700001 942377.90890959 15266.52284274
0.10800001 932948.66051628 18304.45358077
0.10900001 923552.55996636 25905.65052632
0.11000001 914189.51596027 15221.25615720
0.11100001 904860.80297942 21282.32708791
0.11200001 895569.28912059 19733.87021479
0.11300001 886315.07727379 18187.18624193
0.11400001 877100.83166280 21181.98608200
0.11500001 867928.21558035 18122.34199466
0.11600001 858798.20863465 25622.24576120
0.11700001 849712.26587175 28575.82484704
0.11800001 840670.82240947 16506.57237544
0.11900001 831675.83711975 22455.24865991
0.12000001 822728.38304272 16425.77294118
0.12100001 813831.81709996 16382.43524997
0.12200001 804984.86677513 17822.36579004
0.12300001 796190.02411112 17770.96217543
0.12400001 787447.38690546 19194.03096019
0.12500001 778758.04347453 20605.93880130
0.12600001 770125.13667380 14670.88454498
0.12700001 761547.35819636 14621.70996644
0.12800001 753026.31607214 17485.27188326
0.12900001 744563.38167863 17422.78395245
0.13000001 736159.11316556 18805.18543219
0.13100001 727813.81122033 18733.92838388
0.13200001 719528.95599473 14354.60334878
0.13300001 711306.22237031 21445.88361549
0.13400001 703144.28303935 17086.40688341
0.13500001 695045.88564648 19850.51142998
0.13600001 687009.84661915 21177.07952055
0.13700001 679038.65930509 15461.71100145
0.13800001 671130.65430537 20989.61220318
0.13900001 663288.64126618 18107.78076050
0.14000001 655511.90284685 19409.70835867
0.14100001 647801.13840933 13798.16489888
0.14200001 640156.41757598 13731.35580465
0.14300001 632580.03027860 16396.47515820
0.14400001 625068.05825221 17673.80018075
0.14500001 617625.71123664 14878.60408555
0.14600001 610250.53467269 18838.43489404
0.14700001 602945.34112179 16062.46464526
0.14800001 595705.58127052 14645.42240649
0.14900001 588535.64195000 15890.46308237
0.15000001 581434.14765477 14486.43247233
0.15100001 574401.70891840 20954.17533007
0.15200001 567438.66139766 18231.80505101
0.15300001 560545.44971179 16833.18064919
0.15400001 553719.08179177 14161.36618511
0.15500001 546963.37452618 14078.83792473
0.15600001 540274.41544204 12723.46308414
0.15700001 533658.15988318 17706.77858063
0.15800001 527107.03338013 16342.95434132
0.15900001 520627.23769810 12495.05429453
0.16000001 514213.82280783 14901.91728838
0.16100001 507872.14780147 18511.94066121
0.16200001 501597.40411894 17169.67995350
0.16300001 495390.79796509 13405.27562577
0.16400001 489252.44016553 13319.89831233
0.16500001 483181.46072991 15640.58462224
0.16600001 477179.02471387 13148.66864678
0.16700001 471241.93866795 16625.41638117
0.16800001 465371.64053765 12976.88880911
0.16900001 459570.24275091 12890.94591785
0.17000001 453833.21691445 11640.82256353
0.17100001 448162.20445058 18500.13667332
0.17200001 442557.24331780 16078.10540899
0.17300001 437017.23191393 15968.61040824
0.17400001 431541.96168673 18124.76324680
0.17500001 426130.66523985 16874.77514045
0.17600001 420781.97459531 13406.11434377
0.17700001 415498.46665759 14421.95245884
0.17800001 410276.05032708 15422.27746022
0.17900001 405116.83435938 15313.41706209
0.18000001 400019.46015568 14118.68751309
0.18100001 394984.77337497 15096.31875149
0.18200001 390008.38854003 16058.59615671
0.18300001 385093.08269634 14879.99741831
0.18400001 380237.24237632 11606.74237185
0.18500001 375442.09731609 10474.83500997
0.18600001 370703.76599814 11438.06524025
0.18700001 366023.37718602 11354.04569673
0.18800001 361400.31448675 13319.40921970
0.18900001 356835.82380787 12203.78575083
0.19000001 352323.77038580 11103.48414833
0.19100001 347871.69545625 12022.44636303
0.19200001 343471.28807501 13920.89196346
0.19300001 339127.80831369 13816.06756355
0.19400001 334835.84058637 14690.92319993
0.19500001 330598.27611815 10691.54875489
0.19600001 326412.41568070 15432.77974268
0.19700001 322278.56181005 12443.17585952
0.19800001 318196.28473880 12347.60741282
0.19900001 314164.93780054 14137.42286916
0.20000001 310182.12769002 10287.19075102
0.20100001 306250.19629295 10207.31952487
0.20200001 302365.28937240 15651.93994413
0.20300001 298530.13918414 10048.52495988
0.20400001 294741.71659170 11782.30067765
0.20500001 290999.82540661 10790.27403610
0.20600001 287304.25975811 12489.11676202
0.20700001 283654.52547235 15930.03890353
0.20800001 280048.69889757 12291.33797563
0.20900001 276489.26456446 10451.29469458
0.21000001 272971.68945047 13823.28700723
0.21100001 269497.84374923 10284.03820363
0.21200001 266066.01129087 11051.05230140
0.21300001 262675.33536223 12647.81799562
0.21400001 259326.91321134 10872.28135039
0.21500001 256019.97511484 9954.05710307
0.21600001 252751.95564298 12340.61481771
0.21700001 249523.71047533 8159.42571832
0.21800001 246334.36631156 11328.91804231
0.21900001 243182.48114096 9630.02670850
0.22000001 240068.12535601 8754.08460502
0.22100001 236992.49096662 10259.40541905
0.22200001 233953.63171509 7825.74935091
0.22300001 230949.16930184 8535.88170102
0.22400001 227980.20591896 10002.63200768
0.22500001 225048.40321423 9917.88359864
0.22600001 222148.78571317 7564.16651123
0.22700001 219285.36754807 8999.47190975
0.22800001 216454.13570412 11152.79986957
0.22900001 213655.04597598 10319.53920866
0.23000001 210889.58432355 10230.25421934
0.23100001 208156.61623679 9417.00576391
0.23200001 205453.54913065 11488.96301074
0.23300001 202782.23553967 10676.48520610
0.23400001 200142.02244270 7055.00662477
0.23500001 197530.30524401 8391.08776363
0.23600001 194949.61147670 8316.55081894
0.23700001 192397.67320898 8242.31671012
0.23800001 189874.68394946 6807.00774155
0.23900001 187379.73363097 6745.67072978
0.24000001 184912.63983552 8689.96992011
0.24100001 182474.12712028 8610.95446611
0.24200001 180062.23985654 11157.55722049
0.24300001 177677.42585429 7803.59291265
0.24400001 175318.38762838 6442.95105012
0.24500001 172985.51498230 8298.11554624
0.24600001 170678.75588178 8220.74266593
0.24700001 168397.42018889 8143.69962558
0.24800001 166140.86805801 6205.36171552
0.24900001 163908.15820253 6761.21184571
0.25000001 161700.86216062 6696.84152320
0.25100001 159516.28456678 7838.63059445
0.25200001 157357.31573921 5971.71041482
0.25300001 155221.36061162 7688.11435482
0.25400001 153108.19086175 6442.02743529
0.25500001 151017.44874306 9278.51248976
0.25600001 148949.88911441 6890.42219644
0.25700001 146903.82181134 6822.21380770
0.25800001 144880.68550066 6191.47638781
0.25900001 142879.11930860 6129.51450836
0.26000001 140899.08891285 6067.81955113
0.26100001 138939.67001621 6552.39514800
0.26200001 137002.46564342 6485.69703044
0.26300001 135085.09446693 6954.18099221
0.26400001 133188.66056717 6353.09940967
0.26500001 131313.14252815 5763.33409827
0.26600001 129456.77128011 7258.64150915
0.26700001 127621.60175594 7182.54408670
0.26800001 125806.32420440 7106.79959061
0.26900001 124009.45720721 6026.85990547
0.27000001 122233.02810554 6459.40467591
0.27100001 120475.27720702 5898.46985119
0.27200001 118738.11041054 6321.02360684
0.27300001 117018.85230259 4809.47505724
0.27400001 115316.61094554 5708.17251194
0.27500001 113635.79531325 6115.87879320
0.27600001 111971.05279073 5117.63721000
0.27700001 110326.47594275 5060.67569100
0.27800001 108698.95514372 5458.86178567
0.27900001 107090.65156404 5397.36909427
0.28000001 105498.72343878 4446.77140340
0.28100001 103925.34816431 5714.85516603
0.28200001 102370.20360834 4345.61534885
0.28300001 100832.15408808 5154.53996095
0.28400001 99311.24284475  6792.88933209
0.28500001 97808.09625166  4615.56428058
0.28600001 96321.89732334  6634.65260166
0.28700001 94852.72296800  4097.63782617
0.28800001 93399.91270663  4858.66368897
0.28900001 91965.69876933  4400.55889441
0.29000001 90546.68828133  4347.59944362
0.29100001 89145.25742803  4685.47495220
0.29200001 87760.20637262  4628.47350318
0.29300001 86391.75353852  4190.86416253
0.29400001 85038.94632754  6020.75768499
0.29500001 83703.63329261  5574.66224118
0.29600001 82383.69491458  4771.25191684
0.29700001 81080.12898762  3624.28193731
0.29800001 79792.36460475  4652.29403851
0.29900001 78521.30120860  4240.15046599
0.30000001 77265.30267464  4535.08715518
0.30100001 76026.16422123  4821.57956316
0.30200001 74801.05233346  3739.67878845
0.30300001 73593.02601243  3691.42635954
0.30400001 72400.50644467  4637.25265732
0.30500001 71223.11101320  3269.14095027
0.30600001 70060.23497790  3871.52876817
0.30700001 68913.95631545  4138.97241226
0.30800001 67782.36314147  3455.88394838
0.30900001 66666.01306708  4339.95765614
0.31000001 65565.09029700  3976.19508931
0.31100001 64478.15123655  3017.57762074
0.31200001 63407.03684098  3870.04867682
0.31300001 62350.11016408  3230.35936055
0.31400001 61309.19915461  2896.85979721
0.31500001 60281.82312998  4000.30197231
0.31600002 59269.59879107  3663.75042274
0.31700002 58271.74347694  2779.56229546
0.31800002 57288.35678639  3015.37280223
0.31900002 56319.50158047  2973.66982425
0.32000002 55365.18569702  3199.00058104
0.32100002 54424.30757229  3154.43301625
0.32200002 53498.85887134  3110.42380206
0.32300002 52585.74005645  3833.50063163
0.32400002 51687.44111797  3527.66802334
0.32500002 50802.79999125  2981.10844465
0.32600002 49932.37519162  2449.18311912
0.32700002 49075.01170614  3138.83789736
0.32800002 48232.13855719  2618.28176556
0.32900002 47401.99446344  3284.95837187
0.33000002 46586.33109091  3006.91488265
0.33100002 45781.53304935  2963.89658997
0.33200002 44993.02129259  2696.88182399
0.33300002 44216.19211641  2436.75446293
0.33400002 43452.91855898  2838.56203929
0.33500002 42701.66549209  3013.02965981
0.33600002 41964.32821362  2545.55626999
0.33700002 41238.76187778  2299.88585884
0.33800002 40526.77813540  2885.10147209
0.33900002 39826.44844525  2843.60855366
0.34000002 39139.17762959  2602.55973973
0.34100002 38463.93285854  2565.15980382
0.34200002 37801.63168046  1944.89404207
0.34300002 37150.37778182  2300.35150119
0.34400002 36512.50736807  2834.28351868
0.34500002 35885.64688038  2793.69774195
0.34600002 35271.68671020  2019.48051824
0.34700002 34667.67067217  1990.61774427
0.34800002 34077.03005666  2140.71912955
0.34900002 33496.97541734  1758.59129270
0.35000002 32928.45300097  2427.15638566
0.35100002 32371.91861961  2222.00859929
0.35200002 31825.16717485  1853.65694989
0.35300002 31289.97680149  1993.79741622
0.35400002 30766.17309053  1965.95855360
0.35500002 30253.00079120  1615.51031877
0.35600002 29749.84857168  2548.96714635
0.35700002 29257.65243388  1885.36321214
0.35800002 28776.54712061  1859.54056301
0.35900002 28305.47066504  1681.34503714
0.36000002 27844.90853371  1507.80186852
0.36100002 27393.64119582  2082.46470234
0.36200002 26953.61735172  1761.14944118
0.36300002 26522.32761398  1592.93107195
0.36400002 26100.92793566  1429.02587217
0.36500002 25689.00634423  1410.32651510
0.36600002 25287.01963327  1531.25554643
0.36700002 24893.81892962  1374.13887001
0.36800002 24511.34783472  1628.04380030
0.36900002 24136.94483732  1473.56055212
0.37000002 23771.26685203  1587.44527557
0.37100002 23414.46435506  1959.79075935
0.37200002 23067.30252474  1419.67720114
0.37300002 22728.07640632  1530.05417615
0.37400002 22397.39872486  1385.83911175
0.37500002 22075.62653716  1494.07847481
0.37600002 21762.16336178  1353.71543605
0.37700002 21456.37846520  1703.20740325
0.37800002 21158.58116245  1443.43847528
0.37900002 20869.30072540  1308.50521747
0.38000002 20587.65745560  1411.90161519
0.38100002 20312.83863964  1396.71085103
0.38200002 20046.53098572  1727.50988953
0.38300002 19786.96497848  1139.72923675
0.38400002 19535.56461778  1240.99680114
0.38500002 19290.08861294  1228.58580196
0.38600002 19052.88269511  1548.42784999
0.38700002 18821.99744294  1314.52836369
0.38800002 18598.03338697  1519.27341936
0.38900002 18380.25292969  1505.34278626
0.39000002 18170.25893321  1598.52860538
0.39100002 17965.49126789  1584.55640490
0.39200002 17767.81964990  1571.11952698
0.39300002 17575.94918684  1142.61251077
0.39400002 17391.61071643  1030.45298377
0.39500002 17211.88040219  1738.05576536
0.39600002 17038.26888448  1217.55475217
0.39700002 16870.34449519  1107.87557549
0.39800002 16708.38413382  1599.99494046
0.39900002 16551.77005013  1390.34875008
0.40000002 16400.41101069  986.48476903
0.40100002 16254.73026080  1176.19233740
0.40200002 16114.42991311  974.11733440
0.40300002 15978.64145557  968.30571809
0.40400002 15848.33838649  962.78660260
0.40500002 15722.96824124  957.52881126
0.40600002 15602.39007230  1428.78893857
0.40700002 15486.34704268  947.76448392
0.40800002 15375.16195568  1037.59285374
0.40900002 15268.15756851  1032.89090845
0.41000002 15165.98804149  1028.48152776
0.41100002 15067.85262610  1210.55133734
0.41200002 14973.65595199  1298.66524225
0.41300002 14884.24210333  1109.17377410
0.41400002 14798.29159495  1013.31306498
0.41500002 14716.56798820  1193.80805177
0.41600002 14638.02371784  915.60842694
0.41700002 14563.62525784  1278.39508571
0.41800002 14493.88523002  1002.03480286
0.41900002 14425.67994992  999.69966790
0.42000002 14362.15033050  1269.75777089
0.42100002 14302.17559822  1267.45886157
0.42200002 14245.52938384  1084.65465868
0.42300002 14191.53260339  1173.35597125
0.42400002 14140.53737248  1262.04302030
0.42500002 14093.09815971  1170.71371960
0.42600002 14047.63598747  989.72624040
0.42700002 14006.37296721  1079.05102453
0.42800002 13966.83586675  1078.51911674
0.42900002 13931.25884281  1078.27948553
0.43000002 13897.71148531  1707.12547119
0.43100002 13865.76782121  1168.05233661
0.43200002 13837.47772258  988.61864274
0.43300002 13811.24563042  899.11213315
0.43400002 13787.46395852  989.59527252
0.43500002 13765.72655619  1080.33427133
0.43600002 13746.56065416  1081.30451230
0.43700002 13728.96739960  1172.59116117
0.43800002 13713.42030188  903.02876967
0.43900002 13700.52236679  1356.35177859
0.44000002 13689.05452777  996.08409992
0.44100002 13679.81461152  1088.36610207
0.44200002 13672.20712050  999.37002683
0.44300002 13666.36624055  1092.21604171
0.44400002 13662.64299839  1276.77404871
0.44500002 13659.23317576  1005.18301704
0.44600002 13657.79295225  1007.33056693
0.44700002 13658.96456108  1101.45895441
0.44800002 13659.94078960  1379.99558367
0.44900002 13663.99670889  922.31982156
0.45000002 13668.80909675  1294.57297091
0.45100002 13674.52022170  1297.98552096
0.45200002 13681.70465392  1022.63906282
0.45300002 13689.85425612  1025.50703093
0.45400002 13699.44788661  1308.98230760
0.45500002 13710.12069984  1594.21291053
0.45600002 13721.63857798  1128.74204292
0.45700002 13734.26211725  1509.67016348
0.45800002 13747.34775939  1514.40790095
0.45900002 13761.64371842  1424.33019236
0.46000002 13777.42001253  1047.97950292
0.46100002 13792.78546332  1051.42408570
0.46200002 13809.93491521  1055.01002785
0.46300002 13827.77414959  1251.13706435
0.46400002 13845.45234818  1062.29238176
0.46500002 13864.44941431  1356.77508399
0.46600002 13883.82903619  1264.33095110
0.46700002 13903.41757565  976.01996007
0.46800002 13924.50887410  1175.50709487
0.46900002 13945.01401412  1081.43588805
0.47000002 13966.34588180  1184.06685998
0.47100002 13988.22031261  1188.43925409
0.47200002 14010.55989601  994.04927174
0.47300002 14033.35844865  1696.21211608
0.47400002 14055.79370533  1502.21302346
0.47500002 14078.89821862  1407.32673264
0.47600002 14102.82801309  1311.77460981
0.47700002 14126.07434863  1114.12353668
