# SAXS profile: number of points = 501, q_min = 0, q_max = 0.5, delta_q = 0.001
#    q    intensity    error
0.00000000 1700912.83420643 306.16431016
0.00100000 1700824.80446941 714.34643484
0.00200000 1700560.67967978 841.77756310
0.00300000 1700120.68462718 1020.07244711
0.00400000 1699504.68097942 1784.47998283
0.00500000 1698713.36878240 2140.37892938
0.00600000 1697746.52075305 2139.16070324
0.00700000 1696604.96534996 2239.51864734
0.00800000 1695288.46461274 2288.63952385
0.00900000 1693798.38235251 4065.11629142
0.01000000 1692134.18010276 4188.03227659
0.01100000 1690297.46875279 5172.31047958
0.01200000 1688288.06461729 4279.81043145
0.01300000 1686107.43115799 4603.07349008
0.01400000 1683755.68297925 4924.98559104
0.01500000 1681234.37701415 5648.94775831
0.01600000 1678543.16798818 4708.31379668
0.01700000 1675684.44200082 5429.21783563
0.01800000 1672658.52762929 6673.90782555
0.01900000 1669466.46922019 6510.91952375
0.02000000 1666109.04010950 5248.24371375
0.02100000 1662589.00881253 5486.54397783
0.02200000 1658905.06924048 5723.22274890
0.02300000 1655060.38466590 6554.03942161
0.02400000 1651055.47739445 8048.89581931
0.02500000 1646892.69906107 6422.88181968
0.02600000 1642572.76332928 8648.14599448
0.02700000 1638097.12955860 8256.00991111
0.02800000 1633466.85134167 8526.69735503
0.02900000 1628684.98527784 7329.08277026
0.03000000 1623752.12770278 7550.44774088
0.03100000 1618670.16697514 8546.57887488
0.03200000 1613440.12251906 7986.52897431
0.03300000 1608066.21892170 13941.93476078
0.03400000 1602547.32320228 11778.72336901
0.03500000 1596887.00590083 10347.82827608
0.03600000 1591086.19375426 8830.52878343
0.03700000 1585148.11144099 11745.94804900
0.03800000 1579074.06719931 12932.61720888
0.03900000 1572866.58871408 14155.79995398
0.04000000 1566526.12363810 14451.20416022
0.04100000 1560056.27825063 11794.02601042
0.04200000 1553459.34464488 12023.77588537
0.04300000 1546736.54373416 11229.30782875
0.04400000 1539890.83856450 13512.54273595
0.04500000 1532924.83189813 13750.33638103
0.04600000 1525839.10876450 10757.16621686
0.04700000 1518637.60530379 12027.61039339
0.04800000 1511321.94588798 12219.03850103
0.04900000 1503895.18198173 19174.66446280
0.05000000 1496358.72755583 17170.71719828
0.05100000 1488716.78596752 16256.78806007
0.05200000 1480968.27622872 12951.06817916
0.05300000 1473119.26728080 15511.94660760
0.05400000 1465170.15708897 13296.41979565
0.05500000 1457125.04681715 15911.80625352
0.05600000 1448984.21059338 12388.81557869
0.05700000 1440753.55363639 16294.92345225
0.05800000 1432431.82049039 16480.12886424
0.05900000 1424023.14340854 15379.45066712
0.06000000 1415531.19439373 15542.53324057
0.06100000 1406957.75407348 13084.70772435
0.06200000 1398305.21962164 21142.37590895
0.06300000 1389577.11472093 18675.91729505
0.06400000 1380773.14900996 16155.04659894
0.06500000 1371899.26327881 23089.06568104
0.06600000 1362957.21659814 15067.49273448
0.06700000 1353947.90224930 17953.35002402
0.06800000 1344875.56131439 15311.40898228
0.06900000 1335744.38753676 16830.38007094
0.07000000 1326553.31422292 18366.13149547
0.07100000 1317306.92463126 15649.60699761
0.07200000 1308007.78502504 22916.29746719
0.07300000 1298658.64266746 14415.11160904
0.07400000 1289262.84248305 21756.31148649
0.07500000 1279820.71542164 23343.93094348
0.07600000 1270336.05189409 19074.09671339
0.07700000 1260812.37582527 17701.80658660
0.07800000 1251251.34306143 16310.06202169
0.07900000 1241653.92663087 19369.80216396
0.08000000 1232026.26507173 17962.94378741
0.08100000 1222369.22640749 18042.17062828
0.08200000 1212683.66706260 16607.70359974
0.08300000 1202973.56782003 16673.21443249
0.08400000 1193241.79088850 19777.98361233
0.08500000 1183490.24244480 21373.83478195
0.08600000 1173721.45772207 16848.77231668
0.08700000 1163937.86717620 19973.17473864
0.08800000 1154140.76515564 21570.89191381
0.08900000 1144334.28213929 15448.51353449
0.09000000 1134520.44861316 26326.54824677
0.09100000 1124700.56094891 17072.95531731
0.09200000 1114877.25511869 21773.55381554
0.09300000 1105054.57573630 23371.90537512
0.09400000 1095230.92440715 15607.04140629
0.09500000 1085411.35066551 18755.90902108
0.09600000 1075597.06511348 20344.91944299
0.09700000 1065792.77644840 17233.87000538
0.09800000 1055997.42161371 17249.71869310
0.09900000 1046215.23498232 21970.52096774
0.10000000 1036445.57063730 23553.22670037
0.10100000 1026692.35560489 20420.91191341
0.10200000 1016957.78827048 17283.19842459
0.10300000 1007242.90194655 15712.99000952
0.10400000 997550.03253184 17282.55512667
0.10500000 987883.13462050 17278.07683744
0.10600001 978238.68556121 20410.95113464
0.10700001 968624.73089060 17260.89351673
0.10800001 959037.85180134 20384.35049936
0.10900001 949483.45466847 20366.42106120
0.11000001 939961.97918337 28170.66184211
0.11100001 930474.22341904 17195.16445822
0.11200001 921023.49929465 18733.61885758
0.11300001 911609.47264516 17147.37498777
0.11400001 902235.36370654 17119.91683241
0.11500001 892902.13146145 18643.79738281
0.11600001 883611.53320305 20159.59807937
0.11700001 874364.77231048 17023.88291862
0.11800001 865162.01536327 16987.45697174
0.11900001 856005.67179621 18489.72338169
0.12000001 846896.53879765 21519.64206453
0.12100001 837837.99118470 15332.43596096
0.12200001 828828.84271406 15291.89286850
0.12300001 819871.88530822 18299.54134225
0.12400001 810966.79597854 16726.19095515
0.12500001 802115.00071535 16675.97165065
0.12600001 793319.49890878 16624.01088301
0.12700001 784579.12547653 25608.66386240
0.12800001 775895.15799193 16514.92921619
0.12900001 767269.69794412 17954.11177811
0.13000001 758702.70036752 25344.46490038
0.13100001 750194.51227672 19310.00765623
0.13200001 741746.78241091 17757.41880801
0.13300001 733361.25377431 16214.61808536
0.13400001 725036.55636784 17618.38915037
0.13500001 716775.77856427 17546.67188655
0.13600001 708577.05762422 18929.63698698
0.13700001 700443.68051795 15949.10335745
0.13800001 692373.00039455 23097.56438235
0.13900001 684369.15616208 17246.10354858
0.14000001 676430.44350317 18598.45592123
0.14100001 668557.75121679 19936.39308154
0.14200001 660751.55977565 18425.05811337
0.14300001 653013.96555837 21157.65348205
0.14400001 645340.58771508 15439.77428938
0.14500001 637737.57144755 19553.03486294
0.14600001 630201.65100767 15285.54176628
0.14700001 622736.37337849 19354.64739769
0.14800001 615336.42860391 16503.32379376
0.14900001 608006.89743525 16416.18700528
0.15000001 600745.99442357 17688.96664042
0.15100001 593554.45339656 17592.95482880
0.15200001 586432.97323251 17496.22858199
0.15300001 579381.63645264 13383.71643362
0.15400001 572397.36217956 17300.71108832
0.15500001 565484.28110480 15878.79936279
0.15600001 558638.14344808 19733.89334864
0.15700001 551865.52255213 15695.05620214
0.15800001 545158.24741763 16902.63225897
0.15900001 538522.66966864 15509.45361851
0.16000001 531954.11809842 14131.36181432
0.16100001 525457.75189254 16599.21116584
0.16200001 519028.99799853 15228.31152015
0.16300001 512668.42472039 13872.80822784
0.16400001 506377.23089513 16292.68817322
0.16500001 500153.48913701 13699.20471422
0.16600001 493999.31430994 14849.62008925
0.16700001 487910.71852630 15983.95589360
0.16800001 481889.63184182 13437.49301838
0.16900001 475937.89219334 13350.05850639
0.17000001 470051.41133567 15673.86505110
0.17100001 464231.37324968 15570.32099404
0.17200001 458477.92050817 16656.50363863
0.17300001 452790.27792129 20090.30558012
0.17400001 447168.10933866 16433.42879428
0.17500001 441610.32494951 13990.21575512
0.17600001 436115.83873772 17368.31409802
0.17700001 430687.40579135 13799.22513330
0.17800001 425320.65317138 15987.80410785
0.17900001 420017.76594314 14742.62428095
0.18000001 414777.42181116 12387.32828751
0.18100001 409600.57814598 15654.93483622
0.18200001 404482.60415396 14433.96241106
0.18300001 399426.82222142 15433.85313972
0.18400001 394430.91023727 13134.54993139
0.18500001 389496.38434461 11953.64460025
0.18600001 384619.75226667 11867.44301685
0.18700001 379801.66001735 12852.48878220
0.18800001 375041.77876941 15948.65239568
0.18900001 370341.04158229 13721.13623891
0.19000001 365693.65550847 12572.54847042
0.19100001 361107.05292263 12479.86033868
0.19200001 356572.93726767 14451.90183033
0.19300001 352096.56891446 16393.61702330
0.19400001 347672.36442269 11186.35885390
0.19500001 343303.50025687 12111.74806140
0.19600001 338987.35576879 13022.19988724
0.19700001 334723.96956787 10935.43260256
0.19800001 330512.96844624 10852.39383180
0.19900001 326353.58122608 10769.66868943
0.20000001 322243.66499848 11658.77635065
0.20100001 318185.62801519 15425.63997523
0.20200001 314175.36320598 9566.64026177
0.20300001 310215.81881274 11391.12540520
0.20400001 306303.58570673 10360.71927624
0.20500001 302438.96724250 10279.90098247
0.20600001 298621.66908452 17617.18620037
0.20700001 294851.05234538 10119.28859482
0.20800001 291124.92050660 10952.12002717
0.20900001 287446.19639908 9960.01117605
0.21000001 283810.26280139 9880.85476652
0.21100001 280219.08334958 13366.45090765
0.21200001 276670.54983771 11491.51183076
0.21300001 273164.22831731 9645.42935788
0.21400001 269701.08284446 12177.00446611
0.21500001 266280.29093281 9490.23001752
0.21600001 262899.16929476 14547.52622071
0.21700001 259558.74092589 13580.11396730
0.21800001 256258.45836703 10101.70890644
0.21900001 252996.22192991 12523.31357765
0.22000001 249772.20218299 14903.90800895
0.22100001 246588.29733108 9853.66882727
0.22200001 243441.77791361 8143.12785625
0.22300001 240330.67121957 13727.68858918
0.22400001 237255.48539874 9608.84761302
0.22500001 234219.10910510 7940.02817413
0.22600001 231215.62847954 8660.18177423
0.22700001 228249.26336109 9367.35021131
0.22800001 225315.49406427 10835.42262196
0.22900001 222415.10616633 9975.31798330
0.23000001 219549.23411400 7607.38132182
0.23100001 216716.79981560 9050.09398830
0.23200001 213915.04647172 8971.59747332
0.23300001 211146.18106916 7411.23130604
0.23400001 208409.16759306 11019.63525766
0.23500001 205701.28423504 12379.10387075
0.23600001 203025.71231243 10826.34662111
0.23700001 200379.49562029 9299.61283159
0.23800001 197763.28698515 7798.79559113
0.23900001 195175.84437950 8431.59687601
0.24000001 192617.11642162 7659.41999680
0.24100001 190088.11842760 6900.19902531
0.24200001 187586.15546965 8205.01882836
0.24300001 185112.49957594 7452.62958546
0.24400001 182665.58758625 8055.55279361
0.24500001 180245.34981663 7316.15909514
0.24600001 177852.41766022 8566.26210183
0.24700001 175485.50422573 6528.06106601
0.24800001 173144.24077268 7113.63146867
0.24900001 170827.77634375 8968.45868232
0.25000001 168537.59733383 6345.44083981
0.25100001 166270.90631952 6913.54461184
0.25200001 164030.58021101 7469.95297621
0.25300001 161814.12652259 7398.14221462
0.25400001 159621.43262706 7326.62410421
0.25500001 157451.84707475 7255.38145647
0.25600001 155306.34437149 6585.76584466
0.25700001 153183.11986584 7706.64312508
0.25800001 151083.69122871 7043.52201834
0.25900001 149006.67373483 6392.38660568
0.26000001 146951.73581657 5753.16072943
0.26100001 144918.61921255 5695.30200453
0.26200001 142908.02191700 8456.58259708
0.26300001 140918.35816666 7812.51414643
0.26400001 138950.37113697 6627.93301686
0.26500001 137004.06886341 5466.46260632
0.26600001 135077.60406355 8114.78744811
0.26700001 133173.04556558 5888.91235357
0.26800001 131289.35753027 5827.27840973
0.26900001 129424.78116909 8386.72621663
0.27000001 127581.15146392 5704.79145767
0.27100001 125757.16165703 6157.07092610
0.27200001 123954.54221218 6091.12649256
0.27300001 122170.42036948 5021.20451481
0.27400001 120404.04835728 6456.66739872
0.27500001 118659.83057553 5895.02066198
0.27600001 116932.62472769 6316.11602358
0.27700001 115225.95644101 5765.90713319
0.27800001 113537.13532670 7602.44694128
0.27900001 111868.34810984 6577.85918017
0.28000001 110216.65491252 5574.75866932
0.28100001 108584.12446645 5511.73041878
0.28200001 106970.42752182 5449.07383586
0.28300001 105374.66301151 4488.96085675
0.28400001 103796.59901179 6212.22674489
0.28500001 102236.96623131 4385.96605892
0.28600001 100694.86007375 6502.37089703
0.28700001 99170.65046688  5141.00676354
0.28800001 97663.19261460  5503.80948031
0.28900001 96175.19295683  5857.06952831
0.29000001 94702.76670562  7027.41913603
0.29100001 93248.77150981  4492.72602400
0.29200001 91811.69751316  4438.63672638
0.29300001 90391.74954916  5979.41451572
0.29400001 88988.20549635  5906.59241942
0.29500001 87602.72920032  5445.38590486
0.29600001 86233.22282870  5378.36636242
0.29700001 84880.43995085  4173.57142995
0.29800001 83544.21023732  4871.04540848
0.29900001 82225.32818373  3700.13994343
0.30000001 80922.08522244  3653.63232075
0.30100001 79636.18358107  4689.77507310
0.30200001 78365.03276706  5698.70545260
0.30300001 77111.33818230  4922.78806261
0.30400001 75873.58815483  4512.58186914
0.30500001 74651.59591301  3426.50841463
0.30600001 73444.86715124  5411.41806790
0.30700001 72254.97817707  3338.18014982
0.30800001 71080.46581002  4282.95367015
0.30900001 69921.71665630  3901.63197414
0.31000001 68778.81459820  3529.38503820
0.31100001 67650.47131000  4115.85486937
0.31200001 66538.32109604  4061.16662038
0.31300001 65440.90581902  4623.40021501
0.31400001 64360.06948451  4257.41879797
0.31500001 63293.13958461  5100.16142921
0.31600002 62241.94095115  3847.48576206
0.31700002 61205.50841587  2919.50288967
0.31800002 60184.00804356  2879.80492124
0.31900002 59177.38548635  4828.87488433
0.32000002 58186.03449362  3361.98923223
0.32100002 57208.37800672  3592.11422513
0.32200002 56246.65923161  2997.66584569
0.32300002 55297.61643519  2956.21071460
0.32400002 54363.64534418  2650.22783602
0.32500002 53444.01188830  3397.43599661
0.32600002 52538.99892606  2577.03801935
0.32700002 51647.42266802  3303.36931027
0.32800002 50770.64232963  2756.08444937
0.32900002 49907.09867520  2470.40150140
0.33000002 49058.48408910  3166.48000548
0.33100002 48221.11026865  2881.69368612
0.33200002 47400.22635010  3077.93384380
0.33300002 46591.50032263  2334.23427670
0.33400002 45796.84071272  2301.29135479
0.33500002 45014.28818320  2949.33630143
0.33600002 44246.32086417  2236.65162560
0.33700002 43490.17986182  2645.94266810
0.33800002 42748.23686130  3477.99671574
0.33900002 42018.05530882  3214.38138335
0.34000002 41301.39321127  2535.07963536
0.34100002 40597.24041468  3123.95779786
0.34200002 39906.23421266  2669.12860172
0.34300002 39226.38636872  2833.71428548
0.34400002 38560.54130479  2394.60972844
0.34500002 37905.90214896  1967.31641470
0.34600002 37264.53618540  1939.61920031
0.34700002 36633.36166785  2485.94004052
0.34800002 36015.78288084  2451.05422004
0.34900002 35409.25791377  2416.68196707
0.35000002 34814.47097056  2016.28018176
0.35100002 34231.95286749  2530.42607581
0.35200002 33659.53552498  1960.49973951
0.35300002 33098.96021115  2636.33230568
0.35400002 32550.01987374  2079.94636845
0.35500002 32012.19105595  2051.34130003
0.35600002 31484.34523142  2191.78279710
0.35700002 30967.70651869  2494.44887823
0.35800002 30462.71856313  1804.45921956
0.35900002 29967.79680003  1780.08721424
0.36000002 29483.70394809  2714.12249550
0.36100002 29009.11853167  2205.27329523
0.36200002 28546.11369513  1865.20315719
0.36300002 28091.91155548  1993.96397666
0.36400002 27648.02120793  1513.72923284
0.36500002 27213.69795224  1942.24171485
0.36600002 26789.64462617  1769.72400783
0.36700002 26374.44845888  1601.45658628
0.36800002 25970.44405885  1868.70339077
0.36900002 25574.53603476  1703.26418060
0.37000002 25187.67577962  2242.71075765
0.37100002 24809.73288708  1799.69810888
0.37200002 24441.86980575  1777.77948453
0.37300002 24082.01528682  1621.20134591
0.37400002 23730.94368564  1601.83877466
0.37500002 23388.87640739  1451.04596105
0.37600002 23055.48187265  1694.92383016
0.37700002 22729.86503274  1546.54009009
0.37800002 22412.45050120  1528.97744562
0.37900002 22103.78211005  1511.89876795
0.38000002 21802.89998995  1370.63937280
0.38100002 21509.00104480  1355.71240008
0.38200002 21223.91687098  1707.03971480
0.38300002 20945.45131126  1689.04127376
0.38400002 20675.68736188  1432.82520206
0.38500002 20411.65257494  1300.01821409
0.38600002 20156.45375188  1638.11507402
0.38700002 19907.38862933  1390.33208774
0.38800002 19665.54659345  1147.48469809
0.38900002 19430.12602113  1477.66115391
0.39000002 19202.62635522  1351.48090691
0.39100002 18980.39336224  1450.86133735
0.39200002 18765.46344889  1769.95859635
0.39300002 18556.50106373  1096.68926482
0.39400002 18355.20405963  1522.56424888
0.39500002 18158.76350369  1186.49366354
0.39600002 17968.37193591  1498.02323927
0.39700002 17783.99462225  1698.72724680
0.39800002 17605.69966934  1475.18164519
0.39900002 17432.76038919  1568.94850936
0.40000002 17265.31125673  1350.06107768
0.40100002 17103.56076649  1134.47923939
0.40200002 16947.64955023  1126.93401024
0.40300002 16796.07824685  1221.41086798
0.40400002 16650.21071419  1314.95045346
0.40500002 16509.45510250  1407.59620873
0.40600002 16373.40754946  1099.55623608
0.40700002 16242.22125271  1491.03598165
0.40800002 16116.06270010  988.72049350
0.40900002 15994.14516326  1278.73196639
0.41000002 15877.15404677  1370.35723071
0.41100002 15764.22003112  1266.49749731
0.41200002 15655.52807805  969.86001039
0.41300002 15551.51324423  1448.62352734
0.41400002 15451.26029119  1154.20919844
0.41500002 15355.38069593  1053.99338091
0.41600002 15262.60085925  1432.01359347
0.41700002 15174.19650999  1046.56438288
0.41800002 15090.49108002  1232.96863212
0.41900002 15008.40363618  1323.74126344
0.42000002 14931.28776522  1037.20195376
0.42100002 14857.70618176  1222.64069963
0.42200002 14787.57488661  1032.09883812
0.42300002 14720.15764095  1029.82227736
0.42400002 14655.97278625  1121.18197128
0.42500002 14595.20480984  1025.89699470
0.42600002 14536.70672074  1117.29133150
0.42700002 14482.41643561  929.77117922
0.42800002 14430.02272331  1207.14360812
0.42900002 14381.66038787  1205.90228067
0.43000002 14335.36638608  1019.45962886
0.43100002 14290.80012612  926.04389206
0.43200002 14250.01242276  1110.64602086
0.43300002 14211.40780057  1572.77657582
0.43400002 14175.35796385  1109.93058117
0.43500002 14141.40221314  1479.75639771
0.43600002 14110.08307469  1109.89918725
0.43700002 14080.55623339  1110.11110605
0.43800002 14052.91418293  1388.07666420
0.43900002 14028.24050046  1203.62309198
0.44000002 14005.00494422  1019.07423306
0.44100002 13984.10225109  1298.00443246
0.44200002 13964.97325576  1113.56702019
0.44300002 13947.57721670  1207.58129265
0.44400002 13932.43331000  929.98996752
0.44500002 13917.75692834  1396.64697395
0.44600002 13905.04152995  1025.56638664
0.44700002 13895.14917640  933.75406891
0.44800002 13884.99784529  935.15464920
0.44900002 13878.12317744  936.77335887
0.45000002 13872.06261236  1501.51212832
0.45100002 13866.93276007  1034.19589426
0.45200002 13863.50310985  1130.43009715
0.45300002 13860.92540164  1132.71487750
0.45400002 13860.04601225  1135.13782220
0.45500002 13860.26010434  1327.25857049
0.45600002 13861.43416696  1045.22149290
0.45700002 13863.74834403  1333.41537892
0.45800002 13866.75300359  1145.67118745
0.45900002 13870.82281922  957.08681989
0.46000002 13876.68317554  1151.48722448
0.46100002 13882.08387330  1058.23130382
0.46200002 13889.46104147  1736.32160709
0.46300002 13897.44994025  1160.71507402
0.46400002 13905.54148514  1066.90272101
0.46500002 13914.85498225  1167.17809123
0.46600002 13924.84929392  1072.97931320
0.46700002 13934.85026935  1076.04918880
0.46800002 13946.69640488  1177.38016630
0.46900002 13957.95473561  1377.65019770
0.47000002 13970.14036487  1085.68950991
0.47100002 13982.89168340  1385.98428935
0.47200002 13996.30956759  993.03821089
0.47300002 14010.19068030  1095.73706504
0.47400002 14023.72659855  1398.86679451
0.47500002 14038.13404903  1303.01966419
0.47600002 14053.48955161  1508.29083762
0.47700002 14068.11513191  1210.42068332
