# SAXS profile: number of points = 501, q_min = 0, q_max = 0.5, delta_q = 0.001
#    q    intensity    error
0.00000000 1682732.95097188 302.89193117
0.00100000 1682645.40013488 504.79363203
0.00200000 1682382.71766284 984.19392100
0.00300000 1681945.11668758 1110.08381656
0.00400000 1681332.47341214 1387.09934327
0.00500000 1680545.47292419 1814.98918260
0.00600000 1679583.89929185 1939.91948266
0.00700000 1678448.56806530 2416.96603846
0.00800000 1677139.25404419 3396.20713283
0.00900000 1675657.32014873 3267.53191397
0.01000000 1674002.20797845 2762.10376243
0.01100000 1672175.51933996 4815.86570538
0.01200000 1670177.14752156 4559.58381264
0.01300000 1668008.44122746 5954.79039782
0.01400000 1665669.60438538 4872.08380881
0.01500000 1663162.12538423 3991.58927866
0.01600000 1660485.67856074 6774.78187138
0.01700000 1657642.68041368 5818.32606925
0.01800000 1654633.42801349 7073.55822305
0.01900000 1651458.93567271 5449.81473363
0.02000000 1648120.07052689 5191.57845700
0.02100000 1644619.46636216 7598.14227908
0.02200000 1640955.93725421 6227.42806481
0.02300000 1637132.53551004 7072.41287533
0.02400000 1633149.85047119 6736.74344037
0.02500000 1629010.28561480 8894.39656567
0.02600000 1624714.32080639 9212.13062032
0.02700000 1620263.72585874 7485.61875632
0.02800000 1615659.25989058 8433.74172340
0.02900000 1610904.17117416 10148.69674437
0.03000000 1605999.00901951 9708.26445577
0.03100000 1600945.61983598 10758.35506032
0.03200000 1595745.06684210 11058.51382255
0.03300000 1590401.52900135 9733.25780620
0.03400000 1584913.79053138 10817.03711948
0.03500000 1579285.63797626 9380.95712277
0.03600000 1573517.75278980 12226.23350420
0.03700000 1567613.60105840 10722.47752713
0.03800000 1561574.21197081 10048.73051908
0.03900000 1555402.26129182 10265.65539993
0.04000000 1549098.18233628 9526.95426284
0.04100000 1542665.67310661 10690.67361032
0.04200000 1536106.76721861 10898.67801904
0.04300000 1529422.81896510 12113.02928847
0.04400000 1522617.01618443 12333.19840387
0.04500000 1515691.56437266 12549.92673614
0.04600000 1508647.18615385 11699.55947250
0.04700000 1501487.84200132 12972.85555823
0.04800000 1494215.21942785 14277.22708593
0.04900000 1486832.28405473 12266.36691442
0.05000000 1479340.39645555 15843.73638382
0.05100000 1471743.76470032 17219.40284914
0.05200000 1464041.41663081 11639.12980461
0.05300000 1456239.30615767 12975.09282274
0.05400000 1448337.94865624 13143.66749700
0.05500000 1440341.20954316 13308.75339702
0.05600000 1432249.61047227 20817.74905966
0.05700000 1424068.84401695 19823.03923403
0.05800000 1415797.79207841 15035.77325393
0.05900000 1407440.51846690 12666.96525782
0.06000000 1399000.69069726 14080.94260971
0.06100000 1390480.02606793 12931.46484674
0.06200000 1381881.06168083 13058.77664330
0.06300000 1373207.21685212 13182.78989815
0.06400000 1364458.11251477 18624.85410685
0.06500000 1355639.85513410 14762.91871299
0.06600000 1346754.01153558 17595.34198397
0.06700000 1337801.64171712 16374.69286094
0.06800000 1328786.97848626 22004.71339375
0.06900000 1319713.94016623 26328.29433898
0.07000000 1310581.73305637 16749.23533280
0.07100000 1301394.93338589 16866.07912665
0.07200000 1292155.85408986 15564.01799164
0.07300000 1282867.42794250 15663.81202912
0.07400000 1273532.86346982 18625.41900111
0.07500000 1264152.86406715 18734.74632362
0.07600000 1254730.61571197 17390.56714905
0.07700000 1245270.13180286 16026.62734777
0.07800000 1235772.72530791 14643.90748164
0.07900000 1226239.47349527 16186.36180934
0.08000000 1216676.77563293 17739.14822089
0.08100000 1207084.98148700 20786.00435645
0.08200000 1197465.24855130 16399.28734845
0.08300000 1187821.55151523 17959.86270180
0.08400000 1178156.74385530 25536.54862171
0.08500000 1168472.52016802 18087.95546134
0.08600000 1158771.64456765 18146.36480593
0.08700000 1149056.37622229 16684.29936620
0.08800000 1139328.17552021 19773.04141477
0.08900000 1129591.11203588 15249.48072875
0.09000000 1119847.04999973 16814.50424562
0.09100000 1110097.36212552 19915.14761217
0.09200000 1100344.72355178 19954.75249922
0.09300000 1090593.16093312 19990.57357930
0.09400000 1080841.19088285 16942.18646333
0.09500000 1071093.45446257 23135.61970383
0.09600000 1061351.48439622 16986.93130628
0.09700000 1051620.00185344 23188.22213101
0.09800000 1041897.82291593 17019.40173754
0.09900000 1032189.07280141 20127.68786608
0.10000000 1022493.18029507 20138.00413294
0.10100000 1012814.30821494 15496.05964450
0.10200000 1003154.17345866 15498.73270894
0.10300000 993514.15061056 23248.23221790
0.10400000 983896.66905857 27893.47188006
0.10500000 974305.34294711 29433.76579527
0.10600001 964736.60049737 18580.82779987
0.10700001 955198.66864876 21663.90682441
0.10800001 945688.23319642 21646.80467660
0.10900001 936210.65937209 21626.46724936
0.11000001 926766.08720956 20059.85290186
0.11100001 917355.54897076 24658.51831709
0.11200001 907982.23027537 20007.38938601
0.11300001 898645.97965946 26123.63985862
0.11400001 889349.63479645 21477.79469160
0.11500001 880094.63709982 27564.56533193
0.11600001 870882.31435304 21397.57947130
0.11700001 861713.97726958 16777.57192758
0.11800001 852590.02360007 27393.71874847
0.11900001 843512.49344093 18219.87071651
0.12000001 834482.42669449 24233.37081272
0.12100001 825503.14679412 18128.04995758
0.12200001 816573.46606833 16572.35927460
0.12300001 807695.91583692 16525.45921661
0.12400001 798870.60204654 16476.70694355
0.12500001 790098.42553686 23892.57751406
0.12600001 781382.81649657 17862.41202685
0.12700001 772722.38262754 26705.28680213
0.12800001 764118.50440818 20699.97125999
0.12900001 755573.09748441 14733.67609537
0.13000001 747086.32562326 16148.27168949
0.13100001 738658.40956837 21938.15579829
0.13200001 730291.10870725 14569.30830551
0.13300001 721985.95853449 18865.49398588
0.13400001 713741.79984214 18789.25376668
0.13500001 705561.29522211 18711.48643150
0.13600001 697443.18238129 17198.94968847
0.13700001 689390.08720041 17124.45057353
0.13800001 681400.14064251 15627.91296258
0.13900001 673476.54194460 16971.60965735
0.14000001 665618.31874259 14077.82810532
0.14100001 657826.13708420 21017.54607109
0.14200001 650100.32806611 16733.58323367
0.14300001 642442.93032373 19427.47512934
0.14400001 634850.06714214 19331.18545633
0.14500001 627327.18098897 20607.69886760
0.14600001 619871.50858839 21869.06785466
0.14700001 612486.24190842 13597.19521184
0.14800001 605166.37623140 14878.01606157
0.14900001 597916.78450950 17489.06677205
0.15000001 590735.64975088 16056.19571781
0.15100001 583623.83507131 18629.27369450
0.15200001 576581.86112116 22495.34237313
0.15300001 569609.87453261 15789.58646714
0.15400001 562704.92047064 17007.75702384
0.15500001 555871.12180366 15608.86183688
0.15600001 549104.07274848 12931.40152352
0.15700001 542410.20165875 14140.63462464
0.15800001 535781.70084621 14056.23358514
0.15900001 529224.80327852 15241.67505384
0.16000001 522734.58812467 17673.65725873
0.16100001 516316.33736508 17565.08262631
0.16200001 509965.52706415 18702.98658797
0.16300001 503682.96037562 13629.66155119
0.16400001 497469.21863586 14774.83649100
0.16500001 491322.85257664 14680.72752809
0.16600001 485245.78015790 15802.02957690
0.16700001 479234.16486242 14492.04182968
0.16800001 473289.69060753 14397.47306808
0.16900001 467414.54260959 13110.97853927
0.17000001 461604.23392671 14208.17899117
0.17100001 455860.12866787 16465.66862501
0.17200001 450182.48387573 11682.23600824
0.17300001 444570.10891271 12763.60842964
0.17400001 439023.02541958 12676.79045767
0.17500001 433540.26055572 12590.00976113
0.17600001 428120.37763251 14776.57553187
0.17700001 422766.11911686 14674.21268762
0.17800001 417473.51333379 12330.08079869
0.17900001 412244.32990211 12243.65717640
0.18000001 407077.35285595 13262.58078251
0.18100001 401973.67834006 15363.43471187
0.18200001 396928.47240877 14164.39320700
0.18300001 391945.00303677 10817.68259483
0.18400001 387021.33476982 12887.81105666
0.18500001 382158.65986825 12794.67253684
0.18600001 377353.40966482 12701.71636939
0.18700001 372606.41777384 10507.50147765
0.18800001 367917.17709931 15645.67869535
0.18900001 363287.02252122 12424.41675725
0.19000001 358709.84249168 11304.74122026
0.19100001 354192.83882849 12240.90508830
0.19200001 349728.04459804 13162.01558037
0.19300001 345320.60145879 13063.47897047
0.19400001 340965.11960480 13962.52230760
0.19500001 336664.43438407 10887.72832248
0.19600001 332416.10969604 12769.76545743
0.19700001 328220.17052749 12672.58138294
0.19800001 324076.17537133 9673.67429200
0.19900001 319983.50760150 12479.35738623
0.20000001 315939.98597083 9525.59102721
0.20100001 311947.75945642 9452.01755825
0.20200001 308002.96820025 15943.77440244
0.20300001 304108.53765263 10236.29386120
0.20400001 300261.17455734 10156.33470945
0.20500001 296460.67805405 11908.82600032
0.20600001 292707.11284777 14541.69005363
0.20700001 288999.96293427 9918.47919674
0.20800001 285336.85837892 10734.37311963
0.20900001 281720.81777013 11536.46803303
0.21000001 278147.06046213 9683.69036776
0.21100001 274617.52981159 13972.54057734
0.21200001 271130.38917042 12993.92451527
0.21300001 267685.02373279 11170.49656846
0.21400001 264282.26334124 11932.34475398
0.21500001 260921.48729624 8453.85658808
0.21600001 257599.96989767 10061.85529991
0.21700001 254318.73328656 11642.71216032
0.21800001 251076.98741602 9072.66736924
0.21900001 247873.15315250 8997.79588487
0.22000001 244707.04450424 13790.46614508
0.22100001 241580.42461239 8849.09137197
0.22200001 238490.79921565 10370.77289427
0.22300001 235436.23560373 9492.78946841
0.22400001 232417.26109596 10197.30781278
0.22500001 229436.34946885 9333.47113775
0.22600001 226487.85278904 10025.48527779
0.22700001 223576.14635408 8410.93502359
0.22800001 220696.82129419 9855.21702095
0.22900001 217850.21867195 9018.99947954
0.23000001 215037.59137296 8941.26347214
0.23100001 212258.11927114 8125.24118996
0.23200001 209508.87466063 8054.56906726
0.23300001 206791.81836384 7258.39316785
0.23400001 204106.33017405 12231.07241415
0.23500001 201449.64192675 12123.24002453
0.23600001 198824.61470147 7775.03692564
0.23700001 196228.57539573 7705.89652026
0.23800001 193662.07781122 7637.06439971
0.23900001 191123.94754496 11008.73989930
0.24000001 188614.07284729 8182.07886713
0.24100001 186133.34541362 8107.96890973
0.24200001 183679.49681750 8034.14157083
0.24300001 181253.14718224 9950.79825101
0.24400001 178853.16806881 8544.71050868
0.24500001 176479.57963235 9116.93551508
0.24600001 174132.50050902 7096.77039396
0.24700001 171811.38374948 8947.93728896
0.24800001 169515.37072014 8230.81921469
0.24900001 167243.64844406 8153.12824735
0.25000001 164997.78245013 9318.25020470
0.25100001 162775.03711002 7383.47603262
0.25200001 160578.11876774 8531.51585375
0.25300001 158404.70442283 6638.74147644
0.25400001 156254.47892905 6574.40751198
0.25500001 154127.02378295 5918.47799328
0.25600001 152023.18786380 9376.79067108
0.25700001 149941.25912664 6963.27240330
0.25800001 147882.55020021 6319.76108182
0.25900001 145845.87516139 6825.58728050
0.26000001 143831.02226364 7320.28022447
0.26100001 141837.26702153 6131.62534347
0.26200001 139865.86430390 6621.25032944
0.26300001 137914.76989012 6553.71017528
0.26400001 135984.97915085 7567.56444783
0.26500001 134076.52412505 5884.61892230
0.26600001 132187.48572044 5823.51995898
0.26700001 130319.92566325 6810.51963744
0.26800001 128472.78827847 7775.81587851
0.26900001 126644.27453034 6154.91203343
0.27000001 124836.50318435 6089.52491350
0.27100001 123047.81088200 6526.45619803
0.27200001 121280.03457986 5463.05941618
0.27300001 119530.56835769 6877.78922879
0.27400001 117798.28625355 5831.01544550
0.27500001 116087.80962949 6728.44976455
0.27600001 114393.91699905 4753.06747625
0.27700001 112720.23848702 6580.60783431
0.27800001 111063.96526728 6042.43531634
0.27900001 109427.30258881 6434.32569674
0.28000001 107807.35778567 5452.89641488
0.28100001 106206.24298908 6289.53400749
0.28200001 104623.65567456 5773.65671167
0.28300001 103058.43489141 7024.46325467
0.28400001 101510.58796463 4773.53562497
0.28500001 99980.89784722  6433.77108099
0.28600001 98468.37358323  4662.97005174
0.28700001 96973.23853244  5027.09292347
0.28800001 95494.53640535  5381.59485385
0.28900001 94035.02162199  4499.57599759
0.29000001 92590.71985223  6062.37766928
0.29100001 91164.42171451  4791.60223212
0.29200001 89754.75949068  3944.72186634
0.29300001 88361.89195866  5455.46346777
0.29400001 86984.95663792  4233.99296477
0.29500001 85625.89541730  6082.86389839
0.29600001 84282.33331074  3754.77812674
0.29700001 82955.34317513  4078.91441701
0.29800001 81644.44888576  3661.75370587
0.29900001 80350.55981831  5423.66304449
0.30000001 79071.95229367  4284.11857808
0.30100001 77810.49242182  3524.81547357
0.30200001 76563.30451918  3827.78259065
0.30300001 75333.40769701  4122.24426433
0.30400001 74119.13104387  4747.33056811
0.30500001 72920.29918018  5355.26702532
0.30600001 71736.27921033  4955.18372105
0.30700001 70568.98478445  4564.40215195
0.30800001 69416.66383837  3539.20877336
0.30900001 68279.84779119  5397.52222344
0.31000001 67158.58043626  4072.83230338
0.31100001 66051.61847681  4636.82383660
0.31200001 64960.53932235  5184.82569149
0.31300001 63883.91553703  3008.93256426
0.31400001 62823.50393737  3265.25177174
0.31500001 61776.88549846  3221.04696240
0.31600002 60745.59120666  3177.29829850
0.31700002 59728.86448063  3988.69375887
0.31800002 58726.74341895  3653.09724734
0.31900002 57739.40734741  3880.08835746
0.32000002 56766.85747028  3553.32161160
0.32100002 55807.89943270  2965.07383726
0.32200002 54864.51411295  3189.82300157
0.32300002 53933.66361530  2883.29379340
0.32400002 53017.74902511  2584.61538736
0.32500002 52115.71793261  2803.30460034
0.32600002 51228.08473916  4774.20158334
0.32700002 50353.71223029  3468.36386266
0.32800002 49493.96538230  3175.28549946
0.32900002 48647.16607953  2648.83831846
0.33000002 47814.96773514  2611.41458652
0.33100002 46993.85003338  4212.52891647
0.33200002 46189.11163320  2537.86085887
0.33300002 45396.25842300  3184.09371657
0.33400002 44617.13122810  2690.41314046
0.33500002 43850.09714789  2431.04950100
0.33600002 43097.29771603  2614.28220326
0.33700002 42356.26021605  2791.70124305
0.33800002 41629.08871761  2116.83926154
0.33900002 40913.60384383  2086.59389485
0.34000002 40211.42866602  2468.17760841
0.34100002 39521.40631692  2027.44824007
0.34200002 38844.43921818  2797.96508939
0.34300002 38178.57841907  2364.01768767
0.34400002 37526.36607926  2524.58639755
0.34500002 36885.28710282  2105.78114043
0.34600002 36257.20700813  2264.62525698
0.34700002 35639.25571554  2232.44308375
0.34800002 35034.66094661  2017.47104616
0.34900002 34440.99407085  2169.78272923
0.35000002 33858.85384432  1960.93561327
0.35100002 33288.89342838  1933.41902189
0.35200002 32728.75742383  1906.28656644
0.35300002 32180.45702171  2221.41705342
0.35400002 31643.50730117  1853.51852796
0.35500002 31117.51363161  2991.01555194
0.35600002 30601.45673310  2294.19131994
0.35700002 30096.51193073  2262.65587412
0.35800002 29602.89768417  1912.93933896
0.35900002 29119.31122215  1729.68716852
0.36000002 28646.43063335  1861.44515072
0.36100002 28182.92753489  2295.49955645
0.36200002 27730.78406612  1660.93539031
0.36300002 27287.40680779  1638.88173050
0.36400002 26854.13366322  2499.44860910
0.36500002 26430.47560395  1741.23981527
0.36600002 26016.77601910  2005.11302277
0.36700002 25611.94242942  1555.15721798
0.36800002 25218.06347254  2093.72981898
0.36900002 24832.26244523  1378.19063099
0.37000002 24455.34374994  1360.93994415
0.37100002 24087.30710385  1881.70052009
0.37200002 23729.08043795  1460.40632473
0.37300002 23378.90004561  1442.71199016
0.37400002 23037.36848630  1684.60765036
0.37500002 22704.78343095  1664.71480002
0.37600002 22380.72088005  1645.31877344
0.37700002 22064.30840154  1751.46488388
0.37800002 21756.06067121  1484.19852930
0.37900002 21456.39236303  1467.61730716
0.38000002 21164.51637843  1209.55216833
0.38100002 20879.47353790  1316.03327944
0.38200002 20603.10955730  1302.01357015
0.38300002 20333.42028212  1522.56658285
0.38400002 20072.20447995  1622.83780908
0.38500002 19816.79942003  1147.39274078
0.38600002 19569.92759751  1590.44809120
0.38700002 19329.32419194  1237.46339339
0.38800002 19095.78817414  1559.93500985
0.38900002 18868.54098220  1434.95260968
0.39000002 18649.15486997  1531.28217892
0.39100002 18435.08994089  1192.38167387
0.39200002 18228.17303884  1719.28136248
0.39300002 18027.16059050  1704.64838620
0.39400002 17833.68766821  1373.63985772
0.39500002 17645.04081367  1257.73856879
0.39600002 17462.45879495  1351.85631166
0.39700002 17285.75931521  1444.74383201
0.39800002 17115.04846159  1229.20283875
0.39900002 16949.71795624  1322.07806322
0.40000002 16789.75899474  1413.86567193
0.40100002 16635.54482407  1304.06042054
0.40200002 16486.90939235  1096.29709199
0.40300002 16342.70058849  1485.55155388
0.40400002 16204.09044290  1476.59781157
0.40500002 16070.59445902  1468.04887339
0.40600002 15941.75225210  1265.21722743
0.40700002 15817.69120387  968.04274754
0.40800002 15698.54674489  1155.72706612
0.40900002 15583.65492967  1054.23430594
0.41000002 15473.66270330  1144.74162103
0.41100002 15367.71438725  1044.69727355
0.41200002 15265.88565399  1040.29382718
0.41300002 15168.80316186  1130.37926518
0.41400002 15075.31112339  1126.12579428
0.41500002 14986.12999791  1028.64801180
0.41600002 14900.14790188  1025.20472497
0.41700002 14818.42666480  1300.76155427
0.41800002 14741.36609841  1297.09286446
0.41900002 14665.91530002  1663.11487383
0.42000002 14595.27742212  1106.03017546
0.42100002 14528.28659572  1195.53276061
0.42200002 14464.64330039  1009.55982699
0.42300002 14403.67197889  1374.11037190
0.42400002 14345.88223418  1646.19006438
0.42500002 14291.55958739  1369.84605136
0.42600002 14239.41079784  1094.44116578
0.42700002 14191.45814526  911.09165610
0.42800002 14145.35134271  1183.32942265
0.42900002 14103.24055207  1091.59087046
0.43000002 14063.18768751  1545.61471604
0.43100002 14024.82450536  1090.57040522
0.43200002 13990.18489898  1272.12757315
0.43300002 13957.71725780  1272.10641116
0.43400002 13927.71714623  1363.17538029
0.43500002 13899.85912086  999.95591254
0.43600002 13874.61285407  1182.32519039
0.43700002 13851.04347131  1092.01631903
0.43800002 13829.44382320  910.66891891
0.43900002 13810.69190095  1276.10799212
0.44000002 13793.36501601  1186.16048076
0.44100002 13778.35132931  1278.90663099
0.44200002 13765.03625811  1280.56138378
0.44300002 13753.54893729  1099.18368316
0.44400002 13744.18450458  1467.87897465
0.44500002 13735.24891929  1286.44347475
0.44600002 13728.35890447  1380.72976225
0.44700002 13724.14129496  1291.16727422
0.44800002 13719.77112399  1201.23461769
0.44900002 13718.58851473  1111.20572236
0.45000002 13718.12131622  1020.83404613
0.45100002 13718.63251622  1023.13566155
0.45200002 13720.76660790  1118.79136223
0.45300002 13723.80301286  1214.96833831
0.45400002 13728.47986658  1218.05943389
0.45500002 13734.20543960  1033.36166625
0.45600002 13740.87899598  1130.32475978
0.45700002 13748.66776302  1133.44022410
0.45800002 13757.08284945  1231.32775880
0.45900002 13766.59696668  1044.88475929
0.46000002 13777.79048550  1048.00768295
0.46100002 13788.58818149  1146.65904752
0.46200002 13801.24907078  1150.19615207
0.46300002 13814.59178144  1153.79476027
0.46400002 13827.91025171  1060.94646435
0.46500002 13842.52093141  1161.11071076
0.46600002 13857.68778793  1261.95039822
0.46700002 13872.94820140  1168.65721188
0.46800002 13889.93407930  1758.88243583
0.46900002 13906.32696513  1176.47531701
0.47000002 13923.65063723  1573.92954263
0.47100002 13941.50746638  1085.76465294
0.47200002 13959.93575156  1089.50323737
0.47300002 13978.83772224  1192.67449099
0.47400002 13997.44565182  1196.78165996
0.47500002 14016.81687795  1200.96092703
0.47600002 14037.02840006  1004.34942963
0.47700002 14056.62866717  1612.57651713
