# SAXS profile: number of points = 501, q_min = 0, q_max = 0.5, delta_q = 0.001
#    q    intensity    error
0.00000000 1682732.95097188 277.65093691
0.00100000 1682645.41942277 555.27300160
0.00200000 1682382.78647439 1059.90118904
0.00300000 1681945.28269253 1110.08392612
0.00400000 1681332.76328343 1891.49943057
0.00500000 1680545.92414921 1814.98966992
0.00600000 1679584.54081775 2468.98937552
0.00700000 1678449.44937085 3222.62307673
0.00800000 1677140.40138785 3622.62341994
0.00900000 1675658.76030171 4021.58119664
0.01000000 1674003.99729876 2762.10671481
0.01100000 1672177.70496008 3611.90399997
0.01200000 1670179.70676699 3256.85057099
0.01300000 1668011.44975505 3853.10661887
0.01400000 1665673.08316690 4122.54106359
0.01500000 1663166.14754060 5987.39839776
0.01600000 1660490.23720030 5081.10035298
0.01700000 1657647.83352493 4475.64935129
0.01800000 1654639.20187645 6130.43851881
0.01900000 1651465.37749645 5945.27562725
0.02000000 1648127.20595358 5191.60093360
0.02100000 1644627.28865421 5969.99732849
0.02200000 1640964.51824652 7359.72619871
0.02300000 1637141.93316558 8251.19571874
0.02400000 1633160.08303242 6736.78564969
0.02500000 1629021.33287577 6988.50183721
0.02600000 1624726.32462804 9212.19868199
0.02700000 1620276.59658802 8846.71062256
0.02800000 1615673.15003557 9136.63208245
0.02900000 1610919.02905448 10873.70394538
0.03000000 1606014.82627106 8961.56314251
0.03100000 1600962.52400943 9221.54456261
0.03200000 1595763.06336677 14218.24954946
0.03300000 1590420.61870629 8922.26008226
0.03400000 1584934.07848094 8320.90429595
0.03500000 1579307.08991793 13645.21388700
0.03600000 1573540.37473277 11353.09432837
0.03700000 1567637.42605513 12509.74723846
0.03800000 1561599.34275222 9135.35657788
0.03900000 1555428.72552018 11199.08734238
0.04000000 1549125.94172063 10479.83748137
0.04100000 1542694.79739363 9718.97767422
0.04200000 1536137.31400931 11889.70336203
0.04300000 1529454.80457336 13122.72283237
0.04400000 1522650.32616590 14389.04625052
0.04500000 1515726.39731520 12550.21515291
0.04600000 1508683.57627229 12763.46364860
0.04700000 1501525.78293734 11892.08475394
0.04800000 1494254.70521215 16474.15889148
0.04900000 1486873.25556468 13381.85992297
0.05000000 1479383.06226820 13580.73714402
0.05100000 1471788.16561629 12627.94304925
0.05200000 1464087.34429656 13967.39391549
0.05300000 1456287.00935243 15334.70292335
0.05400000 1448387.35868179 11949.19626636
0.05500000 1440392.30237551 14519.15508525
0.05600000 1432302.44373697 14695.42375849
0.05700000 1424123.47165182 18584.81217257
0.05800000 1415854.22251367 18795.46568147
0.05900000 1407498.84359786 15200.98822083
0.06000000 1399060.83415107 15361.68867666
0.06100000 1390542.01035940 15518.44956081
0.06200000 1381944.89090871 16977.19377839
0.06300000 1373272.94562877 19775.13134165
0.06400000 1364525.73687765 14634.53921242
0.06500000 1355709.55225870 16105.83023423
0.06600000 1346825.72159403 17596.27887593
0.06700000 1337875.36157522 16375.59519204
0.06800000 1328862.51723135 19255.21877600
0.06900000 1319791.56101232 15243.59324338
0.07000000 1310661.44810583 13958.54507598
0.07100000 1301476.75511868 14055.94961363
0.07200000 1292239.79986946 21225.03970718
0.07300000 1282953.50554706 18513.01995248
0.07400000 1273621.06240436 18626.70891059
0.07500000 1264243.12318541 15853.60950784
0.07600000 1254822.96198785 23189.12942466
0.07700000 1245364.61784660 20399.07339681
0.07800000 1235869.45559737 17574.06448275
0.07900000 1226338.40543922 16187.66771106
0.08000000 1216777.82804546 14783.85130428
0.08100000 1207188.21828793 16333.25735976
0.08200000 1197570.86951427 20873.66123513
0.08300000 1187929.24733942 23948.65475032
0.08400000 1178266.80180794 18027.48291385
0.08500000 1168584.86886120 16582.22006760
0.08600000 1158886.32923621 19660.50749858
0.08700000 1149173.26011238 18202.90529495
0.08800000 1139447.37049466 21296.27235470
0.08900000 1129712.56283078 16776.23234601
0.09000000 1119970.78014209 18345.12224050
0.09100000 1110223.35082441 16853.19125730
0.09200000 1100473.17502345 23027.40226935
0.09300000 1090723.86810603 18455.04871560
0.09400000 1080974.09802668 20025.04610707
0.09500000 1071228.84048830 16968.26563089
0.09600000 1061489.22020307 18533.60265597
0.09700000 1051759.99213436 29375.65796134
0.09800000 1042040.36771734 23211.45028225
0.09900000 1032333.75224950 17033.50771307
0.10000000 1022640.43881862 18591.60405203
0.10100000 1012963.79172641 18598.01609079
0.10200000 1003306.00790512 17051.18640637
0.10300000 993668.49115061 17051.35211025
0.10400000 984053.40813074 17048.72609792
0.10500000 974464.22223241 17043.38004872
0.10600001 964897.92385889 23229.91860995
0.10700001 955362.47421969 21667.62193493
0.10800001 945854.27158579 17011.18987505
0.10900001 936379.00377901 21630.35600534
0.11000001 926936.87979470 26236.94961755
0.11100001 917528.66492018 15414.48229627
0.11200001 908157.68542294 16932.60084185
0.11300001 898823.75248459 23054.83033667
0.11400001 889529.88923320 16878.83044293
0.11500001 880277.17106158 21443.55289679
0.11600001 871067.28942994 21402.12430915
0.11700001 861901.30969878 18306.78468016
0.11800001 852779.59444346 22833.17471663
0.11900001 843704.44642493 18224.01690116
0.12000001 834676.65710927 18179.25844817
0.12100001 825699.69018373 16621.33554640
0.12200001 816772.35906218 16576.39580810
0.12300001 807897.07750619 16529.57498456
0.12400001 799073.90460120 16480.90005894
0.12500001 790304.10895553 22405.12254463
0.12600001 781590.82506901 16378.23651112
0.12700001 772932.58890185 16324.33704691
0.12800001 764331.11001139 22184.71151363
0.12900001 755787.87503173 19159.22353507
0.13000001 747303.26202999 16152.96077015
0.13100001 738877.61652418 17555.73299615
0.13200001 730512.48514429 17488.46971877
0.13300001 722209.54424845 23226.26003799
0.13400001 713967.48274090 21686.76331069
0.13500001 705789.23233818 18717.53132411
0.13600001 697673.15308335 20072.05756062
0.13700001 689622.39647142 18557.73956410
0.13800001 681634.52655192 22739.32887806
0.13900001 673713.01775331 15562.77144401
0.14000001 665856.89321609 19716.02353795
0.14100001 658066.74515651 18221.86903278
0.14200001 650342.94428623 18134.81385676
0.14300001 642687.63368513 13882.05354238
0.14400001 635096.71634811 13813.35423215
0.14500001 627575.85149831 19241.47651460
0.14600001 620122.23011783 13673.69581915
0.14700001 612738.99148628 20404.20937909
0.14800001 605421.01237880 14884.27629155
0.14900001 598173.20244815 14804.78745909
0.15000001 590994.10809672 13386.01717998
0.15100001 583884.23841720 14643.81739047
0.15200001 576844.15283667 19857.86089844
0.15300001 569874.13198740 14480.50237712
0.15400001 562970.98984632 14397.98374478
0.15500001 556138.87359419 14315.01528188
0.15600001 549373.64731979 14231.52500547
0.15700001 542681.59559545 18006.17619169
0.15800001 536054.74608381 15341.88755704
0.15900001 529499.55886006 12707.99001247
0.16000001 523011.13976614 17683.00747017
0.16100001 516594.65457836 21340.52618800
0.16200001 510245.49828109 16218.15392846
0.16300001 503964.46801193 13637.27914819
0.16400001 497752.35661220 16015.18283007
0.16500001 491607.69265031 17137.44497487
0.16600001 485532.15410904 15811.35534506
0.16700001 479522.02724292 13292.35122277
0.16800001 473579.22698560 12005.23397093
0.16900001 467705.49474967 13119.13974719
0.17000001 461896.57203443 14217.17715855
0.17100001 456153.98951197 14122.52818217
0.17200001 450477.64899032 12858.88509766
0.17300001 444866.86930686 13933.23100468
0.17400001 439321.12449618 13838.61607517
0.17500001 433839.62021668 14889.37646903
0.17600001 428421.13988589 12512.03998130
0.17700001 423068.27504434 13555.10817264
0.17800001 417776.69449672 11217.30477705
0.17900001 412548.87153513 12252.70206333
0.18000001 407383.09699121 13272.54192690
0.18100001 402280.61270739 14276.93961938
0.18200001 397236.60552768 15265.80347155
0.18300001 392254.30506366 11908.84126430
0.18400001 387331.70275792 12898.14631116
0.18500001 382470.09131491 10670.91605180
0.18600001 377665.88046367 13771.58698173
0.18700001 372920.01003317 10516.34477978
0.18800001 368231.87044019 12527.24882424
0.18900001 363602.54924818 12435.20777182
0.19000001 359026.25208007 13371.93339053
0.19100001 354510.24867483 13272.86433753
0.19200001 350046.26814142 13173.99192399
0.19300001 345639.83575812 11063.93166542
0.19400001 341285.08943472 10980.84827145
0.19500001 336985.33952859 9907.36945031
0.19600001 332737.68875728 14748.59875113
0.19700001 328542.50801640 11709.25553906
0.19800001 324399.33895043 13556.64901541
0.19900001 320307.23956828 10570.13940530
0.20000001 316264.37056193 12395.98259002
0.20100001 312272.83470470 10408.05407262
0.20200001 308328.66430397 11266.32992615
0.20300001 304434.68363555 14905.12281528
0.20400001 300587.76740098 11091.68914135
0.20500001 296787.93960011 9170.74776712
0.20600001 293034.95619460 11828.35656590
0.20700001 289328.17524390 11735.15134260
0.20800001 285665.64192364 9851.18012740
0.20900001 282049.93376871 10661.48800044
0.21000001 278476.53819727 8813.78285059
0.21100001 274947.44988350 13989.32691140
0.21200001 271460.56816147 10407.79867533
0.21300001 268015.46766734 9463.62661073
0.21400001 264612.95850525 11947.27564134
0.21500001 261252.47507783 10157.49671125
0.21600001 257931.14673166 13433.05475688
0.21700001 254650.15373324 11657.88458909
0.21800001 251408.58798269 9084.64975628
0.21900001 248204.74224327 9828.90825756
0.22000001 245038.78253403 9747.64323010
0.22100001 241912.17348432 11277.94606110
0.22200001 238822.76831243 8787.48417557
0.22300001 235768.08339889 8713.98877447
0.22400001 232749.12062947 12568.45310831
0.22500001 229768.14432497 8568.05450704
0.22600001 226819.68585326 12357.13706963
0.22700001 223907.84758274 9189.17849934
0.22800001 221028.35573688 10629.25413004
0.22900001 218181.59680972 9032.71853509
0.23000001 215368.93302471 8955.04065867
0.23100001 212589.15685704 9617.53391105
0.23200001 209839.60117398 8067.28384866
0.23300001 207122.39139101 9450.99516615
0.23400001 204436.65680654 7927.03174259
0.23500001 201779.60377232 9285.89780479
0.23600001 199154.18785766 7079.93171320
0.23700001 196557.88696708 10525.67534493
0.23800001 193990.91824169 8345.48969749
0.23900001 191452.38444197 7581.51478250
0.24000001 188942.08811068 9562.35953158
0.24100001 186460.94094317 14890.77144807
0.24200001 184006.43345413 7377.73829832
0.24300001 181579.77402228 7310.40204794
0.24400001 179179.22251295 9218.77143437
0.24500001 176804.98891305 9786.15659927
0.24600001 174457.61858668 9695.48261160
0.24700001 172135.72860335 7684.13928836
0.24800001 169839.05027269 7612.18659333
0.24900001 167566.69096426 8797.25169180
0.25000001 165320.09286389 6846.73196986
0.25100001 163096.52936385 8631.06874226
0.25200001 160899.06151799 8548.56754288
0.25300001 158724.81029761 9675.86489351
0.25400001 156573.88386929 8983.42701202
0.25500001 154445.63677961 7116.85527952
0.25600001 152340.96402405 8809.11666147
0.25700001 150258.10533815 10466.98011308
0.25800001 148198.68377756 7484.77487832
0.25900001 146161.01787314 6840.33596011
0.26000001 144145.19056371 6771.94137310
0.26100001 142150.54016726 7262.47144078
0.26200001 140178.19147153 6636.03589826
0.26300001 138226.21706872 6568.51014591
0.26400001 136295.46290154 7043.06837870
0.26500001 134385.96849496 8579.20063468
0.26600001 132495.84983822 6898.39674826
0.26700001 130627.31789753 6826.58395636
0.26800001 128778.98830685 5715.85566648
0.26900001 126949.53257851 6169.74757528
0.27000001 125140.57197734 7121.75028825
0.27100001 123350.81789875 6542.52769096
0.27200001 121581.90184875 5476.65702795
0.27300001 119831.15567314 7880.09716998
0.27400001 118097.73494040 6820.14451557
0.27500001 116386.04915340 7227.57399447
0.27600001 114690.85584383 6195.02687159
0.27700001 113016.01459382 4712.76803160
0.27800001 111358.46404245 5126.38713481
0.27900001 109720.59457949 6912.39778566
0.28000001 108099.32689747 5012.02552881
0.28100001 106496.86168148 4955.29920857
0.28200001 104912.91263115 5789.61935757
0.28300001 103346.35011563 4842.81019563
0.28400001 101797.24049880 5222.19868476
0.28500001 100266.09350658 5161.69873803
0.28600001 98752.20087523  5951.79542846
0.28700001 97255.65501068  5882.02229346
0.28800001 95775.66699582  6227.81304118
0.28900001 94314.57853785  5333.48966877
0.29000001 92868.86768218  6485.96202593
0.29100001 91441.14084177  4005.12215845
0.29200001 90029.95825908  5935.22527918
0.29300001 88635.58185894  4299.71227951
0.29400001 87257.20069213  4633.35757608
0.29500001 85896.55391935  4195.18789201
0.29600001 84551.47881002  4520.12227116
0.29700001 83222.98579763  4092.07440538
0.29800001 81910.52470400  4041.05592757
0.29900001 80615.08029797  4353.21454217
0.30000001 79334.96979607  4656.56627262
0.30100001 78071.80547084  5304.97943288
0.30200001 76823.05900467  4189.92983647
0.30300001 75591.51861852  3791.67075341
0.30400001 74375.59691718  4083.22046406
0.30500001 73175.18282754  5373.98568127
0.30600001 71989.52843896  3978.14152987
0.30700001 70820.56743402  3599.10140739
0.30800001 69666.57100257  3229.04571884
0.30900001 68528.08364882  4142.52285270
0.31000001 67405.07979432  3458.89183341
0.31100001 66296.41305011  3723.20673317
0.31200001 65203.59517326  3979.70161982
0.31300001 64125.25844452  3926.38976046
0.31400001 63063.28851951  3575.68862835
0.31500001 62014.82756995  3527.40355919
0.31600002 60981.82649327  3479.62318446
0.31700002 59963.33341419  3432.30136714
0.31800002 58959.47825273  5360.30121915
0.31900002 57970.28710592  4730.37565182
0.32000002 56996.04223601  3293.23147633
0.32100002 56035.25999537  2977.15350452
0.32200002 55090.13255117  3469.85216303
0.32300002 54157.41803628  2632.05064119
0.32400002 53239.74905745  3633.61304523
0.32500002 52335.89022890  2559.22515338
0.32600002 51446.50131485  2775.79610988
0.32700002 50570.33275052  3234.47863588
0.32800002 49708.67673329  3189.06030684
0.32900002 48860.03131898  3144.14316426
0.33000002 48026.08989224  2861.39457128
0.33100002 47203.12948013  3055.93074726
0.33200002 46396.50416862  2317.50549297
0.33300002 45601.81012210  2513.11587484
0.33400002 44820.86816548  2477.47360517
0.33500002 44051.91909346  2886.28187569
0.33600002 43297.28152346  3064.14875852
0.33700002 42554.38992393  2373.25843845
0.33800002 41825.35460538  2339.50132064
0.33900002 41107.96359657  2725.45811552
0.34000002 40403.83914589  3926.64729335
0.34100002 39711.99240464  3259.56049094
0.34200002 39033.17071168  2008.25672822
0.34300002 38365.38196823  2177.61918365
0.34400002 37711.30215306  2732.18397038
0.34500002 37068.31461387  2308.61474349
0.34600002 36438.34096560  1896.61573708
0.34700002 35818.42895151  2243.66649578
0.34800002 35212.04432425  3318.03109382
0.34900002 34616.42673772  1817.36248980
0.35000002 34032.36930254  2687.70649296
0.35100002 33460.48304750  2650.07038288
0.35200002 32898.46866564  2612.96099753
0.35300002 32348.19349761  2061.22698729
0.35400002 31809.42108886  2032.62210385
0.35500002 31281.51270931  1837.47614358
0.35600002 30763.54913994  1647.38813447
0.35700002 30256.66681117  2112.21801013
0.35800002 29761.14576962  2403.95666340
0.35900002 29275.64486957  1738.97338762
0.36000002 28800.81103632  2183.38958808
0.36100002 28335.36082155  1692.47118204
0.36200002 27881.36120164  1669.95420827
0.36300002 27436.04332924  1797.60964408
0.36400002 27000.86314290  1478.29732710
0.36500002 26575.17416523  1896.67027001
0.36600002 26159.63382845  1728.10549256
0.36700002 25752.89266873  1705.87169118
0.36800002 25357.11157421  1964.92266896
0.36900002 24969.33416421  1524.37792293
0.37000002 24590.49461351  1505.30719907
0.37100002 24220.60422108  1621.81173547
0.37200002 23860.52177129  1601.99550761
0.37300002 23508.40232255  1318.82143277
0.37400002 23164.93750349  1824.23891482
0.37500002 22830.44842899  1545.16482287
0.37600002 22504.40702059  1272.62427730
0.37700002 22186.12197669  1635.33912837
0.37800002 21876.02053733  2114.20810498
0.37900002 21574.45767195  1598.66738922
0.38000002 21280.58413580  1459.42252917
0.38100002 20993.65395351  1443.52371423
0.38200002 20715.43081701  1190.10155682
0.38300002 20443.81081811  1295.31991480
0.38400002 20180.77504549  1631.61573972
0.38500002 19923.42065719  1384.27933284
0.38600002 19674.70918731  1370.54030692
0.38700002 19432.18767125  1244.04871365
0.38800002 19196.73373052  1456.16830611
0.38900002 18967.63298395  2108.25250605
0.39000002 18746.40546148  1539.26742537
0.39100002 18530.37400330  1198.54464732
0.39200002 18321.56552835  1296.06760688
0.39300002 18118.67939007  1499.13960376
0.39400002 17923.39439380  2017.72621948
0.39500002 17732.89033628  1264.00048306
0.39600002 17548.42035190  1254.01017776
0.39700002 17369.85773874  1140.67861175
0.39800002 17197.23342694  1132.17991630
0.39900002 17030.06972308  1123.98465498
0.40000002 16868.27371613  1521.94006815
0.40100002 16712.18218326  1007.74463340
0.40200002 16561.74296605  1101.27315071
0.40300002 16415.69731599  1094.27043493
0.40400002 16275.26032469  1087.59432273
0.40500002 16139.85920117  1081.20921911
0.40600002 16009.25249058  977.36491086
0.40700002 15883.32039214  1069.26517946
0.40800002 15762.41552660  967.02423838
0.40900002 15645.69867910  1058.43156579
0.41000002 15533.83802115  1149.19339126
0.41100002 15426.07283483  953.33134636
0.41200002 15322.44354188  1423.83813359
0.41300002 15223.47449777  945.37781111
0.41400002 15128.26219241  1130.08123932
0.41500002 15037.30782816  1125.99366353
0.41600002 14949.50465119  1215.61902831
0.41700002 14865.97508238  1398.14502275
0.41800002 14787.13422687  1115.24571624
0.41900002 14709.92077669  1297.41507398
0.42000002 14637.60826541  1386.54750864
0.42100002 14568.69305425  1291.07763964
0.42200002 14503.32605206  1196.30690609
0.42300002 14440.61615430  1561.31949259
0.42400002 14381.02307119  1375.18539635
0.42500002 14324.94571316  1006.90048189
0.42600002 14271.07754455  1005.46881605
0.42700002 14221.34577053  1186.91357425
0.42800002 14173.47622489  1094.47588595
0.42900002 14129.60227086  1002.49532862
0.43000002 14087.84850523  1001.85739392
0.43100002 14047.74561749  910.29395915
0.43200002 14011.41205221  1092.04950710
0.43300002 13977.15453400  1273.87792460
0.43400002 13945.48982133  909.94325396
0.43500002 13915.88858492  1001.10907224
0.43600002 13888.91513833  1183.54395960
0.43700002 13863.64426850  1184.09391309
0.43800002 13840.36015963  1093.66531164
0.43900002 13819.92208723  1185.74937128
0.44000002 13800.88589727  912.92864537
0.44100002 13784.20884761  1370.83963486
0.44200002 13769.25922803  1097.96078288
0.44300002 13756.03813161  1099.38261958
0.44400002 13745.08049953  1100.98100019
0.44500002 13734.48892336  1010.72108777
0.44600002 13725.89883989  920.32156083
0.44700002 13720.06459488  1106.38606136
0.44800002 13713.99350905  923.63750661
0.44900002 13711.08642038  1018.04821496
0.45000002 13709.08745495  1020.16179131
0.45100002 13707.94932443  929.39900824
0.45200002 13708.41407485  1304.08149274
0.45300002 13709.85013258  933.64083828
0.45400002 13712.86773690  1310.26457436
0.45500002 13716.98880922  1125.89049482
0.45600002 13722.04068863  1316.90430730
0.45700002 13728.22568819  1320.38080927
0.45800002 13735.01493847  1229.35257033
0.45900002 13742.97344918  948.26521294
0.46000002 13752.59077175  1046.09086663
0.46100002 13761.74150671  1239.79535110
0.46200002 13772.89252863  1052.18017459
0.46300002 13784.60386189  1439.11271139
0.46400002 13796.35451067  1058.52535000
0.46500002 13809.41009248  965.27781121
0.46600002 13823.04216954  1065.13456486
0.46700002 13836.76089845  1262.74285944
0.46800002 13852.20156022  1266.85315373
0.46900002 13867.04377924  1075.38929605
0.47000002 13882.79154694  1471.22890392
0.47100002 13899.12938538  984.05840713
0.47200002 13916.04563409  1086.07783299
0.47300002 13933.43058961  1386.93374663
0.47400002 13950.51434844  1093.37161388
0.47500002 13968.35430977  1097.07459949
0.47600002 13987.13039180  1301.01299506
0.47700002 14005.19655897  1205.00716905
