# SAXS profile: number of points = 501, q_min = 0, q_max = 0.5, delta_q = 0.001
#    q    intensity    error
0.00000000 1700912.83420643 306.16431016
0.00100000 1700824.91402519 612.29698359
0.00200000 1700561.11983416 841.77778097
0.00300000 1700121.67239916 1020.07303978
0.00400000 1699506.44433192 1784.48183436
0.00500000 1698716.11506519 2140.38238970
0.00600000 1697750.47762470 1782.63807408
0.00700000 1696610.35131398 4479.05151362
0.00800000 1695295.48756040 2975.24370628
0.00900000 1693807.28968527 3556.99546039
0.01000000 1692145.15722508 4467.26340797
0.01100000 1690310.74230882 4259.58325608
0.01200000 1688303.86211930 4609.06974566
0.01300000 1686125.94503113 3540.86464073
0.01400000 1683777.13133047 4546.19845613
0.01500000 1681259.02488977 6052.53275912
0.01600000 1678571.16338135 5564.46365536
0.01700000 1675716.01617881 5881.76348064
0.01800000 1672693.91282161 4767.17786605
0.01900000 1669505.84958809 5008.51777476
0.02000000 1666152.65380083 7872.57164533
0.02100000 1662637.05997177 8230.05382000
0.02200000 1658957.76638174 6295.74500945
0.02300000 1655117.91060828 6554.26722435
0.02400000 1651118.01918109 6810.86213968
0.02500000 1646960.57875758 7065.46120555
0.02600000 1642645.99972484 7983.25992380
0.02700000 1638176.09674400 8944.44189789
0.02800000 1633551.62232789 9237.73484790
0.02900000 1628775.80003691 7329.49143669
0.03000000 1623849.20302180 8305.98905524
0.03100000 1618773.64986929 11655.17081535
0.03200000 1613550.27166159 11980.61131889
0.03300000 1608183.27912999 8201.73510167
0.03400000 1602671.36788332 10096.83008354
0.03500000 1597018.29192488 9486.28909209
0.03600000 1591224.82142208 8831.29816702
0.03700000 1585294.34693732 9036.17819544
0.03800000 1579228.04315173 15705.42361598
0.03900000 1573028.53577640 11325.80598209
0.04000000 1566696.19161726 10598.70022742
0.04100000 1560234.60257988 9829.47845201
0.04200000 1553646.15271432 14029.42540988
0.04300000 1546931.94261521 12251.70155421
0.04400000 1540095.12456352 12474.77108832
0.04500000 1533138.08755122 10578.65329564
0.04600000 1526061.56082763 13986.35485517
0.04700000 1518869.25290799 13123.03095545
0.04800000 1511563.16295302 12220.98874109
0.04900000 1504146.00295898 16921.64332095
0.05000000 1496619.32794753 14883.87990952
0.05100000 1488987.24105764 12775.51112341
0.05200000 1481248.81251905 11775.92860830
0.05300000 1473410.06804886 16708.47095059
0.05400000 1465471.40476622 14508.16758376
0.05500000 1457436.77533147 14690.96338066
0.05600000 1449306.70094149 18587.35930694
0.05700000 1441086.80106731 21313.67478268
0.05800000 1432776.02129049 15216.08205658
0.05900000 1424378.41718398 16665.22825942
0.06000000 1415897.64019526 14251.01041436
0.06100000 1407335.49418131 20941.15313203
0.06200000 1398694.43055312 18504.72818119
0.06300000 1389978.05732051 18681.30596384
0.06400000 1381185.69967753 24239.81016296
0.06500000 1372323.60137834 16303.20514700
0.06600000 1363393.41426783 24663.78801809
0.06700000 1354396.17026118 15196.32574150
0.06800000 1345336.05152365 19493.92029907
0.06900000 1336217.08327939 23851.47605324
0.07000000 1327038.29893076 16959.55025452
0.07100000 1317804.32254377 17078.74482010
0.07200000 1308517.67477495 22925.23073603
0.07300000 1299181.25170032 18747.18634045
0.07400000 1289798.08821249 17412.27500688
0.07500000 1280368.87916792 17515.44708801
0.07600000 1270896.95328541 17614.63259832
0.07700000 1261386.31293419 14758.22055332
0.07800000 1251838.22002511 20767.99704416
0.07900000 1242253.95183799 26832.68661825
0.08000000 1232639.46251754 16474.22718937
0.08100000 1222995.61561681 18051.41613344
0.08200000 1213323.43674427 18127.05299557
0.08300000 1203626.61249597 15165.69602921
0.08400000 1193908.18994724 21311.26219088
0.08500000 1184170.10934194 15275.79512764
0.08600000 1174414.88956776 18391.33803413
0.08700000 1164644.65913893 15373.31022253
0.08800000 1154861.28862683 18500.87871267
0.08900000 1145068.46587051 17004.26751686
0.09000000 1135268.23578919 15496.41214647
0.09100000 1125462.04637437 17084.51466661
0.09200000 1115652.41202972 20232.35744281
0.09300000 1105843.49074716 21829.35153316
0.09400000 1096033.62041765 17180.32780748
0.09500000 1086227.82110936 17205.84949509
0.09600000 1076427.28624822 18794.42130138
0.09700000 1066636.77505258 20383.42972954
0.09800000 1056855.33866650 18833.16302053
0.09900000 1047086.91769327 21988.82630553
0.10000000 1037330.99584161 20430.23492388
0.10100000 1027591.66560794 22011.01451254
0.10200000 1017870.98507101 17298.71820495
0.10300000 1008169.75672280 18872.93873365
0.10400000 998490.88701353 20444.10187340
0.10500000 988837.66067321 18867.02345333
0.10600001 979206.86771433 22002.77935285
0.10700001 969606.63821098 17278.39110600
0.10800001 960033.52250966 17266.20371491
0.10900001 950492.79556882 25093.01098404
0.11000001 940984.92701557 15667.39977227
0.11100001 931510.81913927 17214.32074803
0.11200001 922073.58752302 17192.06284872
0.11300001 912673.11050552 20288.72420175
0.11400001 903312.35729814 17140.35278678
0.11500001 893992.81248362 17111.02323666
0.11600001 884715.39887470 17079.43157957
0.11700001 875481.82866523 18595.23491659
0.11800001 866292.33365960 23194.97832618
0.11900001 857149.21515997 21600.16123943
0.12000001 848053.23212339 20009.81695451
0.12100001 839007.81936208 16889.22819938
0.12200001 830011.67548335 16845.08774753
0.12300001 821067.56202203 24434.97179701
0.12400001 812175.36386906 22842.43318509
0.12500001 803336.18800807 16701.36013566
0.12600001 794553.29618299 18163.48920667
0.12700001 785825.57314706 18105.42205855
0.12800001 777154.06676150 18045.51828067
0.12900001 768540.94010696 19482.51374996
0.13000001 759986.28891306 16427.10440915
0.13100001 751490.27557098 23807.21305230
0.13200001 743054.64950088 20753.51733889
0.13300001 734681.18209921 16243.80170199
0.13400001 726368.34420751 27947.02336096
0.13500001 718119.27978551 19044.52419783
0.13600001 709932.24229410 21883.66240055
0.13700001 701810.40103428 15980.22358507
0.13800001 693751.17610572 17357.65524468
0.13900001 685758.50207038 23041.48675616
0.14000001 677831.08447656 17203.35373534
0.14100001 669969.50206383 21405.52660049
0.14200001 662174.17884355 22725.81888978
0.14300001 654447.28320697 19790.48677765
0.14400001 646784.85566860 21101.35691154
0.14500001 639192.09480553 18197.79979754
0.14600001 631666.59032050 18106.72366571
0.14700001 624211.59022626 16628.99754813
0.14800001 616821.76761962 15164.56387237
0.14900001 609502.19253727 13713.79997912
0.15000001 602251.00361607 16369.18305063
0.15100001 595069.19988733 16281.09407714
0.15200001 587957.02500938 16192.33723283
0.15300001 580915.04389762 14761.05196200
0.15400001 573939.97327486 16012.92601003
0.15500001 567035.90705263 14595.50493634
0.15600001 560198.71796509 17150.48455992
0.15700001 553434.71010806 14428.04357348
0.15800001 546735.98948541 16951.55015409
0.15900001 540108.87484394 14258.87496891
0.16000001 533548.48970653 15462.23596155
0.16100001 527060.18337457 12807.56306057
0.16200001 520639.30018568 12729.63149046
0.16300001 514286.45595659 20242.31586205
0.16400001 508002.75188639 13830.37557303
0.16500001 501786.28952435 13743.92711894
0.16600001 495639.17850614 18623.64301165
0.16700001 489557.71809297 16037.91160195
0.16800001 483543.45789875 13483.60996015
0.16900001 477598.35736633 13396.63455669
0.17000001 471718.28293755 13309.53198155
0.17100001 465904.49790150 12020.33661347
0.17200001 460157.05749616 11941.07620592
0.17300001 454475.27705305 15420.34687863
0.17400001 448858.91596247 16495.56594064
0.17500001 443306.58944721 15214.28286836
0.17600001 437817.42961438 11624.05330526
0.17700001 432394.03703294 17317.38200108
0.17800001 427032.19334372 16052.14090597
0.17900001 421734.09269900 13664.18524886
0.18000001 416498.10661370 12438.71654156
0.18100001 411325.66438597 16843.78675225
0.18200001 406211.84385634 14495.67033276
0.18300001 401159.98316567 12179.21766425
0.18400001 396167.87615140 14291.75680731
0.18500001 391237.04834428 10915.51416448
0.18600001 386363.62813540 22758.75059052
0.18700001 381548.69838888 12911.60856349
0.18800001 376791.67533529 13886.65785057
0.18900001 372093.92539750 15907.01606231
0.19000001 367448.98889235 11580.15543209
0.19100001 362864.76230879 13585.65734276
0.19200001 358332.75626186 10373.73378395
0.19300001 353858.23354457 11327.00259099
0.19400001 349435.93546699 13287.30207401
0.19500001 345068.55426507 12174.01916976
0.19600001 340753.74459988 14096.98308027
0.19700001 336491.49734592 11992.55753215
0.19800001 332281.45482180 11902.32227421
0.19900001 328122.80635309 11812.42158697
0.20000001 324013.56131168 11722.81120229
0.20100001 319955.74611726 10664.12552210
0.20200001 315945.66826176 14430.81907991
0.20300001 311985.92076549 13365.47747731
0.20400001 308073.64898144 10420.59166933
0.20500001 304208.51781663 10340.04800933
0.20600001 300390.51207055 10259.83842473
0.20700001 296619.04059844 12030.86885536
0.20800001 292891.82956351 10100.37521994
0.20900001 289212.10339586 10932.21802514
0.21000001 285574.58070814 11749.96667868
0.21100001 281981.73443799 8967.01957903
0.21200001 278431.38732308 10675.05989462
0.21300001 274923.03137801 10590.03566933
0.21400001 271457.57154522 9629.95780584
0.21500001 268034.44467904 10421.17970181
0.21600001 264650.65705223 10337.25515319
0.21700001 261307.55028081 9399.23302799
0.21800001 258004.10463121 10170.52228543
0.21900001 254738.78802053 10087.65648257
0.22000001 251511.51565762 10838.88927976
0.22100001 248323.97123751 9096.10749653
0.22200001 245173.68144150 9841.27203840
0.22300001 242058.71240582 10573.12505784
0.22400001 238979.49911584 9678.67017186
0.22500001 235938.73032063 8798.15566970
0.22600001 232930.72722547 9517.54996450
0.22700001 229959.78894898 8651.08766936
0.22800001 227021.22287284 17155.99462381
0.22900001 224115.87301915 10051.59738026
0.23000001 221244.86830516 8432.74855425
0.23100001 218407.14657199 9880.73977820
0.23200001 215599.80454825 9795.77758293
0.23300001 212825.20382563 8217.18150833
0.23400001 210082.37142854 8145.94433741
0.23500001 207368.50956492 8074.93014437
0.23600001 204686.69254381 8731.93471691
0.23700001 202034.18036438 8655.14469618
0.23800001 199411.41064137 7863.78935059
0.23900001 196817.37201614 7793.96830049
0.24000001 194251.81439950 9128.86444950
0.24100001 191715.83417979 7655.21362090
0.24200001 189206.87393200 8275.90905725
0.24300001 186725.79401645 8200.99726113
0.24400001 184271.43138708 7449.17296620
0.24500001 181843.69470540 8723.04244766
0.24600001 179442.85797416 8642.86566318
0.24700001 177068.09538117 7245.62680576
0.24800001 174718.94786901 6525.75301162
0.24900001 172394.40411321 7111.26950609
0.25000001 170095.90251238 6404.11103256
0.25100001 167820.75222057 8881.07462767
0.25200001 165571.97793030 7540.14823167
0.25300001 163346.83823895 8090.56928074
0.25400001 161145.27835706 8012.94934541
0.25500001 158966.74319905 6714.75555042
0.25600001 156812.12183801 9067.66137430
0.25700001 154679.88190580 7183.33405557
0.25800001 152571.10403296 6520.12643934
0.25900001 150484.54979309 7042.67726354
0.26000001 148420.20169844 7553.84652286
0.26100001 146377.30134482 6327.89103655
0.26200001 144357.04887625 6264.37443240
0.26300001 142357.40979875 6764.82443373
0.26400001 140379.56464516 8928.14073390
0.26500001 138423.25884151 9389.25009151
0.26600001 136486.60645284 6559.54661652
0.26700001 134571.79347105 5950.76498888
0.26800001 132677.68667893 5888.89940191
0.26900001 130802.63666562 5297.50703564
0.27000001 128948.49644537 7862.63494283
0.27100001 127113.93328599 8816.62282994
0.27200001 125300.55757653 6670.37549825
0.27300001 123505.74387544 5583.69494485
0.27400001 121728.45043872 8034.07810917
0.27500001 119973.31157450 5463.58486767
0.27600001 118235.00181813 5403.93101384
0.27700001 116517.40917987 6316.40905057
0.27800001 114817.42463174 5285.62039308
0.27900001 113137.31632461 5702.12101263
0.28000001 111474.32768340 5168.50744766
0.28100001 109830.45642390 6039.57708460
0.28200001 108205.40163625 5511.98342023
0.28300001 106598.03840184 4995.18431593
0.28400001 105008.50732153 7182.58224075
0.28500001 103437.31819058 4437.46116041
0.28600001 101883.65073086 7894.96446882
0.28700001 100347.63946840 4768.52005324
0.28800001 98828.45421464  4712.63506229
0.28900001 97328.71953861  5503.93935043
0.29000001 95844.60158597  5020.34046871
0.29100001 94378.80067660  6614.06666449
0.29200001 92929.78647756  4084.26430902
0.29300001 91498.02879624  5245.58223919
0.29400001 90082.54413126  4783.38331980
0.29500001 88685.17799205  3937.62208924
0.29600001 87303.60688904  6223.00139363
0.29700001 85939.00167648  4609.76826814
0.29800001 84590.67315641  4552.67024479
0.29900001 83259.83137964  4121.36184839
0.30000001 81944.51764050  3699.79514662
0.30100001 80646.54604606  4383.94645060
0.30200001 79363.40982289  5410.60072082
0.30300001 78097.65237677  5341.87967546
0.30400001 76847.85375552  5273.68421364
0.30500001 75613.79486150  3470.67334845
0.30600001 74394.97653077  5138.83324715
0.30700001 73193.07827422  4057.82445163
0.30800001 72006.55500996  3671.25438099
0.30900001 70835.72074969  3623.24728789
0.31000001 69680.84819572  3575.67289445
0.31100001 68540.50883337  4170.00475485
0.31200001 67416.37933840  3798.23899176
0.31300001 66307.02562020  4372.28547641
0.31400001 65214.27843731  4313.92472288
0.31500001 64135.42753480  3344.02134999
0.31600002 63072.26568467  4198.72092543
0.31700002 62023.93909144  3550.25044169
0.31800002 60990.61475712  4377.60158147
0.31900002 59972.32548417  2878.67175954
0.32000002 58969.13374403  3123.30031664
0.32100002 57979.70606861  4200.62990357
0.32200002 57006.32859795  3590.54377676
0.32300002 56045.51833224  2996.19355191
0.32400002 55100.16195507  4029.19953375
0.32500002 54168.93851873  3708.40570659
0.32600002 53252.36902154  3395.63747145
0.32700002 52349.36710765  3348.26567875
0.32800002 51461.15136943  3301.49032244
0.32900002 50586.24256443  3255.22486317
0.33000002 49726.25891140  3950.25419498
0.33100002 48877.72815553  3164.34427063
0.33200002 48045.62845597  3359.83095703
0.33300002 47225.75631942  3549.01575547
0.33400002 46420.00323588  3265.64738229
0.33500002 45626.47209205  3219.40402327
0.33600002 44847.51520827  2267.04200114
0.33700002 44080.55734684  2234.88436332
0.33800002 43327.92308336  2203.22499313
0.33900002 42586.93825457  2606.32074461
0.34000002 41859.70739507  2997.57378852
0.34100002 41144.83530575  2532.87618138
0.34200002 40443.38343872  2288.89339411
0.34300002 39753.17663334  2461.51681371
0.34400002 39077.02246618  2426.68321008
0.34500002 38412.07165569  2990.37992002
0.34600002 37760.43385661  2555.05987792
0.34700002 37119.19731287  2131.38441065
0.34800002 36491.66323297  2674.47412501
0.34900002 35875.17326627  3013.51469709
0.35000002 35270.59431281  2971.19500563
0.35100002 34678.25086354  1831.01173232
0.35200002 34096.23733514  2527.55419337
0.35300002 33526.11647831  2314.30793011
0.35400002 32967.65852812  2633.29184966
0.35500002 32420.47065848  1731.25321516
0.35600002 31883.40122574  1878.09183816
0.35700002 31357.55438405  2020.68090022
0.35800002 30843.33415859  1827.00498542
0.35900002 30339.49809875  1638.33297493
0.36000002 29846.58473929  1616.19264019
0.36100002 29363.15247127  1753.86118018
0.36200002 28891.41906166  1573.13784242
0.36300002 28428.62118996  2173.08390669
0.36400002 27976.21728358  1838.03756259
0.36500002 27533.55278534  1965.06975537
0.36600002 27101.23245441  1641.11520901
0.36700002 26677.90601390  1472.62048172
0.36800002 26265.78740841  1599.19254211
0.36900002 25861.92947483  2727.14059230
0.37000002 25467.19128148  2125.87389292
0.37100002 25081.59336251  1539.50827352
0.37200002 24706.04168314  2211.68495624
0.37300002 24338.58864741  1501.93437658
0.37400002 23980.12632612  2158.21147159
0.37500002 23630.74978200  1599.32922101
0.37600002 23290.12157896  1448.76208145
0.37700002 22957.38835727  1562.02077782
0.37800002 22633.07055326  2187.37320724
0.37900002 22317.55867385  1272.10090467
0.38000002 22009.88261285  1383.65133600
0.38100002 21709.26855649  1865.91172082
0.38200002 21417.58983246  1722.61683183
0.38300002 21132.77765904  1338.97285591
0.38400002 20856.65595650  1686.26071397
0.38500002 20586.49498067  1311.15392743
0.38600002 20325.20859454  2005.79330518
0.38700002 20070.09400606  1284.88747914
0.38800002 19822.46740021  1850.62564416
0.38900002 19581.19194642  1832.79965302
0.39000002 19348.11615993  1248.24377319
0.39100002 19120.34989238  1236.70428963
0.39200002 18899.99991859  1448.40156238
0.39300002 18685.66204302  1656.48401859
0.39400002 18479.23651406  1204.38429686
0.39500002 18277.69609577  1628.54279929
0.39600002 18082.41371069  1615.21168123
0.39700002 17893.16651734  1281.86651003
0.39800002 17710.05536035  1483.92560895
0.39900002 17532.49259348  1472.72944763
0.40000002 17360.56926005  1357.50977761
0.40100002 17194.48379930  1244.19290667
0.40200002 17034.14955734  2059.42877906
0.40300002 16878.42762811  1329.68259154
0.40400002 16728.44759950  1016.25323982
0.40500002 16583.70279560  1413.92656735
0.40600002 16443.80773031  1405.45231330
0.40700002 16308.89371311  1297.53564529
0.40800002 16178.97292942  1389.61205075
0.40900002 16053.54378630  1086.02228860
0.41000002 15933.14803159  1178.73434723
0.41100002 15816.85845877  1466.22284860
0.41200002 15704.92668716  1264.79633068
0.41300002 15597.81365692  1356.07398359
0.41400002 15494.55172308  1350.35024665
0.41500002 15395.67884975  1248.89752747
0.41600002 15300.09082749  1148.42487193
0.41700002 15209.01908062  1430.40831231
0.41800002 15122.60931174  1045.50164431
0.41900002 15038.06909911  1705.31711664
0.42000002 14958.54862786  1794.80154216
0.42100002 14882.59871866  1036.27539788
0.42200002 14810.25625391  939.71080384
0.42300002 14740.65154904  1031.25603124
0.42400002 14674.42208959  935.49445254
0.42500002 14611.70717984  1027.05694634
0.42600002 14551.37809519  1211.62055451
0.42700002 14495.28056807  1116.71646788
0.42800002 14441.31934788  929.29894407
0.42900002 14391.32129799  1299.53637479
0.43000002 14343.52770586  927.30911013
0.43100002 14297.59379592  1297.07777063
0.43200002 14255.48927439  925.89407225
0.43300002 14215.61618531  1017.98032327
0.43400002 14178.42353828  1017.65639768
0.43500002 14143.42250883  1202.47383868
0.43600002 14111.17090070  1479.97967420
0.43700002 14080.66449669  1110.11964153
0.43800002 14052.23958271  1017.87402241
0.43900002 14026.83993976  925.77147990
0.44000002 14002.91140774  1204.18042357
0.44100002 13981.44697043  1390.45496710
0.44200002 13961.78291779  1020.53657074
0.44300002 13943.95275701  928.66729763
0.44400002 13928.46771548  1580.53294892
0.44500002 13913.44516174  1303.13333561
0.44600002 13900.52870713  1025.23354338
0.44700002 13890.46305607  1493.50265857
0.44800002 13880.30134487  1215.28984184
0.44900002 13873.38525965  1030.09890435
0.45000002 13867.39625777  1219.56822169
0.45100002 13862.43067953  1127.84741354
0.45200002 13859.17539009  1035.90411363
0.45300002 13856.80729539  1226.74320800
0.45400002 13856.23201524  1323.96303180
0.45500002 13856.81181942  1042.58657070
0.45600002 13858.44473055  1139.99571756
0.45700002 13861.29679755  952.27113512
0.45800002 13864.79316280  1050.05015995
0.45900002 13869.44304024  1531.18658421
0.46000002 13875.92705648  1247.37652186
0.46100002 13881.98996141  962.02194992
0.46200002 13890.13513112  1061.13692363
0.46300002 13898.93241429  1064.10231607
0.46400002 13907.83797606  1067.07891929
0.46500002 13918.13645410  972.87778425
0.46600002 13928.96912189  1268.44163320
0.46700002 13940.00054551  1174.30570161
0.46800002 13952.89530740  1570.53797024
0.46900002 13965.20572316  1378.36587020
0.47000002 13978.53257865  1086.34171084
0.47100002 13992.38729066  1485.99160070
0.47200002 14006.98986481  1192.55517361
0.47300002 14022.12954506  1196.36814949
0.47400002 14036.98372477  1200.16216535
0.47500002 14052.64245305  1103.69459058
0.47600002 14069.34506329  1207.99402439
0.47700002 14085.34785813  1009.91948930
