# SAXS profile: number of points = 501, q_min = 0, q_max = 0.5, delta_q = 0.001
#    q    intensity    error
0.00000000 1682732.95097188 277.65093691
0.00100000 1682645.53634527 656.23177476
0.00200000 1682383.25375609 908.48698580
0.00300000 1681946.33308914 1513.75175370
0.00400000 1681334.64175515 1387.10113216
0.00500000 1680548.84290861 1966.24222403
0.00600000 1679588.75886280 2468.99557605
0.00700000 1678455.18011778 2618.39018980
0.00800000 1677147.87252797 2943.39464056
0.00900000 1675668.24259291 2764.85271847
0.01000000 1674015.68649416 3038.33860218
0.01100000 1672191.82084682 3310.93994943
0.01200000 1670196.51249832 3582.57167638
0.01300000 1668031.15908090 3853.15214742
0.01400000 1665695.88442229 4497.37908731
0.01500000 1663192.32562702 5987.49263887
0.01600000 1660520.01464041 6351.48933993
0.01700000 1657681.38010209 5370.88791246
0.01800000 1654676.75247777 6130.57764379
0.01900000 1651507.19326036 5449.97398368
0.02000000 1648173.48828954 7787.62008445
0.02100000 1644678.25640505 5427.43849221
0.02200000 1641020.38986222 7926.12884314
0.02300000 1637202.93870102 8840.89627141
0.02400000 1633226.34504366 6124.59907318
0.02500000 1629093.21033975 6988.81019154
0.02600000 1624803.86352232 7896.54713789
0.02700000 1620360.18089399 9527.71830004
0.02800000 1615762.83479041 9839.99611513
0.02900000 1611015.06973332 8699.48177599
0.03000000 1606117.43423828 8215.29105375
0.03100000 1601071.82760838 9990.68866398
0.03200000 1595879.34309357 9479.52373458
0.03300000 1590544.11506928 10545.30796905
0.03400000 1585064.87235041 9153.75006018
0.03500000 1579445.43461758 9381.90631487
0.03600000 1573686.41551407 10480.75201168
0.03700000 1567791.32236778 9830.05204586
0.03800000 1561761.28240177 11877.19510234
0.03900000 1555598.99966589 12133.67275930
0.04000000 1549304.58137541 10481.04597869
0.04100000 1542882.08234532 13608.22059725
0.04200000 1536333.29324412 12882.15526149
0.04300000 1529659.65260195 12114.90501096
0.04400000 1522864.32714514 13363.13509131
0.04500000 1515949.68327456 10460.05330062
0.04600000 1508916.19148980 12765.43157343
0.04700000 1501767.93033229 18381.64032216
0.04800000 1494506.64352409 12083.08677510
0.04900000 1487134.98190785 14499.56674852
0.05000000 1479654.82479730 13583.23192416
0.05100000 1472069.96469975 12630.36088550
0.05200000 1464379.41855169 11641.81692001
0.05300000 1456589.49820387 12978.21303401
0.05400000 1448700.42193108 26293.91388424
0.05500000 1440715.92338261 14522.41718516
0.05600000 1432637.04533279 19598.47569470
0.05700000 1424468.88313239 13632.16784791
0.05800000 1416210.61684072 15040.15745311
0.05900000 1407866.33009921 13937.87731896
0.06000000 1399439.60376619 16646.33486450
0.06100000 1390931.95816862 14229.23459702
0.06200000 1382346.33945831 16982.12557405
0.06300000 1373685.98844643 22418.55637963
0.06400000 1364950.35065586 14639.09319541
0.06500000 1356145.88337654 18796.18282284
0.06600000 1347273.70924925 13540.10141148
0.06700000 1338335.25401108 17746.32629870
0.06800000 1329334.49080830 22013.78019823
0.06900000 1320275.51099338 16635.47221737
0.07000000 1311157.34781124 18152.97433052
0.07100000 1301984.88333662 16873.72487837
0.07200000 1292759.98453800 15571.29474323
0.07300000 1283486.15323721 15671.36666532
0.07400000 1274165.95165338 20068.11467902
0.07500000 1264800.45797442 17302.47107610
0.07600000 1255392.68371472 15949.76479433
0.07700000 1245946.81040148 21866.36754783
0.07800000 1236463.92745902 19047.72769577
0.07900000 1226945.61196756 20612.68724787
0.08000000 1217397.63314628 14791.38193661
0.08100000 1207820.55659087 20798.67096033
0.08200000 1198215.84203068 16409.56672663
0.08300000 1188586.70952658 16473.81256719
0.08400000 1178936.92923481 19540.88051929
0.08500000 1169267.64098132 19608.61925979
0.08600000 1159581.83698080 18159.05241971
0.08700000 1149881.20540688 16696.27588653
0.08800000 1140168.22671460 19787.62050393
0.08900000 1130445.98437156 18313.22580699
0.09000000 1120716.77754581 18357.34167855
0.09100000 1110982.06781797 18397.86390742
0.09200000 1101244.43900300 19971.06883969
0.09300000 1091507.68903856 18468.31096640
0.09400000 1081770.56422543 16956.75439116
0.09500000 1072037.83163782 21612.28370165
0.09600000 1062310.71436011 21639.27026873
0.09700000 1052593.92055317 17020.44449552
0.09800000 1042886.78009244 15486.86941253
0.09900000 1033192.67736999 17047.67997823
0.10000000 1023511.57930759 18607.44138687
0.10100000 1013847.24924856 15511.86364305
0.10200000 1004201.76022718 20169.39330286
0.10300000 994576.28831923 21721.54715869
0.10400000 984973.62776459 20167.33597725
0.10500000 975396.35512325 23263.20416421
0.10600001 965842.06000291 18602.11895095
0.10700001 956318.58242758 17041.59794080
0.10800001 946822.23853676 20124.70762720
0.10900001 937358.90700410 18559.70723221
0.11000001 927928.47302947 15450.00980317
0.11100001 918531.95501200 16974.47132767
0.11200001 909172.36456774 20033.61399637
0.11300001 899850.00450125 20003.66654185
0.11400001 890567.35962632 24579.66028301
0.11500001 881326.25903356 23002.61644392
0.11600001 872127.40127421 16836.42027445
0.11700001 862972.59744049 15274.61569405
0.11800001 853861.85334054 19813.86523997
0.11900001 844797.62238237 19768.26529487
0.12000001 835780.67658742 16686.36199408
0.12100001 826814.42485645 18156.84562518
0.12200001 817897.66121239 21126.29758440
0.12300001 809032.89862691 18057.61514813
0.12400001 800220.12362693 15004.12802496
0.12500001 791460.45127054 16454.46355726
0.12600001 782757.25037028 17893.83158668
0.12700001 774109.19817536 20808.05622756
0.12800001 765517.55467475 17775.31845729
0.12900001 756984.02710903 28046.25952627
0.13000001 748509.10478885 16179.02506261
0.13100001 740092.89664553 16119.22404876
0.13200001 731737.17742134 17517.78885326
0.13300001 723443.55562714 24720.06746116
0.13400001 715210.68550005 14483.01706419
0.13500001 707041.35785808 15866.00881839
0.13600001 698934.02024167 14363.09479320
0.13700001 690891.88333353 15731.60892530
0.13800001 682912.63322757 17086.47488908
0.13900001 674999.56392313 14174.99151085
0.14000001 667151.81158294 16932.31377651
0.14100001 659369.81162581 14044.57765001
0.14200001 651654.07290688 15375.77857544
0.14300001 644006.37751098 15301.59225140
0.14400001 636423.45489821 16610.65295637
0.14500001 628909.97172177 13773.12903041
0.14600001 621463.82020266 13703.27788191
0.14700001 614087.67782475 17722.57121811
0.14800001 606776.94270822 13561.46530934
0.14900001 599536.06207434 13489.56203312
0.15000001 592363.73380564 14758.74312413
0.15100001 585260.56275345 13343.94146041
0.15200001 578226.82549387 15924.36752552
0.15300001 571263.14359833 17155.03301179
0.15400001 564366.14236621 14433.66477216
0.15500001 557540.01597913 16960.36808650
0.15600001 550780.73351549 14267.97557509
0.15700001 544094.33303275 16763.54719193
0.15800001 537472.95281371 19228.09579445
0.15900001 530923.27538247 14016.37513168
0.16000001 524440.12523580 15198.27554673
0.16100001 518028.66685059 21399.76523776
0.16200001 511684.42667911 13761.75330517
0.16300001 505408.21888453 14919.65132580
0.16400001 499200.63206254 13590.73784952
0.16500001 493060.48036940 14732.64784899
0.16600001 486989.11633426 12199.07794013
0.16700001 480983.23164253 16969.08921354
0.16800001 475044.37858099 13246.61312219
0.16900001 469174.55510597 16749.53240816
0.17000001 463369.19345091 15451.04648521
0.17100001 457630.11182697 17710.28616401
0.17200001 451957.16915010 17592.43363993
0.17300001 446349.55762337 12814.69640453
0.17400001 440806.90703405 15042.53641294
0.17500001 435328.29709633 19537.53489639
0.17600001 429912.50208309 17121.26620408
0.17700001 424562.16542919 13602.97242283
0.17800001 419273.00586926 11257.48073930
0.17900001 414047.46981789 13415.13865574
0.18000001 408883.73316364 12211.31326773
0.18100001 403783.28664304 11023.28424606
0.18200001 398741.02216447 14229.07404809
0.18300001 393760.42253610 11954.56699292
0.18400001 388839.33746217 12948.35054918
0.18500001 383979.22608077 11784.32300513
0.18600001 379176.09724142 11699.47903311
0.18700001 374431.38575819 13726.65525041
0.18800001 369744.09981744 10482.24572507
0.18900001 365115.71922424 10405.79848954
0.19000001 360539.89803374 14461.25599341
0.19100001 356024.49957442 15380.25910833
0.19200001 351560.89314401 10177.68833743
0.19300001 347154.54220230 11112.41742099
0.19400001 342800.08248556 15040.35432977
0.19500001 338500.25314723 14927.86186921
0.19600001 334252.43414420 13828.02385401
0.19700001 330056.87487079 9802.68964691
0.19800001 325913.17002038 16538.46459427
0.19900001 321820.60567594 12551.00421452
0.20000001 317777.03531875 13413.36929474
0.20100001 313784.60273441 11409.20869465
0.20200001 309839.51261487 15095.38176806
0.20300001 305944.38380516 12170.46816300
0.20400001 302096.34619013 11147.35570130
0.20500001 298295.13171702 11060.78400688
0.20600001 294540.60706247 10974.58353789
0.20700001 290832.25119850 9981.36333294
0.20800001 287168.01888272 11703.53316279
0.20900001 283550.68175115 8931.84689738
0.21000001 279975.22540652 10633.45956361
0.21100001 276443.94243831 11428.19312065
0.21200001 272955.07949224 13953.46432329
0.21300001 269507.60274758 10381.43334862
0.21400001 266102.58261115 9439.98956442
0.21500001 262739.61360879 8512.76388339
0.21600001 259415.71644644 16043.56574215
0.21700001 256132.02892805 12563.27661291
0.21800001 252887.50887249 12461.03258886
0.21900001 249680.82191180 8239.46751266
0.22000001 246511.86062989 10623.42913615
0.22100001 243382.13662723 8915.08808619
0.22200001 240289.40467980 12056.52144990
0.22300001 237231.47175085 11956.46674161
0.22400001 234209.18033923 10275.92827329
0.22500001 231224.56981379 10973.91860229
0.22600001 228272.44439844 10881.74793905
0.22700001 225356.91696120 8477.92761699
0.22800001 222473.61436975 8406.16591649
0.22900001 219622.98760040 8334.69277359
0.23000001 216806.38351323 9014.80985281
0.23100001 214022.48759694 8192.78121267
0.23200001 211268.78356151 7383.84433468
0.23300001 208547.27435496 10980.01451408
0.23400001 205857.19539163 7256.46648075
0.23500001 203195.78453884 7193.13111288
0.23600001 200565.93581396 11408.19096867
0.23700001 197965.05307149 8480.82327471
0.23800001 195393.45758225 9106.31252134
0.23900001 192850.22999134 6942.60860807
0.24000001 190335.09956479 8256.73700967
0.24100001 187849.05749141 10228.38166422
0.24200001 185389.72737972 6757.45588263
0.24300001 182957.98688343 10044.39395503
0.24400001 180552.29814427 8625.88645188
0.24500001 178173.01333622 9204.41830436
0.24600001 175820.29249499 6514.14214509
0.24700001 173493.12687817 7099.33908770
0.24800001 171191.22665951 12148.58597460
0.24900001 168913.45654682 7601.10590420
0.25000001 166661.42592196 9412.20447422
0.25100001 164432.26652016 8080.20195907
0.25200001 162229.24471540 6772.26014104
0.25300001 160049.37085994 7317.45758191
0.25400001 157892.68030220 9059.09296094
0.25500001 155758.64512198 10167.92483463
0.25600001 153648.10906159 7107.76186148
0.25700001 151559.50186635 7038.42359968
0.25800001 149494.02519443 7550.19609968
0.25900001 147450.46261989 7475.73880854
0.26000001 145428.59404853 5693.52972639
0.26100001 143427.80409592 7327.72685798
0.26200001 141449.37141818 6696.21355978
0.26300001 139491.14907488 6076.23474121
0.26400001 137554.22677984 6014.55885055
0.26500001 135638.45326955 6494.36944985
0.26600001 133742.03822229 7498.91643797
0.26700001 131867.15727436 7951.58995991
0.26800001 130012.38218374 6295.19984323
0.26900001 128176.40990280 6229.37381606
0.27000001 126361.02967873 7704.86414927
0.27100001 124564.79123168 6098.69246731
0.27200001 122789.29389633 6536.68836991
0.27300001 121031.93418984 5471.85400367
0.27400001 119291.85981056 5904.94734007
0.27500001 117573.57285411 5841.05537582
0.27600001 115871.44002281 6740.24198512
0.27700001 114189.99501440 6666.41222444
0.27800001 112525.68261041 4709.20004012
0.27900001 110880.84570117 5122.69531384
0.28000001 109252.77095622 5065.50496513
0.28100001 107643.41701571 5008.64843080
0.28200001 106052.48692711 4952.12111144
0.28300001 104478.93738047 4895.88323737
0.28400001 102922.81850954 5719.93590940
0.28500001 101384.68000716 6524.10446726
0.28600001 99863.78841332  4729.04992415
0.28700001 98360.02530199  4674.06862359
0.28800001 96872.88883925  5039.32791595
0.28900001 95404.71224644  4980.12621499
0.29000001 93951.83551484  5331.29715864
0.29100001 92516.90078498  5673.13662467
0.29200001 91098.44440992  5204.90986774
0.29300001 89696.88863464  4746.75957124
0.29400001 88311.14091992  5470.87543896
0.29500001 86943.23597732  4632.33583215
0.29600001 85590.74214742  3813.06774317
0.29700001 84254.97332553  4142.81723453
0.29800001 82935.11169874  4463.56792293
0.29900001 81632.31382761  4408.14515537
0.30000001 80344.67981517  4715.83120500
0.30100001 79074.01208033  4656.66879186
0.30200001 77817.86414278  5658.91534836
0.30300001 76578.79223704  5237.98963699
0.30400001 75355.38414836  4826.51258320
0.30500001 74147.40479993  4424.37585387
0.30600001 72954.15565157  4703.35463753
0.30700001 71777.57933086  4310.96161871
0.30800001 70616.04441224  3273.05381347
0.30900001 69469.84318591  5168.55657773
0.31000001 68339.29183917  4463.23936133
0.31100001 67222.93457591  3460.63683581
0.31200001 66122.46879517  3414.89506261
0.31300001 65036.51700132  5207.47416285
0.31400001 63966.82536585  4835.89222662
0.31500001 62910.56270492  3578.35297608
0.31600002 61869.78974851  3530.29037020
0.31700002 60843.52996535  3482.68382012
0.31800002 59831.96814905  3721.84775494
0.31900002 58835.04902869  4236.12373064
0.32000002 57852.93800800  4456.99055517
0.32100002 56884.29089381  3571.76479435
0.32200002 55931.43685236  2980.86606819
0.32300002 54990.73069802  3474.31453001
0.32400002 54065.27846605  3426.38718503
0.32500002 53153.63920741  3119.05569638
0.32600002 52256.32456758  3075.80740969
0.32700002 51372.29656523  3033.02053283
0.32800002 50502.73604664  3240.00318450
0.32900002 49646.22203536  2703.23691783
0.33000002 48804.28763429  3634.69949368
0.33100002 47973.43925945  2627.98512708
0.33200002 47158.85971513  2591.14366975
0.33300002 46356.20435829  2322.44594833
0.33400002 45567.32372190  3663.61300073
0.33500002 44790.41213321  3611.89900547
0.33600002 44027.78996748  2448.16537708
0.33700002 43276.91117072  2632.96740032
0.33800002 42539.96903548  2379.47328069
0.33900002 41814.58205548  2345.79816440
0.34000002 41102.51619419  2522.87256348
0.34100002 40402.59054315  2487.18359163
0.34200002 39715.84416745  2860.73239086
0.34300002 39040.08598619  2215.91538552
0.34400002 38378.07806493  2184.67219731
0.34500002 37726.99663025  2741.24370498
0.34600002 37088.98827107  2316.57831713
0.34700002 36461.10081352  2093.59650787
0.34800002 35846.74604229  2251.89269303
0.34900002 35243.04987519  2220.31224729
0.35000002 34651.15175375  2371.69819411
0.35100002 34071.15478002  2338.64417486
0.35200002 33501.24210958  2306.05810983
0.35300002 32942.99745709  2623.90987173
0.35400002 32396.18328440  1897.60652576
0.35500002 31860.31369062  2041.60899799
0.35600002 31334.43724688  2349.14287166
0.35700002 30819.56060574  1986.01257950
0.35800002 30315.98761809  2122.27081373
0.35900002 29822.59041862  2093.54594655
0.36000002 29339.89978668  2224.25790818
0.36100002 28866.48852972  2037.68552183
0.36200002 28404.58923193  1546.62995694
0.36300002 27951.38019301  2747.06177549
0.36400002 27508.29356709  1656.68705855
0.36500002 27074.71819711  1486.40209943
0.36600002 26651.32003832  1760.58628513
0.36700002 26236.75681673  2172.40356733
0.36800002 25833.11308864  1858.82174034
0.36900002 25437.55592452  1552.96286275
0.37000002 25050.88495815  2091.12272094
0.37100002 24673.26512934  1652.12191132
0.37200002 24305.36708528  1767.85095869
0.37300002 23945.46670860  1880.67704438
0.37400002 23594.32174620  1592.61679331
0.37500002 23252.16832946  1442.56459150
0.37600002 22918.35857248  1425.63656254
0.37700002 22592.46565906  1280.99286355
0.37800002 22274.74660189  1266.31940431
0.37900002 21965.58476550  1502.44606914
0.38000002 21664.16641689  1609.53932019
0.38100002 21369.62166780  1224.47937957
0.38200002 21083.77969268  1332.38952080
0.38300002 20804.76647027  1557.86098710
0.38400002 20534.18574469  1660.18899611
0.38500002 20269.45807082  1760.40251685
0.38600002 20013.36689876  1394.13120421
0.38700002 19763.41419009  1150.23076036
0.38800002 19520.67154354  1366.83748623
0.38900002 19284.21555133  1128.12666320
0.39000002 19055.69798036  1564.66343529
0.39100002 18832.45640586  1550.28788478
0.39200002 18616.49678139  1207.18679098
0.39300002 18406.36678289  1631.72449261
0.39400002 18203.98530970  1402.16203491
0.39500002 18006.41988539  1390.45580943
0.39600002 17814.94282498  1273.05587459
0.39700002 17629.35343207  1368.21418469
0.39800002 17449.79543018  1357.68139777
0.39900002 17275.69304626  1658.46661102
0.40000002 17107.10812760  1131.89186289
0.40100002 16944.21043785  1021.73593781
0.40200002 16786.93432458  1014.77022800
0.40300002 16634.20937329  1612.85301725
0.40400002 16487.13624974  1302.07164702
0.40500002 16345.05661181  1592.66239172
0.40600002 16207.92646422  1286.34214478
0.40700002 16075.51694491  1180.58602037
0.40800002 15948.03844018  1467.61830700
0.40900002 15824.89427319  1265.20035709
0.41000002 15706.75501190  1646.14653702
0.41100002 15592.67953774  1156.35316931
0.41200002 15482.76258430  959.15718754
0.41300002 15377.71137703  954.95592176
0.41400002 15276.34565660  1046.04781840
0.41500002 15179.27042389  1326.06112706
0.41600002 15085.47721067  1037.95630866
0.41700002 14996.05516509  1034.27797374
0.41800002 14911.25718212  937.17255830
0.41900002 14828.25107791  934.17986217
0.42000002 14750.15828721  1397.20880996
0.42100002 14675.55737409  1207.65167354
0.42200002 14604.55319453  926.65894410
0.42300002 14536.25566271  1109.40708475
0.42400002 14471.18511946  1014.79190459
0.42500002 14409.69754302  1104.93565996
0.42600002 14350.48470955  1102.97830704
0.42700002 14295.42210477  917.76614262
0.42800002 14242.43163238  1099.80062277
0.42900002 14193.36620946  1190.11381306
0.43000002 14146.53503325  1280.40294653
0.43100002 14101.45994876  913.77464798
0.43200002 14060.16742909  1004.52870957
0.43300002 14021.04027955  1369.15464818
0.43400002 13984.62487387  1094.99617951
0.43500002 13950.22063194  1003.57891982
0.43600002 13918.69213893  1003.60734424
0.43700002 13888.80321136  1186.24273850
0.43800002 13861.07551125  1277.85261194
0.43900002 13836.22701319  1095.82923138
0.44000002 13812.89570181  1005.09540337
0.44100002 13791.93659023  1188.72707105
0.44200002 13772.80150122  1189.76351407
0.44300002 13755.48629239  916.11543049
0.44400002 13740.53161005  1192.33468697
0.44500002 13725.99046744  918.26880579
0.44600002 13713.55506733  1287.29147518
0.44700002 13703.90036858  1197.17279293
0.44800002 13694.20232498  1198.99594139
0.44900002 13687.66983999  1108.70130958
0.45000002 13682.15625655  1018.15770608
0.45100002 13677.64161341  1020.07855987
0.45200002 13674.73001457  1115.03753823
0.45300002 13672.86412684  1117.34650940
0.45400002 13672.66660100  1213.10740167
0.45500002 13673.70348314  1215.86577134
0.45600002 13675.74871929  1124.96714297
0.45700002 13679.01843974  1033.72347248
0.45800002 13682.88016683  1036.27297855
0.45900002 13688.06785997  944.47672710
0.46000002 13694.98676341  1231.11089344
0.46100002 13701.54009847  1234.37180597
0.46200002 13710.12157190  1047.38478713
0.46300002 13719.44089967  1432.30969781
0.46400002 13728.80868893  1053.34289658
0.46500002 13739.64498207  960.40122977
0.46600002 13750.96745146  1155.90637876
0.46700002 13762.65758937  1159.36633028
0.46800002 13776.05061567  969.14520675
0.46900002 13788.96462407  1263.75866769
0.47000002 13802.88116716  1462.76040102
0.47100002 13817.37015780  1173.92382425
0.47200002 13832.63856295  1275.85347833
0.47300002 13848.45346963  984.62508836
0.47400002 13864.01238886  1185.37311543
0.47500002 13880.40106933  1387.48495665
0.47600002 13897.85367112  1093.83062503
0.47700002 13914.62611470  1097.44661368
