# SAXS profile: number of points = 501, q_min = 0, q_max = 0.5, delta_q = 0.001
#    q    intensity    error
0.00000000 1664650.74656089 299.63713438
0.00100000 1664563.75575584 499.36913859
0.00200000 1664302.75152147 973.61714047
0.00300000 1663867.95625176 998.32080931
0.00400000 1663259.23235962 1746.42226034
0.00500000 1662477.26106556 1645.85255360
0.00600000 1661521.84494881 2616.89701233
0.00700000 1660393.78551064 2390.96715050
0.00800000 1659092.85507804 2687.73053870
0.00900000 1657620.42100310 2486.43073779
0.01000000 1655975.92188323 2732.36038909
0.01100000 1654160.95361450 3870.73679999
0.01200000 1652175.39859717 5476.96168648
0.01300000 1650020.62333723 4504.55650038
0.01400000 1647696.77392976 3707.31790569
0.01500000 1645205.47288333 5922.73996611
0.01600000 1642546.25083144 5026.19175223
0.01700000 1639721.54299601 4869.97320116
0.01800000 1636731.68862286 6064.09117922
0.01900000 1633577.65718544 4900.73319269
0.02000000 1630260.40736558 6162.38461860
0.02100000 1626782.43201575 7515.73517666
0.02200000 1623142.61070025 8399.76339199
0.02300000 1619343.97998628 8161.49403063
0.02400000 1615387.11053494 7269.24232887
0.02500000 1611274.45736634 6283.97067072
0.02600000 1607006.43107159 8460.88924658
0.02700000 1602584.86233266 9423.19942211
0.02800000 1598010.41585722 9036.74931609
0.02900000 1593286.36133522 8603.74674624
0.03000000 1588413.29349608 9601.95880054
0.03100000 1583392.98198514 8360.31532957
0.03200000 1578226.55255776 9374.66615397
0.03300000 1572918.17240904 8824.07135401
0.03400000 1567466.51747189 13166.71935428
0.03500000 1561875.56446756 11807.77981264
0.03600000 1556145.73200265 13818.57473879
0.03700000 1550280.60838827 9720.25986413
0.03800000 1544281.34012297 11744.26013515
0.03900000 1538150.40088761 10151.79311599
0.04000000 1531888.24951398 10363.22448818
0.04100000 1525498.74408808 10571.70678670
0.04200000 1518983.65844215 12736.67856693
0.04300000 1512344.44208545 10979.62115919
0.04400000 1505584.32953999 11178.96416601
0.04500000 1498705.53093248 15511.60296590
0.04600000 1491708.59836852 14723.16455033
0.04700000 1484597.73754859 10689.10420748
0.04800000 1477374.46204786 13030.44336154
0.04900000 1470041.59785261 15435.43749593
0.05000000 1462600.80103230 16783.34497338
0.05100000 1455056.05227015 13619.32528369
0.05200000 1447406.42248663 16109.63423301
0.05300000 1439657.88852066 13993.47532877
0.05400000 1431810.93093008 15356.17295034
0.05500000 1423869.39098118 15548.65447485
0.05600000 1415833.88142749 16947.53235153
0.05700000 1407709.85887491 13471.78397828
0.05800000 1399496.34430723 14862.65187052
0.05900000 1391197.51950978 15024.93391246
0.06000000 1382816.88566704 16448.60762347
0.06100000 1374355.94332748 15337.81304429
0.06200000 1365817.62169054 19360.46569244
0.06300000 1357205.20332547 14332.08761722
0.06400000 1348518.00958340 13148.05120833
0.06500000 1339762.61498230 18569.11071228
0.06600000 1330940.22467124 16051.13986054
0.06700000 1322051.96006631 14833.42368613
0.06800000 1313102.06780498 16308.72844553
0.06900000 1304094.49610728 16431.59142026
0.07000000 1295028.38931661 17929.66888971
0.07100000 1285908.43428716 20831.71761116
0.07200000 1276736.63788426 15378.29352374
0.07300000 1267516.29983586 14069.43158741
0.07400000 1258250.28970168 16986.37970702
0.07500000 1248939.48981368 24204.44844711
0.07600000 1239587.01377685 18612.39988442
0.07700000 1230196.77964418 20150.62419540
0.07800000 1220770.12541873 17359.35199754
0.07900000 1211308.26046563 20349.97973031
0.08000000 1201817.61585310 20442.91860466
0.08100000 1192298.15315751 16131.79476910
0.08200000 1182751.37932985 17670.30643637
0.08300000 1173181.04930352 19216.70648947
0.08400000 1163590.09195184 20770.08411626
0.08500000 1153980.19950401 19352.24885418
0.08600000 1144354.18200276 14933.82277630
0.08700000 1134714.01773649 17973.87088496
0.08800000 1125061.57415004 16521.52999231
0.08900000 1115400.66572350 19575.28260289
0.09000000 1105732.94922949 19621.23210579
0.09100000 1096060.03085998 19663.31787743
0.09200000 1086384.66418016 16670.57345514
0.09300000 1076710.60540510 16699.78227459
0.09400000 1067036.67533632 22807.91000723
0.09500000 1057367.13691797 18271.30498474
0.09600000 1047703.76019797 18292.90851297
0.09700000 1038051.20539986 16785.28878044
0.09800000 1028408.26887437 16799.04986192
0.09900000 1018778.98782766 21394.35975040
0.10000000 1009162.84480735 18346.58138139
0.10100000 999563.94286727 16822.66194966
0.10200000 989983.98752366 16824.77865934
0.10300000 980424.38769864 16824.08328433
0.10400000 970887.84772761 15291.48432110
0.10500000 961377.45690449 18343.08274077
0.10600001 951889.76938547 18333.39782102
0.10700001 942433.10513016 18320.90042587
0.10800001 933004.14662256 18305.54221822
0.10900001 923608.24812652 16763.49049248
0.11000001 914245.43416850 22833.28079311
0.11100001 904916.76245960 18243.12278995
0.11200001 895625.56391284 15180.85402299
0.11300001 886371.55638813 18188.34519341
0.11400001 877157.37461205 27235.73776408
0.11500001 867984.79537640 22654.40422607
0.11600001 858854.95268413 22609.35769412
0.11700001 849769.07434897 18049.09598919
0.11800001 840727.72118884 18008.38863603
0.11900001 831732.72781303 25451.02266986
0.12000001 822785.17988124 14933.55171829
0.12100001 813888.70820376 20851.82968647
0.12200001 805041.76020672 16338.32329311
0.12300001 796246.80191510 14810.19121339
0.12400001 787504.23753200 17718.84617934
0.12500001 778814.71956758 19135.47856145
0.12600001 770181.64402937 17606.35321218
0.12700001 761603.78979103 20471.91083435
0.12800001 753082.52684107 14572.14758115
0.12900001 744619.39987713 15972.08688016
0.13000001 736215.08426498 18806.61521400
0.13100001 727869.38840917 20176.54039778
0.13200001 719584.39145776 18662.42207221
0.13300001 711361.35164520 18587.87299478
0.13400001 703199.24449009 18511.72098395
0.13500001 695100.46122837 18434.06510091
0.13600001 687064.16940716 15531.08628175
0.13700001 679092.56527103 21085.82514593
0.13800001 671184.22382839 15393.61089940
0.13900001 663341.80193995 20895.26774649
0.14000001 655564.67126775 23570.82886705
0.14100001 647853.43389934 20698.91818931
0.14200001 640208.33072701 19225.45707851
0.14300001 632631.44077892 15031.32374190
0.14400001 625119.03299799 14955.97356995
0.14500001 617676.19923404 16232.53128159
0.14600001 610300.45821042 16148.55088604
0.14700001 602994.87465016 16063.78421851
0.14800001 595754.40484061 13315.11157638
0.14900001 588583.96928219 22513.33788724
0.15000001 581481.84919590 13170.56450571
0.15100001 574448.79501121 18336.40640196
0.15200001 567485.03907932 15628.53871371
0.15300001 560591.21926049 19424.48666400
0.15400001 553764.09466185 12875.01580847
0.15500001 547007.82652814 16639.97886828
0.15600001 540318.18530646 13996.94325095
0.15700001 533701.17787503 16443.33406640
0.15800001 527149.29142308 16344.26455200
0.15900001 520668.75258772 14995.26078231
0.16000001 514254.62022157 12419.24966457
0.16100001 507912.18186769 17279.17324279
0.16200001 501636.62644549 14718.01931469
0.16300001 495429.23537361 14625.07171865
0.16400001 489290.06361455 13320.92261078
0.16500001 483218.11530304 15641.77113083
0.16600001 477214.96007584 13149.65884572
0.16700001 471276.98212791 14251.41661242
0.16800001 465405.76504459 15337.44771122
0.16900001 459603.51475812 12891.87919769
0.17000001 453865.61714492 13969.98435538
0.17100001 448193.74510672 20814.11850563
0.17200001 442587.87829744 12633.67158260
0.17300001 437046.83709042 12547.61528542
0.17400001 431570.60600726 16993.09341405
0.17500001 426158.46841318 15750.81773642
0.17600001 420808.83321241 14524.21756429
0.17700001 415524.30085281 12203.94929245
0.17800001 410300.94386793 11016.58086319
0.17900001 405140.75915101 12032.68111513
0.18000001 400042.40486919 15205.61252732
0.18100001 395006.78303673 11862.05425491
0.18200001 390029.27257887 16059.45605705
0.18300001 385112.98337945 10629.11884339
0.18400001 380256.27279857 11607.32327551
0.18500001 375460.04373595 12570.40285813
0.18600001 370720.59061248 12478.45566954
0.18700001 366039.27745969 12386.76973445
0.18800001 361415.10379363 15369.17801496
0.18900001 356849.59469268 12204.25671511
0.19000001 352336.63313879 13122.77852129
0.19100001 347883.46061474 13024.75738084
0.19200001 343482.02941327 11932.56626565
0.19300001 339137.43930148 9868.89995000
0.19400001 334844.39796786 11753.03892405
0.19500001 330605.82591915 10691.79291547
0.19600001 326419.02950540 12539.38761102
0.19700001 322284.05991997 10529.02073516
0.19800001 318200.79280624 11397.95293697
0.19900001 314168.28250075 9425.04892045
0.20000001 310184.53262914 9352.06410076
0.20100001 306251.61828924 11135.30936728
0.20200001 302365.68962778 10127.73925275
0.20300001 298529.53315514 9135.00414631
0.20400001 294740.10054306 9063.25852008
0.20500001 290997.09613474 8991.81069558
0.20600001 287300.56062586 12488.95596073
0.20700001 283649.87737810 9734.86425177
0.20800001 280042.98266036 9657.28271354
0.20900001 276482.59574539 10451.04261321
0.21000001 272964.02502829 11231.10534071
0.21100001 269489.19818797 9426.73259825
0.21200001 266056.38467783 12750.75283847
0.21300001 262664.80049028 11804.15669208
0.21400001 259315.42575344 9199.21516351
0.21500001 256007.52813264 11612.50202511
0.21600001 252738.48755993 9871.96579082
0.21700001 249509.44305651 12238.43876055
0.21800001 246319.13010774 8900.74218728
0.21900001 243166.37742463 8024.49083442
0.22000001 240051.06089914 12732.30887211
0.22100001 236974.59377817 11047.75608431
0.22200001 233934.82413944 10955.16833246
0.22300001 230929.51611428 10862.92495167
0.22400001 227959.66815212 8463.00308033
0.22500001 225027.07094086 7628.41806562
0.22600001 222126.60566287 7563.41128048
0.22700001 219262.40315797 11998.03926818
0.22800001 216430.38730309 8921.26098652
0.22900001 213630.44221278 8107.27566538
0.23000001 210864.18245556 9498.37754791
0.23100001 208130.49885132 10140.11838359
0.23200001 205426.75093868 7897.63181334
0.23300001 202754.59422266 9963.36123131
0.23400001 200113.78775786 8464.81362250
0.23500001 197501.30182188 7690.70105668
0.23600001 194920.00938701 8315.28799374
0.23700001 192367.38554893 8927.77078559
0.23800001 189843.73804640 10208.84749631
0.23900001 187348.17677955 8767.89508800
0.24000001 184880.40058677 6683.42679734
0.24100001 182441.32985548 9933.93088052
0.24200001 180028.87991870 7874.46358012
0.24300001 177643.52452902 9102.45462744
0.24400001 175283.97217792 7085.85491048
0.24500001 172950.54508405 8934.62558169
0.24600001 170643.21415117 8851.26393673
0.24700001 168361.44555298 8141.95989211
0.24800001 166104.37583411 8685.59822325
0.24900001 163871.21429913 8603.23915770
0.25000001 161663.50265611 7912.62051184
0.25100001 159478.53021147 6028.28872719
0.25200001 157319.25177217 7761.34565337
0.25300001 155182.83187492 7094.95940899
0.25400001 153069.32444982 5854.90193721
0.25500001 150978.25121566 5797.56512098
0.25600001 148910.34774610 9184.79068354
0.25700001 146863.99784277 7388.72808106
0.25800001 144840.55280363 5627.05574266
0.25900001 142838.75659460 7241.92530200
0.26000001 140858.49145793 6617.53224181
0.26100001 138898.88788437 6004.59920736
0.26200001 136961.45279329 5943.44252519
0.26300001 135043.88927998 5347.73826853
0.26400001 133147.25498418 5292.60363606
0.26500001 131271.64845571 6285.28682547
0.26600001 129415.12109137 6219.69101396
0.26700001 127579.82231824 6667.32182985
0.26800001 125764.48060944 8119.35525236
0.26900001 123967.53613590 7028.95963153
0.27000001 122191.07162883 7450.60094515
0.27100001 120433.27528338 5405.04565050
0.27200001 118696.09553076 4860.60534201
0.27300001 116976.84763360 5769.29839832
0.27400001 115274.64020687 5706.09496028
0.27500001 113593.83307945 5643.34189446
0.27600001 111929.23664185 6510.92400359
0.27700001 110284.69904516 6898.30825175
0.27800001 108657.26210049 5002.03729753
0.27900001 107049.14468209 5844.88357627
0.28000001 105457.38194451 4445.02885934
0.28100001 103884.19327492 5273.16190021
0.28200001 102329.21666601 4778.26299837
0.28300001 100791.32999754 6440.56629168
0.28400001 99270.60490962  4668.20041682
0.28500001 97767.72779133  5033.08286492
0.28600001 96281.76330660  4144.93010654
0.28700001 94812.85261891  6143.87314051
0.28800001 93360.29249265  4451.88575823
0.28900001 91926.40269910  4398.67857736
0.29000001 90507.69374715  6321.05763050
0.29100001 89106.63335046  5464.01901569
0.29200001 87721.96019965  4240.91836660
0.29300001 86353.87345512  4189.02659960
0.29400001 85001.38062116  5641.96690580
0.29500001 83666.54612509  6315.15120046
0.29600001 82346.98766864  3668.55847430
0.29700001 81043.77375933  4709.45391609
0.29800001 79756.53275524  5365.62099511
0.29900001 78485.92092891  4238.23993080
0.30000001 77230.36365884  3835.64619269
0.30100001 75991.72161856  3442.42515229
0.30200001 74767.06472952  3737.97957811
0.30300001 73559.62052333  3689.75074013
0.30400001 72367.55371508  3310.81573920
0.30500001 71190.74702893  3594.42098766
0.30600001 70028.39520307  4514.73085248
0.30700001 68882.66068598  4455.33070410
0.30800001 67751.67932421  3768.34858242
0.30900001 66635.94270988  3098.57148271
0.31000001 65535.59665808  3362.95930173
0.31100001 64449.26914205  3317.84853252
0.31200001 63378.77764014  3570.76050131
0.31300001 62322.45755348  3522.46546770
0.31400001 61282.20052806  4632.93457928
0.31500001 60255.43984278  3141.71878215
0.31600002 59243.91779941  3098.75326722
0.31700002 58246.73623998  4723.22806534
0.31800002 57264.02400191  3288.10041388
0.31900002 56295.83364590  2972.42015724
0.32000002 55342.24101309  3464.14774024
0.32100002 54402.06207468  3941.42958394
0.32200002 53477.36444046  2590.97842982
0.32300002 52564.86110731  3831.97855617
0.32400002 51667.32189805  2518.78206180
0.32500002 50783.42252524  2731.64042698
0.32600002 49913.70924165  3182.74782050
0.32700002 49057.16087041  3861.77988658
0.32800002 48215.00167049  3331.17462316
0.32900002 47385.63206552  3283.82445764
0.33000002 46570.74022834  2543.46109801
0.33100002 45766.63211822  3874.60325861
0.33200002 44978.91051368  2471.36635521
0.33300002 44202.87400415  2657.47691097
0.33400002 43440.38434780  2619.45530022
0.33500002 42689.84383854  3442.50917016
0.33600002 41953.34490922  2969.03835983
0.33700002 41228.55431270  2926.40292370
0.33800002 40517.33593529  2472.36795586
0.33900002 39817.80724365  2842.99157183
0.34000002 39131.29117079  2001.56563818
0.34100002 38456.92127814  2170.12417050
0.34200002 37795.36644174  2139.02886507
0.34300002 37144.88496357  2300.01138587
0.34400002 36507.82699105  1889.28013626
0.34500002 35881.75726588  2420.94227739
0.34600002 35268.59111088  1835.73025426
0.34700002 34665.37155844  2714.29872158
0.34800002 34075.48218402  2140.62189218
0.34900002 33496.21980602  2461.97227235
0.35000002 32928.47115704  2600.52613279
0.35100002 32372.75276856  1880.20956985
0.35200002 31826.72503653  1853.74768755
0.35300002 31292.39097402  2326.27645519
0.35400002 30769.33156805  1966.16038032
0.35500002 30256.98563298  2100.44004213
0.35600002 29754.50773560  1752.68936118
0.35700002 29263.09883022  2199.99987426
0.35800002 28782.79106664  2479.92539576
0.35900002 28312.43576007  1834.64592415
0.36000002 27852.65520602  1809.86562101
0.36100002 27402.11553185  1934.31542701
0.36200002 26962.83445064  1614.93904592
0.36300002 26532.22377169  1883.25733252
0.36400002 26111.57420126  2001.45225733
0.36500002 25700.42357229  1975.33464933
0.36600002 25299.13931311  1531.98945367
0.36700002 24906.66453235  2062.27192096
0.36800002 24524.85127097  1764.68575679
0.36900002 24151.13816321  1742.50470102
0.37000002 23786.18615425  1323.70132219
0.37100002 23430.08951069  1438.13896229
0.37200002 23083.52480397  1420.67560136
0.37300002 22744.98563895  1403.59313027
0.37400002 22414.99321490  1386.92777087
0.37500002 22093.83804785  1495.31102991
0.37600002 21781.02621109  1478.06050870
0.37700002 21475.85744510  1704.75364475
0.37800002 21178.70883697  1324.41061986
0.37900002 20890.01369452  1428.87700439
0.38000002 20609.04574058  1295.58772186
0.38100002 20334.74922228  1514.73554133
0.38200002 20069.06597684  1383.56147399
0.38300002 19810.00646051  1369.26771142
0.38400002 19559.19881455  1581.36129907
0.38500002 19314.29379809  1118.29766389
0.38600002 19077.64451827  1218.20304843
0.38700002 18847.27998428  1206.60292176
0.38800002 18623.78539978  1195.36772252
0.38900002 18406.55508484  1507.49693287
0.39000002 18197.06872378  1067.25813121
0.39100002 17992.77055784  1269.56995071
0.39200002 17795.58899804  1258.86002536
0.39300002 17604.16758367  1352.52825953
0.39400002 17420.26364106  1032.15066963
0.39500002 17240.98626981  1433.76048613
0.39600002 17067.80101026  1118.02635815
0.39700002 16900.35060854  1311.63627287
0.39800002 16738.73724600  1202.17616597
0.39900002 16582.55316535  1293.43920818
0.40000002 16431.55188186  1284.86526028
0.40100002 16286.25865880  1080.26758802
0.40200002 16146.30391614  976.04411798
0.40300002 16010.84700151  1067.28311169
0.40400002 15880.89418412  1157.71724088
0.40500002 15755.84015362  1151.43685298
0.40600002 15635.55396775  954.55061496
0.40700002 15519.78317776  1139.77293058
0.40800002 15408.87370411  1228.93478050
0.40900002 15302.15039124  1035.19052302
0.41000002 15200.24245616  1218.22348937
0.41100002 15102.34139301  1119.98969077
0.41200002 15008.38531239  929.76951416
0.41300002 14919.17565586  1019.12893734
0.41400002 14833.42437641  1015.71878230
0.41500002 14751.89352027  1012.57001921
0.41600002 14673.57107054  1101.39829674
0.41700002 14599.31944588  915.37737263
0.41800002 14529.73773693  913.19406004
0.41900002 14461.60597426  1275.51370737
0.42000002 14398.22689025  909.24807120
0.42100002 14338.38313946  998.38166531
0.42200002 14281.83589488  906.18253047
0.42300002 14227.92281809  1176.36471434
0.42400002 14176.99061094  1174.91815256
0.42500002 14129.60566704  902.88184491
0.42600002 14084.22400246  992.30404911
0.42700002 14042.99743948  1172.02862184
0.42800002 14003.45454174  1622.02021643
0.42900002 13967.92081487  991.02402878
0.43000002 13934.34125536  1081.02624582
0.43100002 13902.40193843  1081.05082596
0.43200002 13874.06529534  991.23264200
0.43300002 13847.81737222  991.64224902
0.43400002 13823.96852374  1262.81958449
0.43500002 13802.20019949  1173.46311657
0.43600002 13782.95587853  1084.16736078
0.43700002 13765.27356141  994.81636743
0.43800002 13749.62102106  1177.03636329
0.43900002 13736.61751451  906.61679892
0.44000002 13725.02069405  1452.65625910
0.44100002 13715.64278701  1182.15130783
0.44200002 13707.90853495  1184.15773491
0.44300002 13701.89371767  1095.05539781
0.44400002 13698.00460588  1005.77603585
0.44500002 13694.42143263  916.15683726
0.44600002 13692.79848740  918.10218209
0.44700002 13693.79380894  1288.31218260
0.44800002 13694.55195455  1014.56092963
0.44900002 13698.40077071  1109.57051501
0.45000002 13702.96129171  1205.10698791
0.45100002 13708.43140583  1301.20437071
0.45200002 13715.36943301  1584.33097514
0.45300002 13723.24207617  1121.46339561
0.45400002 13732.61682493  1218.42648554
0.45500002 13742.94976862  1316.02493221
0.45600002 13754.21661245  1037.13675282
0.45700002 13766.51377339  1040.33549516
0.45800002 13779.31627270  1043.57656737
0.45900002 13793.26834033  1142.08267271
0.46000002 13808.71468627  1527.79626530
0.46100002 13823.76305523  1053.78550764
0.46200002 13840.58239400  1345.71988995
0.46300002 13858.02603145  1253.87425475
0.46400002 13875.38638018  1354.93154424
0.46500002 13893.96522837  1359.66350169
0.46600002 13913.00345593  1461.90890742
0.46700002 13932.19659470  1369.25634622
0.46800002 13952.91885747  1276.06425459
0.46900002 13973.02900025  1773.17746417
0.47000002 13993.96135133  1186.40809960
0.47100002 14015.43400760  1091.52205225
0.47200002 14037.34804396  995.94989092
0.47300002 14059.72244743  2399.15115214
0.47400002 14081.71529042  1304.31894060
0.47500002 14104.40993988  1409.87688442
0.47600002 14127.88882599  1718.44583880
0.47700002 14150.64688890  1116.06157303
