# SAXS profile: number of points = 501, q_min = 0, q_max = 0.5, delta_q = 0.001
#    q    intensity    error
0.00000000 1682732.95097187 252.40994265
0.00100000 1682645.59036743 555.27305801
0.00200000 1682383.47258094 984.19436262
0.00300000 1681946.82648645 1715.58582413
0.00400000 1681335.51253834 1387.10185055
0.00500000 1680550.20436758 1814.99429256
0.00600000 1679590.71811953 2468.99845615
0.00700000 1678457.85450479 3424.05416549
0.00800000 1677151.36271822 2264.15443526
0.00900000 1675672.65142291 2513.50908458
0.01000000 1674021.11647464 3866.98894603
0.01100000 1672198.40531600 3611.94871274
0.01200000 1670204.32898988 3908.27830119
0.01300000 1668040.32417471 4553.75028584
0.01400000 1665706.47854237 4122.62371715
0.01500000 1663204.52538590 3991.69103867
0.01600000 1660533.86070612 5504.66999432
0.01700000 1657696.99148474 4923.36028557
0.01800000 1654694.25589550 5659.05460981
0.01900000 1651526.61482226 5945.49608164
0.02000000 1648195.02246353 5710.99601118
0.02100000 1644702.02371645 6513.02030921
0.02200000 1641046.40716473 6227.77139813
0.02300000 1637231.28059014 6483.43616625
0.02400000 1633257.17483767 7962.12909039
0.02500000 1629126.60391455 6988.95344998
0.02600000 1624839.92906984 7238.66221509
0.02700000 1620399.01489161 11569.64949623
0.02800000 1615804.52289948 7731.62499664
0.02900000 1611059.67865076 7249.76888680
0.03000000 1606165.15513617 8215.53514615
0.03100000 1601122.61874121 9991.00560066
0.03200000 1595933.33273632 8689.85739699
0.03300000 1590601.45017557 13790.51520877
0.03400000 1585125.57132964 9154.10059680
0.03500000 1579509.63066413 11941.09335924
0.03600000 1573754.17205491 9607.76966441
0.03700000 1567862.67576741 13405.22649777
0.03800000 1561836.45448943 12791.44115425
0.03900000 1555677.89237555 11200.88134382
0.04000000 1549387.41377583 11434.47964353
0.04100000 1542968.77220829 10692.77408719
0.04200000 1536424.07725654 9909.93575805
0.04300000 1529754.55856369 16154.20888828
0.04400000 1522963.35433408 11308.00343110
0.04500000 1516052.92014897 12552.91876210
0.04600000 1509023.77451889 15957.92715737
0.04700000 1501879.89895232 15138.95008552
0.04800000 1494623.07183404 14281.12411585
0.04900000 1487255.90860944 15616.18776729
0.05000000 1479780.27335933 14716.41550384
0.05100000 1472199.99343484 17224.74072559
0.05200000 1464514.21854994 13971.46629605
0.05300000 1456728.96938720 12979.45572231
0.05400000 1448844.64643597 16734.15644671
0.05500000 1440865.11944631 13313.59432475
0.05600000 1432791.08465448 13475.40077999
0.05700000 1424627.82569020 16112.54146067
0.05800000 1416374.53188739 18802.37278873
0.05900000 1408035.29657098 13939.55008711
0.06000000 1399613.63694912 14087.11191403
0.06100000 1391111.10712109 14231.06729089
0.06200000 1382530.65559314 13064.91530606
0.06300000 1373875.59471273 17145.96822368
0.06400000 1365145.07201487 19965.24761193
0.06500000 1356345.77783422 18798.95336016
0.06600000 1347478.91641021 17604.81286660
0.06700000 1338545.70630645 23210.38363358
0.06800000 1329550.27751088 16513.01521964
0.06900000 1320496.67033268 13865.21568765
0.07000000 1311383.91336825 16759.48719767
0.07100000 1302216.69612133 16876.72917220
0.07200000 1292997.26449376 19821.64899327
0.07300000 1283728.79418501 17099.26833974
0.07400000 1274414.11001345 18638.30723242
0.07500000 1265054.00062804 14421.61628314
0.07600000 1255651.74810358 18853.61188164
0.07700000 1246211.26242096 18954.87419019
0.07800000 1236733.83693346 19051.88565142
0.07900000 1227220.84355253 16199.31589470
0.08000000 1217678.34054130 22192.18879742
0.08100000 1208106.67886894 22289.56927092
0.08200000 1198507.39027036 16413.55947996
0.08300000 1188883.82191208 17975.92423096
0.08400000 1179239.19909889 18042.36059310
0.08500000 1169575.35223466 21122.53185296
0.08600000 1159894.89925862 25732.26954822
0.08700000 1150199.64569501 15182.63603612
0.08800000 1140491.92101783 16748.12464670
0.08900000 1130775.15734872 16792.01187534
0.09000000 1121051.20303924 16832.58460435
0.09100000 1111321.67756926 15336.23987097
0.09200000 1101589.20486900 23050.75519496
0.09300000 1091857.67241891 18474.23268547
0.09400000 1082125.73230201 16962.32165102
0.09500000 1072398.04538380 23163.79886905
0.09600000 1062676.01934446 15461.93680829
0.09700000 1052964.32401573 18574.29154887
0.09800000 1043262.03729706 18590.93037874
0.09900000 1033572.92996515 15503.59467849
0.10000000 1023896.67247142 18614.44238092
0.10100000 1014237.23234520 17069.61342318
0.10200000 1004596.59403678 17073.11991871
0.10300000 994975.71410994 17073.78405729
0.10400000 985377.68613213 17071.66921538
0.10500000 975805.27278457 17066.83502399
0.10600001 966255.43520420 23262.60069713
0.10700001 956736.35819411 20148.86865173
0.10800001 947244.60833821 17036.19508271
0.10900001 937785.49316321 21662.84591165
0.11000001 928359.27810474 15457.18270801
0.11100001 918966.90256783 21614.10256584
0.11200001 909611.65338621 16959.71007580
0.11300001 900293.34084827 21553.02359464
0.11400001 891014.69879963 23055.00641697
0.11500001 881777.40100325 21480.09849989
0.11600001 872582.41765387 21439.35101137
0.11700001 863431.17041857 18339.27892338
0.11800001 854324.15542842 18299.62427116
0.11900001 845263.48323859 15214.74341493
0.12000001 836249.91822442 18213.52407687
0.12100001 827287.18205235 15139.35614474
0.12200001 818373.71824555 19628.69455685
0.12300001 809512.07128061 16562.61775874
0.12400001 800702.50539156 19517.12448852
0.12500001 791945.89453906 20954.88935691
0.12600001 783245.43220005 19397.07404249
0.12700001 774600.21143951 20821.25466472
0.12800001 766011.19848242 14822.31738920
0.12900001 757480.29488663 16247.95309112
0.13000001 749007.89158262 16189.80633966
0.13100001 740594.06960562 14663.76326941
0.13200001 732240.64072995 18990.66191256
0.13300001 723949.18500167 21827.06895679
0.13400001 715718.31294258 17391.95582446
0.13500001 707550.82909385 14434.03759405
0.13600001 699445.55350518 14373.60680226
0.13700001 691405.09922175 15743.29485163
0.13800001 683427.43460241 15674.40895174
0.13900001 675515.80568941 14185.83258846
0.14000001 667669.38515783 14121.20816205
0.14100001 659888.64628046 15461.19171155
0.14200001 652173.94281649 19584.78442650
0.14300001 644527.44714069 18098.33156937
0.14400001 636945.36351647 16624.27477195
0.14500001 629432.59368854 15163.03189723
0.14600001 621986.95879705 16457.77570615
0.14700001 614611.48821819 13644.37568214
0.14800001 607301.05268673 16287.81500150
0.14900001 600060.52208732 14851.49862237
0.15000001 592888.28189674 18800.48830601
0.15100001 585785.09857079 17362.67114090
0.15200001 578751.11322052 15938.80641020
0.15300001 571787.18891712 14529.11315600
0.15400001 564889.89406152 18387.16691941
0.15500001 558063.23348700 13058.68027987
0.15600001 551303.40851449 14281.51547158
0.15700001 544616.17571014 18070.36556293
0.15800001 537993.99106993 14114.27302190
0.15900001 531443.14042112 14030.09956935
0.16000001 524958.75948284 21552.18288788
0.16100001 518546.21774706 15120.80842327
0.16200001 512200.49875311 20037.28445710
0.16300001 505922.77443819 18668.55125807
0.16400001 499713.60196443 14841.49467900
0.16500001 493571.47194388 14747.91627795
0.16600001 487498.21898668 13433.01405839
0.16700001 481490.28448465 12133.55574190
0.16800001 475549.23988828 15671.72594048
0.16900001 469676.97101093 17965.14498945
0.17000001 463869.25734215 19037.19522025
0.17100001 458127.59611035 18911.50806046
0.17200001 452451.93235263 22308.14357810
0.17300001 446841.44919301 17493.84356204
0.17400001 441295.88473707 15059.22277784
0.17500001 435814.06832063 11505.49194704
0.17600001 430395.15255152 12569.69102392
0.17700001 425041.46279248 14753.18987033
0.17800001 419748.76785619 14651.33143403
0.17900001 414519.68123157 13430.43830627
0.18000001 409352.22885148 12225.30489211
0.18100001 404247.82681964 11035.96619348
0.18200001 399201.65053324 13149.70298973
0.18300001 394216.95069345 16320.58252968
0.18400001 389291.75968666 10802.84684164
0.18500001 384427.29166435 10725.52194413
0.18600001 379619.71389161 11713.16682550
0.18700001 374870.37081361 12685.61394766
0.18800001 370178.37034594 14692.38021319
0.18900001 365545.26097979 16668.86468824
0.19000001 360964.59388267 10341.63610337
0.19100001 356444.10545226 14371.82701090
0.19200001 351975.41640320 12227.62654362
0.19300001 347563.75987251 13148.33765727
0.19400001 343203.86092979 15058.07010985
0.19500001 338898.57112969 12952.70400066
0.19600001 334645.25816478 12855.39819990
0.19700001 330444.02185729 11777.02549555
0.19800001 326294.64424078 10713.88514997
0.19900001 322196.16508666 9665.88540941
0.20000001 318146.71815438 12469.76120740
0.20100001 314148.14128351 11422.42695692
0.20200001 310196.95421425 9445.49770225
0.20300001 306295.49298981 13121.69953988
0.20400001 302441.19815085 10230.07401098
0.20500001 298633.51410454 10150.55362420
0.20600001 294872.55216269 9155.79317743
0.20700001 291157.53718420 12717.76182536
0.20800001 287486.54920011 13519.05561518
0.20900001 283862.49918624 13412.50372058
0.21000001 280280.22278777 8870.86947058
0.21100001 276742.05431285 8800.39774317
0.21200001 273246.12163120 10476.25679860
0.21300001 269791.51655054 11258.40051790
0.21400001 266379.45241557 8590.73774654
0.21500001 263009.27287226 12782.25126591
0.21600001 259678.01384726 11833.52765049
0.21700001 256387.08059993 13414.17269120
0.21800001 253135.10028312 13304.78149994
0.21900001 249920.93930978 14845.30449691
0.22000001 246744.50164925 8997.53867807
0.22100001 243607.14792788 9734.54209148
0.22200001 240506.79515796 8044.95267843
0.22300001 237441.09323654 9573.62533199
0.22400001 234411.11996395 7911.37567288
0.22500001 231418.67481477 10198.62148135
0.22600001 228458.74006511 7779.02046707
0.22700001 225535.34640405 8484.64013295
0.22800001 222644.16242162 9177.39280902
0.22900001 219785.58233217 10615.64412867
0.23000001 216960.95335866 9021.23686728
0.23100001 214169.08436977 12670.24363053
0.23200001 211407.32646900 7388.68640953
0.23300001 208677.73439420 8057.04770601
0.23400001 205979.63956957 10165.09569352
0.23500001 203310.02017086 10795.76258167
0.23600001 200672.08946138 8560.67174132
0.23700001 198063.02907738 7777.93551975
0.23800001 195483.16077278 7008.07164518
0.23900001 192931.82546170 9029.20985869
0.24000001 190408.49460763 8259.92088678
0.24100001 187914.24964479 7503.41634324
0.24200001 185446.78193967 6759.53552144
0.24300001 183006.78071891 10047.07273672
0.24400001 180592.96667844 7964.15020725
0.24500001 178205.46677194 7890.93844194
0.24600001 175844.49863272 8469.55067730
0.24700001 173509.24275130 8390.90737639
0.24800001 171199.16771610 10230.86274670
0.24900001 168913.21470153 6967.67043606
0.25000001 166653.00843094 6901.93467069
0.25100001 164415.78770996 9322.37560419
0.25200001 162204.78384031 7386.80620556
0.25300001 160016.74775464 6706.30221568
0.25400001 157852.02769070 10264.32858621
0.25500001 155710.05124247 5979.26625060
0.25600001 153591.51390646 10657.71565421
0.25700001 151494.98955709 6449.14201058
0.25800001 149421.60491132 8127.04147565
0.25900001 147370.08050442 9770.63679974
0.26000001 145340.47995028 8535.12008892
0.26100001 143331.93556260 6196.23986755
0.26200001 141345.80417310 7806.52913386
0.26300001 139379.79645916 6071.38422104
0.26400001 137435.24414065 6555.66145571
0.26500001 135511.99933431 6488.31483515
0.26600001 133608.03679285 6421.20255211
0.26700001 131725.63595294 7943.05622383
0.26800001 129863.47687694 6287.98984793
0.26900001 128020.22392682 5184.81931439
0.27000001 126197.57336162 8207.89055985
0.27100001 124394.04073283 8120.44336332
0.27200001 122611.50737312 8033.50634326
0.27300001 120847.11859447 5463.49849021
0.27400001 119100.08728282 5404.16671621
0.27500001 117374.75596734 6317.10966512
0.27600001 115665.95294816 5286.51262968
0.27700001 113977.71724021 4752.87103385
0.27800001 112306.79497783 7050.05938839
0.27900001 110655.36813150 5112.27824963
0.28000001 109020.79878077 5054.74957470
0.28100001 107405.06217900 4543.23434520
0.28200001 105807.83783851 4940.69722171
0.28300001 104228.04856256 4884.12658681
0.28400001 102665.84373889 6144.55103860
0.28500001 101121.66087786 5639.55529409
0.28600001 99594.84115996  8146.36041826
0.28700001 98085.29621731  5084.74199658
0.28800001 96592.46492440  7118.38203954
0.28900001 95118.60987851  4965.19167068
0.29000001 93660.26155446  5314.75179348
0.29100001 92219.98085503  4847.08242318
0.29200001 90796.19742950  4389.54237251
0.29300001 89389.44795916  4336.28232576
0.29400001 87998.67898707  4672.73007540
0.29500001 86625.79978111  4230.80426158
0.29600001 85268.49001584  4178.58255103
0.29700001 83927.90185432  4501.89286858
0.29800001 82603.53331693  3704.76864464
0.29900001 81296.24259748  4024.16419908
0.30000001 80004.23116423  5779.50593290
0.30100001 78729.35848229  4279.72812970
0.30200001 77469.02114579  4929.35404887
0.30300001 76225.99550703  4171.08667161
0.30400001 74998.64639631  4460.54470559
0.30500001 73786.95385841  4402.86774517
0.30600001 72590.08275364  3677.05081597
0.30700001 71410.03480553  3958.97251705
0.30800001 70245.14837150  4232.62161551
0.30900001 69095.69828509  4176.83515908
0.31000001 67962.00302168  3170.42759106
0.31100001 66842.62732675  3441.05861770
0.31200001 65739.38509996  3395.11070423
0.31300001 64650.69766862  3654.05760524
0.31400001 63578.36243496  3905.30109747
0.31500001 62519.71799082  3259.77825038
0.31600002 61476.60434812  3800.17647771
0.31700002 60448.12940147  3748.38868166
0.31800002 59434.55183271  3697.12647181
0.31900002 58435.73384281  3085.40689299
0.32000002 57451.85523680  3596.19904883
0.32100002 56481.49735114  3000.86209636
0.32200002 55527.14817540  3228.34854778
0.32300002 54585.01056117  4244.53062222
0.32400002 53658.41426566  3139.01738318
0.32500002 52745.66202257  2579.26299504
0.32600002 51847.33787851  4068.97926938
0.32700002 50962.45927913  3259.55904984
0.32800002 50092.23715909  3213.66762712
0.32900002 49235.10578670  2680.85163703
0.33000002 48392.79171665  2883.24266701
0.33100002 47561.62652725  2605.42602454
0.33200002 46746.85339419  3269.00761266
0.33300002 45944.18765682  3222.52547485
0.33400002 45155.41651760  2269.05978746
0.33500002 44378.77082251  2684.02818645
0.33600002 43616.48352843  3307.22002016
0.33700002 42866.15023773  3042.63948796
0.33800002 42129.81882376  2142.30138864
0.33900002 41405.17225652  2322.83027359
0.34000002 40693.98280984  2289.64705123
0.34100002 39995.14907453  3487.97711598
0.34200002 39309.51465918  2224.72208750
0.34300002 38635.05750627  1993.56906174
0.34400002 37974.44290043  1965.17751317
0.34500002 37324.88846921  2905.74270494
0.34600002 36688.56396605  2100.60382936
0.34700002 36062.46292688  2258.95278473
0.34800002 35450.02908231  2412.55184346
0.34900002 34848.35452855  2195.44643928
0.35000002 34258.57754089  2164.45703155
0.35100002 33680.88260305  2667.52602850
0.35200002 33113.37472404  1928.68860215
0.35300002 32557.63949186  2420.33503446
0.35400002 32013.45750150  1875.18836197
0.35500002 31480.34309354  2185.36552106
0.35600002 30957.30012774  1657.76350036
0.35700002 30445.40175800  1798.40996703
0.35800002 29944.91866532  1773.78734116
0.35900002 29454.69611241  2067.71976503
0.36000002 28975.33147957  2196.61998351
0.36100002 28505.30697106  2012.18971440
0.36200002 28046.89484610  2290.73024506
0.36300002 27597.27234673  1506.81114150
0.36400002 27157.93058415  1635.58644690
0.36500002 26728.20272964  1907.59191917
0.36600002 26308.71702004  1593.12443461
0.36700002 25898.21316117  1572.53957763
0.36800002 25498.58977378  1411.34701083
0.36900002 25107.27152955  1672.14436308
0.37000002 24724.94157985  2063.91459614
0.37100002 24351.72071676  1766.47390447
0.37200002 23988.26625038  1476.35791631
0.37300002 23632.92543914  1590.96861593
0.37400002 23286.44818089  1702.82160389
0.37500002 22948.99269702  1812.05254920
0.37600002 22620.03406447  1662.91188302
0.37700002 22298.99600626  1643.65907348
0.37800002 21986.28014304  1624.89611095
0.37900002 21682.16870988  1359.47204251
0.38000002 21385.87730470  1222.20294586
0.38100002 21096.51698347  1450.59657650
0.38200002 20815.95793981  1315.46452432
0.38300002 20542.23087673  1538.20232092
0.38400002 20277.00961646  1288.09709691
0.38500002 20017.78711369  1506.73890743
0.38600002 19767.22051150  1606.48208708
0.38700002 19522.85544104  1363.47628860
0.38800002 19285.70294611  1575.44914831
0.38900002 19054.98163928  1226.18812658
0.39000002 18832.20325116  1435.86140491
0.39100002 18614.74977419  1204.00207244
0.39200002 18404.62019853  1627.42861816
0.39300002 18200.36488510  1721.02658507
0.39400002 18003.94112342  1066.73356210
0.39500002 17812.29065735  1481.27016124
0.39600002 17626.87209732  1154.64831144
0.39700002 17447.37826780  1874.89535749
0.39800002 17273.84804955  1550.75978212
0.39900002 17105.89492325  1334.25986723
0.40000002 16943.46133717  1019.14924772
0.40100002 16786.76627605  1012.24205440
0.40200002 16635.64489716  1206.74973802
0.40300002 16489.16977004  1199.09248249
0.40400002 16348.34912025  1489.74338417
0.40500002 16212.50999923  987.34190573
0.40600002 16081.69624926  1079.96636279
0.40700002 15955.55514131  1074.12802301
0.40800002 15834.40448535  1457.16114181
0.40900002 15717.61286944  1353.28653218
0.41000002 15605.79895580  962.09755121
0.41100002 15498.06830897  1149.33680025
0.41200002 15394.50314816  1335.16532130
0.41300002 15295.78881018  949.86853012
0.41400002 15200.80925236  1324.75058911
0.41500002 15110.07552768  1037.15563336
0.41600002 15022.66474235  1127.60126899
0.41700002 14939.55362991  1030.38106268
0.41800002 14861.13235370  1494.43554030
0.41900002 14784.41125767  1397.12693005
0.42000002 14712.65427577  1022.01457769
0.42100002 14644.37567877  1019.68792683
0.42200002 14579.63206021  1387.61654708
0.42300002 14517.59175858  1107.98265552
0.42400002 14458.75199605  1198.26912845
0.42500002 14403.49951946  1196.49876178
0.42600002 14350.44928906  1102.97558462
0.42700002 14301.58387476  1285.42641957
0.42800002 14254.71081892  1009.01975313
0.42900002 14211.79105309  1099.99267963
0.43000002 14171.01540025  1282.61866466
0.43100002 14132.00310533  915.75384462
0.43200002 14096.73810592  1098.69982004
0.43300002 14063.61364661  915.54129178
0.43400002 14033.08455931  1098.79057306
0.43500002 14004.65949483  1282.26668411
0.43600002 13978.95537142  1649.37702244
0.43700002 13954.85703652  1191.88439597
0.43800002 13932.90919502  917.48211397
0.43900002 13913.77439423  1377.46373031
0.44000002 13896.07725483  1470.76088635
0.44100002 13880.76460328  1196.38315785
0.44200002 13867.19383546  1197.91759625
0.44300002 13855.35869701  1384.15039943
0.44400002 13845.87009429  1016.63305985
0.44500002 13836.73909895  1295.94904542
0.44600002 13829.57262860  1020.00017756
0.44700002 13825.25530875  1021.96292086
0.44800002 13820.75278122  1116.99329271
0.44900002 13819.36919394  1305.93045072
0.45000002 13818.93115315  1215.30595786
0.45100002 13819.40928901  936.95599420
0.45200002 13821.51476033  1408.75795871
0.45300002 13824.48790198  1318.02673904
0.45400002 13829.13378645  1321.37379592
0.45500002 13834.85186692  1608.71665133
0.45600002 13841.59179948  948.84116282
0.45700002 13849.47094287  1236.89630853
0.45800002 13857.87078999  954.11444911
0.45900002 13867.47254156  956.85565072
0.46000002 13878.70652720  1055.68386202
0.46100002 13889.55285545  962.54605850
0.46200002 13902.38593286  1062.07282368
0.46300002 13915.78220024  1162.24618445
0.46400002 13929.25752334  971.56575830
0.46500002 13944.01977096  1072.15573100
0.46600002 13959.26877593  1271.20087133
0.46700002 13974.71280760  1177.22986271
0.46800002 13991.85021925  1378.05739341
0.46900002 14008.39057854  1185.10989911
0.47000002 14025.84494031  1486.38898800
0.47100002 14043.81026302  1193.16217650
0.47200002 14062.43083477  1696.14017553
0.47300002 14081.52199217  1501.79439165
0.47400002 14100.27952044  1105.10945979
0.47500002 14119.76130797  1108.96610569
0.47600002 14140.26308936  1315.25663360
0.47700002 14159.91378381  1522.89879963
