# SAXS profile: number of points = 501, q_min = 0, q_max = 0.5, delta_q = 0.001
#    q    intensity    error
0.00000000 1700912.83420643 280.65061764
0.00100000 1700824.68980758 561.27216097
0.00200000 1700560.22848719 918.30255246
0.00300000 1700119.65980680 1326.09338189
0.00400000 1699502.88264822 1657.01537355
0.00500000 1698710.53545760 1987.49140515
0.00600000 1697742.46325948 2495.68152260
0.00700000 1696599.44590977 2443.10330365
0.00800000 1695281.24143693 3204.08168159
0.00900000 1693789.27897420 2540.68402707
0.01000000 1692122.92699796 3908.80413015
0.01100000 1690283.86169941 3651.01330023
0.01200000 1688271.89247713 3292.13033467
0.01300000 1686088.48537579 3894.86457300
0.01400000 1683733.69244422 3788.40097594
0.01500000 1681209.23769781 5245.37305519
0.01600000 1678514.59732255 4708.23365596
0.01700000 1675652.24981557 5429.11353295
0.01800000 1672622.46060177 6197.06649538
0.01900000 1669426.35684875 6009.93515584
0.02000000 1666064.73389515 6297.72497901
0.02100000 1662540.26606056 7132.29806477
0.02200000 1658851.67460513 6867.64624488
0.02300000 1655002.15364424 6553.80882675
0.02400000 1650992.26658493 7429.46553840
0.02500000 1646824.32340271 9633.92273189
0.02600000 1642498.90956374 6652.12088799
0.02700000 1638017.80905150 8255.61013574
0.02800000 1633381.76403678 10657.81649910
0.02900000 1628593.94868096 9527.27503722
0.03000000 1623655.08211659 8304.99612677
0.03100000 1618566.83096760 10876.76960458
0.03200000 1613330.37999313 9583.18289854
0.03300000 1607950.03898481 14760.98203837
0.03400000 1602424.28830893 8412.72790179
0.03500000 1596757.23857036 9484.73843509
0.03600000 1590949.42245251 12361.67758374
0.03700000 1585004.19721973 9937.97677617
0.03800000 1578922.88406967 10160.36922921
0.03900000 1572707.98140834 10379.87315799
0.04000000 1566359.95819594 11559.73702715
0.04100000 1559882.53706991 10809.98648312
0.04200000 1553277.81391316 13024.23507389
0.04300000 1546547.01894371 13269.37403847
0.04400000 1539693.56668493 12471.51846935
0.04500000 1532719.36352113 14806.06973958
0.04600000 1525625.47101148 12906.79208475
0.04700000 1518415.59800710 13119.11137692
0.04800000 1511091.72746086 14438.48212768
0.04900000 1503656.64236381 13532.91041120
0.05000000 1496111.60829764 11445.25433644
0.05100000 1488460.93383611 11609.99582476
0.05200000 1480703.90488954 12948.75625169
0.05300000 1472846.03385910 14316.06411649
0.05400000 1464888.38023514 15710.92861068
0.05500000 1456834.47863333 12237.41019139
0.05600000 1448684.92890551 18579.38508020
0.05700000 1440445.38868037 15038.25055979
0.05800000 1432114.66049930 13941.63687093
0.05900000 1423697.18017536 19219.91283005
0.06000000 1415196.38430737 15538.85702565
0.06100000 1406613.84608195 18314.11313183
0.06200000 1397952.60754546 13210.65275882
0.06300000 1389215.57116693 16003.76412810
0.06400000 1380402.72560109 13458.92720404
0.06500000 1371519.75577926 19009.26470431
0.06600000 1362568.86242719 16432.58124973
0.06700000 1353550.77004819 19328.70590085
0.06800000 1344469.86492028 18089.84287927
0.06900000 1335329.76062239 15423.05945728
0.07000000 1326129.75342185 15535.61078885
0.07100000 1316874.76081293 15644.47289121
0.07200000 1307566.93997100 20045.00212880
0.07300000 1298209.27096514 15851.13594120
0.07400000 1288804.96511842 17398.86784448
0.07500000 1279354.51224238 24793.89160941
0.07600000 1269861.53639762 17600.28171958
0.07700000 1260329.65548252 14745.85766056
0.07800000 1250760.30856119 16303.66138668
0.07900000 1241154.90765727 19362.01746760
0.08000000 1231519.45849605 17955.55454719
0.08100000 1221854.44915859 18034.57251573
0.08200000 1212161.03371800 18109.68669355
0.08300000 1202443.48268663 15150.78859291
0.08400000 1192704.04415957 18248.37273220
0.08500000 1182945.17868711 19837.99157788
0.08600000 1173169.24966653 18371.83131236
0.08700000 1163378.40032387 15356.59560539
0.08800000 1153574.59477168 20020.28803249
0.08900000 1143761.42082361 20073.01387828
0.09000000 1133940.91731981 17026.12367337
0.09100000 1124114.57329509 17064.06002431
0.09200000 1114284.82383364 20207.55622971
0.09300000 1104456.04957548 18687.39723698
0.09400000 1094626.45338468 20277.95600196
0.09500000 1084801.17578740 20307.47896525
0.09600000 1074981.11819882 23461.46400756
0.09700000 1065171.57366870 17223.82515596
0.09800000 1055371.10972809 15672.26171634
0.09900000 1045583.96506966 18820.51225624
0.10000000 1035809.39143853 20400.26692375
0.10100000 1026051.78078570 18838.31158122
0.10200000 1016312.78168775 18842.43985877
0.10300000 1006593.49280918 21984.00291710
0.10400000 996896.87826929 20411.46454282
0.10500000 987226.36983835 28254.42003413
0.10600001 977578.45679860 17259.14846688
0.10700001 967961.03783788 20385.26041615
0.10800001 958371.33625499 20370.18371076
0.10900001 948814.23170568 17220.97911597
0.11000001 939290.05304353 25022.68819089
0.11100001 929800.25849665 18744.77409367
0.11200001 920347.36587105 17159.87744450
0.11300001 910931.60338878 20250.01049672
0.11400001 901555.83542353 18662.20667197
0.11500001 892221.68262043 20182.05541121
0.11600001 882929.80662246 21693.58637030
0.11700001 873682.15213985 17010.59230328
0.11800001 864478.99061200 20060.23592195
0.11900001 855322.36618067 15395.80331642
0.12000001 846213.37002941 18430.52806741
0.12100001 837155.18708978 16851.93470998
0.12200001 828146.60612597 15279.30560285
0.12300001 819190.44871837 22855.41459606
0.12400001 810286.60784442 22789.31191940
0.12500001 801436.12723107 21206.00092577
0.12600001 792642.27288589 16609.81961104
0.12700001 783903.90187823 21071.33787550
0.12800001 775222.03225641 19500.71114046
0.12900001 766598.98591722 17938.41711594
0.13000001 758034.93454909 17874.46459918
0.13100001 749529.79356787 20776.96685708
0.13200001 741085.49826155 20698.51894218
0.13300001 732703.58944883 19145.54569488
0.13400001 724382.76693694 16135.62689424
0.13500001 716126.11783073 18991.66554029
0.13600001 707932.03419753 20367.20558419
0.13700001 699803.05884880 21728.88600184
0.13800001 691737.54520906 17307.27419727
0.13900001 683739.00171406 15794.37168443
0.14000001 675805.91945201 17151.95504459
0.14100001 667939.22141497 22763.36973941
0.14200001 660139.12255174 18407.98030057
0.14300001 652407.76784452 16910.41014015
0.14400001 644741.41875981 14023.12651950
0.14500001 637145.25544397 13953.48175244
0.14600001 629616.46222576 15271.34801170
0.14700001 622158.55628853 15193.11266132
0.14800001 614766.58670927 16488.04063343
0.14900001 607445.11784282 19134.52211483
0.15000001 600192.52492072 13594.36133088
0.15100001 593009.50563144 20280.92604955
0.15200001 585896.58854417 17480.22554405
0.15300001 578854.26609592 14708.68759559
0.15400001 571879.34988933 13296.19551239
0.15500001 564975.83293701 14542.47862610
0.15600001 558139.71065591 18401.86712880
0.15700001 551377.03621338 19601.45456251
0.15800001 544680.14148805 14289.68418639
0.15900001 538055.15140132 19369.98636472
0.16000001 531497.29637758 14119.22634473
0.16100001 525011.87336280 17860.90477491
0.16200001 518594.37770702 24091.30295364
0.16300001 512245.48356822 21422.10713411
0.16400001 505966.01380753 18783.98914939
0.16500001 499754.22481167 13688.26886383
0.16600001 493611.91587498 14837.97489175
0.16700001 487535.95708040 13514.49736835
0.16800001 481527.32045042 13427.38996475
0.16900001 475588.37777857 18191.25630899
0.17000001 469714.86275028 16867.46151784
0.17100001 463907.88785078 16756.35370043
0.17200001 458167.94311821 15456.29629098
0.17300001 452493.66288929 18896.13625462
0.17400001 446885.27276722 12903.81286055
0.17500001 441341.38795299 13981.69583067
0.17600001 435860.95891293 13886.53080681
0.17700001 430446.52475432 17239.38413064
0.17800001 425094.40461307 18262.05648473
0.17900001 419805.97136575 14735.19029093
0.18000001 414580.28842377 16883.78304356
0.18100001 409418.25236086 13412.54258090
0.18200001 404315.36114056 14427.99434385
0.18300001 399274.55683658 12121.97611819
0.18400001 394294.03962365 12035.82612809
0.18500001 389375.08453056 10863.56537162
0.18600001 384513.89760376 12942.73840480
0.18700001 379711.24012806 14991.00046850
0.18800001 374966.98659665 12756.37748671
0.18900001 370282.37016274 11608.35285307
0.19000001 365650.74051713 12571.07305295
0.19100001 361080.27473188 10399.11240364
0.19200001 356562.38480608 11354.72968068
0.19300001 352101.98320624 12295.40183455
0.19400001 347694.35932499 17289.10283441
0.19500001 343341.61803585 12113.09285671
0.19600001 339041.86996172 13024.29405006
0.19700001 334794.99349275 10937.75295430
0.19800001 330600.38483827 11842.10634455
0.19900001 326457.89640379 9793.73735497
0.20000001 322364.52320311 14578.93625088
0.20100001 318323.10138768 14467.78564185
0.20200001 314329.58313157 10528.46988460
0.20300001 310386.71381983 10447.61728098
0.20400001 306491.46529039 15079.38080503
0.20500001 302643.55550483 10286.85493784
0.20600001 298842.93864857 12990.70315710
0.20700001 295089.08935015 10127.45802521
0.20800001 291379.72667117 10048.23034924
0.20900001 287717.96627805 9969.42800280
0.21000001 284098.68773846 11689.24105958
0.21100001 280524.03388911 10704.79763926
0.21200001 276992.39483168 11504.87966322
0.21300001 273502.68781955 15802.98604931
0.21400001 270056.15661070 12193.03604742
0.21500001 266652.02847769 12095.33658359
0.21600001 263287.47852514 13712.01252987
0.21700001 259963.56299437 10200.97069420
0.21800001 256679.56890502 9275.11666092
0.21900001 253433.88055156 9199.65029900
0.22000001 250226.28492518 9954.00208497
0.22100001 247058.51754686 13163.27843730
0.22200001 243928.03017759 8159.39299525
0.22300001 240833.19358430 8091.99568707
0.22400001 237774.07301775 10432.33794696
0.22500001 234753.45577259 10345.58528511
0.22600001 231765.70658637 8680.78495069
0.22700001 228815.02716000 8608.02172883
0.22800001 225897.03897719 10087.43275256
0.22900001 223012.10750287 13079.66072359
0.23000001 220161.61125317 9154.32022883
0.23100001 217344.51124922 9076.30721901
0.23200001 214557.83900824 9748.43587638
0.23300001 211803.74679697 7434.31186418
0.23400001 209081.53468772 8844.14933558
0.23500001 206388.44026905 10228.61158351
0.23600001 203727.46878745 9415.26541533
0.23700001 201095.56550071 8614.93443352
0.23800001 198493.55671675 9250.79264833
0.23900001 195920.19251255 7053.12726406
0.24000001 193375.43008881 7689.57434120
0.24100001 190860.10664853 7621.04441896
0.24200001 188372.01626235 9612.62444456
0.24300001 185911.47204692 8165.23223854
0.24400001 183477.68702123 8765.64691209
0.24500001 181070.64589470 6681.50714958
0.24600001 178690.16657760 6620.47098488
0.24700001 176336.08979659 10495.52456119
0.24800001 174007.48588608 7799.01588636
0.24900001 171703.24204249 6438.87188120
0.25000001 169425.10963212 7016.74124736
0.25100001 167170.34493819 6319.03933761
0.25200001 164941.68569892 6259.53726841
0.25300001 162736.71004590 8060.34962991
0.25400001 160555.14529185 8597.72843715
0.25500001 158396.56054378 7298.91385518
0.25600001 156261.81923296 7831.06144137
0.25700001 154149.26179903 6562.13438526
0.25800001 152060.14059553 5907.53674165
0.25900001 149993.25622483 8189.63217737
0.26000001 147948.44207353 7529.83631561
0.26100001 145924.69072266 6308.32467843
0.26200001 143923.63668779 6245.56650959
0.26300001 141943.02902409 7869.32190145
0.26400001 139984.05545865 7233.67640811
0.26500001 138046.53975776 6609.66863636
0.26600001 136128.62597100 9268.31793781
0.26700001 134232.30415689 5396.13888245
0.26800001 132356.62840544 6942.76727155
0.26900001 130499.66232526 7399.33120399
0.27000001 128663.69346592 6799.23320296
0.27100001 126846.92840865 6210.42590878
0.27200001 125051.34261509 5632.93799467
0.27300001 123274.06941372 5066.56449267
0.27400001 121514.26084716 9022.43429489
0.27500001 119776.33152531 5950.48843179
0.27600001 118055.04776627 4905.18746683
0.27700001 116354.25887426 6307.56467209
0.27800001 114671.08180893 6718.57900116
0.27900001 113007.39566904 7594.09734837
0.28000001 111360.65470527 5163.23699978
0.28100001 109732.92125878 5570.04334672
0.28200001 108123.85420043 6884.78674207
0.28300001 106532.25155749 5445.92895738
0.28400001 104958.16305339 5384.35401948
0.28500001 103402.39018501 6210.34784846
0.28600001 101863.74840162 4823.75803388
0.28700001 100342.70740713 5201.76619820
0.28800001 98838.20245262  5570.02716286
0.28900001 97353.04817942  5928.80091476
0.29000001 95883.10709566  7533.53608110
0.29100001 94431.33728609  6617.74843026
0.29200001 92996.23127402  5313.33992535
0.29300001 91578.17931987  4846.31747901
0.29400001 90176.13124342  4788.35279569
0.29500001 88791.92040872  5913.54217915
0.29600001 87423.38124585  4284.18300076
0.29700001 86071.49626423  4616.87527817
0.29800001 84735.70766006  4180.43633530
0.29900001 83417.13834941  4129.14854377
0.30000001 82113.80873243  4448.92636773
0.30100001 80827.84375895  5492.25224342
0.30200001 79556.20457452  4700.57856981
0.30300001 78301.94886912  3927.62594121
0.30400001 77063.36208337  4583.34367689
0.30500001 75840.14283772  4177.27526526
0.30600001 74632.04692705  3780.48651607
0.30700001 73440.62923101  3732.25295422
0.30800001 72264.32493708  4689.23226717
0.30900001 71103.48422125  3967.57460739
0.31000001 69958.45604999  3263.56212924
0.31100001 68827.63646389  4187.47360072
0.31200001 67712.85278203  4768.67788295
0.31300001 66612.64582385  3137.45576685
0.31400001 65528.57046764  3715.47012143
0.31500001 64458.46630721  4277.46402667
0.31600002 63403.66546626  3919.29776637
0.31700002 62363.55226302  3867.16405893
0.31800002 61338.09929930  3522.03382853
0.31900002 60327.66535310  3474.87368887
0.32000002 59331.81522939  3428.19244628
0.32100002 58349.66815013  3100.11801561
0.32200002 57383.30877385  3058.24358591
0.32300002 56429.33824195  3290.95916210
0.32400002 55490.50848195  2975.67865825
0.32500002 54565.71804593  5336.52747759
0.32600002 53655.23838754  2894.96852428
0.32700002 52758.10573765  3114.83871025
0.32800002 51875.65673366  2560.06378103
0.32900002 51006.19032342  3282.24850274
0.33000002 50151.40831652  2739.01929491
0.33100002 49307.91019961  2701.08744864
0.33200002 48480.71605155  2905.93425774
0.33300002 47665.43410731  2388.03836186
0.33400002 46863.99506835  3061.39062281
0.33500002 46074.75442588  2786.60127964
0.33600002 45299.72005684  2976.87124451
0.33700002 44536.52703965  3161.20283898
0.33800002 43787.39455181  2226.58911841
0.33900002 43049.94132545  2634.65653389
0.34000002 42325.81871417  4113.43488654
0.34100002 41613.96039431  2134.79626933
0.34200002 40915.23142715  2315.59763228
0.34300002 40227.62495703  2075.74554609
0.34400002 39553.83919906  2456.29353059
0.34500002 38891.07409051  2623.98089316
0.34600002 38241.47685801  2388.56275767
0.34700002 37602.12531066  2747.96344785
0.34800002 36976.16416771  2129.27251444
0.34900002 36361.10599830  2099.85397085
0.35000002 35757.86802018  2823.97776064
0.35100002 35166.66501726  2042.48000094
0.35200002 34585.60429529  2197.56940101
0.35300002 34016.20491387  2528.76479307
0.35400002 33458.31677006  1781.65545239
0.35500002 32911.51273698  2811.95978143
0.35600002 32374.68630058  2427.13034691
0.35700002 31848.98453884  1881.31960582
0.35800002 31334.69763194  1856.11090214
0.35900002 30830.66764274  1997.82735788
0.36000002 30337.42205608  1807.04863036
0.36100002 29853.52960021  2107.36075430
0.36200002 29381.06857367  3199.59851923
0.36300002 28917.53458484  2052.56670206
0.36400002 28464.14184569  2025.93539183
0.36500002 28020.45481701  1845.98765078
0.36600002 27586.83439886  2277.98295839
0.36700002 27162.19789364  1799.22407370
0.36800002 26748.53994656  1628.58493179
0.36900002 26343.17497237  1462.04628022
0.37000002 25946.62998301  1877.10903504
0.37100002 25559.15801600  1568.82119334
0.37200002 25181.51999809  1831.57794382
0.37300002 24812.02145211  1809.54081022
0.37400002 24451.39415510  1375.39098638
0.37500002 24099.67973569  1359.22200148
0.37600002 23756.68009683  1343.44032312
0.37700002 23421.46494164  1726.39626263
0.37800002 23094.39533195  1706.79136786
0.37900002 22776.11096892  2077.18141877
0.38000002 22465.68338718  1283.91386640
0.38100002 22162.14137256  1523.86891297
0.38200002 21867.41015574  1256.28277296
0.38300002 21579.55774145  1740.17561871
0.38400002 21300.12128197  1353.09026854
0.38500002 21026.76343646  1826.17449097
0.38600002 20762.02636921  1325.75925661
0.38700002 20503.58445853  1551.30127363
0.38800002 20252.43033861  1536.24817612
0.38900002 20007.61077668  1404.53434306
0.39000002 19770.80983165  1275.51385672
0.39100002 19539.41106448  1838.26788004
0.39200002 19315.33036501  2049.54980213
0.39300002 19097.15031977  1354.36996484
0.39400002 18886.80108019  1566.66022383
0.39500002 18681.30217497  1220.63634194
0.39600002 18482.05875264  1210.66731595
0.39700002 18288.73807602  1091.83771487
0.39800002 18101.61907883  1191.72014852
0.39900002 17919.91234484  1182.71427079
0.40000002 17743.80444768  1067.28988810
0.40100002 17573.49941819  1271.61847815
0.40200002 17408.84241719  1473.31040357
0.40300002 17248.90748207  1463.39738011
0.40400002 17094.57204475  1142.34483102
0.40500002 16945.56852482  1135.18368926
0.40600002 16801.24373706  1230.85917450
0.40700002 16662.01301960  1427.60134316
0.40800002 16527.58026957  1520.95064637
0.40900002 16397.72200193  1310.99793617
0.41000002 16272.89910632  1003.22427744
0.41100002 16152.17942282  1197.84568275
0.41200002 16035.71597485  993.41265171
0.41300002 15924.22569424  1186.67335496
0.41400002 15816.38489993  1378.39800934
0.41500002 15712.96941188  980.48933776
0.41600002 15612.94242955  1171.90751429
0.41700002 15517.38469534  972.94006650
0.41800002 15426.45637828  1163.46339518
0.41900002 15337.41562334  1449.38584508
0.42000002 15253.31058126  1155.89593062
0.42100002 15173.01114446  1152.54198115
0.42200002 15096.12216219  1245.20369555
0.42300002 15022.06453670  1337.56468973
0.42400002 14951.35976889  1048.46415348
0.42500002 14884.28938265  1236.43797761
0.42600002 14819.42797930  949.18440705
0.42700002 14758.97928304  1137.03181785
0.42800002 14700.67985375  1135.18655210
0.42900002 14646.33092349  1133.62606720
0.43000002 14594.20828682  1037.86717150
0.43100002 14543.94540948  1130.93724863
0.43200002 14497.52715653  1318.26020681
0.43300002 14453.43888923  1223.19459116
0.43400002 14411.99252300  1034.42081236
0.43500002 14372.81308542  1315.97482846
0.43600002 14336.36964134  1409.62361179
0.43700002 14301.71623784  1127.54736162
0.43800002 14269.20864141  1221.51566363
0.43900002 14239.72064300  1221.76808907
0.44000002 14211.82428119  1316.15710905
0.44100002 14186.38818425  1316.78061366
0.44200002 14162.69605644  1505.77791608
0.44300002 14141.04160916  1506.86946528
0.44400002 14121.61716943  1036.87978980
0.44500002 14102.81068008  1415.21711881
0.44600002 14086.11427378  1038.92140750
0.44700002 14072.26813284  1323.91904868
0.44800002 14058.46923174  1136.20553716
0.44900002 14047.98268971  1137.88665179
0.45000002 14038.32480534  1044.66198990
0.45100002 14029.81989536  1046.34401739
0.45200002 14023.10645698  1143.44415469
0.45300002 14017.30231038  954.57833258
0.45400002 14013.31850570  1052.04993667
0.45500002 14010.56801078  958.32289736
0.45600002 14008.91620453  1056.34237647
0.45700002 14008.52834354  1058.62453709
0.45800002 14008.84996344  964.50936570
0.45900002 14010.34302140  1063.38508572
0.46000002 14013.69438894  1356.66581809
0.46100002 14016.87832240  1262.78062791
0.46200002 14021.93024016  1363.35234187
0.46300002 14027.90110213  976.34196298
0.46400002 14033.93395362  1174.64032759
0.46500002 14041.44874765  1472.24597097
0.46600002 14049.46054078  1082.58123328
0.46700002 14057.78410702  1381.59908752
0.46800002 14067.99286736  1484.52501769
0.46900002 14077.78377719  1091.73218367
0.47000002 14088.58658980  1194.43042769
0.47100002 14100.00148447  1397.59221338
0.47200002 14112.11827232  1501.88225832
0.47300002 14124.91161895  1305.56564282
0.47400002 14137.42947141  1108.02108734
0.47500002 14150.87411471  1616.59593549
0.47600002 14165.29166022  1216.23199959
0.47700002 14179.20487788  1219.97884552
