# SAXS profile: number of points = 501, q_min = 0, q_max = 0.5, delta_q = 0.001
#    q    intensity    error
0.00000000 1700912.83420643 331.67800267
0.00100000 1700824.65491252 561.27214945
0.00200000 1700560.08678316 841.77726961
0.00300000 1700119.34825910 1428.10030341
0.00400000 1699502.32202670 1911.94018493
0.00500000 1698709.66567067 1834.60651154
0.00600000 1697741.19282668 2317.41682256
0.00700000 1696597.73087425 2239.50909783
0.00800000 1695279.00475729 3661.80280488
0.00900000 1693786.43166126 2540.67975610
0.01000000 1692119.42054458 3350.39659735
0.01100000 1690279.64805392 3651.00419876
0.01200000 1688266.87244948 4938.18081842
0.01300000 1686082.57276524 6373.39240615
0.01400000 1683726.87468779 4546.06276319
0.01500000 1681201.44016494 5648.83709049
0.01600000 1678505.69696472 6848.30354976
0.01700000 1675642.24619167 7691.19825504
0.01800000 1672611.31723472 4766.94246862
0.01900000 1669413.94939684 7011.53890385
0.02000000 1666051.03018764 7347.28537549
0.02100000 1662525.13926101 6034.96652913
0.02200000 1658835.15058275 6295.27968247
0.02300000 1654984.12305967 6553.73742563
0.02400000 1650972.68831560 6810.26264983
0.02500000 1646803.16495469 8349.29242764
0.02600000 1642476.11464919 9312.83999601
0.02700000 1637993.25231413 7567.52917229
0.02800000 1633355.47691164 9236.62564552
0.02900000 1628565.83484701 10992.81988994
0.03000000 1623625.01488804 9814.81366614
0.03100000 1618534.90798005 8545.86470736
0.03200000 1613296.50363810 9582.98167298
0.03300000 1607914.13105455 12300.54366963
0.03400000 1602386.39734148 11777.54056388
0.03500000 1596717.19894997 11208.95525424
0.03600000 1590907.20079820 12361.34952147
0.03700000 1584959.80792128 10841.12558756
0.03800000 1578876.29519864 11083.71210524
0.03900000 1572659.13814623 11323.14631903
0.04000000 1566308.79315883 10596.07947673
0.04100000 1559829.07758205 16705.77019549
0.04200000 1553222.01151302 13023.76717075
0.04300000 1546488.92178654 11227.51009333
0.04400000 1539632.90602541 11431.77485815
0.04500000 1532656.32059562 11632.86201384
0.04600000 1525560.02805625 17208.31791644
0.04700000 1518347.63681568 17491.36558960
0.04800000 1511021.25270441 13327.20806894
0.04900000 1503583.61194794 12404.56537597
0.05000000 1496036.10469872 14878.07975404
0.05100000 1488382.90294231 16253.14205727
0.05200000 1480623.23336821 18833.52840611
0.05300000 1472762.88461537 15508.19389796
0.05400000 1464802.65697901 13293.08473199
0.05500000 1456746.06167219 13460.33423777
0.05600000 1448593.86849550 12385.47815359
0.05700000 1440351.70451752 17543.48457993
0.05800000 1432018.44742328 24079.39131775
0.05900000 1423598.37982768 14093.62461855
0.06000000 1415094.92730755 14242.93110876
0.06100000 1406509.86614600 18312.75931300
0.06200000 1397845.88781921 18493.50196030
0.06300000 1389106.34711368 20003.13233369
0.06400000 1380290.93195543 17495.18838073
0.06500000 1371405.47927112 17649.98934385
0.06600000 1362452.10937855 16431.17320790
0.06700000 1353431.41311043 19327.00148370
0.06800000 1344347.83841512 15305.40085679
0.06900000 1335205.30937319 18225.55332624
0.07000000 1326002.97962103 18358.51211255
0.07100000 1316745.49879597 22753.36328491
0.07200000 1307435.36408782 15748.05969818
0.07300000 1298075.32836687 14408.63682000
0.07400000 1288668.56483005 14497.52203375
0.07500000 1279215.92575479 16041.36846086
0.07600000 1269720.45970906 19064.85359630
0.07700000 1260186.36173508 14744.18112363
0.07800000 1250615.03198984 17783.74658889
0.07900000 1241007.36474484 16381.29798298
0.08000000 1231369.67734135 14961.14228154
0.08100000 1221702.63778920 19535.02609480
0.08200000 1212007.36599243 16598.44165615
0.08300000 1202287.69401540 24238.12104889
0.08400000 1192546.56502714 22807.45412670
0.08500000 1182785.74677852 16783.73053470
0.08600000 1173008.04907633 18369.30691100
0.08700000 1163215.46450473 16889.88933772
0.08800000 1153409.83075966 16937.82416017
0.08900000 1143595.02206451 16982.38687532
0.09000000 1133772.92983825 17023.60134121
0.09100000 1123945.06125575 21714.61960364
0.09200000 1114114.10628918 26421.21727209
0.09300000 1104283.88297162 21798.56487422
0.09400000 1094452.88117311 18715.14514762
0.09500000 1084626.45379202 15618.62166872
0.09600000 1074805.30752318 18766.10155151
0.09700000 1064994.62725659 18786.50610801
0.09800000 1055193.29633742 18803.54542483
0.09900000 1045405.02914277 17249.18379195
0.10000000 1035629.64088977 18827.74775679
0.10100000 1025871.26995707 18834.99740226
0.10200000 1016131.55941277 18839.07999763
0.10300000 1006411.90633416 18840.03177282
0.10400000 996714.75043381 15698.25805786
0.10500000 987043.62662512 17263.39384191
0.10600001 977395.33902016 20393.35470824
0.10700001 967777.84795621 18813.60224959
0.10800001 958187.83121042 23499.55766636
0.10900001 948630.58875247 15652.40545111
0.11000001 939106.54498739 17199.73718103
0.11100001 929616.76032537 17179.31853950
0.11200001 920164.04876646 23395.17204126
0.11300001 910748.64144066 23360.70375279
0.11400001 901373.34873111 17103.56009748
0.11500001 892039.52011441 24834.38140939
0.11600001 882748.37675364 18590.68168989
0.11700001 873501.37964776 20099.26769227
0.11800001 864298.93079010 20056.05763359
0.11900001 855143.16814375 23088.86662740
0.12000001 846035.12032119 23033.30723573
0.12100001 836978.13589638 18380.04073013
0.12200001 827970.77104857 24441.69831283
0.12300001 819015.77164561 15233.69407033
0.12400001 810113.24505396 15189.62406046
0.12500001 801264.26017349 16658.28475395
0.12600001 792472.02572586 21135.22992207
0.12700001 783735.31503195 16552.49063353
0.12800001 775055.33358999 22495.98211767
0.12900001 766434.15918044 14945.46680843
0.13000001 757871.99509397 19359.84102720
0.13100001 749368.92633258 17805.00652895
0.13200001 740926.80097892 20694.08652687
0.13300001 732547.17890902 19141.45868728
0.13400001 724228.81944767 16132.19771376
0.13500001 715974.64765640 14605.88350083
0.13600001 707783.05026897 20362.91931637
0.13700001 699657.05938811 14482.90181225
0.13800001 691594.36752806 14419.74324293
0.13900001 683598.55430937 15791.12734923
0.14000001 675668.52914491 14290.39006536
0.14100001 667804.78685808 18491.51542021
0.14200001 660007.95489741 14157.17130028
0.14300001 652279.90873613 16907.09603191
0.14400001 644616.88585408 19628.58510013
0.14500001 637024.19658528 15345.91361964
0.14600001 629499.08382618 18044.59208912
0.14700001 622045.06002971 22095.04157462
0.14800001 614656.68045211 17858.85069309
0.14900001 607338.98596003 20497.69174325
0.15000001 600090.35870483 16310.45671917
0.15100001 592911.53092072 16222.06025143
0.15200001 585802.80694317 14788.59255911
0.15300001 578764.86536188 13369.46902075
0.15400001 571794.12758655 22600.16395938
0.15500001 564895.03777471 14540.39895853
0.15600001 558063.36634508 17085.11076699
0.15700001 551305.29506975 22212.09138670
0.15800001 544612.98120513 12989.02021481
0.15900001 537992.77099918 14203.00982477
0.16000001 531439.88627371 15401.12863118
0.16100001 524959.45134550 14032.16679684
0.16200001 518546.98312349 15214.16920304
0.16300001 512203.05322798 15120.23484508
0.16400001 505928.70302875 20034.77758577
0.16500001 499722.13096050 14931.69797804
0.16600001 493585.27619721 17310.03645350
0.16700001 487514.47389436 12285.36532219
0.16800001 481511.48532009 18309.47509380
0.16900001 475578.10748805 12127.24231357
0.17000001 469710.02491170 13252.86897868
0.17100001 463908.80006158 19150.15617084
0.17200001 458174.41050407 19023.40242247
0.17300001 452506.05007606 15353.53100414
0.17400001 446903.40187324 12904.33633851
0.17500001 441365.47413268 12817.25397414
0.17600001 435891.01350090 15044.77904153
0.17700001 430482.69639494 16091.44395125
0.17800001 425136.34473687 13697.89367440
0.17900001 419854.14769584 13603.27502788
0.18000001 414634.58253634 13508.79533712
0.18100001 409478.85435145 13414.52790221
0.18200001 404382.14356200 14430.37747467
0.18300001 399347.68871294 12124.19640206
0.18400001 394373.42509834 16415.79459521
0.18500001 389460.71386524 14125.74075922
0.18600001 384605.88864185 12945.83482329
0.18700001 379809.82459433 11781.70131554
0.18800001 375072.09416340 10633.29437191
0.18900001 370393.79368138 11611.84598054
0.19000001 365768.78096519 15718.91410468
0.19100001 361204.76451656 14563.77679345
0.19200001 356693.36241940 16522.03732796
0.19300001 352239.62324618 12300.20822497
0.19400001 347838.45587491 12209.13037814
0.19500001 343492.49190649 13128.28366104
0.19600001 339199.22276499 12028.00500765
0.19700001 334959.06209181 13927.59845996
0.19800001 330771.21683968 13822.92980498
0.19900001 326635.03920159 11758.86196698
0.20000001 322548.48724349 14587.25602500
0.20100001 318513.70831362 11581.15898164
0.20200001 314526.83251491 10535.07675301
0.20300001 310590.49824034 16156.91848211
0.20400001 306701.84088629 12260.40666893
0.20500001 302860.56618561 11230.07032497
0.20600001 299066.64718323 11143.22380076
0.20700001 295319.37107034 10135.36129422
0.20800001 291616.62817046 11884.83624289
0.20900001 287961.40298817 11792.02000979
0.21000001 284348.67653119 10799.56324518
0.21100001 280780.70657111 9821.70958016
0.21200001 277255.45992585 11515.80607242
0.21300001 273772.22571305 9666.89774694
0.21400001 270332.14723551 8718.21216051
0.21500001 266934.41702579 12108.14572873
0.21600001 263576.22210575 15442.93158330
0.21700001 260258.79422144 12765.69446012
0.21800001 256981.08827140 9286.01206373
0.21900001 253741.55815965 9210.81899670
0.22000001 250540.16703962 10797.02900908
0.22100001 247378.55695566 10709.01823697
0.22200001 244254.41165117 8170.31045606
0.22300001 241165.47641702 14585.68870339
0.22400001 238112.45727930 10447.18455714
0.22500001 235097.80905558 10360.76093501
0.22600001 232116.00248414 9484.26031000
0.22700001 229171.24241780 10972.71960585
0.22800001 226259.01146374 8549.19715245
0.22900001 223379.81566346 9247.92480581
0.23000001 220535.08373435 8405.69511406
0.23100001 217723.55383912 8334.45803512
0.23200001 214942.42779075 9014.68584788
0.23300001 212193.89241861 12661.61015944
0.23400001 209477.16172729 8122.47733013
0.23500001 206789.34865847 8052.37761761
0.23600001 204133.61610534 7256.95039578
0.23700001 201507.05063090 10071.32286688
0.23800001 198910.06997194 7844.01898036
0.23900001 196341.81426868 11309.28903680
0.24000001 193801.98198332 7706.53617809
0.24100001 191291.58718433 7638.27343757
0.24200001 188808.13920307 8946.67409933
0.24300001 186352.55531981 10912.80615573
0.24400001 183923.37357775 8786.93958833
0.24500001 181520.85338124 9377.36772927
0.24600001 179145.03435870 8628.52098806
0.24700001 176795.19678918 6576.78163168
0.24800001 174470.79645229 7819.78146692
0.24900001 172170.78709819 7747.68578594
0.25000001 169896.68372103 7036.27148918
0.25100001 167645.86251178 7604.41668329
0.25200001 165421.27722075 9416.60665129
0.25300001 163219.99490406 8706.15494007
0.25400001 161042.26848523 8623.81388539
0.25500001 158887.28749759 6711.39934143
0.25600001 156756.02668021 7251.53413732
0.25700001 154646.87910150 7780.28485571
0.25800001 152561.10678481 7705.09906273
0.25900001 150497.32838304 6456.33569311
0.26000001 148455.52287052 6393.23739492
0.26100001 146434.92535889 8056.84997447
0.26200001 144436.76277612 5698.03056113
0.26300001 142458.96179244 7897.92521548
0.26400001 140502.66054241 7818.97342916
0.26500001 138567.72982888 5528.85268179
0.26600001 136652.21570806 6020.21364789
0.26700001 134758.27425315 6500.73945759
0.26800001 132884.74765265 8042.84973227
0.26900001 131030.08471351 7429.40615483
0.27000001 129196.04372331 5777.00136847
0.27100001 127381.23787156 7276.01665155
0.27200001 125587.49155834 6685.65042950
0.27300001 123811.82099466 7124.13251718
0.27400001 122053.65211205 6041.65606547
0.27500001 120317.06341387 4981.12666107
0.27600001 118597.19604011 5913.25647441
0.27700001 116897.70575433 6337.02492885
0.27800001 115215.59794478 9643.54600438
0.27900001 113553.01095222 6199.99469142
0.28000001 111907.22650593 5188.57880251
0.28100001 110280.25756395 6530.79716203
0.28200001 108671.80247033 6458.36552648
0.28300001 107080.79566501 6386.29895573
0.28400001 105507.20759749 6765.65000741
0.28500001 103951.71828559 4905.48181808
0.28600001 102413.38407985 6613.34458998
0.28700001 100892.46155465 5666.12090910
0.28800001 99388.04015332  5170.16609350
0.28900001 97902.73090274  8091.66109212
0.29000001 96432.61957335  6313.92606543
0.29100001 94980.60804610  5824.21116107
0.29200001 93545.07596305  4933.56753982
0.29300001 92126.46674100  5281.61058827
0.29400001 90723.78422011  4014.52764177
0.29500001 89338.82078346  4759.97259667
0.29600001 87969.43530218  4310.94238105
0.29700001 86616.59501121  4258.93817831
0.29800001 85279.84424385  4972.24155402
0.29900001 83960.13920257  4533.84773157
0.30000001 82655.64263697  4478.28293007
0.30100001 81368.17919059  4423.17443019
0.30200001 80095.12140100  4732.42047201
0.30300001 78839.26883598  4314.08499494
0.30400001 77598.92988266  5325.22681530
0.30500001 76374.14241557  5258.35995425
0.30600001 75164.13164949  5538.09348212
0.30700001 73970.79593913  3417.45093418
0.30800001 72792.46569281  5060.89641689
0.30900001 71629.49788174  3663.84899011
0.31000001 70482.15031402  3616.79171460
0.31100001 69349.02827463  3894.64161230
0.31200001 68231.80750239  4805.22527086
0.31300001 67129.09622676  3161.78058198
0.31400001 66042.59444335  3120.51273519
0.31500001 64969.64774092  3387.51759360
0.31600002 63912.14326950  3039.02255636
0.31700002 62869.14734061  4498.28770521
0.31800002 61840.80121262  3254.99072595
0.31900002 60827.24474420  4379.56182895
0.32000002 59828.43379855  3456.88706856
0.32100002 58843.06301554  3978.96810952
0.32200002 57873.50641064  3084.36867020
0.32300002 56916.10251011  3319.34725556
0.32400002 55973.93911195  3001.60262701
0.32500002 55045.64151038  2960.90519705
0.32600002 54131.63318436  3451.70375345
0.32700002 53230.90682821  3404.64896195
0.32800002 52344.69546245  3099.85301207
0.32900002 51471.53209686  3566.97734322
0.33000002 50612.96612789  2764.22727597
0.33100002 49765.54690647  2478.32435330
0.33200002 48934.31798038  3177.55008853
0.33300002 48115.06208627  2651.62119714
0.33400002 47309.58704939  2615.03754799
0.33500002 46516.12751942  2813.29552560
0.33600002 45736.98217390  3236.80638173
0.33700002 44969.57151144  2963.94459868
0.33800002 44216.10010784  2473.22767666
0.33900002 43474.20986851  2438.90328912
0.34000002 42745.67827219  2186.44154717
0.34100002 42029.41352005  2156.10901569
0.34200002 41326.18749908  2976.72542653
0.34300002 40633.98495616  2096.71372304
0.34400002 39955.66577907  2481.24696239
0.34500002 39288.19650241  2242.96324455
0.34600002 38633.92862487  3016.34412024
0.34700002 37989.77182731  2379.67941997
0.34800002 37359.15323102  2346.90211713
0.34900002 36739.26032734  2314.57351024
0.35000002 36131.16334371  2663.22817620
0.35100002 35535.09780007  2439.12922852
0.35200002 34949.10053041  2405.72144895
0.35300002 34374.80726309  2555.42329297
0.35400002 33812.00006910  2160.58690675
0.35500002 33260.16710311  2131.31160891
0.35600002 32718.37013471  1927.27568407
0.35700002 32187.57805502  1901.32032577
0.35800002 31668.25950358  1705.33585504
0.35900002 31159.06862578  3533.43854953
0.36000002 30660.76151229  1660.28031453
0.36100002 30171.64595057  2293.64863380
0.36200002 29694.11229411  1616.84449100
0.36300002 29225.37868366  1755.27632688
0.36400002 28766.85068467  1889.98217951
0.36500002 28317.90084085  2798.37509365
0.36600002 27879.11892069  2302.11835392
0.36700002 27449.27140872  2272.79978030
0.36800002 27030.38969165  1496.13214030
0.36900002 26619.71009337  2068.35157223
0.37000002 26217.91728389  1604.92988256
0.37100002 25825.32959226  2017.47484332
0.37200002 25442.48554839  1423.50713386
0.37300002 25067.74849810  1968.82106030
0.37400002 24701.79254751  1528.42348628
0.37500002 24344.83968186  1373.04902310
0.37600002 23996.51916550  1628.40386771
0.37700002 23656.06344861  1609.55863329
0.37800002 23323.85845383  1723.74984069
0.37900002 23000.33800030  1573.22319375
0.38000002 22684.59399726  1426.06706919
0.38100002 22375.84163428  1538.56294366
0.38200002 22075.95791892  1268.26384252
0.38300002 21782.82748334  2383.91275271
0.38400002 21498.33139551  1241.52869691
0.38500002 21219.72267298  1842.93300146
0.38600002 20949.86772698  1702.59583083
0.38700002 20686.22904459  1565.12016366
0.38800002 20429.92848766  1668.92093722
0.38900002 20180.02449655  1534.69093567
0.39000002 19938.16752918  1403.24829718
0.39100002 19701.59828159  1390.14484061
0.39200002 19472.44066106  1262.69047449
0.39300002 19249.19555704  1137.62751132
0.39400002 19033.88701512  1353.30943089
0.39500002 18823.43492348  1341.73450491
0.39600002 18619.14968682  1219.64745802
0.39700002 18420.91823059  1099.72887047
0.39800002 18228.77880106  1418.29020181
0.39900002 18042.19780073  1299.03830320
0.40000002 17861.23589975  1611.53008541
0.40100002 17686.05170315  1279.76276187
0.40200002 17516.67599662  1270.65973700
0.40300002 17351.88489456  1366.98155676
0.40400002 17192.84194397  1357.80475686
0.40500002 17039.00143338  1348.97780740
0.40600002 16890.05293597  1134.25155866
0.40700002 16746.09812530  1229.83350459
0.40800002 16607.10989050  1120.73086406
0.40900002 16472.62803736  1114.37333953
0.41000002 16343.16598236  1410.57872277
0.41100002 16217.88387665  1202.71832528
0.41200002 16096.97633992  1595.53237041
0.41300002 15980.94545875  1687.10849202
0.41400002 15868.75087200  1086.61276745
0.41500002 15760.98894516  1278.53148381
0.41600002 15656.54747446  1468.97563640
0.41700002 15556.64033968  1365.56195372
0.41800002 15461.46353808  1068.92833236
0.41900002 15368.16925811  968.19470914
0.42000002 15279.93471178  1254.40629960
0.42100002 15195.33441386  1058.05118537
0.42200002 15114.33439771  1342.60638817
0.42300002 15036.21736751  1147.56416387
0.42400002 14961.47968594  1239.93268773
0.42500002 14890.33687344  1807.83588547
0.42600002 14821.60307057  1044.25609382
0.42700002 14757.15928644  1042.15063819
0.42800002 14694.90137455  1229.30203274
0.42900002 14636.68001709  1038.47249642
0.43000002 14580.77959163  1131.17693432
0.43100002 14526.75326452  1412.00048422
0.43200002 14476.60268362  1222.33200551
0.43300002 14428.77731516  1033.24479250
0.43400002 14383.73122004  1595.51546119
0.43500002 14340.90787900  1219.26404565
0.43600002 14300.93119767  1406.13912665
0.43700002 14262.74120239  1311.88699796
0.43800002 14226.76233711  1311.56528201
0.43900002 14193.80952760  1124.14976786
0.44000002 14162.50756839  1405.27488007
0.44100002 14133.71756423  1124.47862270
0.44200002 14106.76769620  1312.35266097
0.44300002 14081.78756195  937.84709607
0.44400002 14059.20500919  938.45197884
0.44500002 14037.20845844  939.08929037
0.44600002 14017.35106245  1033.84977661
0.44700002 14000.47469349  1599.41430478
0.44800002 13983.51650660  1035.96886949
0.44900002 13969.91915640  1037.26654652
0.45000002 13957.38417797  1227.48220970
0.45100002 13945.91121584  1323.74595534
0.45200002 13936.28008533  946.97027668
0.45300002 13927.67628861  1043.32228023
0.45400002 13920.87987915  1330.14013549
0.45500002 13915.32236101  1046.98890406
0.45600002 13910.91299901  1335.03038379
0.45700002 13907.88494017  1146.56608881
0.45800002 13905.51769476  1244.61342026
0.45900002 13904.44494588  1055.34742141
0.46000002 13905.26410708  1250.01377615
0.46100002 13905.80995225  963.67267536
0.46200002 13908.45702455  1352.31934059
0.46300002 13911.93931518  1452.40653334
0.46400002 13915.57012792  1067.67216867
0.46500002 13920.70482889  1362.28023912
0.46600002 13926.44194655  1073.10203505
0.46700002 13932.47251002  1173.67153987
0.46800002 13940.47821835  1274.92649589
0.46900002 13948.01514122  1180.00213688
0.47000002 13956.63763626  1084.64014531
0.47100002 13965.91123358  1384.30118708
0.47200002 13975.97527010  1090.75504165
0.47300002 13986.68774739  1193.34425517
0.47400002 13997.20457840  997.30087348
0.47500002 14008.65324393  1200.26146683
0.47600002 14021.20425114  1203.86065406
0.47700002 14033.17814685  1106.79681290
