# SAXS profile: number of points = 501, q_min = 0, q_max = 0.5, delta_q = 0.001
#    q    intensity    error
0.00000000 1700912.83420644 331.67800267
0.00100000 1700824.77238037 510.24744383
0.00200000 1700560.55640347 994.82795700
0.00300000 1700120.40152006 1428.10118815
0.00400000 1699504.20717747 1529.55384458
0.00500000 1698712.59633048 2446.14623554
0.00600000 1697745.42606458 1960.89604694
0.00700000 1696603.48239793 2443.10911619
0.00800000 1695286.50132546 2975.22793544
0.00900000 1693795.94363178 4065.11043849
0.01000000 1692131.15035571 3071.21817051
0.01100000 1690293.81643760 3042.52900206
0.01200000 1688283.73989565 5596.66084313
0.01300000 1686102.36007496 4603.05964602
0.01400000 1683749.75765137 4546.12454719
0.01500000 1681227.71425508 4841.93603266
0.01600000 1678535.57710076 4280.26591295
0.01700000 1675675.91826008 4524.32518226
0.01800000 1672649.00272750 5720.45984673
0.01900000 1669455.92102148 5509.20478796
0.02000000 1666097.48381347 6297.84877370
0.02100000 1662576.29181891 7681.10281645
0.02200000 1658891.21719399 8012.44494307
0.02300000 1655045.35760966 7745.61262618
0.02400000 1651039.20822022 6191.39731314
0.02500000 1646875.31594934 7065.09542809
0.02600000 1642553.93839359 9313.28125667
0.02700000 1638077.13759003 9631.89401018
0.02800000 1633445.49291495 8526.58586404
0.02900000 1628662.23414883 8794.77646821
0.03000000 1623727.99187384 7550.33550927
0.03100000 1618644.61581218 12431.19122144
0.03200000 1613413.21242114 11979.59365398
0.03300000 1608038.09748300 11481.39254533
0.03400000 1602517.66989492 9254.53997065
0.03500000 1596856.05853949 8623.02311431
0.03600000 1591053.80021666 11479.45369907
0.03700000 1585114.29370389 9035.15189197
0.03800000 1579038.84998478 11084.85323990
0.03900000 1572830.06057148 11324.37696055
0.04000000 1566488.10905300 12524.07301223
0.04100000 1560017.06819131 11793.72958236
0.04200000 1553418.73477101 14027.37182575
0.04300000 1546694.55529919 16333.09526211
0.04400000 1539847.76621196 10393.97290465
0.04500000 1532880.45512291 13749.93832134
0.04600000 1525793.52795714 11832.52935936
0.04700000 1518590.73782531 12027.23920294
0.04800000 1511274.16104650 11107.86560052
0.04900000 1503846.34857262 15790.38739502
0.05000000 1496308.92403980 13736.11656232
0.05100000 1488665.79223715 15095.07183647
0.05200000 1480916.47215662 14127.94380275
0.05300000 1473066.57535476 13125.02379827
0.05400000 1465116.95944749 15713.38012285
0.05500000 1457070.97618033 22030.91418757
0.05600000 1448929.80830917 14866.02052696
0.05700000 1440698.50076748 13787.48529592
0.05800000 1432376.30769477 15211.83709800
0.05900000 1423967.36605111 14097.27758233
0.06000000 1415475.23687949 15541.91882704
0.06100000 1406901.42406220 14392.60224074
0.06200000 1398249.00051893 14534.79903980
0.06300000 1389521.10809571 17341.22423983
0.06400000 1380717.30449085 17500.59265287
0.06500000 1371843.59823601 14939.37748362
0.06600000 1362901.95082852 16436.59829604
0.06700000 1353893.27929390 16571.65451409
0.06800000 1344821.79337629 20878.35931946
0.06900000 1335691.30802448 16829.71126906
0.07000000 1326501.01562077 24016.30201246
0.07100000 1317255.81230707 18494.27247102
0.07200000 1307957.80112272 17186.56631189
0.07300000 1298610.29109841 17297.48988791
0.07400000 1289215.81429304 14503.67859050
0.07500000 1279775.71159558 18966.27693484
0.07600000 1270292.65723623 16139.06896680
0.07700000 1260771.11464886 20651.43182626
0.07800000 1251212.11698961 32619.10141963
0.07900000 1241617.28351458 17879.28972122
0.08000000 1231992.25682796 29937.41324532
0.08100000 1222337.80254619 15034.75567672
0.08200000 1212655.25313510 16607.31447099
0.08300000 1202948.18510244 16672.86262801
0.08400000 1193219.76142645 21298.97374121
0.08500000 1183471.67524788 16793.46386014
0.08600000 1173706.79395465 15316.87438026
0.08700000 1163926.73686305 18436.60037765
0.08800000 1154134.03116595 18489.22804760
0.08900000 1144331.94164354 16993.33013158
0.09000000 1134522.47597726 24777.97203930
0.09100000 1124707.42565201 18625.15584383
0.09200000 1114889.07522763 23329.05499529
0.09300000 1105071.44243360 17139.65887757
0.09400000 1095253.22529525 18728.83103276
0.09500000 1085439.39827072 21882.45929767
0.09600000 1075630.79629388 20345.55746830
0.09700000 1065832.68702194 20368.06360655
0.09800000 1056043.93510213 17250.47849097
0.09900000 1046268.23667070 17263.42671684
0.10000000 1036505.16634159 17273.35940940
0.10100000 1026759.18682243 17280.35792695
0.10200000 1017031.86815156 18855.77172244
0.10300000 1007324.36845233 15714.26088707
0.10400000 997639.74050269 21997.95731298
0.10500000 987980.59830042 17279.78147728
0.10600001 978344.42170660 21983.40019014
0.10700001 968738.97564170 21971.00100146
0.10800001 959160.91986309 17250.50995558
0.10900001 949615.70557633 17235.52586741
0.11000001 940103.46064825 20348.54036353
0.11100001 930625.45609171 18761.41007797
0.11200001 921184.23733417 23421.11033682
0.11300001 911780.46658025 23387.17006887
0.11400001 902416.59417926 17123.35568079
0.11500001 893094.44618321 21755.78173346
0.11600001 883814.43928154 21715.32179575
0.11700001 874578.70871914 20124.05703537
0.11800001 865387.35374221 21626.03098857
0.11900001 856242.57530906 15412.36708151
0.12000001 847145.50768959 23063.53753325
0.12100001 838099.32740785 16870.94025548
0.12200001 829102.62188621 18356.33291335
0.12300001 820158.25679251 18305.93315408
0.12400001 811266.23087844 18253.49105482
0.12500001 802427.50845253 19715.64481169
0.12600001 793645.45029229 15118.94654053
0.12700001 784919.04331556 15070.44634187
0.12800001 776249.01671037 15020.41918125
0.12900001 767637.64557015 16465.82827355
0.13000001 759085.27467459 17899.23162050
0.13100001 750591.81924444 16347.89059374
0.13200001 742159.22911018 17767.29278245
0.13300001 733788.99785191 20648.82337300
0.13400001 725479.90622382 17629.16255238
0.13500001 717234.80820997 16094.74985507
0.13600001 709052.14968373 17485.22683564
0.13700001 700934.85623890 21764.02831246
0.13800001 692880.86280385 21669.85000605
0.13900001 684893.63729269 17259.32047369
0.14000001 676972.06666430 15749.75587371
0.14100001 669116.63039328 22803.49583928
0.14200001 661327.96593634 14185.48553840
0.14300001 653607.68404308 16941.51196949
0.14400001 645952.74166993 18264.31463224
0.14500001 638367.58709079 13980.25081677
0.14600001 630850.06078361 18083.31784543
0.14700001 623403.28277149 22143.28564869
0.14800001 616022.23758090 17898.52695734
0.14900001 608711.61163707 19174.41667123
0.15000001 601469.85910987 13623.29295162
0.15100001 594297.85345210 17614.98920748
0.15200001 587195.64223798 20214.21093789
0.15300001 580164.12553802 16082.15031881
0.15400001 573199.67359438 22655.71816796
0.15500001 566306.72181615 17227.05129064
0.15600001 559481.17435205 17128.51696117
0.15700001 552728.86166759 17029.57703172
0.15800001 546042.13055678 13023.10542845
0.15900001 539427.57837489 15535.51499048
0.16000001 532880.10778454 16729.77177358
0.16100001 526404.81008360 20466.61998216
0.16200001 519997.37007399 13985.32992833
0.16300001 513658.41777779 17690.39674339
0.16400001 507388.72658199 15069.44589091
0.16500001 501186.78297238 18719.32722778
0.16600001 495054.20550466 12401.10843339
0.16700001 488987.83312389 14786.99277183
0.16800001 482988.95896654 17141.27896307
0.16900001 477059.56897208 14598.02349984
0.17000001 471195.18347105 14503.38843208
0.17100001 465397.59814965 15609.43617904
0.17200001 459666.78704839 15506.85979336
0.17300001 454001.70805488 17774.16770972
0.17400001 448402.29116546 15301.72890866
0.17500001 442867.34566362 22214.22710761
0.17600001 437395.72933705 12774.14287860
0.17700001 431990.10677438 13840.96367477
0.17800001 426646.27258784 14892.08884806
0.17900001 421366.57594923 11376.89808800
0.18000001 416149.12501929 15817.82898914
0.18100001 410995.60981688 16830.27101700
0.18200001 405900.76235442 13370.37174354
0.18300001 400868.12325056 12170.35679681
0.18400001 395895.54474915 12084.71207436
0.18500001 390984.43783691 17453.54612958
0.18600001 386130.85007605 14080.26211322
0.18700001 381336.11214938 11829.04675773
0.18800001 376599.33324148 11744.25076201
0.18900001 371922.15637058 11659.76015311
0.19000001 367297.74610271 14732.31329226
0.19100001 362734.49882799 14625.45568380
0.19200001 358223.56318977 11407.62990880
0.19300001 353770.08223510 11324.18086744
0.19400001 349369.31359361 10219.05290550
0.19500001 345023.38948904 18258.63863457
0.19600001 340730.09963298 12082.28990395
0.19700001 336489.69840119 13991.24232071
0.19800001 332301.44484553 9919.19859741
0.19900001 328164.96831617 16736.41417509
0.20000001 324077.82100297 11725.13611803
0.20100001 320042.30349786 9697.28225430
0.20200001 316054.64664700 11548.63733431
0.20300001 312117.24213058 12416.02447879
0.20400001 308227.66548669 13269.20162638
0.20500001 304385.09776439 12227.14995513
0.20600001 300589.77972341 9333.31310158
0.20700001 296841.04334929 10187.58508931
0.20800001 293136.73549320 10108.82080133
0.20900001 289480.05904662 10030.48452012
0.21000001 285865.39914568 12666.69643493
0.21100001 282295.36041902 10772.39146284
0.21200001 278768.22456005 14250.63231320
0.21300001 275282.79081276 15022.18260483
0.21400001 271840.29515967 10520.21992004
0.21500001 268440.26319349 9567.21143253
0.21600001 265079.59338204 9491.17528977
0.21700001 261759.60311036 11127.40125432
0.21800001 258479.06504757 9340.14145710
0.21900001 255236.83571470 9265.09757451
0.22000001 252032.59097171 12532.32117863
0.22100001 248867.98614999 9944.76519678
0.22200001 245740.60414906 9864.02831696
0.22300001 242648.60733958 13044.78974740
0.22400001 239592.35964243 10512.11527639
0.22500001 236574.18364840 12029.79780738
0.22600001 233588.85979901 11930.55157841
0.22700001 230640.52090533 10254.27804437
0.22800001 227724.59124848 8604.57408723
0.22900001 224841.64808197 10859.85211593
0.23000001 221993.08010389 9999.67876618
0.23100001 219177.57049710 9152.85577682
0.23200001 216392.39696145 13613.24633666
0.23300001 213639.70066111 8248.62923264
0.23400001 210918.74037305 10408.84032970
0.23500001 208226.71980483 13268.20721350
0.23600001 205566.61754276 11692.62975886
0.23700001 202935.59014163 8693.76109286
0.23800001 200334.10978834 7900.17599317
0.23900001 197761.28201002 7119.40648911
0.24000001 195216.75752552 9879.92056569
0.24100001 192701.56919096 7694.57402176
0.24200001 190213.44963507 11093.24890745
0.24300001 187752.80867164 8246.10374692
0.24400001 185318.66002388 6810.46107804
0.24500001 182911.16217083 8774.24886439
0.24600001 180530.09977803 6688.64051318
0.24700001 178175.09807381 9942.17094284
0.24800001 175845.57838844 7224.61592986
0.24900001 173540.25834485 6507.75999580
0.25000001 171260.82273884 7092.76730928
0.25100001 169004.50538566 7666.04472697
0.25200001 166774.50731698 7594.91142253
0.25300001 164567.67061551 7524.03425651
0.25400001 162384.28672977 7453.43911353
0.25500001 160223.61494908 7383.10452616
0.25600001 158086.59426879 6094.23849740
0.25700001 155971.78918352 7846.94108509
0.25800001 153880.05399407 5978.24038052
0.25900001 151810.45014799 6512.66861949
0.26000001 149762.74227388 9967.45978365
0.26100001 147736.06375814 10450.84964474
0.26200001 145731.90320977 6898.94862439
0.26300001 143747.92760408 7400.14366321
0.26400001 141785.56458777 7326.76939676
0.26500001 139844.48645310 6137.77480086
0.26600001 137922.71649976 7180.94657436
0.26700001 136022.51171404 6561.72627559
0.26800001 134142.62228472 6495.18607838
0.26900001 132281.52183236 6428.88226528
0.27000001 130441.14092410 7423.40568128
0.27100001 128619.92245728 5772.46239305
0.27200001 126819.66608996 7789.89835822
0.27300001 125037.47135300 7194.65644213
0.27400001 123272.72531629 5593.50017594
0.27500001 121529.61097227 5534.45874560
0.27600001 119802.89225706 5973.37249063
0.27700001 118096.87026460 5909.56766772
0.27800001 116408.04873171 6820.34789798
0.27900001 114738.53227743 5300.92044210
0.28000001 113086.04000695 6196.54985545
0.28100001 111452.26981915 5657.31748378
0.28200001 109836.91036014 6993.86559820
0.28300001 108238.97058756 5072.07840180
0.28400001 106658.43825841 6383.50783190
0.28500001 105095.99294286 5410.34197278
0.28600001 103550.70654632 4903.64394060
0.28700001 102022.66386891 4848.11721652
0.28800001 100511.13028892 5228.58924511
0.28900001 99018.79103496  5168.78113668
0.29000001 97541.57105694  5109.22773380
0.29100001 96082.41119923  5050.09177168
0.29200001 94639.67153588  4575.35513698
0.29300001 93213.88314375  4521.80568535
0.29400001 91803.92132841  4874.78845329
0.29500001 90411.73588003  5218.56564203
0.29600001 89034.99963118  3966.50942133
0.29700001 87674.92206085  6270.51072263
0.29800001 86330.76704119  4259.12859360
0.29900001 85003.76777089  4207.68670385
0.30000001 83691.80273024  3778.68507215
0.30100001 82396.84598861  4479.09275998
0.30200001 81116.47506372  4055.41836280
0.30300001 79853.13332739  4369.56366254
0.30400001 78605.30964172  3955.81239499
0.30500001 77372.99728483  4261.70489221
0.30600001 76155.44081820  3857.65403728
0.30700001 74954.55739701  4155.48085882
0.30800001 73768.68845179  4103.01464594
0.30900001 72598.04142102  4726.13272026
0.31000001 71443.16701317  3332.82389896
0.31100001 70302.39645029  3619.16754061
0.31200001 69177.50218208  4222.24904559
0.31300001 68067.23923884  3847.16054393
0.31400001 66973.04441036  3480.92414804
0.31500001 65892.33556318  3435.62653893
0.31600002 64827.08186278  3699.03346623
0.31700002 63776.31168806  4563.19531734
0.31800002 62740.29632400  3302.33565337
0.31900002 61719.01843463  4443.76953770
0.32000002 60712.36185376  2923.30036168
0.32100002 59719.14896926  4038.20904451
0.32200002 58741.84190827  3699.85508778
0.32300002 57776.51947436  3931.11457118
0.32400002 56826.60997765  2770.29736759
0.32500002 55890.49914366  3552.95919880
0.32600002 54968.59950861  3774.69390700
0.32700002 54060.00144796  2925.72741690
0.32800002 53165.93426958  3148.48677654
0.32900002 52284.84862873  3364.53016858
0.33000002 51418.31673131  2808.21150126
0.33100002 50563.04574769  2769.84377722
0.33200002 49723.81674290  3228.81619310
0.33300002 48896.62837732  3184.63755702
0.33400002 48083.20167107  2416.18099839
0.33500002 47281.82380679  2859.60483925
0.33600002 46494.63478381  2350.30389962
0.33700002 45719.25372397  2781.55952829
0.33800002 44957.93196259  2743.33313827
0.33900002 44207.98997685  2930.98987427
0.34000002 43471.54264428  2890.64036503
0.34100002 42747.17240127  2631.51605765
0.34200002 42036.05117928  2162.75493560
0.34300002 41335.87704673  3412.69017060
0.34400002 40649.61096456  2734.70270716
0.34500002 39974.07879224  2074.65478757
0.34600002 39311.72272452  2864.64537061
0.34700002 38659.60694740  2623.44105170
0.34800002 38021.01221746  2786.56011739
0.34900002 37393.07046560  2748.39080939
0.35000002 36777.06590688  2517.20639522
0.35100002 36172.87763000  1909.92802932
0.35200002 35578.95198914  2449.07727617
0.35300002 34996.66656628  2044.15539095
0.35400002 34425.80770249  2383.12665108
0.35500002 33866.06690586  2170.13767011
0.35600002 33316.31127216  1962.49740844
0.35700002 32777.53918272  2112.18472498
0.35800002 32250.12637851  1910.33632651
0.35900002 31733.06052934  2056.30241970
0.36000002 31226.82190708  2705.49197818
0.36100002 30729.74651549  1668.62531483
0.36200002 30244.30285296  1811.48260518
0.36300002 29767.66830003  2437.97214925
0.36400002 29301.19578915  1604.24054544
0.36500002 28844.35102034  1741.91044063
0.36600002 28397.69401335  1719.62244243
0.36700002 27960.02368212  1852.07205643
0.36800002 27533.26618800  1676.36299126
0.36900002 27114.76963032  1655.35676434
0.37000002 26705.14721047  1783.36981519
0.37100002 26304.77945348  1614.58743934
0.37200002 25914.11704479  2174.84237601
0.37300002 25531.54201994  1432.31957517
0.37400002 25157.93946392  1556.64757807
0.37500002 24793.25619634  1678.00765886
0.37600002 24437.22745717  1381.92527817
0.37700002 24089.05566826  1639.01942531
0.37800002 23749.23327337  1755.18716822
0.37900002 23418.10764978  1735.28185905
0.38000002 23094.77492039  1583.83973907
0.38100002 22778.39704520  1827.28309753
0.38200002 22470.86919655  1678.23694545
0.38300002 22170.29058666  1787.81231760
0.38400002 21878.27613985  1642.51165901
0.38500002 21592.25118678  1875.28710441
0.38600002 21315.03282339  1361.07148542
0.38700002 21043.87757074  1347.22910590
0.38800002 20780.28418837  1455.03556780
0.38900002 20522.98151086  1320.65392279
0.39000002 20273.83995540  1189.06076972
0.39100002 20030.06148757  1295.54443839
0.39200002 19793.68086326  1516.88880482
0.39300002 19563.19318028  1618.65868042
0.39400002 19340.73641598  1260.53255563
0.39500002 19123.18689508  1249.50909092
0.39600002 18911.92094347  1351.44593465
0.39700002 18706.64732661  1340.14427797
0.39800002 18507.52367677  1218.44287899
0.39900002 18313.99353534  1428.49156344
0.40000002 18126.20403202  1308.34946902
0.40100002 17944.23961124  1298.44523979
0.40200002 17767.94596904  1825.92305402
0.40300002 17596.48061776  1492.88548634
0.40400002 17430.74777668  1164.80977537
0.40500002 17270.23017992  1051.75706779
0.40600002 17114.72385298  1149.33933480
0.40700002 16964.28233001  1245.85695335
0.40800002 16818.70229745  1238.19292181
0.40900002 16677.78201545  1230.82037106
0.41000002 16542.05312796  1733.68996022
0.41100002 16410.39234227  1115.57852429
0.41200002 16283.20904265  1513.11727198
0.41300002 16161.05256654  1103.96155313
0.41400002 16042.66422588  1497.98384307
0.41500002 15928.78055825  1093.35154932
0.41600002 15818.34287864  1187.32487273
0.41700002 15712.52979481  1280.72836426
0.41800002 15611.37030009  981.17466985
0.41900002 15512.28118721  1075.00113721
0.42000002 15418.28190076  973.66454817
0.42100002 15327.94468244  970.25894437
0.42200002 15241.29671133  967.06032216
0.42300002 15157.56168953  1349.62935679
0.42400002 15077.33327882  1249.53405469
0.42500002 15000.75485223  1054.40310853
0.42600002 14926.66528476  956.05295679
0.42700002 14856.86532124  1049.19187870
0.42800002 14789.52373309  1237.21766652
0.42900002 14726.05417833  1044.81359346
0.43000002 14665.05776267  1422.14404393
0.43100002 14606.05944296  1041.11996643
0.43200002 14550.99833487  1512.13981862
0.43300002 14498.26672595  1132.60465030
0.43400002 14448.41861892  1508.41497530
0.43500002 14400.83398972  1224.35896383
0.43600002 14356.28069131  1035.15966830
0.43700002 14313.45488284  940.39403037
0.43800002 14273.01012686  1127.85331367
0.43900002 14235.67895796  1127.46582690
0.44000002 14200.05667020  1221.13393122
0.44100002 14166.98536541  939.27117424
0.44200002 14135.81914459  1127.19027201
0.44300002 14106.76284333  1221.36358486
0.44400002 14080.18565618  1597.74914305
0.44500002 14054.23154644  1222.29657552
0.44600002 14030.50942045  1317.04398171
0.44700002 14009.83403898  1035.60698124
0.44800002 13989.25871789  1036.39428123
0.44900002 13972.05756859  1131.73671669
0.45000002 13955.98825153  1227.35944495
0.45100002 13941.15552744  1228.77350642
0.45200002 13928.14619368  1324.98461020
0.45300002 13916.20956756  1137.23269976
0.45400002 13906.22423039  1328.73978819
0.45500002 13897.57091101  1045.65328490
0.45600002 13890.15814755  1142.60446337
0.45700002 13884.22058639  1049.23059944
0.45800002 13878.96504631  1624.46354084
0.45900002 13875.09460200  1148.85788749
0.46000002 13873.21443722  1151.19938856
0.46100002 13871.15189455  1441.90630778
0.46200002 13871.27965926  1252.36854339
0.46300002 13872.34844910  1641.37634629
0.46400002 13873.61898838  1064.45346733
0.46500002 13876.53658073  1357.95793415
0.46600002 13880.02379837  1263.98442711
0.46700002 13883.98495662  1267.05252719
0.46800002 13889.96807883  1074.87523073
0.46900002 13895.59408372  1273.53125813
0.47000002 13902.39864051  1080.42496156
0.47100002 13909.84545220  1083.29881516
0.47200002 13918.27205847  1185.00173922
0.47300002 13927.42371805  1485.35980993
0.47400002 13936.45043883  1092.26935491
0.47500002 13946.45804576  1394.08801233
0.47600002 13957.68247608  1398.14111990
0.47700002 13968.38217179  1201.83965903
