# SAXS profile: number of points = 501, q_min = 0, q_max = 0.5, delta_q = 0.001
#    q    intensity    error
0.00000000 1719190.39626458 283.66641538
0.00100000 1719101.83572936 722.02278815
0.00200000 1718836.12619763 928.17153754
0.00300000 1718393.47774720 1031.03612338
0.00400000 1717773.79531838 1417.16343499
0.00500000 1716977.70519079 2163.39199417
0.00600000 1716005.06071098 2342.34700323
0.00700000 1714856.64858830 2057.82806383
0.00800000 1713532.20766154 3007.24915141
0.00900000 1712033.19824087 3081.65988857
0.01000000 1710358.95366397 3668.72011402
0.01100000 1708511.19088894 4920.51244400
0.01200000 1706489.69998086 3660.42056695
0.01300000 1704295.92326601 5010.63023539
0.01400000 1701929.93232241 3829.34251748
0.01500000 1699393.50209146 4894.25350396
0.01600000 1696686.05005832 4759.20458317
0.01700000 1693810.04109352 5487.94477933
0.01800000 1690765.83100090 5782.41940222
0.01900000 1687554.48639627 5062.66368763
0.02000000 1684176.78389200 6366.18853109
0.02100000 1680635.44294953 7764.53609846
0.02200000 1676929.18450628 6942.48713927
0.02300000 1673061.19394608 6625.32262960
0.02400000 1669031.97671886 6258.87019808
0.02500000 1664844.01880008 8440.75956081
0.02600000 1660497.69460899 8070.01916491
0.02700000 1655994.95457621 11128.28660444
0.02800000 1651336.42800491 7901.64517037
0.02900000 1646525.40248054 8891.23758163
0.03000000 1641562.46431230 14503.20503884
0.03100000 1636449.42267195 10996.94062636
0.03200000 1631187.39403271 8881.81576959
0.03300000 1625780.76896776 9120.63053437
0.03400000 1620227.95742041 15311.15490409
0.03500000 1614532.97725209 12205.86987167
0.03600000 1608696.56877616 10713.91964318
0.03700000 1602721.91648866 10049.06688113
0.03800000 1596610.47667105 13076.24040910
0.03900000 1590364.77001211 12404.84578056
0.04000000 1583985.09934891 16560.56498109
0.04100000 1577475.30301642 10931.90435678
0.04200000 1570837.49633027 12158.28278565
0.04300000 1564072.96009112 14452.03482208
0.04400000 1557184.89768550 13664.29811179
0.04500000 1550175.47126572 11765.83237360
0.04600000 1543045.61175196 16317.70810284
0.04700000 1535799.02746103 13269.30421439
0.04800000 1528437.81467081 12357.42030658
0.04900000 1520964.64262695 13688.68242082
0.05000000 1513380.90773042 13892.83737990
0.05100000 1505690.67627021 15267.70416861
0.05200000 1497893.57259202 14289.90534846
0.05300000 1489994.97012201 14482.75178474
0.05400000 1481995.82378475 14671.75933967
0.05500000 1473899.75568702 17333.06193545
0.05600000 1465707.51633625 15038.15981935
0.05700000 1457424.50631517 17751.43131553
0.05800000 1449049.76150647 12824.09098812
0.05900000 1440587.44140352 16854.87385164
0.06000000 1432041.29128823 13103.17842745
0.06100000 1423412.81057526 14561.51373266
0.06200000 1414704.89511191 16042.75426046
0.06300000 1405920.77085389 14846.52403437
0.06400000 1397060.14070635 17707.73811159
0.06500000 1388128.65827405 17865.21666768
0.06600000 1379128.75545031 15246.26910485
0.06700000 1370061.07329142 13974.62360157
0.06800000 1360930.00884291 14085.62625086
0.06900000 1351739.21157064 15612.58862461
0.07000000 1342487.84156698 20016.49465511
0.07100000 1333180.91255587 17278.02543599
0.07200000 1323820.64972465 23193.33886971
0.07300000 1314410.21013246 14589.95401609
0.07400000 1304952.30606139 22021.07119678
0.07500000 1295447.94244708 22152.16085417
0.07600000 1285900.28450219 16337.36388051
0.07700000 1276313.32964402 19412.72665412
0.07800000 1266688.38252506 18012.30964422
0.07900000 1257027.07078000 16592.75811256
0.08000000 1247334.93244557 24248.19222425
0.08100000 1237612.95611341 15222.64007441
0.08200000 1227862.08622223 18344.26042897
0.08300000 1218086.42436800 19952.25656755
0.08400000 1208288.59675776 16946.24836496
0.08500000 1198470.81970054 23190.41144988
0.08600000 1188635.60735784 15511.69540432
0.08700000 1178784.92734092 20227.95030303
0.08800000 1168920.94961704 17165.60495129
0.08900000 1159047.06650241 29729.55865218
0.09000000 1149165.44527243 23529.16359725
0.09100000 1139277.82169850 20438.64508150
0.09200000 1129386.20710804 15754.93832943
0.09300000 1119495.18409557 22098.83597252
0.09400000 1109602.95314858 18974.21139058
0.09500000 1099714.67658870 25337.42733953
0.09600000 1089831.32813816 20614.16054076
0.09700000 1079958.07456175 25400.61510785
0.09800000 1070093.49624644 15890.88916641
0.09900000 1060242.11687874 17493.99575111
0.10000000 1050402.61522585 17504.96040595
0.10100000 1040579.94832424 20697.13614559
0.10200000 1030775.72174941 23888.22847516
0.10300000 1020990.72805397 22298.43854963
0.10400000 1011228.24963560 19112.21481725
0.10500000 1001491.29427897 20700.82602671
0.10600001 991776.83442815 23877.02841236
0.10700001 982092.79947602 19091.88492023
0.10800001 972435.92624835 15899.32814241
0.10900001 962811.48268582 22240.94629683
0.11000001 953219.78144815 23806.66516224
0.11100001 943662.10188156 15853.52405789
0.11200001 934141.05734137 17417.06083407
0.11300001 924657.06482222 15811.63655288
0.11400001 915212.75741710 18944.90497054
0.11500001 905810.04267524 18913.31458165
0.11600001 896449.18534639 25172.29430993
0.11700001 887132.57753953 20412.92157053
0.11800001 877860.03725815 21937.72336431
0.11900001 868633.98626621 15635.41248925
0.12000001 859455.42774838 17159.02842327
0.12100001 850327.47448408 18673.19221933
0.12200001 841248.85638010 15521.04213143
0.12300001 832222.76599512 18575.21301217
0.12400001 823248.65261275 23153.86944569
0.12500001 814327.75835604 20008.03396560
0.12600001 805463.43205648 16878.48701412
0.12700001 796654.68037803 22943.65587614
0.12800001 787902.08632504 19819.67791559
0.12900001 779208.31624805 18233.47545959
0.13000001 770573.50533372 21198.47813092
0.13100001 761997.37608776 21122.56826082
0.13200001 753482.01365152 18038.36025715
0.13300001 745029.11023770 19467.61156827
0.13400001 736637.17346246 20883.66485223
0.13500001 728309.46834376 25257.77355302
0.13600001 720043.97613073 19235.97572932
0.13700001 711843.91891849 14735.16981642
0.13800001 703707.03668012 17606.75088800
0.13900001 695637.28749598 14608.38372632
0.14000001 687633.02355107 17452.12696078
0.14100001 679694.93902043 21716.25432591
0.14200001 671823.67904096 15851.68045462
0.14300001 664020.87170002 18645.70695681
0.14400001 656283.42654656 19983.83128098
0.14500001 648615.92266448 18466.09618934
0.14600001 641016.00866482 15547.84402362
0.14700001 633487.06715657 15469.75490977
0.14800001 626023.92721563 15390.79897671
0.14900001 618631.35717124 13919.20619307
0.15000001 611307.71052574 15230.73232638
0.15100001 604053.84900082 15149.67124778
0.15200001 596870.07463206 15067.98574510
0.15300001 589757.11265525 14985.72893973
0.15400001 582711.32403363 20322.05838469
0.15500001 575737.33089142 17513.93043225
0.15600001 568830.72342171 21433.54267008
0.15700001 561997.63057806 17315.14781533
0.15800001 555230.40117124 13242.24569295
0.15900001 548535.27700433 18430.78617729
0.16000001 541907.53926876 13087.06769108
0.16100001 535352.17083122 19513.58754792
0.16200001 528864.93811649 16809.97285157
0.16300001 522446.32179267 16707.83415967
0.16400001 516097.34985485 12773.41001193
0.16500001 509816.22192760 12694.42452532
0.16600001 503604.78350787 12615.30042248
0.16700001 497459.85714536 15043.18679034
0.16800001 491382.55387466 14947.85799465
0.16900001 485374.90059473 16090.17871446
0.17000001 479432.85551047 20905.67065169
0.17100001 473557.61967904 19548.45946345
0.17200001 467749.46019163 15779.52878472
0.17300001 462007.40462041 19293.43012807
0.17400001 456331.44185399 15572.31118869
0.17500001 450720.04215424 11899.00967483
0.17600001 445172.23005163 14183.18791930
0.17700001 439690.82654848 11739.74562332
0.17800001 434271.70431233 11660.19581152
0.17900001 428916.74546915 11580.75267467
0.18000001 423624.52698842 13801.68774121
0.18100001 418396.50058205 12564.44750598
0.18200001 413227.52760139 15880.33463587
0.18300001 408121.18166275 13516.97417520
0.18400001 403075.13218769 11185.33544661
0.18500001 398091.08556221 14438.76435546
0.18600001 393164.79020347 13233.92746347
0.18700001 388297.62313933 15329.99088580
0.18800001 383488.91730863 16307.86697903
0.18900001 378740.13008984 12952.91306106
0.19000001 374044.51079975 11788.01331482
0.19100001 369410.49369840 10639.02272121
0.19200001 364829.21402395 11617.98686956
0.19300001 360305.64913435 11533.38437377
0.19400001 355835.26561235 10408.18201099
0.19500001 351420.01371160 12398.09866962
0.19600001 347058.02922231 10255.56524816
0.19700001 342749.21096799 14251.51286554
0.19800001 338492.94737408 12124.81794794
0.19900001 334288.99063647 10028.67019305
0.20000001 330134.60830805 16921.05014854
0.20100001 326032.44591718 9878.78357818
0.20200001 321978.43259650 10784.66810954
0.20300001 317975.33367758 10703.05023746
0.20400001 314020.21190764 14484.18295885
0.20500001 310112.72249598 13415.47700928
0.20600001 306252.87336705 11410.98260103
0.20700001 302440.10402570 9436.13169164
0.20800001 298672.03132155 10299.70548699
0.20900001 294952.13546109 10220.09197684
0.21000001 291274.67284673 11984.49698081
0.21100001 287642.40870197 10061.73193205
0.21200001 284053.32825204 9983.05469336
0.21300001 280506.58280916 10805.11408063
0.21400001 277003.22036313 12506.69599067
0.21500001 273542.75448393 13294.17849644
0.21600001 270122.05298461 10550.96788841
0.21700001 266742.38916574 10466.97184574
0.21800001 263402.94399504 10383.34454321
0.21900001 260102.11136734 11158.38110524
0.22000001 256839.64596523 9365.65813295
0.22100001 253617.46374706 10134.55433053
0.22200001 250432.80725039 12565.46669794
0.22300001 247284.18562365 9139.62393282
0.22400001 244171.46658122 9064.86612547
0.22500001 241097.72321784 11442.49848500
0.22600001 238057.17687198 9727.01670696
0.22700001 235054.05770656 10450.50389983
0.22800001 232083.71672800 9566.49125593
0.22900001 229146.88774754 7905.56800115
0.23000001 226244.98051525 10191.20562927
0.23100001 223376.64073162 8550.85821160
0.23200001 220538.99563582 11561.75739300
0.23300001 217734.41971836 10699.46989099
0.23400001 214961.97719636 9850.63307091
0.23500001 212218.91768052 8263.80504533
0.23600001 209508.40601723 8192.82660480
0.23700001 206827.24761893 8860.47970708
0.23800001 204176.35720388 9515.63957756
0.23900001 201554.35664298 7981.55290059
0.24000001 198961.21836777 7911.69322262
0.24100001 196397.99338796 7842.17224693
0.24200001 193862.18845332 9892.78794472
0.24300001 191354.34805872 11906.06809940
0.24400001 188873.57151348 8329.32489775
0.24500001 186419.82598041 7566.78109449
0.24600001 183993.02007118 7498.63588772
0.24700001 181592.77233002 11483.92746541
0.24800001 179218.42828612 8701.95119709
0.24900001 176868.80612246 9285.61276071
0.25000001 174545.56365904 8543.13301745
0.25100001 172245.92728199 9115.25490300
0.25200001 169972.82469888 8385.60970324
0.25300001 167723.59673378 7668.32320546
0.25400001 165498.17659351 8229.39722045
0.25500001 163295.89530103 8151.73147910
0.25600001 161117.81947033 7453.31068133
0.25700001 158962.42263618 6767.03065179
0.25800001 156830.56322311 6702.15443645
0.25900001 154721.26154720 10258.02012594
0.26000001 152634.28749737 8963.44895739
0.26100001 150568.78980391 8284.29520699
0.26200001 148526.19525928 7031.23041627
0.26300001 146504.33171607 6381.72899152
0.26400001 144504.51059950 8041.67639538
0.26500001 142526.32973420 7961.52115568
0.26600001 140568.04932245 5629.75064176
0.26700001 138631.63501923 5572.99199149
0.26800001 136716.10529248 6619.79413152
0.26900001 134819.57659268 7098.25104350
0.27000001 132944.34243244 5944.60655318
0.27100001 131088.69021612 5348.41881392
0.27200001 129254.39487056 6880.85803656
0.27300001 127438.65810547 5761.50200561
0.27400001 125640.67301967 5182.67800733
0.27500001 123864.81457048 6153.60427908
0.27600001 122105.83283557 7102.89663220
0.27700001 120367.74960683 6023.20247538
0.27800001 118647.41425540 5958.47342590
0.27900001 116946.79716238 5402.94228461
0.28000001 115263.51905243 4858.35755800
0.28100001 113599.43290727 6246.83311123
0.28200001 111954.18496565 5227.70091440
0.28300001 110326.70323216 5169.90955815
0.28400001 108717.01313996 4647.65253171
0.28500001 107125.81226336 6433.97658907
0.28600001 105552.09678159 4998.41977968
0.28700001 103996.09317978 6738.94715702
0.28800001 102456.88233455 4885.65666538
0.28900001 100937.33596029 7464.31634758
0.29000001 99433.18732814  5642.33648201
0.29100001 97947.47778663  4719.10970314
0.29200001 96478.59054141  4240.23425501
0.29300001 95026.99821813  4609.75990177
0.29400001 93591.65461729  5798.00327800
0.29500001 92174.36164714  4911.05022103
0.29600001 90772.91231206  5257.11346541
0.29700001 89388.41908192  4794.79502653
0.29800001 88020.09340940  4737.24165155
0.29900001 86669.42491192  5460.17402793
0.30000001 85334.05763053  4623.39946129
0.30100001 84016.14639733  5328.30425676
0.30200001 82713.08768086  6014.89602090
0.30300001 81427.33707548  4084.39542107
0.30400001 80157.46959981  5134.08617092
0.30500001 78903.24651223  6156.82061683
0.30600001 77664.37618353  3576.44469257
0.30700001 76442.30230873  5297.45180079
0.30800001 75235.66842591  4184.60807596
0.30900001 74044.50826758  5853.21865567
0.31000001 72869.43244598  3739.29510300
0.31100001 71708.74257036  4698.35703565
0.31200001 70564.20929836  3975.58774010
0.31300001 69434.57458525  3597.40547959
0.31400001 68321.35869788  3551.00278645
0.31500001 67221.89305881  4779.47682278
0.31600002 66138.14140436  3144.86877268
0.31700002 65069.18328339  5276.46032228
0.31800002 64015.20361959  3982.06592970
0.31900002 62976.27118027  3325.14727576
0.32000002 61952.18238542  3579.59726772
0.32100002 60941.90627039  3532.19305468
0.32200002 59947.66282483  3775.80372181
0.32300002 58965.73801590  3725.45550425
0.32400002 57999.32215143  3110.21379764
0.32500002 57047.09827104  4184.40485632
0.32600002 56109.33462089  3027.37929282
0.32700002 55185.11261845  2715.10766940
0.32800002 54275.55229240  2678.49863247
0.32900002 53379.28150690  2906.50201568
0.33000002 52497.80959666  4170.42619185
0.33100002 51627.85406906  3599.49415615
0.33200002 50774.15288222  2789.78596222
0.33300002 49932.60689301  3001.94846857
0.33400002 49105.16620841  2961.04166259
0.33500002 48289.88296452  2920.57226000
0.33600002 47489.10958383  2880.68952377
0.33700002 46700.21676608  3314.78154303
0.33800002 45925.70462436  2335.32219074
0.33900002 45162.73256473  2303.29946988
0.34000002 44413.42897204  3180.44579931
0.34100002 43676.41974130  2912.78057049
0.34200002 42952.82530310  2651.90755980
0.34300002 42240.31952453  2397.56064976
0.34400002 41541.99347332  2579.75791687
0.34500002 40854.55708482  2120.35161312
0.34600002 40180.49112467  2509.67359451
0.34700002 39516.81522111  2269.05563746
0.34800002 38866.77821742  2034.67593605
0.34900002 38227.65671146  2207.64727964
0.35000002 37600.59348253  2573.57274280
0.35100002 36985.50934730  2148.11848463
0.35200002 36380.85188138  2696.91267770
0.35300002 35787.96370269  2470.44325140
0.35400002 35206.68669449  1874.75615528
0.35500002 34636.70386338  2589.44010347
0.35600002 34076.77804615  1824.81155080
0.35700002 33527.95675785  1980.49649949
0.35800002 32990.78144868  1954.20903167
0.35900002 32464.05243660  2454.28248046
0.36000002 31948.19268446  2767.99154529
0.36100002 31441.67939165  2219.46825338
0.36200002 30946.95254224  2359.08630404
0.36300002 30461.12562974  2494.76630724
0.36400002 29985.61614060  2298.39758605
0.36500002 29519.85465600  1620.64009738
0.36600002 29064.39073786  1599.99478591
0.36700002 28617.98910508  2053.62699546
0.36800002 28182.72702953  1715.90541647
0.36900002 27755.75992826  1694.48922389
0.37000002 27337.81612285  1825.61944716
0.37100002 26929.10021004  2103.70140806
0.37200002 26530.35773021  1929.68566092
0.37300002 26139.74647972  1906.37180107
0.37400002 25758.24207870  2028.46165979
0.37500002 25385.67014391  2004.45260952
0.37600002 25021.98450137  1556.49261964
0.37700002 24666.17790778  1538.42958899
0.37800002 24318.75169308  1520.77320917
0.37900002 23980.23309653  1503.56068638
0.38000002 23649.53999754  2297.67116731
0.38100002 23325.86433764  1603.88650784
0.38200002 23011.18672969  1586.39128830
0.38300002 22703.46110102  2223.12301633
0.38400002 22404.41776443  2587.71037438
0.38500002 22111.42001422  1792.35179126
0.38600002 21827.37417025  2027.32660898
0.38700002 21549.38970357  1630.42690221
0.38800002 21279.08779924  1738.28876467
0.38900002 21015.12633350  1475.26193850
0.39000002 20759.42995832  1704.55687463
0.39100002 20509.12961686  1326.53056646
0.39200002 20266.31882245  1792.04932678
0.39300002 20029.42696649  1420.48702776
0.39400002 19800.68869621  1290.50994692
0.39500002 19576.84926849  1279.15139181
0.39600002 19359.39072985  1498.70730436
0.39700002 19147.98643124  1257.44832851
0.39800002 18942.83165699  1247.10138122
0.39900002 18743.27352131  1124.59646456
0.40000002 18549.47649333  1338.90127672
0.40100002 18361.55138515  1107.20160098
0.40200002 18179.45265116  1318.73755780
0.40300002 18002.15424436  1527.30283845
0.40400002 17830.64914871  1191.53318582
0.40500002 17664.51726490  1075.76915240
0.40600002 17503.21234027  1282.28539680
0.40700002 17347.21083532  1061.64935342
0.40800002 17196.05493251  1160.47582210
0.40900002 17049.62586498  1258.26244845
0.41000002 16908.43852807  1146.64581311
0.41100002 16771.32291437  1140.11458574
0.41200002 16638.73693585  1340.00074262
0.41300002 16511.20440517  1845.62251586
0.41400002 16387.46689915  1122.13184909
0.41500002 16268.30936940  1218.17106330
0.41600002 16152.59058986  1111.37904820
0.41700002 16041.60256566  1307.55108708
0.41800002 15935.24167978  1101.68298573
0.41900002 15830.98492903  1196.82251735
0.42000002 15731.88001220  1291.50875080
0.42100002 15636.53118172  1484.68870606
0.42200002 15544.81573234  1183.58232594
0.42300002 15456.06038139  983.00548684
0.42400002 15370.87850227  1273.86161624
0.42500002 15289.30204678  1074.68509179
0.42600002 15210.25473043  1169.06023398
0.42700002 15135.57489850  1068.87434998
0.42800002 15063.39823852  1357.06161162
0.42900002 14995.12915248  1450.77881425
0.43000002 14929.26257431  1158.21224540
0.43100002 14865.48207727  1926.56656851
0.43200002 14805.65426248  1153.95274790
0.43300002 14748.21399427  1152.13053183
0.43400002 14693.66958876  1054.63818471
0.43500002 14641.45646177  1244.81668737
0.43600002 14592.20836408  1052.17123395
0.43700002 14544.79440401  955.59303763
0.43800002 14499.67978872  1145.76475120
0.43900002 14457.80095746  1049.63639925
0.44000002 14417.63791449  1049.09947256
0.44100002 14380.03968211  1144.07601133
0.44200002 14344.38406379  1048.50280283
0.44300002 14310.81908715  1239.03077528
0.44400002 14279.73273929  1048.48942607
0.44500002 14249.34043068  1143.93710399
0.44600002 14221.19963480  1334.94407298
0.44700002 14196.14156747  1144.77691025
0.44800002 14171.15996913  1049.87043607
0.44900002 14149.70364251  1050.61554525
0.45000002 14129.23193592  1242.59536149
0.45100002 14110.09687344  1339.33045870
0.45200002 14092.83901043  1053.36930176
0.45300002 14076.59078392  1150.33905338
0.45400002 14062.35941221  1151.70729044
0.45500002 14049.51235494  1153.18402875
0.45600002 14037.89566462  1154.75735210
0.45700002 14027.76658544  1156.44913211
0.45800002 14018.41524442  965.16793532
0.45900002 14010.34382797  966.71376995
0.46000002 14004.38053384  1065.24325579
0.46100002 13998.23232006  1261.10080948
0.46200002 13994.27685123  1360.66360273
0.46300002 13991.30698956  1071.17451389
0.46400002 13988.57457736  1561.12499682
0.46500002 13987.47298012  1075.49684842
0.46600002 13986.96466524  979.78692124
0.46700002 13986.92039122  1276.44641540
0.46800002 13988.99283489  1279.36340035
0.46900002 13990.72088942  1183.61504334
0.47000002 13993.63300697  1285.24528444
0.47100002 13997.20534969  1783.80393431
0.47200002 14001.77424171  1490.13889430
0.47300002 14007.11685603  995.90605567
0.47400002 14012.31346854  1098.21512015
0.47500002 14018.55725601  1000.92503552
0.47600002 14026.01477147  1204.27368536
0.47700002 14032.98906188  1609.86458148
