# SAXS profile: number of points = 501, q_min = 0, q_max = 0.5, delta_q = 0.001
#    q    intensity    error
0.00000000 1719190.39626458 257.87855944
0.00100000 1719101.94592783 618.87671523
0.00200000 1718836.56844626 1160.21472044
0.00300000 1718394.47036542 1237.24406274
0.00400000 1717775.57173504 1545.99807331
0.00500000 1716980.46704884 2008.86722596
0.00600000 1716009.04426957 2162.17148381
0.00700000 1714862.06677344 3086.75184848
0.00800000 1713539.26754413 2775.93373062
0.00900000 1712042.15806209 2824.86968156
0.01000000 1710370.00126759 2822.11062395
0.01100000 1708524.54283181 4920.55089759
0.01200000 1706505.59383675 3993.22326466
0.01300000 1704314.54001404 5010.68496864
0.01400000 1701951.50319762 4595.26926235
0.01500000 1699418.28499016 5302.18528527
0.01600000 1696714.19824820 6057.26995853
0.01700000 1693841.80354184 6860.05961208
0.01800000 1690801.41343849 6264.41951867
0.01900000 1687594.09852190 6075.33902881
0.02000000 1684220.64746320 7427.41339130
0.02100000 1680683.76883974 6100.88235749
0.02200000 1676982.19467317 6364.14771792
0.02300000 1673119.04979304 9034.84328013
0.02400000 1669094.84691760 8762.74834588
0.02500000 1664912.27481538 7142.47398516
0.02600000 1660571.37275387 11433.03442434
0.02700000 1656074.37708961 6955.51270235
0.02800000 1651421.70265392 12212.26405118
0.02900000 1646616.75180828 8891.73086802
0.03000000 1641660.11895108 10687.20786561
0.03100000 1636553.49620466 7855.45714324
0.03200000 1631298.18118965 9689.91164257
0.03300000 1625898.51023064 9121.29106289
0.03400000 1620352.74155259 12760.27842849
0.03500000 1614665.02477747 11334.94899736
0.03600000 1608836.01492952 13393.56044325
0.03700000 1602869.00689897 10049.98913804
0.03800000 1596765.34723615 14945.72434181
0.03900000 1590527.66196386 14314.74962059
0.04000000 1584156.15548952 9742.56080772
0.04100000 1577654.67425215 13914.91487209
0.04200000 1571025.37670145 14186.35980976
0.04300000 1564269.48283922 13421.43278576
0.04400000 1557390.40650469 15768.57859818
0.04500000 1550389.97309221 11767.46044254
0.04600000 1543269.35820872 11968.05442927
0.04700000 1536032.02874014 18801.03290618
0.04800000 1528680.45226948 14606.54240105
0.04900000 1521216.92531592 12550.04021803
0.05000000 1513643.05957154 11579.36994493
0.05100000 1505962.73324586 14095.81183982
0.05200000 1498175.81523621 11910.49828617
0.05300000 1490287.44124908 14485.59460423
0.05400000 1482298.84840471 18343.44910443
0.05500000 1474213.32507965 13621.73175918
0.05600000 1466031.96015251 21308.77553517
0.05700000 1457759.75341669 19023.76567009
0.05800000 1449395.98444265 14109.87056737
0.05900000 1440944.83130656 18155.90572245
0.06000000 1432409.94846842 19659.82746121
0.06100000 1423792.81673148 17213.65595870
0.06200000 1415096.42533668 14709.92802897
0.06300000 1406324.09089099 14850.78309416
0.06400000 1397475.19612798 17712.99893930
0.06500000 1388555.55288870 20620.05092496
0.06600000 1379567.55252589 15251.12000675
0.06700000 1370511.98632919 19570.91208068
0.06800000 1361393.24136312 15499.46277843
0.06900000 1352214.70757290 19877.55713197
0.07000000 1342975.75364084 21454.03866907
0.07100000 1333681.28745231 20165.26201077
0.07200000 1324333.61714386 20302.03530190
0.07300000 1314935.97513047 17514.94800941
0.07400000 1305490.79488842 17624.12655693
0.07500000 1295999.37630118 14774.39358235
0.07600000 1286464.62883451 16344.53387558
0.07700000 1276890.76298227 19421.50941561
0.07800000 1267278.79667369 15017.25444484
0.07900000 1257630.76595874 16600.72688929
0.08000000 1247951.84764130 19711.40035818
0.08100000 1238243.14310857 18276.46964978
0.08200000 1228505.77755144 15294.89764823
0.08300000 1218743.47001449 19963.01897574
0.08400000 1208959.10041863 24662.76680618
0.08500000 1199154.88203502 21656.73818623
0.08600000 1189333.30435937 17072.88038568
0.08700000 1179496.10831779 17126.28429699
0.08800000 1169645.84108010 18737.72725410
0.08900000 1159785.74377599 23485.66241458
0.09000000 1149917.82454868 21974.93065941
0.09100000 1140043.96182733 20452.38963606
0.09200000 1130166.19762240 18918.98303714
0.09300000 1120289.03761712 18955.29140723
0.09400000 1110410.70162776 18988.02389022
0.09500000 1100536.27833198 20602.04009873
0.09600000 1090666.76076666 20629.96274967
0.09700000 1080807.34021771 19065.44237776
0.09800000 1070956.83541470 15903.70975366
0.09900000 1061119.30963007 19100.14847148
0.10000000 1051293.62099935 19112.51892858
0.10100000 1041484.90047881 15934.71972676
0.10200000 1031694.71202481 17533.65245558
0.10300000 1021923.43676266 19130.40763611
0.10400000 1012175.03440341 17535.93329602
0.10500000 1002451.83513900 20720.68040722
0.10600001 992751.23066571 17527.02380211
0.10700001 983080.94781672 17518.50331447
0.10800001 973437.90931507 17507.28162295
0.10900001 963827.21106486 15903.14973106
0.11000001 954249.28793030 23832.37708784
0.11100001 944705.34489272 19045.26064956
0.11200001 935197.85185013 19021.92520213
0.11300001 925727.51969398 17412.93546526
0.11400001 916296.74224519 20547.95541234
0.11500001 906907.70773283 18936.23382913
0.11600001 897560.15361476 22053.05401283
0.11700001 888256.82501183 15722.14654314
0.11800001 878997.69991141 18828.13161888
0.11900001 869784.93776196 17221.74257886
0.12000001 860619.61196197 17182.27136219
0.12100001 851505.02031038 18699.05112689
0.12200001 842439.44024871 17097.30924532
0.12300001 833426.32121311 17051.90333541
0.12400001 824465.20745850 20096.34037869
0.12500001 815556.98257484 16955.43046668
0.12600001 806705.34645223 15367.73757410
0.12700001 797909.39524887 16851.84722182
0.12800001 789169.41272401 22905.64328384
0.12900001 780487.97207510 18263.41940735
0.13000001 771865.61380563 22750.74003927
0.13100001 763301.70183489 15113.37440874
0.13200001 754798.66538268 21081.52771793
0.13300001 746357.81077873 25503.04759660
0.13400001 737977.91020404 19427.26940203
0.13500001 729661.94922051 20839.14625227
0.13600001 721408.27508380 17789.92890238
0.13700001 713219.83150874 22145.47681258
0.13800001 705094.49136002 16171.34292191
0.13900001 697036.02638346 21956.63586651
0.14000001 689043.21199592 18945.24400730
0.14100001 681116.29269545 14507.77771864
0.14200001 673255.94574592 17329.60886086
0.14300001 665464.08936461 20123.63501157
0.14400001 657737.47435590 21458.68611306
0.14500001 650080.53489948 17084.11726305
0.14600001 642491.10605094 17000.31546809
0.14700001 634972.36033420 15506.02577088
0.14800001 627519.51758133 15427.56806759
0.14900001 620137.02184739 13953.08364988
0.15000001 612823.24858164 16656.53668235
0.15100001 605579.12039481 20710.80689474
0.15200001 598404.86039178 19226.74907164
0.15300001 591301.36330584 15024.96835062
0.15400001 584264.86864379 14942.57472072
0.15500001 577299.73786257 14859.69595386
0.15600001 570402.34641658 16119.57107049
0.15700001 563577.96339114 16028.15803532
0.15800001 556819.31367438 14608.15538373
0.15900001 550132.64043156 17164.13919162
0.16000001 543513.22758926 13125.84506585
0.16100001 536965.98672607 16962.75632139
0.16200001 530486.75966509 23346.72339497
0.16300001 524075.95584706 21916.85750817
0.16400001 517734.51062467 17939.50164006
0.16500001 511460.80916981 14008.91222454
0.16600001 505256.62380733 13922.34692633
0.16700001 499118.76425509 12577.79345309
0.16800001 493048.39301661 12498.77735312
0.16900001 487047.48755015 16145.62497465
0.17000001 481111.91166663 12340.52111696
0.17100001 475242.98531689 14713.52352020
0.17200001 469441.04466745 14618.39482127
0.17300001 463704.90324356 18154.04781930
0.17400001 458034.73053013 16832.77714193
0.17500001 452428.88130481 13138.53533359
0.17600001 446886.37606565 13051.31722940
0.17700001 441410.21744463 16499.91470738
0.17800001 435996.08124457 15218.44393464
0.17900001 430645.93720510 18603.90536599
0.18000001 425358.25306521 12703.32482783
0.18100001 420134.67089773 11469.67705730
0.18200001 414969.92345698 12530.01743068
0.18300001 409867.61291976 13574.81598117
0.18400001 404825.33961256 11233.90370495
0.18500001 399844.99338460 15617.94617943
0.18600001 394921.98786540 13293.07473956
0.18700001 390058.16130272 13199.56880209
0.18800001 385252.35865753 12014.09537235
0.18900001 380506.55363949 17351.09966576
0.19000001 375813.39656078 15073.87604827
0.19100001 371181.91514378 16035.05949187
0.19200001 366602.84153308 12735.78331664
0.19300001 362081.07703513 12643.87180752
0.19400001 357612.75500219 11506.19093591
0.19500001 353198.97110557 13499.26531356
0.19600001 348838.38215936 12369.80961592
0.19700001 344530.69872175 12279.07468272
0.19800001 340275.57985258 12188.67184634
0.19900001 336072.27136429 12098.60234089
0.20000001 331918.69465488 15011.02367521
0.20100001 327816.72160842 9932.84713418
0.20200001 323763.15556235 10844.44740811
0.20300001 319759.77445120 13698.50938494
0.20400001 315804.65186896 12624.29155516
0.20500001 311896.60093058 11565.12650915
0.20600001 308036.17257776 10520.97597170
0.20700001 304222.59833698 14237.61827517
0.20800001 300453.49097166 13186.90434209
0.20900001 296732.62065626 10281.78579177
0.21000001 293053.60212059 13912.72041836
0.21100001 289419.69023862 9203.54658467
0.21200001 285828.97340885 11871.90697177
0.21300001 282280.09118149 9967.31049083
0.21400001 278774.45335537 8990.47654575
0.21500001 275311.67074126 11596.12811986
0.21600001 271888.40409497 10619.96156605
0.21700001 268506.07520236 9658.16398166
0.21800001 265163.54125785 8710.62274216
0.21900001 261859.62053144 10369.64146334
0.22000001 258593.87187734 9429.62598386
0.22100001 255368.11383777 9354.13445217
0.22200001 252179.67550634 11809.57476237
0.22300001 249027.22926947 10877.50988884
0.22400001 245910.55835843 10789.32625816
0.22500001 242832.41542016 11524.82698082
0.22600001 239787.34834433 8981.23555694
0.22700001 236779.64719485 12956.58290721
0.22800001 233804.51047342 11243.65944038
0.22900001 230862.73886215 8761.24135415
0.23000001 227955.80446081 9478.40279773
0.23100001 225082.08232651 9399.42820248
0.23200001 222238.98012243 9320.70326714
0.23300001 219428.67237034 10012.53079380
0.23400001 216650.32950141 9164.30937134
0.23500001 213901.16483495 11358.15238993
0.23600001 211184.58528231 7507.61236187
0.23700001 208497.11866047 8187.68223706
0.23800001 205839.62112950 11806.96122644
0.23900001 203210.97435106 9510.27404946
0.24000001 200611.11186677 7977.30124071
0.24100001 198040.85713936 7907.77179962
0.24200001 195498.05626985 8551.08538573
0.24300001 192982.77652118 9888.43793670
0.24400001 190494.55571159 7000.67525356
0.24500001 188033.30267587 9019.95795605
0.24600001 185598.63888651 11002.28783366
0.24700001 183190.51689742 8177.62506115
0.24800001 180808.32734461 11480.42528785
0.24900001 178450.57275858 8030.27615403
0.25000001 176118.93928192 8620.14189096
0.25100001 173810.76582173 7227.05198477
0.25200001 171529.25383236 8462.39613817
0.25300001 169271.26762141 12253.54764284
0.25400001 167036.96533749 7028.08064908
0.25500001 164825.74422521 8228.10154101
0.25600001 162638.57736933 6896.68919965
0.25700001 160474.04284365 7452.41490226
0.25800001 158332.77274102 7381.47421443
0.25900001 156214.09905539 7310.82018170
0.26000001 154117.59887545 7240.44513775
0.26100001 152042.36407387 9560.42430533
0.26200001 149990.06191102 6508.81904461
0.26300001 147958.11443875 9374.62657442
0.26400001 145948.41899112 8702.17489412
0.26500001 143960.14060613 5744.00988198
0.26600001 141991.63655128 7392.79490687
0.26700001 140044.89805518 7318.74671869
0.26800001 138118.91271964 5573.09839196
0.26900001 136211.98237021 6068.24410175
0.27000001 134326.17030798 6006.39498956
0.27100001 132459.95042811 5944.80285654
0.27200001 130614.87188234 5883.54718237
0.27300001 128788.24519405 5293.19712797
0.27400001 126979.45080233 6285.48311217
0.27500001 125192.52276786 6219.56482545
0.27600001 123422.35346560 10769.21796130
0.27700001 121673.25648852 5581.15253927
0.27800001 119941.77447809 6525.43254931
0.27900001 118229.77338391 6455.34593228
0.28000001 116535.15182999 6385.54394674
0.28100001 114859.63902163 5830.27555268
0.28200001 113202.94767736 5286.01189198
0.28300001 111563.85906172 6178.40680726
0.28400001 109942.64118968 4700.04813332
0.28500001 108339.76424849 6042.10893812
0.28600001 106754.38981825 5974.50970896
0.28700001 105186.60862027 4998.46787823
0.28800001 103635.65029846 4941.86621840
0.28900001 102104.28318426 4885.69018162
0.29000001 100588.24908596 5268.81273652
0.29100001 99090.74197352  6076.24458543
0.29200001 97609.80872389  4718.94642613
0.29300001 96146.41275174  5936.07980428
0.29400001 94699.03832224  5866.60570177
0.29500001 93269.68368896  4141.17415182
0.29600001 91856.15735927  4910.63040488
0.29700001 90459.67344483  5256.61187272
0.29800001 89079.24895357  5193.76585610
0.29900001 87716.55711847  5526.14336007
0.30000001 86368.97212801  5069.42705904
0.30100001 85038.99728461  4237.49343530
0.30200001 83723.78374988  4946.81999705
0.30300001 82425.89550850  6389.65572231
0.30400001 81143.79773980  4083.56181458
0.30500001 79877.45952384  4033.01312229
0.30600001 78626.41175091  3982.82107580
0.30700001 77392.26131732  4648.17943478
0.30800001 76173.48412830  3530.64115650
0.30900001 74970.23263539  4183.33917911
0.31000001 73783.05515407  4474.57359167
0.31100001 72610.32980613  4077.79631498
0.31200001 71453.64691575  3690.22376968
0.31300001 70312.07428314  3642.86874109
0.31400001 69186.77928471  3922.89057118
0.31500001 68075.24191705  4517.47326750
0.31600002 66979.46470016  4777.31054593
0.31700002 65898.52543423  3143.35981204
0.31800002 64832.60783474  4032.91256131
0.31900002 63781.93632663  4898.45294182
0.32000002 62745.89775398  3625.45814389
0.32100002 61723.71155557  3875.63203209
0.32200002 60717.77539770  3824.30926451
0.32300002 59724.01875403  3483.10493866
0.32400002 58745.97588211  4009.41304380
0.32500002 57782.10431464  3390.65404174
0.32600002 56832.67432973  3345.17136945
0.32700002 55896.87043385  3025.13877113
0.32800002 54975.82877688  3526.97446219
0.32900002 54068.07040829  2944.00657314
0.33000002 53175.13694951  2904.16024202
0.33100002 52293.90522876  3645.93124520
0.33200002 51428.73101016  3339.52480629
0.33300002 50576.10338630  3547.40805950
0.33400002 49737.40340642  2999.16556743
0.33500002 48911.02274845  2958.13879591
0.33600002 48099.12777337  3890.25763854
0.33700002 47299.32410425  2637.88343022
0.33800002 46513.91895630  2838.27946913
0.33900002 45740.10510168  3032.56911186
0.34000002 44980.04893835  2990.94849580
0.34100002 44232.32412518  2496.03016859
0.34200002 43498.15899467  3356.97057940
0.34300002 42775.10116508  2207.19532465
0.34400002 42066.38455090  3265.40325541
0.34500002 41368.51253757  2576.43108286
0.34600002 40684.02551481  2541.12435400
0.34700002 40010.23705641  2297.38792059
0.34800002 39350.04118149  2265.97222876
0.34900002 38700.83787655  3250.87053560
0.35000002 38063.90491065  3006.09703269
0.35100002 37438.85658348  2767.48040973
0.35200002 36824.50800304  2339.82934933
0.35300002 36221.91256716  2500.39874294
0.35400002 35630.96124609  2466.55340909
0.35500002 35051.51950723  2433.27659944
0.35600002 34482.21435364  2400.47946593
0.35700002 33924.16292693  2003.90039901
0.35800002 33377.62654365  2336.60085686
0.35900002 32841.78512187  2660.18472087
0.36000002 32316.99766971  2974.94136140
0.36100002 31801.51295484  2072.18668229
0.36200002 31297.95951490  2215.42616920
0.36300002 30803.45927433  1850.05585165
0.36400002 30319.29911090  1991.97804594
0.36500002 29845.05695306  2785.43929737
0.36600002 29381.14007768  1779.17502168
0.36700002 28926.52266564  2075.76736481
0.36800002 28482.94596007  1576.53113357
0.36900002 28048.03569341  1867.99926567
0.37000002 27621.97768896  1537.16313121
0.37100002 27205.50448095  2580.71427731
0.37200002 26798.86885524  2099.15549687
0.37300002 26400.61552153  1925.39698119
0.37400002 26011.59310177  1609.46739941
0.37500002 25631.56658532  1879.30655106
0.37600002 25260.51067747  1571.33014113
0.37700002 24897.51776004  1411.68932387
0.37800002 24543.03518023  1674.32593931
0.37900002 24197.53408827  1655.11141004
0.38000002 23859.90709096  1363.59375485
0.38100002 23529.49723033  1752.71233172
0.38200002 23208.04744767  1466.63262793
0.38300002 22893.82761511  1450.55298641
0.38400002 22588.35454131  1826.26855118
0.38500002 22289.07899013  1290.53773467
0.38600002 21998.84502209  1404.73631543
0.38700002 21714.66383682  1769.31089325
0.38800002 21438.40557020  1250.93102428
0.38900002 21168.56741416  1609.86962812
0.39000002 20907.12204395  1348.82304257
0.39100002 20651.21327584  1942.86623704
0.39200002 20402.82563934  1323.02129126
0.39300002 20160.50616205  1787.22895594
0.39400002 19926.42018379  1534.83258737
0.39500002 19697.40940876  1404.03140918
0.39600002 19474.87132921  1623.62009964
0.39700002 19258.52605150  1609.62768365
0.39800002 19048.52101190  1596.07565121
0.39900002 18844.11015975  1582.90532842
0.40000002 18645.72614460  1233.69452881
0.40100002 18453.34645032  1446.55789678
0.40200002 18266.76498104  1325.07119451
0.40300002 18085.18821753  1424.75119528
0.40400002 17909.44930568  1305.59891624
0.40500002 17739.21357264  1512.44542086
0.40600002 17573.95168083  1287.46776114
0.40700002 17414.13698856  1278.89428103
0.40800002 17259.09342023  1270.61451780
0.40900002 17109.04398108  1893.97125845
0.41000002 16964.35101296  1987.11935006
0.41100002 16823.72553139  1351.61817323
0.41200002 16687.78483313  1240.56998328
0.41300002 16557.11504533  1233.83627164
0.41400002 16430.24536536  1125.06110470
0.41500002 16308.06917760  1628.19770384
0.41600002 16189.41016523  1215.17718458
0.41700002 16075.60749285  1209.52876507
0.41800002 15966.46436344  1505.23849919
0.41900002 15859.66720379  1798.48634613
0.42000002 15758.06604242  1094.63410951
0.42100002 15660.24223460  1090.42271846
0.42200002 15566.14313053  1185.20619412
0.42300002 15475.13487807  1082.64048737
0.42400002 15387.83747631  1079.07215416
0.42500002 15304.22813017  1564.70435817
0.42600002 15223.23387109  1072.55299321
0.42700002 15146.66554027  1069.65757114
0.42800002 15072.84347537  1357.91253304
0.42900002 15002.85134876  1741.83112413
0.43000002 14935.39082862  965.57306283
0.43100002 14870.19790160  963.58886969
0.43200002 14808.96031162  1346.57882495
0.43300002 14750.15691926  960.23526095
0.43400002 14694.39290808  1054.69010096
0.43500002 14641.04423738  1244.78164005
0.43600002 14590.80358026  956.42722001
0.43700002 14542.34912288  1242.06209745
0.43800002 14496.33514271  1050.04208582
0.43900002 14453.68908025  1621.70399166
0.44000002 14412.76007524  1144.08494899
0.44100002 14374.53241776  1143.63785335
0.44200002 14338.23315520  952.77563832
0.44300002 14304.20514031  952.66010749
0.44400002 14272.71105347  1143.24420956
0.44500002 14241.90993427  1238.61896568
0.44600002 14213.46791577  1334.21829648
0.44700002 14188.24790699  1334.83042635
0.44800002 14163.16997176  1144.66745137
0.44900002 14141.56083458  1240.92202204
0.45000002 14121.12787101  1241.88264947
0.45100002 14102.06614073  1147.34415558
0.45200002 14084.97704856  1052.78165939
0.45300002 14068.90367336  1053.90162412
0.45400002 14054.93559954  1247.02422017
0.45500002 14042.38315616  1152.59886408
0.45600002 14031.18050518  1250.38870998
0.45700002 14021.51787938  1059.60615636
0.45800002 14012.64660364  1157.72491726
0.45900002 14005.11707053  1062.98843603
0.46000002 13999.68898874  1258.50210129
0.46100002 13994.21201153  1066.77883220
0.46200002 13990.96735901  1360.34182079
0.46300002 13988.74409945  973.61663547
0.46400002 13986.81976919  975.58072514
0.46500002 13986.65869489  1270.96773584
0.46600002 13987.02647423  1175.74950115
0.46700002 13987.91202064  981.95147039
0.46800002 13990.96673504  1082.69101211
0.46900002 13993.75057149  1381.18324687
0.47000002 13997.80054376  1087.83912082
0.47100002 14002.41854639  1487.05692011
0.47200002 14008.20389560  1292.04674755
0.47300002 14014.78966586  1195.74191097
0.47400002 14021.22056026  1298.71561595
0.47500002 14028.75798056  1101.81870402
0.47600002 14037.54276924  1004.38623274
0.47700002 14045.88269917  1913.47069080
