# SAXS profile: number of points = 501, q_min = 0, q_max = 0.5, delta_q = 0.001
#    q    intensity    error
0.00000000 1682732.95097187 328.13292544
0.00100000 1682645.33326832 757.19041795
0.00200000 1682382.44695906 832.77933761
0.00300000 1681944.51796390 1211.00009607
0.00400000 1681331.41653012 1513.19833238
0.00500000 1680543.80037171 2117.48527228
0.00600000 1679581.49608211 2292.62883549
0.00700000 1678445.31748936 2618.37480410
0.00800000 1677134.98862788 2264.13233024
0.00900000 1675651.92926685 2764.82580148
0.01000000 1673995.55818702 3866.92990638
0.01100000 1672167.52656218 3310.89184675
0.01200000 1670167.59053665 5210.92311094
0.01300000 1667997.25509014 5604.47102429
0.01400000 1665656.57087586 4122.50019567
0.01500000 1663147.33383879 4789.86453474
0.01600000 1660468.84545013 5081.03489422
0.01700000 1657623.73309295 5370.70113614
0.01800000 1654612.21792055 6601.90304657
0.01900000 1651435.34663702 4954.30626346
0.02000000 1648094.09959857 6229.79597829
0.02100000 1644590.85192328 7055.29507463
0.02200000 1640924.63074149 6227.30925659
0.02300000 1637098.42187979 9429.68733925
0.02400000 1633112.85620356 6736.59083901
0.02500000 1628970.29639126 6352.98444607
0.02600000 1624671.22116792 7895.90249602
0.02700000 1620217.43653587 7485.40489964
0.02800000 1615609.73865987 9136.27349111
0.02900000 1610851.18822193 12323.01215570
0.03000000 1605942.49967768 11201.44945013
0.03100000 1600885.57608150 8452.67623064
0.03200000 1595681.34351411 8688.48531561
0.03300000 1590334.18413197 8110.70471298
0.03400000 1584842.57577054 9152.46629737
0.03500000 1579210.66861091 10233.28560515
0.03600000 1573438.80945338 11352.36153484
0.03700000 1567530.54099855 9828.41694660
0.03800000 1561487.19458806 10961.64061331
0.03900000 1555311.13372466 12131.42740486
0.04000000 1549002.77981398 12384.27779849
0.04100000 1542566.16038093 11661.80071320
0.04200000 1536002.98554856 13870.10760298
0.04300000 1529314.73626794 15140.21659183
0.04400000 1522504.47311737 17470.73964040
0.04500000 1515574.64687267 11503.21210426
0.04600000 1508525.87969573 14889.15112475
0.04700000 1501362.09666756 14052.74987837
0.04800000 1494085.11926177 10981.52613752
0.04900000 1486697.65606067 14495.30282131
0.05000000 1479201.34156740 12447.47986892
0.05100000 1471600.12910576 19513.41862096
0.05200000 1463893.26325618 16293.13277932
0.05300000 1456086.63345661 12973.73250891
0.05400000 1448180.87662774 15531.74062614
0.05500000 1440179.61631884 16936.51307799
0.05600000 1432083.57898068 17142.04124032
0.05700000 1423898.27951422 12387.91561002
0.05800000 1415622.72587383 12528.26170896
0.05900000 1407261.20865202 13931.88661636
0.06000000 1398817.05626599 12799.17666280
0.06100000 1390291.85982976 14222.68639070
0.06200000 1381688.61821924 19585.43707875
0.06300000 1373010.61450780 15817.08301866
0.06400000 1364257.23924592 21282.41392755
0.06500000 1355434.79659040 13418.80511395
0.06600000 1346544.98692123 24358.99995313
0.06700000 1337588.58403865 16372.08503483
0.06800000 1328569.88194537 16500.83870615
0.06900000 1319492.97188358 22167.48296550
0.07000000 1310356.90342841 13955.30167502
0.07100000 1301166.37846385 15457.85730016
0.07200000 1291923.67658854 21219.84738205
0.07300000 1282631.88357028 17084.65748967
0.07400000 1273293.78562435 18621.92248746
0.07500000 1263910.56012670 21612.87159122
0.07600000 1254484.94994391 20285.02259157
0.07700000 1245021.28274323 18936.77459844
0.07800000 1235520.85038179 16105.01503999
0.07900000 1225984.73506532 16182.99926191
0.08000000 1216419.23039900 19213.34264547
0.08100000 1206824.67350026 20781.52185271
0.08200000 1197202.55838066 16395.68980639
0.08300000 1187556.40851287 20948.49602932
0.08400000 1177889.36893227 18021.70819058
0.08500000 1168203.04160935 19590.76592748
0.08600000 1158500.33394959 15118.43006788
0.08700000 1148783.03437986 24262.29882540
0.08800000 1139053.31839685 15206.36251475
0.08900000 1129314.83605267 16770.32610308
0.09000000 1119569.30816124 19866.75830657
0.09100000 1109818.38601548 19910.14278052
0.09200000 1100064.88054732 18415.08696563
0.09300000 1090312.33099176 16910.74504835
0.09400000 1080559.53198105 16937.77145984
0.09500000 1070811.49803196 20045.59218535
0.09600000 1061069.14077711 21613.97941366
0.09700000 1051337.58043014 17000.12947478
0.09800000 1041615.68522509 21655.19111401
0.09900000 1031907.06528723 24765.77073144
0.10000000 1022211.65418145 21681.11020479
0.10100000 1012533.40119460 21688.46647364
0.10200000 1002874.14185631 20142.72808662
0.10300000 993235.11888448 20142.80915851
0.10400000 983619.14802976 23238.00346544
0.10500000 974029.13025713 15487.06389974
0.10600001 964462.03832385 21671.46302086
0.10700001 954926.07500746 17016.78345740
0.10800001 945417.73672051 26277.88722883
0.10900001 935942.37213031 16987.35485369
0.11000001 926500.33882989 18511.47764115
0.11100001 917092.69512341 18488.58960401
0.11200001 907722.21043794 16924.48141037
0.11300001 898389.29940713 19971.19506608
0.11400001 889096.44707618 19937.98876445
0.11500001 879845.23386516 21433.03090619
0.11600001 870636.77510689 19863.57895947
0.11700001 861472.50423913 18297.67685177
0.11800001 852352.87374572 21300.29931811
0.11900001 843279.87947194 22768.55781818
0.12000001 834254.60094958 15141.72172048
0.12100001 825280.62636662 22653.95426095
0.12200001 816356.28640583 22592.66129065
0.12300001 807484.08384293 16521.12513381
0.12400001 798664.48590392 14974.95981628
0.12500001 789898.42823600 14929.08099713
0.12600001 781189.00428323 25298.80709588
0.12700001 772535.12015206 20765.74500830
0.12800001 763938.03145981 19216.86208705
0.12900001 755399.38922677 16203.31766261
0.13000001 746919.84173640 17612.37069830
0.13100001 738499.30957173 21933.43052817
0.13200001 730139.75506769 17479.54656031
0.13300001 721842.46232515 20312.64784743
0.13400001 713606.37728392 21675.79473192
0.13500001 705434.24604631 15829.94522763
0.13600001 697324.76597055 15763.02707800
0.13700001 689280.49378786 19975.34965187
0.13800001 681299.62123574 17046.11732714
0.13900001 673385.26006298 18383.41846665
0.14000001 665536.61147585 18298.92999552
0.14100001 657754.14806945 16812.19681757
0.14200001 650038.28464669 22309.31498130
0.14300001 642390.95382748 26363.72598859
0.14400001 634808.62860699 15187.79715583
0.14500001 627296.35347525 16485.34894698
0.14600001 619851.38782696 16401.26849562
0.14700001 612477.32871107 17676.09654050
0.14800001 605168.62551304 14878.07136017
0.14900001 597930.37285984 18834.80763373
0.15000001 590760.99357359 17394.95827652
0.15100001 583661.17415057 17299.71801811
0.15200001 576631.04513396 14557.05142131
0.15300001 569671.55162025 14475.35480975
0.15400001 562778.94567865 15701.53332541
0.15500001 555957.65469485 13009.40973381
0.15600001 549203.67400858 12933.74713331
0.15700001 542522.74563244 12857.78967834
0.15800001 535907.36400044 14059.53035814
0.15900001 529363.81200240 16516.15171405
0.16000001 522887.27503768 13890.50111704
0.16100001 516482.98916312 22590.96701238
0.16200001 510146.01924028 14967.68491108
0.16300001 503877.57166685 18593.08327225
0.16400001 497678.12152561 14781.04090712
0.16500001 491546.23199602 15911.35228091
0.16600001 485483.56674347 14593.63670532
0.16700001 479486.74235239 15707.98642111
0.16800001 473557.25394654 15606.08004067
0.16900001 467697.11871706 16696.78792659
0.17000001 461901.69010027 11847.77891052
0.17100001 456172.99975715 18830.82231919
0.17200001 450510.71423830 12859.82894521
0.17300001 444914.07179239 11612.25782216
0.17400001 439382.52251306 16147.30846493
0.17500001 433915.51906470 17183.05536648
0.17600001 428511.65179825 12514.68338183
0.17700001 423173.36598439 12428.60234597
0.17800001 417896.56608065 17952.83732677
0.17900001 412683.66094111 13370.95124605
0.18000001 407532.93442257 14383.87559987
0.18100001 402445.65563142 12085.44360949
0.18200001 397416.91778361 12000.00439933
0.18300001 392450.02796486 14081.10766856
0.18400001 387543.01135563 13980.61479511
0.18500001 382696.99441735 11744.97131353
0.18600001 377908.36254778 12720.39608431
0.18700001 373178.23790542 11575.98948673
0.18800001 368505.88204587 11491.85647455
0.18900001 363892.61515229 12445.12802621
0.19000001 359332.12153859 13383.32549905
0.19100001 354832.20723703 11241.08485641
0.19200001 350384.44684083 11157.99323688
0.19300001 345993.95028741 13088.95175786
0.19400001 341655.50080289 11992.10864486
0.19500001 337371.93798555 9918.73544549
0.19600001 333140.56251561 10828.73449630
0.19700001 328961.73591667 11724.19682213
0.19800001 324834.86256369 13574.84954807
0.19900001 320759.19490238 12509.60919240
0.20000001 316732.70648370 13369.28817252
0.20100001 312757.50546348 10424.20814977
0.20200001 308829.85008202 11284.64325535
0.20300001 304952.15328544 11197.84359790
0.20400001 301121.74846256 12037.34246374
0.20500001 297338.29828810 10106.52923652
0.20600001 293601.62690164 10027.96404083
0.20700001 289911.18734635 9949.75242004
0.20800001 286264.97591653 10769.28890305
0.20900001 282665.72267300 11575.16189063
0.21000001 279108.49830447 10600.54126672
0.21100001 275595.53751096 9640.33235786
0.21200001 272124.97347014 11302.71130741
0.21300001 268695.76316481 11212.67472695
0.21400001 265309.38326552 13689.96482371
0.21500001 261964.85037239 10185.19386401
0.21600001 258659.46368652 10945.17572337
0.21700001 255394.52150512 8351.40124807
0.21800001 252168.59274641 14082.35572775
0.21900001 248980.41592955 10681.26034840
0.22000001 245830.19665194 12223.90710649
0.22100001 242719.10158011 8890.80111127
0.22200001 239645.01003420 8817.73856115
0.22300001 236605.70644328 10334.93774613
0.22400001 233602.16769543 9460.88823904
0.22500001 230636.08172925 11727.84531051
0.22600001 227702.57267954 8528.60026301
0.22700001 224805.69443732 8457.19062467
0.22800001 221941.02820860 14484.98189103
0.22900001 219108.85244664 8315.18134358
0.23000001 216310.73775721 8994.20090130
0.23100001 213545.34814643 8917.65416034
0.23200001 210809.96447220 8104.58946743
0.23300001 208106.64185781 8034.99782214
0.23400001 205434.88776945 7241.58013637
0.23500001 202791.61458615 9332.47054464
0.23600001 200179.93064028 8539.67624502
0.23700001 197597.06013849 7759.63691865
0.23800001 195043.21861722 8390.75966179
0.23900001 192517.81237358 7623.70573059
0.24000001 190020.43923947 6869.23920342
0.24100001 187552.00408840 8169.76568453
0.24200001 185110.26611772 8096.72342298
0.24300001 182695.91612050 9361.33918483
0.24400001 180307.48874264 7288.93057721
0.24500001 177945.38453955 9192.65900017
0.24600001 175609.58681271 9108.86969887
0.24700001 173299.42062820 8380.76037804
0.24800001 171014.25786322 6387.38283336
0.24900001 168753.10880654 7593.89025554
0.25000001 166517.45053217 8150.19700187
0.25100001 164304.68244982 6831.78901947
0.25200001 162118.00084582 7382.85410780
0.25300001 159953.97650211 6094.24679305
0.25400001 157813.23391554 6639.99213114
0.25500001 155694.94773351 7174.42353100
0.25600001 153599.87127763 7105.53038148
0.25700001 151526.59316082 7623.30326260
0.25800001 149476.35074182 7549.30345140
0.25900001 147447.81017731 7475.60432970
0.26000001 145440.81059382 6263.40880458
0.26100001 143454.63414500 8456.65108298
0.26200001 141490.67211292 6139.98800687
0.26300001 139546.69877106 6631.25943938
0.26400001 137623.84232096 10394.04118312
0.26500001 135722.06221290 6498.37264625
0.26600001 133839.27207803 6432.31572044
0.26700001 131977.82483663 6366.61057139
0.26800001 130136.39936716 5776.10435924
0.26900001 128313.57041151 6755.70980186
0.27000001 126511.04947357 7714.01160669
0.27100001 124727.45634820 6106.65655179
0.27200001 122964.54221819 6042.47789055
0.27300001 121219.29890341 7473.17013106
0.27400001 119491.41090254 5421.92302629
0.27500001 117784.81500116 5851.54988618
0.27600001 116094.46168927 7235.58766721
0.27700001 114424.36386549 5248.64581891
0.27800001 112771.37102725 7079.22315128
0.27900001 111137.45155470 5601.32782346
0.28000001 109520.15093083 5077.90203824
0.28100001 107921.33922223 4565.07286516
0.28200001 106340.78407719 4965.58314750
0.28300001 104777.31441053 4463.51380515
0.28400001 103231.06702892 4413.12832436
0.28500001 101702.59330202 5671.95389692
0.28600001 100191.04116633 4744.54697900
0.28700001 98696.60094897  5116.43203537
0.28800001 97218.51960634  5900.19223418
0.28900001 95759.10083021  5415.17740827
0.29000001 94314.75809503  4940.20726286
0.29100001 92888.15720911  4475.35162617
0.29200001 91477.85347244  4824.54222051
0.29300001 90084.25150362  4369.98724730
0.29400001 88706.23780629  4317.77632961
0.29500001 87345.69871395  4265.96412713
0.29600001 86000.50191769  3831.32254180
0.29700001 84671.70861354  6812.68599754
0.29800001 83358.76733308  4112.50498106
0.29900001 82062.52653237  5169.93941628
0.30000001 80781.31304182  4741.45939345
0.30100001 79516.80469924  3962.32256574
0.30200001 78266.55003765  4980.10081466
0.30300001 77033.28331343  5620.34861662
0.30400001 75815.39873174  3468.55465618
0.30500001 74612.77034711  4109.67158528
0.30600001 73424.64535075  5071.80761772
0.30700001 72253.03227213  4339.51732371
0.30800001 71096.20089129  3295.30906732
0.30900001 69954.51808735  3252.88524507
0.31000001 68828.19451120  4816.25313895
0.31100001 67716.02048257  3802.93189035
0.31200001 66619.48676787  3127.78505184
0.31300001 65537.25572919  4012.84635829
0.31400001 64471.04613966  3350.88278176
0.31500001 63418.18969209  3306.62456710
0.31600002 62380.59833083  4152.67662750
0.31700002 61357.27615098  4682.78753756
0.31800002 60348.51761481  3465.21204551
0.31900002 59354.21162279  4273.50343919
0.32000002 58374.52908964  3091.80707963
0.32100002 57408.09594995  4436.49786508
0.32200002 56457.38641490  2735.36050132
0.32300002 55518.52353459  2968.02040870
0.32400002 54594.87546292  3726.10042678
0.32500002 53684.79722495  3150.22405033
0.32600002 52788.85026138  3625.01051910
0.32700002 51906.07780112  2809.15706362
0.32800002 51037.64927201  4029.93297735
0.32900002 50182.02272160  4471.21843622
0.33000002 49340.87815563  3674.66207465
0.33100002 48510.58621221  2415.82730777
0.33200002 47696.54114823  3335.41928044
0.33300002 46894.22143113  2349.40060496
0.33400002 46105.49276977  2548.48123353
0.33500002 45328.66279553  3426.84706962
0.33600002 44565.89721518  2478.08683200
0.33700002 43814.84576145  3776.40173502
0.33800002 43077.49749315  2628.58902152
0.33900002 42351.61912310  2591.91921308
0.34000002 41638.94594651  2768.78184184
0.34100002 40938.35251880  2520.16510041
0.34200002 40250.69279342  2070.89824230
0.34300002 39574.00912191  2042.01896740
0.34400002 38910.91843526  2819.09617415
0.34500002 38258.55926326  2581.30511574
0.34600002 37619.30184933  2153.89322939
0.34700002 36989.98201992  2123.96486818
0.34800002 36374.11518204  3046.69603194
0.34900002 35768.81088818  2065.64892663
0.35000002 35175.15580302  2037.16924482
0.35100002 34593.37203740  2009.18314309
0.35200002 34021.56683774  2702.16307407
0.35300002 33461.36005910  2309.83779428
0.35400002 32912.50810416  1927.85025351
0.35500002 32374.43159150  2074.55367464
0.35600002 31846.32120849  1875.90763964
0.35700002 31329.13077095  2691.79904334
0.35800002 30823.22337652  2323.76292042
0.35900002 30327.29292504  2292.74345373
0.36000002 29842.13581119  1615.95173072
0.36100002 29366.11615213  1754.03820085
0.36200002 28901.51382726  2517.90000390
0.36300002 28445.59497779  1708.44251529
0.36400002 27999.77170942  1992.88384582
0.36500002 27563.38276597  1664.55276408
0.36600002 27137.08637950  1643.28634355
0.36700002 26719.63659997  1769.90881222
0.36800002 26312.97889359  2038.99283105
0.36900002 25914.37104525  1438.24766114
0.37000002 25524.64370210  2130.66973396
0.37100002 25144.00472736  1683.64263630
0.37200002 24772.88785134  1801.85608322
0.37300002 24409.82532569  2054.08689846
0.37400002 24055.46040909  1894.36759695
0.37500002 23710.00262291  1738.41747466
0.37600002 23373.02703650  1321.74474153
0.37700002 23043.80837517  1698.55919580
0.37800002 22722.78557699  1550.14850550
0.37900002 22410.25314993  1660.59983708
0.38000002 22105.49745747  1263.32923954
0.38100002 21807.53176382  1499.48595512
0.38200002 21518.35759011  1359.85267233
0.38300002 21235.89803203  1590.14411997
0.38400002 20961.87351299  1452.65790327
0.38500002 20693.75190816  1437.80195069
0.38600002 20434.23016289  1304.82782887
0.38700002 20180.83657969  1526.88216796
0.38800002 19934.64713468  1861.09874466
0.38900002 19694.77180740  1382.57304638
0.39000002 19462.84285668  1255.64536639
0.39100002 19236.10208823  1470.40771329
0.39200002 19016.68980971  1569.44748435
0.39300002 18803.15162700  1222.39294518
0.39400002 18597.34930152  1763.02879731
0.39500002 18396.31903553  1092.74140248
0.39600002 18201.45994117  1300.67638902
0.39700002 18012.50984942  1182.88157785
0.39800002 17829.50876246  1280.51537999
0.39900002 17652.04768116  1376.85978436
0.40000002 17480.10391757  1261.71396055
0.40100002 17313.88444014  1357.23546557
0.40200002 17153.21818458  1347.98571490
0.40300002 16997.18009665  1545.04374399
0.40400002 16846.81405463  1330.47720300
0.40500002 16701.52006910  1118.83488244
0.40600002 16561.12092189  1314.37342424
0.40700002 16425.49810432  1105.76458478
0.40800002 16294.76751044  1499.52605120
0.40900002 16168.43459343  1392.10228445
0.41000002 16047.12746574  1286.09709168
0.41100002 15929.89489768  1181.36106159
0.41200002 15816.91838511  1175.82976846
0.41300002 15708.74676466  1170.61586437
0.41400002 15604.36735782  1165.64629686
0.41500002 15504.26732539  967.46632695
0.41600002 15407.51491604  1252.86213476
0.41700002 15315.09529818  960.25652070
0.41800002 15227.38960631  957.04148211
0.41900002 15141.45098383  1144.69374862
0.42000002 15060.47767406  1141.28305222
0.42100002 14983.07120308  1517.48552335
0.42200002 14909.23373189  1135.18911014
0.42300002 14838.16562126  1321.19032952
0.42400002 14770.32457027  1129.92988317
0.42500002 14706.13085795  1127.66616762
0.42600002 14644.21025471  937.96171126
0.42700002 14586.52451765  1217.39139393
0.42800002 14530.85485140  1215.57872020
0.42900002 14479.26357575  1027.30379938
0.43000002 14429.85180229  1026.17895955
0.43100002 14382.27178833  1863.94251210
0.43200002 14338.46398017  1396.92491947
0.43300002 14296.92010804  1582.24022334
0.43400002 14258.05746304  1674.60892839
0.43500002 14221.29641085  1116.08739521
0.43600002 14187.37536419  1115.97899903
0.43700002 14155.12528256  1208.98930768
0.43800002 14125.10054532  1581.23445548
0.43900002 14097.99819385  1302.65509484
0.44000002 14072.41602177  1023.97940035
0.44100002 14049.31747830  1024.61677225
0.44200002 14027.93884185  1118.58789626
0.44300002 14008.50979265  1119.56015569
0.44400002 13991.42424289  1120.71313497
0.44500002 13974.81142075  1215.38940686
0.44600002 13960.29903563  1123.24571364
0.44700002 13948.62416767  1031.08234734
0.44800002 13936.92034653  938.65162982
0.44900002 13928.37612222  1222.21506265
0.45000002 13920.90062110  1224.27366314
0.45100002 13914.46097272  943.40049866
0.45200002 13909.64658430  1228.70868926
0.45300002 13905.91907743  946.99313405
0.45400002 13903.89344875  1138.72892742
0.45500002 13903.03786540  1521.54853610
0.45600002 13903.26068167  1143.68227788
0.45700002 13904.76793820  1050.78336289
0.45800002 13906.86131842  1244.73368130
0.45900002 13910.26959397  1151.77037697
0.46000002 13915.41670635  962.25111085
0.46100002 13920.28897531  1157.61128605
0.46200002 13927.17969753  1160.69121100
0.46300002 13934.79683971  1066.84809661
0.46400002 13942.54122715  1361.48921536
0.46500002 13951.72745986  1365.31611393
0.46600002 13961.38947642  1271.39399293
0.46700002 13971.43204965  1373.11240692
0.46800002 13983.24812511  1082.09370745
0.46900002 13994.55448135  1183.93936524
0.47000002 14006.88861142  1484.38009095
0.47100002 14019.84584346  992.60513276
0.47200002 14033.48433796  1194.81091316
0.47300002 14047.77469958  1398.31555987
0.47400002 14061.74325253  1402.65895592
0.47500002 14076.61951309  1206.08481705
0.47600002 14092.49227152  1512.47680473
0.47700002 14107.73620352  1517.28710060
