# SAXS profile: number of points = 501, q_min = 0, q_max = 0.5, delta_q = 0.001
#    q    intensity    error
0.00000000 1700912.83420643 255.13692513
0.00100000 1700824.71782326 714.34639845
0.00200000 1700560.33736251 918.30261125
0.00300000 1700119.91526847 1326.09358115
0.00400000 1699503.32761857 1274.62754415
0.00500000 1698711.22958187 1681.72418385
0.00600000 1697743.45241440 2317.41990689
0.00700000 1696600.80527578 2646.69736623
0.00800000 1695283.02137087 2517.49539302
0.00900000 1693791.50356736 3048.82483675
0.01000000 1692125.68265596 3350.40899633
0.01100000 1690287.22275516 3955.27227346
0.01200000 1688275.87148827 3950.56571249
0.01300000 1686093.14004361 3540.79575026
0.01400000 1683739.07075648 6819.14353886
0.01500000 1681215.44453412 6052.37586983
0.01600000 1678521.63895174 5564.29948187
0.01700000 1675660.18015808 5429.13922726
0.01800000 1672631.37339637 5243.69959155
0.01900000 1669436.23920763 5008.30894361
0.02000000 1666075.72568878 5772.95265065
0.02100000 1662552.33503058 5486.42295435
0.02200000 1658864.92694838 6295.39268378
0.02300000 1655016.57555228 6553.86593751
0.02400000 1651007.95713392 7429.53614587
0.02500000 1646841.32795973 6422.68147237
0.02600000 1642517.30357914 8647.85399888
0.02700000 1638037.57950980 8255.70977885
0.02800000 1633403.01004870 7105.30341956
0.02900000 1628616.68295785 10260.28557373
0.03000000 1623679.31777366 7550.10917469
0.03100000 1618592.70841147 10876.94350101
0.03200000 1613357.85749221 11180.57046738
0.03300000 1607979.18941103 9020.76366846
0.03400000 1602455.20492902 10936.75727827
0.03500000 1596789.92592909 12933.99899729
0.03600000 1590983.92403365 8829.96118645
0.03700000 1585040.50245044 9034.73128180
0.03800000 1578961.17126664 13855.38491909
0.03900000 1572748.17413463 11323.78737817
0.04000000 1566402.12302076 12523.38555387
0.04100000 1559926.74324454 10810.29283192
0.04200000 1553324.09461971 11020.83496261
0.04300000 1546595.48381177 12249.03680036
0.04400000 1539743.95370328 12471.92660422
0.04500000 1532772.01814326 13748.96564159
0.04600000 1525680.32399994 13982.86081948
0.04700000 1518472.74514258 17492.80683760
0.04800000 1511151.14469070 16660.44214539
0.04900000 1503718.30432416 13533.46536887
0.05000000 1496175.68595930 11445.74453057
0.05100000 1488527.38500580 13932.61697269
0.05200000 1480772.72856599 14126.57248884
0.05300000 1472917.40438871 15509.82099125
0.05400000 1464962.13997774 15711.71968396
0.05500000 1456910.77208266 14685.66126767
0.05600000 1448763.68974699 18580.39518804
0.05700000 1440526.67320663 16292.35743447
0.05800000 1432198.57026569 13942.45373254
0.05900000 1423783.68768250 19221.08068145
0.06000000 1415285.50232861 20719.78072209
0.06100000 1406705.63383503 13082.36300602
0.06200000 1398046.93420948 15853.85297500
0.06300000 1389312.72611447 17338.62363258
0.06400000 1380502.51515961 18843.86021319
0.06500000 1371622.29709042 19010.68592695
0.06600000 1362674.23909926 16433.85209245
0.06700000 1353658.83255950 16568.78488593
0.06800000 1344580.55244525 13916.40936922
0.06900000 1335443.31076492 15424.37096149
0.07000000 1326246.19313423 18361.87940380
0.07100000 1316993.95155281 15645.88887727
0.07200000 1307689.02020672 21478.79316311
0.07300000 1298334.27457582 17293.81334766
0.07400000 1288932.76501650 20300.69200038
0.07500000 1279485.26353124 16044.74595674
0.07600000 1269995.06019787 24936.35417602
0.07700000 1260465.99090960 16222.19806364
0.07800000 1250899.64408119 25199.37451177
0.07900000 1241297.03024937 20853.79108631
0.08000000 1231664.45835838 14964.72387107
0.08100000 1222002.36075726 21042.88163953
0.08200000 1212311.92254574 24149.25463032
0.08300000 1202597.19765903 15152.72540165
0.08400000 1192860.75520968 19771.66794566
0.08500000 1183104.75241111 18314.46242710
0.08600000 1173331.72931035 19905.57372235
0.08700000 1163543.80229293 19966.41258492
0.08800000 1153742.81015972 20023.20741069
0.08900000 1143932.56334243 15443.09033048
0.09000000 1134114.89558216 17028.73595710
0.09100000 1124291.40402156 17066.74431486
0.09200000 1114464.69066947 26429.53138106
0.09300000 1104638.72101915 17132.94736812
0.09400000 1094811.91712864 15601.07055229
0.09500000 1084989.46381488 18748.61881596
0.09600000 1075172.38192979 20336.88656019
0.09700000 1065365.70809519 21925.22730336
0.09800000 1055567.97009550 23512.77763939
0.09900000 1045783.66135825 17255.43122380
0.10000000 1036011.84444645 23543.37027222
0.10100000 1026256.91771108 23552.59736919
0.10200000 1016520.74575906 17275.77088676
0.10300000 1006804.28752031 18847.37714897
0.10400000 997110.47675685 21986.28704684
0.10500000 987442.62316579 17270.37229173
0.10600001 977797.27912941 17263.01177532
0.10700001 968182.75132504 18821.47357145
0.10800001 958595.60883761 25076.86230735
0.10900001 949041.07754086 18791.01421972
0.11000001 939519.57846548 18771.60206131
0.11100001 930032.25736369 18749.45119105
0.11200001 920581.98873053 17164.25198792
0.11300001 911168.81702394 18697.18500561
0.11400001 901795.63272101 15555.97539688
0.11500001 892463.80962157 20187.53232423
0.11600001 883174.55933260 21699.59994467
0.11700001 873929.40829684 21655.97175748
0.11800001 864728.59509187 16978.94676431
0.11900001 855574.38868574 18480.40766607
0.12000001 846467.66497829 19972.40549596
0.12100001 837411.88282456 15324.63817760
0.12200001 828405.72416891 16812.49496407
0.12300001 819451.76560141 18290.16426995
0.12400001 810550.11802118 15197.81542898
0.12500001 801701.91634493 16667.38362619
0.12600001 792910.24097539 15104.94080238
0.12700001 784174.03450556 18067.37060646
0.12800001 775494.40771320 22508.72624469
0.12900001 766873.42514635 19440.24224372
0.13000001 758311.43016467 17880.98436610
0.13100001 749808.28078574 19300.06605718
0.13200001 741365.94243841 14790.25124886
0.13300001 732986.04069545 14733.02011254
0.13400001 724667.13826450 14674.51024169
0.13500001 716412.38227938 16076.29461632
0.13600001 708220.13728419 16009.31695816
0.13700001 700093.15856180 14491.92906557
0.13800001 692029.41526817 14428.81398874
0.13900001 684032.58491059 17237.62195264
0.14000001 676101.24055504 15729.49610333
0.14100001 668236.11563909 18503.45891472
0.14200001 660437.74742964 15583.02938558
0.14300001 652707.91717559 16918.19001118
0.14400001 645043.16005557 23850.47196808
0.14500001 637448.49610909 16752.14726798
0.14600001 629921.28373920 19445.67094637
0.14700001 622465.03747308 16582.46938059
0.14800001 615074.29529758 15121.60226331
0.14900001 607754.15559819 15041.91606074
0.15000001 600502.94224575 14961.53151198
0.15100001 593321.28288047 18938.81624317
0.15200001 586209.64832610 20180.26809587
0.15300001 579168.72445246 14716.67798280
0.15400001 572194.89051480 17294.59138196
0.15500001 565292.51740311 15873.41463779
0.15600001 558457.54281480 15782.01090478
0.15700001 551695.95491588 18305.27264806
0.15800001 545000.04553045 18197.55237916
0.15900001 538376.01271130 18089.43488093
0.16000001 531819.21998535 12843.43476889
0.16100001 525334.92979441 16595.33121558
0.16200001 518918.21405470 16493.81621234
0.16300001 512570.13268010 17652.91620286
0.16400001 506291.48364909 15036.85777426
0.16500001 500080.47969825 12452.00453236
0.16600001 493938.96837270 13610.48891610
0.16700001 487863.63896359 15982.41356705
0.16800001 481855.76834366 15879.55759554
0.16900001 475917.47462784 14563.07541125
0.17000001 470044.45999187 15673.63325853
0.17100001 464238.12734277 14372.81310124
0.17200001 458498.66580844 13087.84503355
0.17300001 452825.01732139 14182.48021227
0.17400001 447216.97197130 12913.39067552
0.17500001 441673.58173482 12826.20141933
0.17600001 436193.61049438 12739.03499614
0.17700001 430779.58514758 14952.36010668
0.17800001 425427.57278614 18276.36939012
0.17900001 420139.46170860 12478.14260213
0.18000001 414914.03520801 15770.88322319
0.18100001 409752.30277986 19016.60527029
0.18200001 404649.55650338 12218.39393579
0.18300001 399608.99829581 15440.89242357
0.18400001 394628.55147757 15331.31994917
0.18500001 389709.66571189 13047.48022442
0.18600001 384848.43079142 15112.99859117
0.18700001 380045.96351078 12860.75601281
0.18800001 375301.76493749 11703.78609253
0.18900001 370616.96030293 12675.10064123
0.19000001 365985.30734712 13631.12341620
0.19100001 361414.70552859 11449.61841214
0.19200001 356896.64525421 11365.37420515
0.19300001 352436.17008206 12307.07164081
0.19400001 348028.20627957 11197.80806618
0.19500001 343675.41275905 13135.27489636
0.19600001 339375.41542224 11031.39839960
0.19700001 335128.26313170 11943.97186246
0.19800001 330933.44844832 12841.87307393
0.19900001 326790.40568523 11764.45516066
0.20000001 322696.79235395 11675.17049915
0.20100001 318655.02415062 14482.87153214
0.20200001 314661.07773425 10539.57329685
0.20300001 310717.73323343 10458.75939497
0.20400001 306821.94375401 11321.73025965
0.20500001 302973.56373285 10298.07191804
0.20600001 299172.56022504 12076.10096430
0.20700001 295418.15494318 11982.16093088
0.20800001 291708.28576263 10974.06622914
0.20900001 288045.88568916 11795.47957656
0.21000001 284426.02902728 11702.70951754
0.21100001 280850.84993101 9824.16319501
0.21200001 277318.52519733 10632.39275871
0.21300001 273828.11487425 8789.88290301
0.21400001 270380.90143396 8719.78448349
0.21500001 266976.10137843 8650.02609361
0.21600001 263610.78904915 11154.69106599
0.21700001 260286.25488852 12767.04140590
0.21800001 257001.50923682 11819.49996863
0.21900001 253754.91886419 10886.08653398
0.22000001 250546.50636570 9966.74049448
0.22100001 247377.91525371 10708.99045769
0.22200001 244246.73910313 11438.07533304
0.22300001 241150.95243304 8912.93962338
0.22400001 238090.97495429 8839.12786315
0.22500001 235069.49513108 10359.51314030
0.22600001 232080.91867898 8692.59122018
0.22700001 229129.32408087 10970.71255579
0.22800001 226210.36396448 10101.42428053
0.22900001 223324.45258000 8475.16337621
0.23000001 220473.09802188 11459.08981161
0.23100001 217654.99956218 7574.39434298
0.23200001 214867.33114850 7509.61357880
0.23300001 212112.26095673 8934.16885403
0.23400001 209389.09950732 9595.25593873
0.23500001 206694.92938023 7317.00084613
0.23600001 204032.98288745 7978.71017318
0.23700001 201400.12204364 10784.97704554
0.23800001 198797.01303259 9264.93523060
0.23900001 196222.61327579 9889.62017687
0.24000001 193676.77096412 7001.41560152
0.24100001 191160.43266181 7633.03643724
0.24200001 188671.08871890 9627.88611274
0.24300001 186209.69084037 8178.33000857
0.24400001 183774.78308233 7429.09595753
0.24500001 181366.59069848 8030.91301603
0.24600001 178985.21371759 7294.54273013
0.24700001 176629.96711414 6570.63508748
0.24800001 174300.14052293 7161.12161215
0.24900001 171994.82821709 6449.80636326
0.25000001 169715.47877021 6389.78807799
0.25100001 167459.57648043 6962.96951947
0.25200001 165229.91240779 8778.66566154
0.25300001 163023.67626330 7453.44283138
0.25400001 160841.05990646 7382.60499899
0.25500001 158681.34315636 6702.70025204
0.25600001 156545.40839895 8448.75609102
0.25700001 154431.69413432 8367.10958407
0.25800001 152341.46625007 5918.46624384
0.25900001 150273.38505662 7618.86098286
0.26000001 148227.30541609 6383.40920978
0.26100001 146202.48840135 8618.63709906
0.26200001 144200.24500549 8533.04990196
0.26300001 142218.54354175 6758.22550889
0.26400001 140258.43340818 8362.90948768
0.26500001 138319.74584359 6070.85393234
0.26600001 136400.63255087 6555.41471059
0.26700001 134503.16386129 5947.73018739
0.26800001 132626.20407762 6956.90786410
0.26900001 130768.19818029 7414.55718769
0.27000001 128931.01255363 7337.46427165
0.27100001 127113.10578157 6223.45795358
0.27200001 125316.35705625 8210.72810289
0.27300001 123537.84533157 5585.14625175
0.27400001 121776.85768878 6530.28430260
0.27500001 120037.71504499 4969.56163805
0.27600001 118315.30255312 4916.00105374
0.27700001 116613.35712613 7294.16583345
0.27800001 114929.00594833 5290.75703923
0.27900001 113264.19015994 5708.51545423
0.28000001 111616.31279341 6116.01614898
0.28100001 109987.36517877 5582.95892071
0.28200001 108377.09954455 5520.72971209
0.28300001 106784.35483736 9098.02746275
0.28400001 105209.15379967 5397.22984538
0.28500001 103652.13265914 4446.67670154
0.28600001 102112.39287849 4395.93872149
0.28700001 100590.17882640 5214.59511718
0.28800001 99084.63979803  5154.38320627
0.28900001 97598.21720588  4670.07491435
0.29000001 96127.15693831  5035.14071876
0.29100001 94674.28983622  4976.08090933
0.29200001 93238.01294684  6146.71629448
0.29300001 91818.81706675  4454.13102675
0.29400001 90415.63824213  5601.24905424
0.29500001 89030.26796306  4743.53290162
0.29600001 87660.54017805  3905.27724980
0.29700001 86307.55556202  5401.12708275
0.29800001 84970.69941767  3810.93604929
0.29900001 83651.02310890  4517.15546172
0.30000001 82346.61284905  3717.94974614
0.30100001 81059.41626426  4039.19090366
0.30200001 79786.71755954  5802.09037560
0.30300001 78531.23684781  4655.33194073
0.30400001 77291.52940877  3889.69640164
0.30500001 76067.31268762  3491.48981766
0.30600001 74858.09208674  3447.21530380
0.30700001 73665.53248427  3403.34776190
0.30800001 72488.14008574  3695.80799724
0.30900001 71326.21623096  3648.33613294
0.31000001 70179.93988589  3928.67322081
0.31100001 69048.05945738  4847.17400340
0.31200001 67932.17901152  3508.35755116
0.31300001 66830.84770605  3777.27969119
0.31400001 65745.82233242  4970.38440366
0.31500001 64674.52420136  4291.80162921
0.31600002 63618.65842551  3932.58755677
0.31700002 62577.44366483  3581.93304497
0.31800002 61550.93411462  3239.73357052
0.31900002 60539.29063133  3196.47469668
0.32000002 59542.42704346  3727.05839726
0.32100002 58559.17938534  3959.77189753
0.32200002 57591.81318881  3348.38817734
0.32300002 56636.64569789  3853.55755575
0.32400002 55696.73860500  3258.25936268
0.32500002 54770.80575461  3213.95103387
0.32600002 53859.27473063  4491.05583607
0.32700002 52961.13448618  3126.82552813
0.32800002 52077.49914000  3084.02964511
0.32900002 51207.00596902  4055.59506479
0.33000002 50351.18218924  3249.91720830
0.33100002 49506.53137318  2465.42537913
0.33200002 48678.22443349  2431.47742560
0.33300002 47861.90394131  2397.88150101
0.33400002 47059.42364814  2837.68338036
0.33500002 46268.98499456  2331.95695416
0.33600002 45492.94062652  2529.63508333
0.33700002 44728.62970962  2948.06412377
0.33800002 43978.39450537  2907.19190645
0.33900002 43239.75440962  2425.75033726
0.34000002 42514.51890229  3261.92661726
0.34100002 41801.61227082  2358.86509215
0.34200002 41101.82248027  2960.56441346
0.34300002 40413.06018233  2502.37680500
0.34400002 39738.20413341  2673.38780969
0.34500002 39074.26089706  2027.95423660
0.34600002 38423.57901535  3599.90528844
0.34700002 37783.03952408  2563.95718354
0.34800002 37156.03495937  2528.65407892
0.34900002 36539.84545577  2110.17617501
0.35000002 35935.43430818  2270.40084712
0.35100002 35343.10780489  2239.33941658
0.35200002 34760.86217821  3128.99915717
0.35300002 34190.35459053  1815.50791475
0.35400002 33631.38150729  2686.30672513
0.35500002 33083.42959023  2119.98626855
0.35600002 32545.45729698  2265.65211704
0.35700002 32018.56927179  1719.39725133
0.35800002 31503.18590690  2375.02529801
0.35900002 30997.92862359  2343.44351494
0.36000002 30503.51302426  1982.11837020
0.36100002 30018.36896184  2118.99676539
0.36200002 29544.81572579  2091.32988021
0.36300002 29080.02362828  2381.65404797
0.36400002 28625.48477848  2350.86804879
0.36500002 28180.51637581  2165.95459124
0.36600002 27745.76401802  1985.62569600
0.36700002 27319.90064935  1960.47616346
0.36800002 26905.05669281  1935.95344603
0.36900002 26498.37387503  2205.98972959
0.37000002 26100.62634570  1888.24990242
0.37100002 25711.98955317  1721.67490204
0.37200002 25333.13961812  1700.86707453
0.37300002 24962.36279808  1960.54406703
0.37400002 24600.45100839  1522.15297825
0.37500002 24247.46762280  1367.55723871
0.37600002 23903.14017416  1757.23943315
0.37700002 23566.64967450  1469.85200983
0.37800002 23238.37141408  2245.87251171
0.37900002 22918.81978988  1828.92190587
0.38000002 22607.02138220  2067.18613312
0.38100002 22302.16323551  1916.87102090
0.38200002 22006.12819416  1390.67733711
0.38300002 21716.91845686  1501.07347485
0.38400002 21436.24872649  1485.53210712
0.38500002 21161.47936259  1715.34959840
0.38600002 20895.48181403  1334.28105445
0.38700002 20635.64683567  1441.19364328
0.38800002 20383.07040511  1308.28743593
0.38900002 20136.93954344  1531.41432483
0.39000002 19898.76701538  1984.00665926
0.39100002 19665.92172767  1387.62750284
0.39200002 19440.44564579  1260.61575763
0.39300002 19220.85037282  1249.54754194
0.39400002 19009.11261968  1689.43496412
0.39500002 18802.21637928  1451.90721760
0.39600002 18601.47526748  1329.26148559
0.39700002 18406.77304415  1208.77284308
0.39800002 18218.12799211  1090.35501199
0.39900002 18035.00137755  1298.52016071
0.40000002 17857.42586966  1503.77390373
0.40100002 17685.59772718  1279.72991217
0.40200002 17519.54702209  1059.05666766
0.40300002 17358.06539502  1157.08869405
0.40400002 17202.27474189  1254.04588810
0.40500002 17051.70301683  1557.67314439
0.40600002 16905.92570885  1444.94953880
0.40700002 16765.09988289  1641.63865831
0.40800002 16629.19400576  1020.20110059
0.40900002 16497.74561807  1217.53368430
0.41000002 16371.34709193  1110.22295564
0.41100002 16249.04490250  1104.61012481
0.41200002 16131.03321908  1399.04457738
0.41300002 16017.89533802  1293.12475191
0.41400002 15908.54124096  1188.36808701
0.41500002 15803.56365256  1281.98514424
0.41600002 15701.91340591  1375.01662211
0.41700002 15604.72903977  978.41655715
0.41800002 15512.18423179  1169.92899020
0.41900002 15421.45017523  1165.86168849
0.42000002 15335.77588986  1258.99058134
0.42100002 15253.72750429  1062.11709645
0.42200002 15175.21431009  962.86739360
0.42300002 15099.52530553  1056.36284043
0.42400002 15027.14805393  1053.77880722
0.42500002 14958.33570828  1051.42146676
0.42600002 14891.86309303  953.82387631
0.42700002 14829.65977992  1142.47704358
0.42800002 14769.57904187  1235.54919330
0.42900002 14713.55893733  1043.92705607
0.43000002 14659.68468422  947.74865975
0.43100002 14607.69294747  1135.89425742
0.43200002 14559.52673559  1323.89782880
0.43300002 14513.68341510  1322.77716914
0.43400002 14470.53113216  944.20220112
0.43500002 14429.51314643  1226.79726585
0.43600002 14391.31188572  1037.68559269
0.43700002 14354.88571560  1037.42763983
0.43800002 14320.59631437  1414.51696799
0.43900002 14289.32451660  1226.02410163
0.44000002 14259.58731170  1037.59891991
0.44100002 14232.36418617  1037.96636929
0.44200002 14206.90780119  1038.45397494
0.44300002 14183.35827000  1227.99521721
0.44400002 14162.18941167  1228.92404444
0.44500002 14141.51999034  946.06773219
0.44600002 14122.97283492  946.94537346
0.44700002 14107.33561163  1327.21819724
0.44800002 14091.63080966  1138.88565601
0.44900002 14079.21894408  1045.38205614
0.45000002 14067.75271738  1046.85186808
0.45100002 14057.37564504  1239.01714807
0.45200002 14048.76334314  1240.99756873
0.45300002 14041.11207697  1338.67968886
0.45400002 14035.24715729  1053.69623027
0.45500002 14030.59709683  1151.63146429
0.45600002 14027.03221197  1250.01903481
0.45700002 14024.73774262  1348.89934001
0.45800002 14023.13184137  1351.68974225
0.45900002 14022.75747178  1451.35546712
0.46000002 14024.22891648  1454.66321330
0.46100002 14025.41708092  971.96144977
0.46200002 14028.63718365  1461.43334787
0.46300002 14032.58984940  1269.66878975
0.46400002 14036.72781911  1566.49889886
0.46500002 14042.31470450  1079.71362880
0.46600002 14048.39298570  1082.49897282
0.46700002 14054.82192695  1282.64310985
0.46800002 14063.13126026  1088.27546416
0.46900002 14070.94660604  1091.20196102
0.47000002 14079.77101328  1492.10380385
0.47100002 14089.23273684  1296.77304256
0.47200002 14099.45618722  1100.39211029
0.47300002 14110.30467029  1103.56698057
0.47400002 14120.85417773  1106.72199864
0.47500002 14132.35272981  1513.57504910
0.47600002 14144.89486144  1113.27400284
0.47700002 14156.80213962  1015.04276152
