# SAXS profile: number of points = 501, q_min = 0, q_max = 0.5, delta_q = 0.001
#    q    intensity    error
0.00000000 1719190.39626458 283.66641538
0.00100000 1719101.61136892 670.44964436
0.00200000 1718835.22013402 850.82346091
0.00300000 1718391.44924957 1340.34537816
0.00400000 1717770.16869362 1932.49151321
0.00500000 1716972.05879538 2317.91237112
0.00600000 1715996.92559026 1801.79684522
0.00700000 1714845.57884675 2469.37773617
0.00800000 1713517.76462244 2775.89889589
0.00900000 1712014.89547232 3081.62694358
0.01000000 1710336.40484122 3104.26070883
0.01100000 1708483.93573951 3075.27121823
0.01200000 1706457.26521263 3327.59181306
0.01300000 1704257.89775247 3936.83591744
0.01400000 1701885.90761756 4978.01650046
0.01500000 1699342.92671767 4486.26552630
0.01600000 1696628.59779972 5191.68374135
0.01700000 1693745.26872000 6859.66864603
0.01800000 1690693.30593836 7227.71420812
0.01900000 1687473.73695752 6581.14787109
0.02000000 1684087.36693489 7426.82562414
0.02100000 1680537.02943550 6100.34969343
0.02200000 1676821.29077910 6942.04045922
0.02300000 1672943.43224642 6624.85629325
0.02400000 1668903.96461867 6884.22916796
0.02500000 1664705.21399842 9089.29088354
0.02600000 1660347.91359750 7396.85029340
0.02700000 1655833.56094757 8345.40152940
0.02800000 1651163.21937221 10773.84050049
0.02900000 1646339.95274688 9631.08916577
0.03000000 1641364.32349880 9922.04779162
0.03100000 1636238.31387330 7853.94426798
0.03200000 1630962.81153869 12109.89943343
0.03300000 1625542.27327579 9948.31917107
0.03400000 1619975.38326796 12757.30673186
0.03500000 1614265.78342136 8717.03563301
0.03600000 1608414.49908438 12497.38123544
0.03700000 1602424.62011155 10960.58490846
0.03800000 1596297.61465224 14007.51221684
0.03900000 1590035.90504921 10494.23745931
0.04000000 1583640.04169456 11687.26404928
0.04100000 1577113.57852912 10929.39760597
0.04200000 1570458.88620398 14181.24440033
0.04300000 1563677.19438435 12384.32395438
0.04400000 1556771.38555336 17863.95247886
0.04500000 1549744.12832611 11762.55848054
0.04600000 1542596.09832323 13050.36359849
0.04700000 1535331.21552778 14370.70084569
0.04800000 1527951.11340070 12353.48532663
0.04900000 1520458.85921261 13684.13036988
0.05000000 1512855.77230014 15045.35135613
0.05100000 1505146.20367183 12914.15502910
0.05200000 1497329.19358441 13094.14440810
0.05300000 1489410.54566395 15683.49377697
0.05400000 1481390.91210158 14665.77071373
0.05500000 1473274.33002185 13613.05544444
0.05600000 1465061.00694990 15031.52663274
0.05700000 1456757.06849075 13941.16579621
0.05800000 1448361.01959971 14099.79518416
0.05900000 1439877.27750254 14254.78571306
0.06000000 1431309.34999436 14406.12928073
0.06100000 1422659.14509416 21169.16906827
0.06200000 1413929.01865333 17370.11880610
0.06300000 1405122.49803320 14838.09427299
0.06400000 1396239.40681101 16336.00182367
0.06500000 1387285.37348390 13734.12583994
0.06600000 1378262.67878770 18007.00274088
0.06700000 1369172.04992193 19551.77778789
0.06800000 1360017.67970495 22521.89383014
0.06900000 1350803.78890030 22693.50471601
0.07000000 1341529.15311583 15716.01476471
0.07100000 1332198.74561596 15826.52183920
0.07200000 1322814.89272190 15933.30612926
0.07300000 1313380.50895958 14578.52433254
0.07400000 1303898.85518396 17602.63536992
0.07500000 1294370.36460768 17706.98741780
0.07600000 1284798.87474703 23743.08431842
0.07700000 1275187.74987732 19395.60658507
0.07800000 1265538.78862245 16496.29888331
0.07900000 1255853.06054626 22605.35615011
0.08000000 1246136.56490589 18168.67196864
0.08100000 1236390.32130679 21290.64233182
0.08200000 1226615.02298301 15271.35775275
0.08300000 1216814.96245702 21464.61694512
0.08400000 1206992.64926624 18466.98840059
0.08500000 1197150.38824461 20076.21295334
0.08600000 1187290.55931724 17043.55677922
0.08700000 1177415.63238537 23312.83061595
0.08800000 1167526.88772305 17145.13315141
0.08900000 1157628.47226916 17190.78362064
0.09000000 1147722.43600978 17233.05318622
0.09100000 1137810.31386296 17271.96137590
0.09200000 1127894.39914462 18880.95312884
0.09300000 1117979.01009796 18916.20573977
0.09400000 1108062.30478503 20526.85516085
0.09500000 1098149.75564117 20557.36439185
0.09600000 1088242.27950308 17417.31850220
0.09700000 1078344.86925724 20607.17142031
0.09800000 1068455.95453053 19039.88600495
0.09900000 1058580.56447860 22230.19289937
0.10000000 1048717.38515938 17476.87604557
0.10100000 1038870.75503300 19073.66795947
0.10200000 1029042.78123094 15898.71171783
0.10300000 1019234.35308849 25440.09064981
0.10400000 1009447.88152689 30207.72927582
0.10500000 999687.75116029 19074.04318956
0.10600001 989950.01013438 20655.30793336
0.10700001 980242.90594187 28583.88448236
0.10800001 970562.94252238 15868.70485705
0.10900001 960915.55345899 17440.61811613
0.11000001 951301.22295415 20590.91594005
0.11100001 941720.86576029 17403.00241847
0.11200001 932177.73490710 17380.45468556
0.11300001 922671.19656687 18933.21384494
0.11400001 913205.09641678 20478.62525137
0.11500001 903780.03312879 25161.23730710
0.11600001 894397.71777504 15696.68068613
0.11700001 885059.67029627 26631.44673342
0.11800001 875765.74372210 17195.66118787
0.11900001 866518.61570993 21836.27014441
0.12000001 857319.12107133 18672.41133650
0.12100001 848170.19875919 20177.96997903
0.12200001 839071.16407624 20125.12281849
0.12300001 830024.72787634 21613.84493222
0.12400001 821030.42491931 20012.61755035
0.12500001 812089.99157802 18418.20187686
0.12600001 803206.09147674 18361.29211641
0.12700001 794377.74082001 15252.05334252
0.12800001 785606.09971446 18241.77449509
0.12900001 776893.62595339 18179.31170414
0.13000001 768239.97412861 16605.50782349
0.13100001 759645.53777904 15040.98235702
0.13200001 751111.84354317 19480.08658059
0.13300001 742641.05057920 16419.79440238
0.13400001 734231.39323931 17841.82369688
0.13500001 725886.49515699 22212.12779907
0.13600001 717603.84008948 16221.43557008
0.13700001 709387.16512199 14684.31501044
0.13800001 701233.49751145 20469.00675759
0.13900001 693147.64026116 24745.37192427
0.14000001 685127.20515068 15939.48517955
0.14100001 677173.39543345 17308.55280360
0.14200001 669286.65268340 17227.43925261
0.14300001 661468.93652740 17145.27564349
0.14400001 653716.09116428 18483.82334955
0.14500001 646034.30388533 16977.78230698
0.14600001 638420.10127455 15484.88028690
0.14700001 630877.17790926 16806.56881238
0.14800001 623400.20311283 15326.29471660
0.14900001 615994.33240182 16631.84775955
0.15000001 608657.53014716 13786.09370830
0.15100001 601390.78918459 13711.71064040
0.15200001 594194.77526434 27273.54147159
0.15300001 587069.57269990 14917.43854624
0.15400001 580012.06765952 21576.44993515
0.15500001 573026.32577137 14749.69832144
0.15600001 566108.16244068 17331.40221108
0.15700001 559264.35284567 13254.56578802
0.15800001 552486.40747674 14494.48158427
0.15900001 545780.78758076 15718.48742425
0.16000001 539143.01048490 15624.36518136
0.16100001 532577.90298369 20706.62984545
0.16200001 526081.27568418 16721.49413698
0.16300001 519653.32190537 12783.47232235
0.16400001 513295.55446141 16515.28524448
0.16500001 507005.79703467 13886.88943640
0.16600001 500786.32434384 18817.04702563
0.16700001 494633.21068408 12464.75749776
0.16800001 488548.15712007 22292.45346196
0.16900001 482533.17230222 15995.97541712
0.17000001 476584.20899644 13446.82409179
0.17100001 470702.32541215 14572.94468291
0.17200001 464887.62346110 15682.98471806
0.17300001 459139.50147318 19173.66648699
0.17400001 453457.56042098 14283.91382783
0.17500001 447840.68261068 11822.99457929
0.17600001 442287.54404323 16439.82878853
0.17700001 436801.37815326 15161.37655178
0.17800001 431377.62615882 15057.23675226
0.17900001 426018.12542761 18403.98388776
0.18000001 420722.02331924 19418.42590353
0.18100001 415489.99677777 15880.02842696
0.18200001 410317.65625606 13515.86423554
0.18300001 405208.15457843 12302.12015414
0.18400001 400159.08904344 13325.29829464
0.18500001 395172.04471032 19845.54102290
0.18600001 390243.70333445 16419.50459351
0.18700001 385374.36192424 10867.55751970
0.18800001 380564.05210785 10788.99138700
0.18900001 375813.44565883 11781.75207806
0.19000001 371116.63560599 10632.49211248
0.19100001 366481.46911807 12665.60017117
0.19200001 361899.46761273 13620.08710717
0.19300001 357375.68653837 10399.63296968
0.19400001 352904.73457306 15483.69596106
0.19500001 348489.57702618 14343.83166822
0.19600001 344127.94664288 15253.47195577
0.19700001 339819.70593881 10092.64574334
0.19800001 335564.26302435 16026.54995944
0.19900001 331361.29044160 12923.09093797
0.20000001 327208.01618455 10851.85436963
0.20100001 323107.45858253 16643.26597819
0.20200001 319055.07598338 12629.79577973
0.20300001 315054.15335794 11568.78905810
0.20400001 311100.91354256 13392.89496103
0.20500001 307195.94502278 11390.82617985
0.20600001 303338.89546042 10360.54046417
0.20700001 299529.05561343 11214.36837226
0.20800001 295764.01368041 11126.64272062
0.20900001 292046.98181354 10119.42839820
0.21000001 288373.30627591 10039.71713260
0.21100001 284744.91947187 14487.82218762
0.21200001 281159.70358613 10779.66354510
0.21300001 277617.12503043 12476.11418868
0.21400001 274118.33610676 13260.47513607
0.21500001 270662.18629627 8769.45525060
0.21600001 267246.28083120 9568.75353756
0.21700001 263871.37079124 13805.75077253
0.21800001 260537.33692593 9414.51711494
0.21900001 257241.64221621 9337.87205396
0.22000001 253984.58671740 8419.58944778
0.22100001 250768.15149784 10855.75379164
0.22200001 247589.35162025 9938.23704396
0.22300001 244446.56083865 9034.74531581
0.22400001 241339.78784022 9774.26186972
0.22500001 238272.66897346 14539.39894829
0.22600001 235238.68561953 9611.85314894
0.22700001 232242.16461323 10325.48712699
0.22800001 229278.47375003 11026.00232406
0.22900001 226348.61391911 11713.54132426
0.23000001 223453.72550832 8516.93915053
0.23100001 220592.54846174 8444.28315447
0.23200001 217762.35134338 8371.87399333
0.23300001 214965.52502683 8299.81931382
0.23400001 212200.79818204 8976.09418763
0.23500001 209465.44138188 8898.09237075
0.23600001 206762.82966068 8820.50273051
0.23700001 204089.72439254 9471.80455705
0.23800001 201447.10298674 9388.44267876
0.23900001 198833.30413309 7873.79921610
0.24000001 196248.59088090 8513.26427509
0.24100001 193694.02194632 8437.31199508
0.24200001 191166.55713829 8361.62560475
0.24300001 188667.72371309 7595.76291599
0.24400001 186195.91289697 10948.32019624
0.24500001 183751.01271390 10170.61903483
0.24600001 181333.62154039 8062.09319506
0.24700001 178942.48096166 7322.32666734
0.24800001 176577.24891827 8573.70872682
0.24900001 174236.97836555 6533.88699781
0.25000001 171923.27880386 9709.36762978
0.25100001 169633.23844461 7694.56405987
0.25200001 167369.55772285 8892.34502251
0.25300001 165130.20747425 8808.04568339
0.25400001 162914.66299249 8100.93200057
0.25500001 160722.36573233 7406.08696334
0.25600001 158554.32210347 9779.63105004
0.25700001 156408.77797101 7868.92599203
0.25800001 154287.12171292 8391.67694701
0.25900001 152188.12990534 6528.87108185
0.26000001 150111.26871053 7052.22773770
0.26100001 148056.39937588 8146.06347910
0.26200001 146024.07057714 5760.64985684
0.26300001 144012.86916369 6843.49186648
0.26400001 142023.58424064 7339.06906291
0.26500001 140055.89358362 7264.69954394
0.26600001 138108.23510049 7743.72910851
0.26700001 136182.53655011 8211.80734256
0.26800001 134277.99871713 5418.11750463
0.26900001 132392.39677460 6434.27078773
0.27000001 130527.88261138 8489.53388679
0.27100001 128683.13710958 5775.29946678
0.27200001 126859.90883959 6233.89621539
0.27300001 125055.11344856 6167.71848716
0.27400001 123268.22396919 5593.29592730
0.27500001 121503.54548253 5533.27172314
0.27600001 119755.96525291 6468.61876927
0.27700001 118028.85696614 6890.52499579
0.27800001 116319.73700621 6815.17371374
0.27900001 114630.70661077 5777.38788661
0.28000001 112958.78243787 6189.57677663
0.28100001 111306.08265391 6120.72177483
0.28200001 109672.20933245 5586.70260781
0.28300001 108056.40460877 7825.44519215
0.28400001 106458.20775760 5916.41517616
0.28500001 104878.52129275 5399.14653170
0.28600001 103316.37768791 5782.10135098
0.28700001 101772.21681069 4836.21597175
0.28800001 100244.67278822 4345.60677106
0.28900001 98736.82507924  6442.57814137
0.29000001 97244.36256946  5093.65995249
0.29100001 95770.39298344  5453.16643460
0.29200001 94313.42581377  4145.07526072
0.29300001 92873.55300942  4914.86865791
0.29400001 91450.15130278  4451.33632537
0.29500001 90044.73448104  5197.38232027
0.29600001 88655.35918486  5529.43501411
0.29700001 87282.55637953  5071.98959131
0.29800001 85926.43896705  4239.18106712
0.29900001 84587.66912408  4567.73434893
0.30000001 83264.54864707  4511.27345926
0.30100001 81958.79161081  5197.82681002
0.30200001 80667.75523573  4399.61957884
0.30300001 79394.12863241  3982.40968073
0.30400001 78136.49708561  5362.11736635
0.30500001 76894.47952550  4941.23948824
0.30600001 75667.94680864  4181.41093860
0.30700001 74458.05608071  4127.95482455
0.30800001 73263.61161848  4414.49912707
0.30900001 72084.98273568  4022.34222709
0.31000001 70922.13743245  3639.36965465
0.31100001 69773.89681464  5877.75334595
0.31200001 68641.80212694  3545.00603869
0.31300001 67524.48160715  4134.52420456
0.31400001 66423.62319114  4080.07124769
0.31500001 65336.76050731  3716.35511361
0.31600002 64265.62958295  3361.41391449
0.31700002 63209.27535707  3015.08257729
0.31800002 62167.83466850  3569.67723568
0.31900002 61141.24189472  3228.25772490
0.32000002 60130.00148847  3763.83762139
0.32100002 59132.41235466  3712.92434756
0.32200002 58150.81034250  3099.14758395
0.32300002 57181.89904546  3334.84851024
0.32400002 56227.82134737  3015.21706253
0.32500002 55288.32237150  3514.67881958
0.32600002 54363.46462149  4799.75051871
0.32700002 53451.98451643  4470.72419665
0.32800002 52555.31840643  2852.96559479
0.32900002 51671.99378648  3069.31657626
0.33000002 50803.55697768  3783.59508508
0.33100002 49946.40200868  3730.99640673
0.33200002 49105.72689694  2698.11429212
0.33300002 48277.18329800  2660.55569754
0.33400002 47462.88602221  4054.51723045
0.33500002 46660.60111606  3292.37217066
0.33600002 45872.95135862  3942.09226169
0.33700002 45097.09605255  3200.99202940
0.33800002 44335.59606754  2705.35820016
0.33900002 43585.84382306  2889.74158232
0.34000002 42849.65615570  2630.11201939
0.34100002 42126.07488426  2809.38806708
0.34200002 41415.59702381  2983.16559490
0.34300002 40716.29086547  2731.24892061
0.34400002 40031.16262517  2278.77404036
0.34500002 39357.15291939  2451.16359991
0.34600002 38696.61200527  2215.57462529
0.34700002 38046.26938958  2581.81996305
0.34800002 37409.48347600  2741.74117381
0.34900002 36783.84135874  2510.49729164
0.35000002 36170.07151178  2475.66066188
0.35100002 35568.64047335  2441.43159772
0.35200002 34977.37741314  2407.66788827
0.35300002 34397.98819463  2557.14656350
0.35400002 33830.27202535  2341.90069188
0.35500002 33273.83878734  1954.50538294
0.35600002 32727.35611962  1927.80500354
0.35700002 32192.16541999  2247.33517441
0.35800002 31668.83024200  2046.43990717
0.35900002 31155.58634963  2187.12226534
0.36000002 30653.24298267  1825.86050475
0.36100002 30160.53265819  1801.48870100
0.36200002 29679.45601917  1939.25574815
0.36300002 29207.29275110  1913.66191170
0.36400002 28745.56761851  1888.58388199
0.36500002 28293.48535290  2174.63738723
0.36600002 27851.74314927  2146.53394619
0.36700002 27418.93917569  1816.23061703
0.36800002 26997.53508412  1494.31363769
0.36900002 26584.32344105  1770.51602504
0.37000002 26180.23318918  1602.62305059
0.37100002 25785.04052135  1870.44692802
0.37200002 25400.24427841  1847.48685511
0.37300002 25023.46610881  2246.10642433
0.37400002 24655.66516679  1386.88123133
0.37500002 24296.90148900  1644.41437067
0.37600002 23947.05539529  2031.30907013
0.37700002 23605.07072505  1739.92984557
0.37800002 23271.27961348  1455.26953957
0.37900002 22946.53628264  1961.92894511
0.38000002 22629.67391756  1293.28592565
0.38100002 22319.89645655  2046.28820408
0.38200002 22019.11204260  1391.49785145
0.38300002 21725.00633534  1376.49646662
0.38400002 21439.77118241  1238.14684444
0.38500002 21160.35579997  1715.25852240
0.38600002 20890.02183803  1212.66582515
0.38700002 20625.95193389  1200.43045942
0.38800002 20369.20469108  1307.39746504
0.38900002 20119.06447041  1176.96532728
0.39000002 19876.95688080  1748.67536443
0.39100002 19640.28530168  1501.30347959
0.39200002 19411.09041733  1830.85413490
0.39300002 19187.93335167  1247.40760629
0.39400002 18972.67085707  2023.43544277
0.39500002 18762.39723206  1337.38373806
0.39600002 18558.23446601  1105.14291481
0.39700002 18360.33913958  1534.55721799
0.39800002 18168.76060075  1304.88044817
0.39900002 17982.51874747  1834.21699915
0.40000002 17801.98623727  1177.86847520
0.40100002 17627.31456806  1381.80525446
0.40200002 17458.70339469  1055.37867021
0.40300002 17294.51805349  1781.68133429
0.40400002 17136.25852790  1041.02775489
0.40500002 16983.25842607  1241.13658458
0.40600002 16835.03589229  1130.55688891
0.40700002 16691.97449307  1634.47821980
0.40800002 16553.95788298  1320.26097351
0.40900002 16420.45727854  1514.78725572
0.41000002 16292.02517412  1305.72441945
0.41100002 16167.75713430  999.16743824
0.41200002 16047.94087663  1093.58698285
0.41300002 15932.98733290  1286.27012833
0.41400002 15821.85232046  1575.85656579
0.41500002 15715.36524280  1667.08602395
0.41600002 15612.06130006  976.53448059
0.41700002 15513.33975389  1459.02967299
0.41800002 15419.44106203  1066.02310834
0.41900002 15327.32206801  1641.55627127
0.42000002 15240.30858027  1154.91063894
0.42100002 15157.13634253  1151.33613113
0.42200002 15077.44951130  1052.33063851
0.42300002 15000.63781231  1240.25279309
0.42400002 14927.31303009  1237.10112599
0.42500002 14857.42086985  1044.32816243
0.42600002 14789.99503667  1231.48899508
0.42700002 14726.93214256  1040.01599719
0.42800002 14665.99142290  1132.50791134
0.42900002 14609.20872663  1036.52340827
0.43000002 14554.60935577  1129.14664733
0.43100002 14501.87020086  1127.66548026
0.43200002 14453.10794928  1126.47528695
0.43300002 14406.69404024  1031.66340911
0.43400002 14362.96705652  1218.33873830
0.43500002 14321.44813412  1030.28502759
0.43600002 14282.73467684  1029.85663268
0.43700002 14245.97576490  1310.34491295
0.43800002 14211.18738970  1029.38740735
0.43900002 14179.56799116  1403.77729765
0.44000002 14149.54951811  935.99274498
0.44100002 14121.92849781  1217.16907491
0.44200002 14096.28535831  936.69820645
0.44300002 14072.49901494  1030.95132669
0.44400002 14050.99801651  1031.69457825
0.44500002 14030.22154533  1220.20842562
0.44600002 14011.46005353  1127.36212933
0.44700002 13995.74269900  1034.56534934
0.44800002 13979.75095051  1035.68989825
0.44900002 13967.34603115  1131.35508214
0.45000002 13955.76160423  1416.16097590
0.45100002 13945.24794915  1134.58542691
0.45200002 13936.61368863  946.99294502
0.45300002 13928.84599077  948.55445693
0.45400002 13922.98842095  1140.29280572
0.45500002 13918.30914991  1047.21363007
0.45600002 13914.68366962  1335.39225506
0.45700002 13912.35164175  1051.35646339
0.45800002 13910.81917671  1053.53594028
0.45900002 13910.39756457  1343.74446842
0.46000002 13911.93767979  1154.41264338
0.46100002 13913.12429233  1253.43342690
0.46200002 13916.35993885  1256.43861663
0.46300002 13920.33035297  1065.74054233
0.46400002 13924.51869964  1165.48227040
0.46500002 13929.99276805  973.70654064
0.46600002 13936.22108817  976.23233350
0.46700002 13942.53520775  1272.39582337
0.46800002 13950.83332875  981.44117119
0.46900002 13958.70729295  984.08891080
0.47000002 13967.50525858  1480.20643993
0.47100002 13976.98154619  1385.39847652
0.47200002 13987.19054926  1190.86945981
0.47300002 13997.96626028  1094.78099311
0.47400002 14008.41477935  1397.33944047
0.47500002 14019.88233395  1001.01964609
0.47600002 14032.37602706  1405.62317325
0.47700002 14044.21316753  1309.06117139
