# SAXS profile: number of points = 501, q_min = 0, q_max = 0.5, delta_q = 0.001
#    q    intensity    error
0.00000000 1700912.83420644 255.13692513
0.00100000 1700824.52948940 663.32158225
0.00200000 1700559.58552208 994.82738903
0.00300000 1700118.21674325 1326.09225630
0.00400000 1699500.30779325 1657.01286306
0.00500000 1698706.52394191 1681.71952527
0.00600000 1697736.68206155 2139.14830649
0.00700000 1696591.57881779 2443.09197503
0.00800000 1695270.97779568 2517.47750831
0.00900000 1693776.28337310 2540.66453367
0.01000000 1692106.90768887 3350.37182189
0.01100000 1690264.50439584 3346.72386442
0.01200000 1688248.90197438 6254.96245606
0.01300000 1686061.49950117 4602.94809665
0.01400000 1683702.46503779 4924.82992856
0.01500000 1681173.35673842 4841.77948301
0.01600000 1678473.83509562 4280.10847083
0.01700000 1675606.28475869 7238.61947487
0.01800000 1672571.03702658 6673.55873803
0.01900000 1669369.10176306 5008.10753127
0.02000000 1666001.35672307 5247.90451107
0.02100000 1662470.50569103 5486.15291751
0.02200000 1658775.24164160 6295.05232803
0.02300000 1654918.73990281 7149.24928180
0.02400000 1650901.56147569 9286.32170673
0.02500000 1646726.11080657 7064.45533800
0.02600000 1642392.85500444 7982.02964041
0.02700000 1637903.62819752 6879.19555350
0.02800000 1633259.18686482 12077.95224076
0.02900000 1628462.77518153 8793.69938974
0.03000000 1623514.94303269 8304.27931532
0.03100000 1618417.59642466 11652.60723043
0.03200000 1613171.69862239 9582.24033116
0.03300000 1607781.62585288 9019.65533684
0.03400000 1602245.98136171 9252.97096930
0.03500000 1596568.65661438 9483.61825822
0.03600000 1590750.42331936 12360.13136040
0.03700000 1584794.57157477 11743.32831847
0.03800000 1578702.34515584 9235.40914657
0.03900000 1572476.27737572 9434.85810118
0.04000000 1566116.93015439 10594.78152345
0.04100000 1559627.92905782 12773.35333124
0.04200000 1553011.37197849 14023.69333956
0.04300000 1546268.69120195 13266.98598634
0.04400000 1539402.91375478 18703.74627076
0.04500000 1532416.34355624 13745.77524040
0.04600000 1525309.80134301 15054.80843911
0.04700000 1518087.22889932 14209.29712334
0.04800000 1510750.31582933 13324.81840559
0.04900000 1503302.02375532 21422.05483566
0.05000000 1495743.65133799 16019.41525179
0.05100000 1488079.53624748 13928.42510812
0.05200000 1480308.85545498 17652.68392394
0.05300000 1472437.26824986 17890.11364323
0.05400000 1464465.55639872 15706.39382483
0.05500000 1456397.53219782 13457.11382527
0.05600000 1448233.57603891 17335.35671413
0.05700000 1439979.70602252 12527.82402718
0.05800000 1431634.50572360 17737.95235414
0.05900000 1423202.34755378 14089.70389885
0.06000000 1414686.72745633 15533.26099317
0.06100000 1406089.48230240 14384.29607615
0.06200000 1397413.10239548 14526.10987840
0.06300000 1388661.01678592 18663.60493823
0.06400000 1379832.98725448 17489.38393137
0.06500000 1370934.76284114 19001.15670181
0.06600000 1361968.48051388 13687.78386960
0.06700000 1352934.99593869 15179.93136484
0.06800000 1343838.49215109 15299.60194930
0.06900000 1334682.92091207 15415.58845828
0.07000000 1325467.40204207 18351.09704063
0.07100000 1316196.74997891 14214.92556557
0.07200000 1306873.16808260 14310.26186089
0.07300000 1297499.71245732 15842.47223141
0.07400000 1288079.53366814 17389.07451944
0.07500000 1278613.36509750 17491.43165440
0.07600000 1269104.51821036 16123.97365976
0.07700000 1259556.79810464 16210.49675169
0.07800000 1249971.71213498 17774.59858012
0.07900000 1240350.35817731 19349.46649513
0.08000000 1230699.06176672 17943.59316231
0.08100000 1221018.29169422 15018.52569248
0.08200000 1211309.05657364 15080.79846201
0.08300000 1201575.65158638 18167.82470464
0.08400000 1191820.56422673 16715.28419787
0.08500000 1182045.81830887 16773.23094922
0.08600000 1172254.16656352 18357.50111030
0.08700000 1162447.79454241 19947.60509104
0.08800000 1152628.18414692 18465.10437722
0.08900000 1142799.45938531 15427.79342634
0.09000000 1132963.44352992 17011.44690372
0.09100000 1123121.78864457 15499.08141146
0.09200000 1113276.74777329 18636.25363338
0.09300000 1103432.73246875 18670.08271072
0.09400000 1093587.96406905 18700.35506445
0.09500000 1083747.52346685 17166.56157859
0.09600000 1073912.66118306 25000.68792757
0.09700000 1064088.27343436 15642.09835486
0.09800000 1054272.81843363 21918.33292578
0.09900000 1044471.15085417 21933.89519932
0.10000000 1034682.00695339 21945.60639952
0.10100000 1024909.95499169 23521.68457333
0.10200000 1015156.72375411 15684.17211973
0.10300000 1005423.40635420 23526.90881541
0.10400000 995712.63043754 17250.72213389
0.10500000 986028.32639688 18813.42135281
0.10600001 976366.62800647 20371.89065192
0.10700001 966735.77443912 17227.23231118
0.10800001 957132.56673382 18778.94184309
0.10900001 947562.29213182 23452.16783405
0.11000001 938025.14034839 21865.36705071
0.11100001 928522.23919156 17159.09178800
0.11200001 919056.80649409 17135.81496379
0.11300001 909628.36406253 17110.11033357
0.11400001 900240.34115866 17082.06127778
0.11500001 890893.83443607 17051.70879404
0.11600001 881590.06055954 18566.28754970
0.11700001 872330.72295580 15440.25452348
0.11800001 863115.90371139 21569.26744962
0.11900001 853947.88306453 24593.70019066
0.12000001 844827.74251679 18400.34909876
0.12100001 835758.41127599 21412.13150558
0.12200001 826739.11936920 18304.00496516
0.12300001 817772.44354342 15210.56816654
0.12400001 808858.22808760 16682.70174035
0.12500001 799997.68136468 19655.94395733
0.12600001 791194.01801617 18086.69610416
0.12700001 782445.90828327 18027.55457642
0.12800001 773754.66324302 14972.15343938
0.12900001 765122.49596540 14919.88937453
0.13000001 756549.42740360 19326.05603396
0.13100001 748035.58066921 19254.43675403
0.13200001 739582.71314426 26558.41648098
0.13300001 731192.56089613 19106.06251693
0.13400001 722863.76521303 16101.79112925
0.13500001 714599.47442817 16035.61296222
0.13600001 706397.73541381 15968.12156194
0.13700001 698261.60079395 15899.41739979
0.13800001 690189.00346820 25902.79452163
0.13900001 682183.75802317 15758.44555347
0.14000001 674244.14470210 17112.31719957
0.14100001 666371.21390179 22709.93204084
0.14200001 658565.08658480 22601.95483762
0.14300001 650827.96597240 15463.67320089
0.14400001 643155.92582261 15387.50625113
0.14500001 635554.59150458 18094.24007368
0.14600001 628020.96482489 15232.64922042
0.14700001 620558.38811423 17909.31592588
0.14800001 613161.80748867 17815.41715709
0.14900001 605836.19666268 13631.31506805
0.15000001 598579.58006183 18980.95937934
0.15100001 591392.85873950 20225.63672324
0.15200001 584276.66446600 17431.89510690
0.15300001 577231.10358083 17334.25085852
0.15400001 570253.29310834 15910.06762853
0.15500001 563347.12311499 15818.78796360
0.15600001 556508.44620914 14416.35197943
0.15700001 549743.70807419 22149.17504368
0.15800001 543044.83743604 15541.94398098
0.15900001 536418.27055923 15448.84692130
0.16000001 529859.13017290 12796.09859768
0.16100001 523372.46434672 12717.95148397
0.16200001 516954.13708987 16431.38802306
0.16300001 510604.51265864 15073.04592525
0.16400001 504324.56862925 18723.05049427
0.16500001 498112.58318593 18604.50586034
0.16600001 491970.47187990 18485.79135366
0.16700001 485894.78754380 15917.91399149
0.16800001 479886.59105700 13381.63822346
0.16900001 473948.54488472 19337.10154436
0.17000001 468076.11769526 13206.76828439
0.17100001 462270.40007936 13119.23457376
0.17200001 456531.87032750 14216.40311334
0.17300001 450859.43983079 11767.43193529
0.17400001 445252.89045424 14025.46671168
0.17500001 439711.31682707 12769.21724372
0.17600001 434233.20645825 12681.78139356
0.17700001 428821.50478397 14884.39513405
0.17800001 423472.22269412 13644.27565965
0.17900001 418186.82460764 15807.46271681
0.18000001 412964.42302940 13454.38153782
0.18100001 407805.88693781 14473.03161108
0.18200001 402706.59175506 17686.87434537
0.18300001 397669.76209098 14268.39173785
0.18400001 392693.30528503 13076.68768374
0.18500001 387778.44956294 11900.92117931
0.18600001 382921.84059515 12889.14976336
0.18700001 378123.92537812 11729.40471938
0.18800001 373384.63102601 11644.00026868
0.18900001 368704.89605189 12609.70804075
0.19000001 364078.60363450 12517.02298437
0.19100001 359513.43503654 12424.78490193
0.19200001 355001.05124054 12332.73710283
0.19300001 350546.54489394 16321.44790149
0.19400001 346144.68290944 11137.20569889
0.19500001 341797.99261592 16078.17833243
0.19600001 337504.55258048 12965.23800007
0.19700001 333264.09641994 15836.71061028
0.19800001 329075.97545427 9822.91833153
0.19900001 324940.06975963 16571.94434093
0.20000001 320853.46743151 9673.73250025
0.20100001 316819.08305627 14399.42800546
0.20200001 312832.55594519 9525.75177875
0.20300001 308897.01106855 12287.92368109
0.20400001 305008.98710884 12192.73483597
0.20500001 301168.49292666 9306.10687130
0.20600001 297375.45543579 12926.91165882
0.20700001 293629.37048967 9161.23679232
0.20800001 289927.77437420 14542.77785005
0.20900001 286273.71497258 10821.14693749
0.21000001 282662.57605254 12524.77933696
0.21100001 279096.12083994 10650.30847473
0.21200001 275572.62956412 9685.00052388
0.21300001 272091.33936995 9607.54564735
0.21400001 268653.23193705 11263.28728145
0.21500001 265257.48490684 13750.94866768
0.21600001 261901.47361627 10229.87204311
0.21700001 258586.04863166 8455.76419004
0.21800001 255310.90695021 11741.74916580
0.21900001 252073.86172286 9982.12539620
0.22000001 248875.11405668 11550.29458950
0.22100001 245716.25147905 10637.05702949
0.22200001 242594.66349037 10549.22944069
0.22300001 239508.78144642 9656.99452455
0.22400001 236458.55616224 9576.57197741
0.22500001 233447.14547851 8705.24446654
0.22600001 230468.47759030 7847.45203304
0.22700001 227526.94217892 7781.42179050
0.22800001 224618.04708401 9258.75633865
0.22900001 221742.26624934 9180.13025686
0.23000001 218900.89689608 9860.39136700
0.23100001 216093.03470261 9776.04935228
0.23200001 213315.62875661 8200.91973540
0.23300001 210570.89086997 8130.14248100
0.23400001 207857.99420778 8792.39357083
0.23500001 205174.15019605 7989.48178651
0.23600001 202522.40649843 8639.60626985
0.23700001 199899.75656876 9277.34814116
0.23800001 197307.08790770 7780.80537966
0.23900001 194742.89279825 8412.89336681
0.24000001 192207.38463639 9032.78646824
0.24100001 189701.38902782 8263.39289692
0.24200001 187222.34959262 7506.68046200
0.24300001 184771.09802383 8791.40925983
0.24400001 182346.53786561 10051.85337533
0.24500001 179948.55623692 9296.14285495
0.24600001 177577.26590380 6579.23801297
0.24700001 175232.24248489 12385.41548474
0.24800001 172912.56448793 8395.76996589
0.24900001 170617.30768334 6398.14934081
0.25000001 168348.24611558 9507.46764916
0.25100001 166102.40162858 8162.27240218
0.25200001 163882.47220393 7463.20813725
0.25300001 161686.39177739 6776.27699998
0.25400001 159513.57800668 6711.53411216
0.25500001 157363.71493614 7251.32032733
0.25600001 155237.63323402 7779.73435760
0.25700001 153133.60815630 10667.28764887
0.25800001 151053.05633429 7042.09381949
0.25900001 148994.63446821 8716.18652879
0.26000001 146958.11997508 6904.09280310
0.26100001 144942.89784073 7974.75861653
0.26200001 142949.98643293 7331.19040110
0.26300001 140977.69203483 6140.98855561
0.26400001 139026.78689805 6078.94654476
0.26500001 137097.30045058 5470.18254682
0.26600001 135187.29673673 8662.80238481
0.26700001 133298.87234616 5894.47641407
0.26800001 131431.09032426 8485.19159286
0.26900001 129581.87049240 6297.67920395
0.27000001 127753.47672669 5712.49698216
0.27100001 125944.31427340 7707.79239829
0.27200001 124156.17317646 5592.61508540
0.27300001 122386.25537749 7545.11300109
0.27400001 120633.75440913 5971.37112585
0.27500001 118903.07239471 6891.62240215
0.27600001 117189.03788669 5356.12523010
0.27700001 115495.16060619 6260.99295277
0.27800001 113818.88398898 7144.98078056
0.27900001 112162.19267376 6124.05600983
0.28000001 110522.25651261 5124.36466574
0.28100001 108901.20974855 5988.47780750
0.28200001 107298.74384364 4554.83189174
0.28300001 105713.65706418 4503.40200408
0.28400001 104145.95659711 4897.46384078
0.28500001 102596.45502857 6602.08219357
0.28600001 101064.08862229 4350.80922112
0.28700001 99549.27251660  6450.79316441
0.28800001 98050.77611000  4675.55148011
0.28900001 96571.60187023  7561.55678436
0.29000001 95107.49630996  4151.44241044
0.29100001 93661.46192573  4922.84667184
0.29200001 92232.13147515  5269.68308127
0.29300001 90819.56869498  4806.17180284
0.29400001 89423.01217712  6331.14956183
0.29500001 88044.24574633  6254.66351390
0.29600001 86681.03508856  6950.95253279
0.29700001 85334.27036931  6103.10730572
0.29800001 84003.70847293  5274.59310471
0.29900001 82690.15503393  4837.37429848
0.30000001 81391.86119615  5512.26406046
0.30100001 80110.75688855  4354.82095062
0.30200001 78843.90963386  5375.18379375
0.30300001 77594.32162433  3892.13135693
0.30400001 76360.39755167  4890.88369473
0.30500001 75141.72081571  4828.60720821
0.30600001 73938.13363813  4085.82145828
0.30700001 72751.03288830  4705.53702999
0.30800001 71578.98074231  3981.22309737
0.30900001 70422.49281283  3274.64607083
0.31000001 69281.53880089  3555.18233189
0.31100001 68154.87497064  3508.61312960
0.31200001 67044.00153153  4406.80242931
0.31300001 65947.69626494  3727.36396937
0.31400001 64867.48104183  4597.48293652
0.31500001 63801.12404652  3326.59076529
0.31600002 62750.08928833  3282.14357563
0.31700002 61713.67072345  3238.11645618
0.31800002 60691.80004209  3194.51304647
0.31900002 59684.70912992  3151.35279127
0.32000002 58692.44778563  3391.24979363
0.32100002 57713.72545599  3902.60230012
0.32200002 56750.64802100  3024.52592949
0.32300002 55800.09652965  3254.26178370
0.32400002 54864.31905308  3744.48995268
0.32500002 53942.60436319  2901.57282609
0.32600002 53035.29128295  2601.38116061
0.32700002 52141.21536764  3591.48708459
0.32800002 51261.76265934  3288.69853914
0.32900002 50395.33011014  3492.39654201
0.33000002 49543.50795275  2705.81881497
0.33100002 48702.80571354  2667.93982333
0.33200002 47878.49130665  2869.83690482
0.33300002 47065.98910269  2829.60739885
0.33400002 46267.38127514  2324.93601917
0.33500002 45480.80362852  2979.90239486
0.33600002 44708.48098027  3842.02349498
0.33700002 43947.90958188  2450.97503345
0.33800002 43201.36614576  2416.46852980
0.33900002 42466.49088905  2382.37025170
0.34000002 41744.94415683  2775.83019317
0.34100002 41035.67796891  2315.64341745
0.34200002 40339.40178003  2283.00855186
0.34300002 39654.24308538  3273.85446418
0.34400002 38982.92755435  2420.83991578
0.34500002 38322.65394646  2784.52416763
0.34600002 37675.54346816  2157.11334343
0.34700002 37038.58663170  2126.75574512
0.34800002 36414.96773454  2859.48547678
0.34900002 35802.32225946  2443.50860994
0.35000002 35201.39745618  2409.35976300
0.35100002 34612.67254937  2193.05903660
0.35200002 34033.84650828  2162.51070956
0.35300002 33466.87958689  1777.09139023
0.35400002 32911.31767787  1752.52774935
0.35500002 32366.88526471  1901.23093050
0.35600002 31832.33370853  1875.08370591
0.35700002 31308.98967942  1849.42210796
0.35800002 30797.17449021  1990.11350982
0.35900002 30295.43590158  2126.73970103
0.36000002 29804.45145699  2905.04002111
0.36100002 29322.98910164  2229.13373709
0.36200002 28852.90785827  1885.24908876
0.36300002 28391.72149110  2325.28210026
0.36400002 27940.75860726  2294.63490931
0.36500002 27499.48067718  1660.69371676
0.36600002 27068.23407904  1788.12762796
0.36700002 26645.96299658  1617.94294979
0.36800002 26234.82535866  1597.30741762
0.36900002 25831.85353974  1720.40152724
0.37000002 25437.84004075  1557.17745186
0.37100002 25052.71382793  1817.32394716
0.37200002 24677.66287572  1794.92989429
0.37300002 24310.70700340  1500.21380025
0.37400002 23952.60578173  1751.53438076
0.37500002 23603.44826002  1730.60490841
0.37600002 23263.08341729  1578.63291548
0.37700002 22930.44968476  1430.17221459
0.37800002 22605.96870164  1413.66431973
0.37900002 22290.34382924  1524.65959015
0.38000002 21982.63835968  1381.93862595
0.38100002 21681.84161594  1490.84350014
0.38200002 21389.92827481  1474.62172512
0.38300002 21104.71670568  1215.63173984
0.38400002 20828.16365429  1202.82650802
0.38500002 20557.52524465  1428.33692166
0.38600002 20295.62793269  1178.16125731
0.38700002 20040.15025175  1749.50519986
0.38800002 19791.83585011  1270.33904422
0.38900002 19549.99343770  1601.14453840
0.39000002 19316.14458985  1246.18112725
0.39100002 19087.76331301  1459.06869677
0.39200002 18866.70408128  1223.41148411
0.39300002 18651.65108926  1322.77515792
0.39400002 18444.32651460  1202.10903754
0.39500002 18241.97338118  1408.64525123
0.39600002 18045.75311140  1289.54957844
0.39700002 17855.65319163  1385.77730986
0.39800002 17671.77702047  1269.18708574
0.39900002 17493.27403618  1049.59649190
0.40000002 17320.36397903  1771.09390259
0.40100002 17153.34368219  1137.78134035
0.40200002 16992.11794265  1027.17357830
0.40300002 16835.45020917  1632.36532962
0.40400002 16684.54109068  1317.66169507
0.40500002 16538.93844720  1208.66567899
0.40600002 16398.04343009  1001.10059884
0.40700002 16262.23489958  995.24882301
0.40800002 16131.34476224  1187.58965767
0.40900002 16004.96924007  1082.73622039
0.41000002 15883.65490618  1272.99558277
0.41100002 15766.50409814  1266.68099926
0.41200002 15653.65743485  1454.61618606
0.41300002 15545.76035577  1158.47011660
0.41400002 15441.51335382  1153.48110219
0.41500002 15341.82906557  1148.79621486
0.41600002 15245.45533516  1048.96360404
0.41700002 15153.53615225  1520.20281883
0.41800002 15066.37387546  1325.69030012
0.41900002 14981.02525922  1132.56556326
0.42000002 14900.60586588  1035.07063552
0.42100002 14824.15120451  1219.87946042
0.42200002 14751.06242323  1310.33693715
0.42300002 14680.79349767  1027.06836176
0.42400002 14613.96578164  1770.11668918
0.42500002 14550.65064444  1208.72260631
0.42600002 14489.69961865  1020.87183501
0.42700002 14433.08891256  1111.92522251
0.42800002 14378.56241460  1202.83869579
0.42900002 14328.14827812  924.16560773
0.43000002 14279.88098546  1107.83321935
0.43100002 14233.45240409  922.32775949
0.43200002 14190.96228940  921.70304437
0.43300002 14150.80442281  1013.33915274
0.43400002 14113.22054124  1012.97645235
0.43500002 14077.94025642  1104.83680368
0.43600002 14045.39579106  1104.81088528
0.43700002 14014.70680898  1104.91953718
0.43800002 13986.06267535  1105.17872498
0.43900002 13960.49970743  1382.08953653
0.44000002 13936.49494056  921.89918401
0.44100002 13914.88293162  1199.32381671
0.44200002 13895.13115581  1200.33096178
0.44300002 13877.38602629  1386.35092973
0.44400002 13861.77586843  1110.32829968
0.44500002 13846.85766970  1482.16771521
0.44600002 13834.03487024  1113.08649841
0.44700002 13824.08468477  1114.77424181
0.44800002 13813.99761904  1023.41006211
0.44900002 13807.39334055  1118.39891359
0.45000002 13801.50807813  1120.40647888
0.45100002 13796.75524863  1028.96205521
0.45200002 13793.78539562  1218.47409067
0.45300002 13791.73189681  1033.13868535
0.45400002 13791.55364949  1035.40093931
0.45500002 13792.46776599  1132.08580789
0.45600002 13794.48171717  1323.85647314
0.45700002 13797.74029437  947.90480315
0.45800002 13801.71639532  1045.27304074
0.45900002 13806.84008248  1333.74081518
0.46000002 13813.82198101  1146.27100231
0.46100002 13820.54523405  1340.86936216
0.46200002 13829.13813765  1344.60716485
0.46300002 13838.59410636  1155.79943454
0.46400002 13848.12669062  1159.08825894
0.46500002 13859.00712971  968.74464428
0.46600002 13870.50617155  1457.44350505
0.46700002 13882.19008873  1071.98276946
0.46800002 13895.72829313  1075.32098493
0.46900002 13908.86730264  1372.80526784
0.47000002 13922.91113366  1180.38446186
0.47100002 13937.61158474  1578.85271515
0.47200002 13952.91491672  1187.95123231
0.47300002 13968.83004667  1390.45740875
0.47400002 13984.46275850  1494.58952815
0.47500002 14001.00031514  1299.57291085
0.47600002 14018.46419422  1103.32327670
0.47700002 14035.37255969  1308.23713830
