# SAXS profile: number of points = 501, q_min = 0, q_max = 0.5, delta_q = 0.001
#    q    intensity    error
0.00000000 1700912.83420644 280.65061764
0.00100000 1700824.54895439 561.27211448
0.00200000 1700559.65495145 765.25186896
0.00300000 1700118.38374219 1428.09949322
0.00400000 1699500.59818970 1784.47569591
0.00500000 1698706.97802823 2140.37087703
0.00600000 1697737.32874885 1960.88669454
0.00700000 1696592.46741855 3461.04877738
0.00800000 1695272.12827046 2288.61746979
0.00900000 1693777.73005434 2794.73337406
0.01000000 1692108.70825964 3071.17743810
0.01100000 1690266.69884459 3650.97622847
0.01200000 1688251.46943993 4279.71766267
0.01300000 1686064.52351535 3540.73565555
0.01400000 1683705.96198369 5682.50787361
0.01500000 1681177.39576854 4841.79111541
0.01600000 1678478.41401785 5992.16820591
0.01700000 1675611.46961655 4976.56628800
0.01800000 1672576.84477248 5720.21306652
0.01900000 1669375.57239104 5508.93963747
0.02000000 1666008.52595454 5772.71980357
0.02100000 1662478.37119885 6583.41464843
0.02200000 1658783.86710459 6867.36552181
0.02300000 1654928.19059037 8340.83846024
0.02400000 1650911.84683514 6190.91970792
0.02500000 1646737.21943168 6422.27544909
0.02600000 1642404.92469383 7316.91427417
0.02700000 1637916.56212173 7567.17486359
0.02800000 1633273.14606119 8525.68621342
0.02900000 1628477.72048286 9526.59510223
0.03000000 1623530.85686956 9059.30259775
0.03100000 1618434.59031067 10099.03230823
0.03200000 1613189.79613920 7985.28985868
0.03300000 1607800.81799052 10659.71991470
0.03400000 1602266.38173902 8411.89889226
0.03500000 1596590.21779701 9483.74633166
0.03600000 1590773.17685279 9711.67069350
0.03700000 1584818.52993069 14453.54566141
0.03800000 1578727.61247415 11082.66835247
0.03900000 1572502.88585600 10378.51952728
0.04000000 1566144.83166332 14447.68674159
0.04100000 1559657.21466410 10808.42499877
0.04200000 1553042.09366450 13022.25855952
0.04300000 1546300.84851147 13267.26189607
0.04400000 1539436.40112763 18704.15314236
0.04500000 1532451.37073997 11631.30644436
0.04600000 1525346.37016928 19356.64633728
0.04700000 1518125.38069865 18581.85552395
0.04800000 1510790.01034333 16656.46063903
0.04900000 1503343.22512756 12402.58218461
0.05000000 1495786.53233279 14875.59775675
0.05100000 1488124.19902238 12768.10622240
0.05200000 1480355.04402744 11768.82314846
0.05300000 1472485.22532974 13119.84396931
0.05400000 1464515.22573432 16915.15164605
0.05500000 1456448.88466501 18351.25680285
0.05600000 1448286.73148459 23527.41905085
0.05700000 1440034.62481350 17539.62254895
0.05800000 1431691.24462734 16471.60853854
0.05900000 1423260.97803231 14090.28434062
0.06000000 1414747.21166765 16828.41886899
0.06100000 1406151.82426394 19615.81886516
0.06200000 1397477.29939770 19809.24164492
0.06300000 1388727.12457808 13331.78101928
0.06400000 1379901.01728736 14799.43910253
0.06500000 1371004.87708710 14930.24380988
0.06600000 1362040.59272793 15057.35945712
0.06700000 1353009.12637641 22081.10997584
0.06800000 1343914.46873062 15300.46694270
0.06900000 1334761.01186115 19620.98779299
0.07000000 1325547.58537873 19763.91542351
0.07100000 1316279.06880599 15637.39606984
0.07200000 1306957.61877927 14311.18659607
0.07300000 1297586.31892293 15843.52969641
0.07400000 1288168.24098329 18839.46140728
0.07500000 1278704.16439547 18950.39660459
0.07600000 1269197.40864558 17591.07690851
0.07700000 1259651.84771606 16211.72004025
0.07800000 1250069.00040941 16294.65018449
0.07900000 1240449.91393426 16373.93963193
0.08000000 1230800.69725391 19440.49792510
0.08100000 1221122.14886643 16521.78344934
0.08200000 1211415.31450570 27147.81847199
0.08300000 1201683.97904209 22711.82826981
0.08400000 1191931.24871226 21275.97378818
0.08500000 1182158.86917193 18299.82015387
0.08600000 1172369.53084327 19889.25002459
0.08700000 1162565.41529879 19949.62346332
0.08800000 1152748.09648385 18467.02537295
0.08900000 1142921.66536824 21601.22049006
0.09000000 1133087.95158402 18559.98151881
0.09100000 1123248.58242871 21701.16363207
0.09200000 1113406.06241450 17085.21683053
0.09300000 1103564.28061297 26452.43704935
0.09400000 1093721.72120125 17144.08878556
0.09500000 1083883.78362715 31215.85443569
0.09600000 1074051.31059476 18752.93676452
0.09700000 1064229.18888916 20337.42075579
0.09800000 1054416.31011067 25052.93270616
0.09900000 1044616.81151356 17236.17820046
0.10000000 1034830.22075165 18813.21429800
0.10100000 1025060.43168946 20388.45294521
0.10200000 1015309.54388322 15686.53319083
0.10300000 1005578.76743580 17255.73246092
0.10400000 995870.39333258 17253.45537618
0.10500000 986188.24627023 15680.39385345
0.10600001 976529.01749001 20375.27890866
0.10700001 966900.71646265 18796.55081256
0.10800001 957299.74786959 18782.22193712
0.10900001 947731.81034868 20328.84828877
0.11000001 938197.10624688 18745.17906514
0.11100001 928696.55791594 23403.15436115
0.11200001 919233.50444651 15581.00863388
0.11300001 909807.36081882 17113.47726272
0.11400001 900421.84237376 18638.73301473
0.11500001 891077.64453144 23257.12761740
0.11600001 881776.33606069 18570.21051194
0.11700001 872519.36514558 24709.74958463
0.11800001 863306.85242252 20033.03645399
0.11900001 854141.16583146 18449.45005096
0.12000001 845023.33111820 18404.60901870
0.12100001 835956.42897974 22947.00505648
0.12200001 826939.46415882 18308.44059901
0.12300001 817975.08485957 19778.63848376
0.12400001 809063.02331480 18203.91888231
0.12500001 800204.90177339 21173.42269863
0.12600001 791403.55150380 15076.23836659
0.12700001 782657.70795735 15027.02870095
0.12800001 773968.89733947 14976.29886934
0.12900001 765338.91761509 16416.52055659
0.13000001 756768.00187247 14870.49193771
0.13100001 748256.46515384 26667.86167514
0.13200001 739805.77519352 23614.60145738
0.13300001 731417.86216702 16171.64969489
0.13400001 723091.21222705 14642.59773793
0.13500001 714829.16092733 16040.76712750
0.13600001 706629.52465305 20329.73238283
0.13700001 698495.75101225 21688.29409160
0.13800001 690425.28246251 18713.97816362
0.13900001 682422.15890767 17197.03921545
0.14000001 674484.58804522 19971.48959389
0.14100001 666613.70398186 17038.64707737
0.14200001 658809.65459539 14131.46775759
0.14300001 651074.72166867 16875.85758165
0.14400001 643404.62861350 18192.26673217
0.14500001 635805.34854572 15316.55156898
0.14600001 628273.81028439 18009.46962139
0.14700001 620813.26791631 13782.05519793
0.14800001 613418.58604059 15080.89664930
0.14900001 606094.81799623 16364.56085799
0.15000001 598840.24180713 18989.22496367
0.15100001 591655.50000491 18885.64445128
0.15200001 584541.27374720 16098.26743863
0.15300001 577497.71320130 13340.19780446
0.15400001 570521.69536040 13264.63004310
0.15500001 563617.29011145 15826.37425322
0.15600001 556780.42587403 18357.05150743
0.15700001 550017.54686771 14338.95812359
0.15800001 543320.40627739 27212.20383278
0.15900001 536695.55672256 12880.69396932
0.16000001 530138.21605596 17923.97393091
0.16100001 523653.38714395 20359.64465322
0.16200001 517236.66562651 12646.43707156
0.16300001 510888.64748537 25135.72264288
0.16400001 504610.33187495 14986.92756421
0.16500001 498400.09679835 13651.17929580
0.16600001 492259.60564874 14797.32444443
0.16700001 486185.32004493 12251.87064360
0.16800001 480178.91776251 12172.53614002
0.16900001 474242.35507103 14511.81675039
0.17000001 468371.27484138 13215.09614366
0.17100001 462567.16021843 14321.07995662
0.17200001 456830.01053047 16596.63506631
0.17300001 451159.15039200 16485.35613384
0.17400001 445553.93965704 15204.52890885
0.17500001 440013.72827450 17424.54446259
0.17600001 434537.02542254 11536.95856985
0.17700001 429126.71673124 16040.75742903
0.17800001 423778.53673568 12516.29967366
0.17900001 418494.48172528 14689.15700238
0.18000001 413273.38775424 14586.48490978
0.18100001 408116.10312750 11141.57014167
0.18200001 403018.01675965 11062.84508264
0.18300001 397982.43533873 14279.61045451
0.18400001 393006.98468524 14177.72764229
0.18500001 388093.25146490 14076.14289562
0.18600001 383237.66944503 13974.76227653
0.18700001 378440.97181371 11739.23950028
0.18800001 373702.79064686 13772.81700000
0.18900001 369023.95794122 11568.90162806
0.19000001 364398.59726933 10440.02030504
0.19100001 359834.41893178 10363.23175490
0.19200001 355322.88813096 12343.91771694
0.19300001 350869.38341154 11231.32949371
0.19400001 346468.30040306 12161.03791880
0.19500001 342122.61722697 11064.24596396
0.19600001 337829.86605807 12977.73491790
0.19700001 333590.20295890 14861.44424413
0.19800001 329402.96151310 12782.48252560
0.19900001 325267.63182740 15612.84706558
0.20000001 321181.81479904 11620.35860862
0.20100001 317148.10781055 10570.54693291
0.20200001 313162.26715550 10489.37063414
0.20300001 309227.22629874 9462.35357198
0.20400001 305339.68453308 15961.63276341
0.20500001 301499.85831900 9316.34606241
0.20600001 297707.46421857 10168.19892102
0.20700001 293961.81642418 11005.93092716
0.20800001 290260.76615583 10009.64299404
0.20900001 286607.07723846 9930.93569576
0.21000001 282996.36555805 9852.51893266
0.21100001 279430.39807439 10663.06449460
0.21200001 275907.21329944 8815.23588165
0.21300001 272426.21207216 10493.85818512
0.21400001 268988.41157163 9542.36435163
0.21500001 265592.92218471 10326.25330274
0.21600001 262237.20626532 9389.40361425
0.21700001 258922.07368153 11853.45309357
0.21800001 255647.13480814 10077.61053061
0.21900001 252410.17287483 9162.48970857
0.22000001 249211.47104673 8261.36065582
0.22100001 246052.72125699 9832.26720633
0.22200001 242931.38462522 8938.66071994
0.22300001 239845.40767395 9670.56729469
0.22400001 236795.20209678 10389.38998327
0.22500001 233783.83059873 9510.32667847
0.22600001 230805.23153187 7858.91850529
0.22700001 227863.59854517 8572.22898264
0.22800001 224954.53365457 13136.22061397
0.22900001 222078.66072465 9194.05698880
0.23000001 219237.26596165 9115.88594979
0.23100001 216429.11191744 8284.90679602
0.23200001 213651.50194954 8213.83238091
0.23300001 210906.65025113 8883.38852871
0.23400001 208193.47005167 12475.99428290
0.23500001 205509.31158025 9457.53896623
0.23600001 202857.27909843 7211.57661304
0.23700001 200234.38748248 8578.04156547
0.23800001 197641.31910387 7793.98578751
0.23900001 195076.76400900 8427.31660380
0.24000001 192540.83087636 10440.52704811
0.24100001 190034.44353453 7588.07568926
0.24200001 187554.78459338 8887.28388834
0.24300001 185103.26173854 7452.25767011
0.24400001 182678.17974808 10070.13513497
0.24500001 180279.57785712 7317.54841137
0.24600001 177908.02232826 7250.64179298
0.24700001 175562.33484662 9143.28683134
0.24800001 173241.99557234 10352.94214517
0.24900001 170946.10773351 8974.67108058
0.25000001 168676.31655890 7620.79634266
0.25100001 166429.79173580 7549.25571028
0.25200001 164209.24652300 6854.91532041
0.25300001 162012.36607387 8641.74001522
0.25400001 159838.92052248 9170.75849886
0.25500001 157688.31013766 6660.75453535
0.25600001 155561.40232251 7795.96004624
0.25700001 153456.55347534 7126.52268057
0.25800001 151375.22347345 7645.20602325
0.25900001 149315.93367234 6405.65385763
0.26000001 147278.42725809 7495.73590996
0.26100001 145262.40967262 5708.81297025
0.26200001 143268.58319966 6217.14046212
0.26300001 141295.39116884 6154.82753055
0.26400001 139343.59391151 7200.58055610
0.26500001 137413.07750847 5482.78205203
0.26600001 135502.05335291 7597.60049101
0.26700001 133612.67074969 5908.35258014
0.26800001 131743.75683388 6910.61909174
0.26900001 129893.54783299 5786.75782980
0.27000001 128064.04995567 5726.38426475
0.27100001 126253.79642361 6696.50167921
0.27200001 124464.59489799 5606.50794250
0.27300001 122693.47527478 7564.05310865
0.27400001 120939.85791597 4988.76937513
0.27500001 119207.94287296 5428.72997535
0.27600001 117492.71497952 5858.18704612
0.27700001 115797.65939442 5794.51515033
0.27800001 114120.13165850 5253.52050953
0.27900001 112462.25674253 5668.09800808
0.28000001 110821.04989101 6539.55046357
0.28100001 109198.69584716 6004.83656884
0.28200001 107594.85338921 5024.14191680
0.28300001 106008.49834776 6773.94336503
0.28400001 104439.55661078 5357.74950772
0.28500001 102888.61867502 4855.31414508
0.28600001 101354.93560758 4799.66320287
0.28700001 99838.72387730  5175.63969078
0.28800001 98338.94176485  4689.29266002
0.28900001 96858.25645243  6320.00153267
0.29000001 95392.77312893  5413.06316742
0.29100001 93945.34267650  5349.24806521
0.29200001 92514.51296145  4879.21564455
0.29300001 91100.47945940  4821.03760120
0.29400001 89702.48102898  4366.26847077
0.29500001 88322.14693976  4705.80421171
0.29600001 86957.44487287  5036.14065821
0.29700001 85609.19650670  5357.42377100
0.29800001 84277.09813000  4157.81083307
0.29900001 82962.01707876  7466.58189055
0.30000001 81662.24608926  4424.46070257
0.30100001 80379.49388238  4369.42949430
0.30200001 79111.11575363  4314.72045746
0.30300001 77859.86217434  3550.40988323
0.30400001 76624.30082136  5959.45527851
0.30500001 75404.11844570  5537.67872082
0.30600001 74198.89151399  3758.54502758
0.30700001 73010.15774825  4047.68333719
0.30800001 71836.47749614  4994.43133437
0.30900001 70678.30785579  3943.84976507
0.31000001 69535.62188114  5838.90644580
0.31100001 68407.25863463  5122.33576908
0.31200001 67294.70808615  4107.33270250
0.31300001 66196.70224495  3117.86482336
0.31400001 65114.93742173  3384.34903273
0.31500001 64046.74921542  4250.14247917
0.31600002 62994.04663153  3294.90376507
0.31700002 61955.87217667  2955.29524275
0.31800002 60932.28088924  3207.17075646
0.31900002 59923.35667604  3163.95338230
0.32000002 58929.40558006  3688.68631694
0.32100002 57948.91683219  3638.61266018
0.32200002 56984.09242531  2760.87940873
0.32300002 56031.71005608  3540.08360897
0.32400002 55094.15859523  2685.84035870
0.32500002 54170.63543326  3178.73303774
0.32600002 53261.56801813  3657.47204899
0.32700002 52365.73860265  4122.23113800
0.32800002 51484.40116362  3557.05744483
0.32900002 50616.15282835  2756.04965201
0.33000002 49762.57386294  2470.71190929
0.33100002 48920.01884807  4141.56899180
0.33200002 48093.80357310  2642.51416246
0.33300002 47279.50669838  2605.57373754
0.33400002 46479.10800351  2569.13281656
0.33500002 45690.60940403  2533.08750532
0.33600002 44916.46910677  2724.63314505
0.33700002 44154.04037336  2238.60995294
0.33800002 43405.60550032  2648.61017306
0.33900002 42668.83118083  2393.72154261
0.34000002 41945.37270809  3647.36005656
0.34100002 41234.27766956  2326.85039909
0.34200002 40536.17048449  2085.58607020
0.34300002 39849.08269499  2673.07659378
0.34400002 39175.89427183  2027.35262458
0.34500002 38513.69706808  2598.51926425
0.34600002 37864.72005890  2562.11640413
0.34700002 37225.79349517  2137.50516373
0.34800002 36600.38642735  2682.44244830
0.34900002 35985.82082409  2078.18125102
0.35000002 35382.94958522  2235.49486067
0.35100002 34792.30036232  2571.84696459
0.35200002 34211.59882935  2354.95551696
0.35300002 33642.65835609  1786.42524332
0.35400002 33085.28055667  3875.94080079
0.35500002 32538.91772770  2606.36743344
0.35600002 32002.47197731  1885.10570111
0.35700002 31477.18771226  1690.32506021
0.35800002 30963.46400012  1667.38261538
0.35900002 30459.79529670  2467.24353589
0.36000002 29966.86429879  1622.70577864
0.36100002 29483.42316891  1600.94995390
0.36200002 29011.49452123  1737.64354666
0.36300002 28548.36421622  2026.36298805
0.36400002 28095.50213536  1692.05169625
0.36500002 27652.19093389  1973.53696043
0.36600002 27219.08134371  1947.93364863
0.36700002 26794.86370481  1922.79951054
0.36800002 26381.81926874  1606.25714226
0.36900002 25976.87295485  1730.05982074
0.37000002 25580.92712313  1850.65226039
0.37100002 25193.94658957  1546.40451492
0.37200002 24817.03929861  1943.91878034
0.37300002 24448.11450805  1508.69321776
0.37400002 24088.07097960  1490.44946247
0.37500002 23736.99995973  1606.52023338
0.37600002 23394.63107256  1587.55973979
0.37700002 23060.09554948  1699.75972347
0.37800002 22733.75518227  1680.13825634
0.37900002 22416.22731960  1405.49751952
0.38000002 22106.50056384  1389.72522378
0.38100002 21803.79884199  1249.35773283
0.38200002 21510.00532154  1359.32485069
0.38300002 21222.86167219  1589.16795730
0.38400002 20944.46739981  1330.49735460
0.38500002 20671.84713390  1675.66000806
0.38600002 20408.10460947  1184.69052870
0.38700002 20150.66995865  1290.04595187
0.38800002 19900.42235808  1857.90351937
0.38900002 19656.71352580  1379.90135488
0.39000002 19420.98512924  1708.56124769
0.39100002 19190.62460324  1466.93141417
0.39200002 18967.65386044  1565.40054727
0.39300002 18750.68155786  1108.16533257
0.39400002 18541.51895391  1428.16056509
0.39500002 18337.27120861  1307.08075368
0.39600002 18139.13996905  1512.26017087
0.39700002 17947.16324235  1178.59026596
0.39800002 17761.33360019  1063.01586634
0.39900002 17580.97795476  1265.83047272
0.40000002 17406.19043136  1361.07712527
0.40100002 17237.25626260  1559.10990282
0.40200002 17074.20644395  1444.99015981
0.40300002 16915.66605854  1127.59835289
0.40400002 16762.91141283  1120.18160824
0.40500002 16615.35411798  1315.43764785
0.40600002 16472.65641896  1407.91801084
0.40700002 16334.93531829  1199.63770662
0.40800002 16202.27291917  1689.81613417
0.40900002 16074.02451035  1285.11832049
0.41000002 15950.80635625  1278.37743599
0.41100002 15831.81071754  1174.08713844
0.41200002 15717.13141575  1265.77923854
0.41300002 15607.30081935  969.21342681
0.41400002 15501.29077045  1350.93755466
0.41500002 15399.79368287  1057.04188848
0.41600002 15301.54907602  957.11194006
0.41700002 15207.77672310  1144.23317486
0.41800002 15118.82834594  1140.26208788
0.41900002 15031.64010181  1136.39204554
0.42000002 14949.51396585  1227.28040718
0.42100002 14871.07709066  1412.00883667
0.42200002 14796.22468131  1032.70255057
0.42300002 14724.20053529  1030.10511826
0.42400002 14655.53332085  1494.86446956
0.42500002 14590.40021851  1491.72258903
0.42600002 14527.67783538  1488.79649512
0.42700002 14469.24247555  1114.71049314
0.42800002 14412.87528118  927.46856829
0.42900002 14360.65859155  1296.76753227
0.43000002 14310.64987497  1110.22026991
0.43100002 14262.44314214  1201.46826723
0.43200002 14218.18600975  1200.51259262
0.43300002 14176.19771670  1015.15756660
0.43400002 14136.90643706  1106.91982648
0.43500002 14099.80371499  1290.97808932
0.43600002 14065.50383198  921.99381988
0.43700002 14033.06412464  1290.76129935
0.43800002 14002.68246976  1383.11502650
0.43900002 13975.35770510  1106.84838270
0.44000002 13949.59859389  922.76599072
0.44100002 13926.26033743  1015.64221454
0.44200002 13904.85018020  1108.77280591
0.44300002 13885.28647688  1387.14018478
0.44400002 13868.03496840  1295.96792921
0.44500002 13851.40095308  926.65876768
0.44600002 13836.81223336  1020.53413464
0.44700002 13825.19665289  1021.95858501
0.44800002 13813.35810666  1302.46159760
0.44900002 13804.94906271  1211.38433766
0.45000002 13797.47945592  1306.75934120
0.45100002 13791.01474379  1589.55243470
0.45200002 13786.32765901  1592.52771500
0.45300002 13782.63390847  1032.45715501
0.45400002 13780.70800975  1034.58670286
0.45500002 13779.97490707  1036.80536115
0.45600002 13780.27139269  944.63764874
0.45700002 13781.86129361  1230.85809047
0.45800002 13784.15817464  1043.94326883
0.45900002 13787.66064604  1236.75321856
0.46000002 13793.02557663  1335.30286936
0.46100002 13797.99832514  1434.30199388
0.46200002 13805.03716060  1342.26382674
0.46300002 13812.79712291  1057.50779785
0.46400002 13820.68595362  1060.39218005
0.46500002 13829.93541990  1450.06879750
0.46600002 13839.84134095  1066.42902507
0.46700002 13849.91148253  1263.94298180
0.46800002 13861.83785842  1267.73444143
0.46900002 13873.33631790  1075.87728245
0.47000002 13885.74860235  1177.23382230
0.47100002 13898.84860826  1082.44238092
0.47200002 13912.59041932  1184.51800444
0.47300002 13926.91151613  1287.26449245
0.47400002 13940.93691905  1191.95016307
0.47500002 13955.88406945  1395.03023770
0.47600002 13971.83211186  1499.52695248
0.47700002 13987.12051434  1002.87658841
