# SAXS profile: number of points = 501, q_min = 0, q_max = 0.5, delta_q = 0.001
#    q    intensity    error
0.00000000 1719190.39626457 309.45427133
0.00100000 1719101.72102794 618.87663427
0.00200000 1718835.66019853 928.17128590
0.00300000 1718392.43771474 1134.13904929
0.00400000 1717771.93164331 1545.99479722
0.00500000 1716974.80599548 2163.38834118
0.00600000 1716000.88131459 1981.98109861
0.00700000 1714850.96618602 2263.60336944
0.00800000 1713524.78677288 2544.58441579
0.00900000 1712023.80550074 3081.64298163
0.01000000 1710347.37906201 3950.90261623
0.01100000 1708497.21331607 3382.82462965
0.01200000 1706473.06863113 4991.43394459
0.01300000 1704276.41439264 4652.67481650
0.01400000 1701907.36643241 6126.86679077
0.01500000 1699367.58072830 4894.17885043
0.01600000 1696656.60018958 5624.41688106
0.01700000 1693776.84977161 5030.51746948
0.01800000 1690728.69786113 4818.57700573
0.01900000 1687513.12365361 5568.79355934
0.02000000 1684130.99625763 5835.51416601
0.02100000 1680585.08832601 7764.30346009
0.02200000 1676873.99984947 6363.73711855
0.02300000 1673000.97835210 7829.64493508
0.02400000 1668966.51213273 7510.34964705
0.02500000 1664773.11060583 6492.61542788
0.02600000 1660421.16917159 7397.17664699
0.02700000 1655912.54489332 9041.28290922
0.02800000 1651247.99722694 9337.80785255
0.02900000 1646430.78454610 11854.30219301
0.03000000 1641461.41456371 13739.03267142
0.03100000 1636341.81896733 7854.44109245
0.03200000 1631072.99722079 11303.33639135
0.03300000 1625659.36289968 11607.20838620
0.03400000 1620099.45614731 10206.62704467
0.03500000 1614397.07638146 9589.51907653
0.03600000 1608553.15011737 11605.71151444
0.03700000 1602570.87935157 11875.05076519
0.03800000 1596451.63589445 9339.24250220
0.03900000 1590197.88755780 12403.54409736
0.04000000 1583810.13358224 11688.51932747
0.04100000 1577291.93680747 12918.02156142
0.04200000 1570645.72796834 15195.99812308
0.04300000 1563872.64086346 14450.18387233
0.04400000 1556975.71392834 10509.58655710
0.04500000 1549957.44005077 11764.17751661
0.04600000 1542818.59353123 15227.62022604
0.04700000 1535562.92068584 12161.65889745
0.04800000 1528192.39712891 14601.87903396
0.04900000 1520709.73237207 12545.85587605
0.05000000 1513116.42463533 17363.01178122
0.05100000 1505416.73519123 16439.15151409
0.05200000 1497609.78893525 14287.19805224
0.05300000 1489701.40052767 13273.24009747
0.05400000 1481692.21020427 14668.75356508
0.05500000 1473586.12452751 13615.93642581
0.05600000 1465383.55284296 13781.93295761
0.05700000 1457090.38239398 20282.69906969
0.05800000 1448705.28909081 16667.35512923
0.05900000 1440232.60473006 14258.30345277
0.06000000 1431675.88801307 20959.73597973
0.06100000 1423036.97535615 18527.94228497
0.06200000 1414318.31238523 21384.49388285
0.06300000 1405523.49140361 16191.63137801
0.06400000 1396652.05685862 16340.82982945
0.06500000 1387709.80445792 13738.32770678
0.06600000 1378698.96760534 18012.70285455
0.06700000 1369620.40804296 16764.15457899
0.06800000 1360478.25865711 21121.42595433
0.06900000 1351276.58876722 17026.08581561
0.07000000 1342014.24238047 17150.94282077
0.07100000 1332696.24788399 15832.43216642
0.07200000 1323324.89140167 15939.44906365
0.07300000 1313903.23695453 21876.48992033
0.07400000 1304434.21539568 17609.86273311
0.07500000 1294918.65452628 17714.48802424
0.07600000 1285359.89747974 20784.27051663
0.07700000 1275761.80051927 14926.41376595
0.07800000 1266125.78036274 24005.74592146
0.07900000 1256453.23201423 16585.18344049
0.08000000 1246749.90701160 16662.81328888
0.08100000 1237016.84665888 22822.96189167
0.08200000 1227254.94651844 18335.18976137
0.08300000 1217468.13014173 16874.10907570
0.08400000 1207659.19499006 18477.18655064
0.08500000 1197830.41076712 15452.01302429
0.08600000 1187984.15302984 20154.15210242
0.08700000 1178122.61332287 15551.21922611
0.08800000 1168247.57075501 20274.93754264
0.08900000 1158362.82577455 17201.68877071
0.09000000 1148470.40538014 17244.28394684
0.09100000 1138571.99859622 23568.44147821
0.09200000 1128669.71523845 15744.94326738
0.09300000 1118768.11945889 17352.09434822
0.09400000 1108865.16076923 15801.32928358
0.09500000 1098966.40495597 22155.16376526
0.09600000 1089072.72884406 22184.41252939
0.09700000 1079189.05832045 23796.11985469
0.09800000 1069314.08242784 20643.10933186
0.09900000 1059452.49860070 25426.86116205
0.10000000 1049603.01998711 20671.93245079
0.10100000 1039770.28893812 15908.48616896
0.10200000 1029956.17927532 22277.95320560
0.10300000 1020161.39461838 20688.87405608
0.10400000 1010388.97175354 25461.80328604
0.10500000 1000642.48853155 20683.28121108
0.10600001 990918.45965645 22265.93883617
0.10700001 981225.06390067 17485.43146153
0.10800001 971558.86879191 15884.98825232
0.10900001 961925.16749755 17458.94261180
0.11000001 952324.46189269 22198.68425160
0.11100001 942757.67978425 20589.82869572
0.11200001 933228.07897976 15818.21668338
0.11300001 923735.10329129 23693.80651495
0.11400001 914282.32479593 18925.64501438
0.11500001 904871.01180901 22042.65888561
0.11600001 895501.86982950 23574.08783340
0.11700001 886176.99958549 18822.40035764
0.11800001 876896.38049681 17217.86124199
0.11900001 867662.42072376 17179.71673952
0.12000001 858476.05327401 17139.47521097
0.12100001 849340.35660588 21760.10096132
0.12200001 840254.24054963 15502.69146849
0.12300001 831220.74981361 17006.77734245
0.12400001 822239.33546100 18500.38591956
0.12500001 813311.47195512 23057.38131640
0.12600001 804440.21249954 15324.58677026
0.12700001 795624.53263569 18331.19009581
0.12800001 786865.36708207 16748.43012768
0.12900001 778165.15742429 33383.28682693
0.13000001 769523.87764838 15121.14490852
0.13100001 760941.64539199 18079.97434676
0.13200001 752420.11154609 15010.78193296
0.13300001 743961.34994238 19439.71099044
0.13400001 735563.57412931 19363.71200187
0.13500001 727230.38912191 23736.80102009
0.13600001 718959.42504501 17729.54025757
0.13700001 710754.20616578 16183.87403752
0.13800001 702612.07004944 17579.35482160
0.13900001 694537.39202869 20419.40028859
0.14000001 686528.24727375 17424.08773754
0.14100001 678585.55774111 18790.03498005
0.14200001 670709.65149031 14386.72270302
0.14300001 662902.68888000 21478.04813278
0.14400001 655160.78364415 19949.64680299
0.14500001 647489.23822365 21270.02247900
0.14600001 639885.48408152 18342.31826648
0.14700001 632352.82427508 22461.17337789
0.14800001 624886.00229944 23742.54477751
0.14900001 617490.03985988 20840.28982853
0.15000001 610163.02448128 16584.23178789
0.15100001 602905.98540266 16495.50853896
0.15200001 595719.30770006 19140.46225958
0.15300001 588603.44434374 13596.74020596
0.15400001 581555.12527048 20281.73595092
0.15500001 574578.46391392 16134.16402812
0.15600001 567669.23671432 22726.63896444
0.15700001 560834.01461312 15950.12012839
0.15800001 554064.67076666 17178.77592794
0.15900001 547367.49951299 14450.50266922
0.16000001 540737.89331994 14364.70281409
0.16100001 534180.81465204 15576.71329054
0.16200001 527692.03700756 15482.48509667
0.16300001 521271.84767409 21799.58969884
0.16400001 514921.54981700 14018.73985559
0.16500001 508639.16443863 12665.11579246
0.16600001 502426.73956344 15102.94850433
0.16700001 496280.77843649 16258.15906920
0.16800001 490202.55778964 16154.62605472
0.16900001 484194.19196786 13581.64772600
0.17000001 478251.63723483 14720.58608919
0.17100001 472375.96159597 12187.30038468
0.17200001 466567.28868530 12107.42171313
0.17300001 460825.06588900 13230.28826647
0.17400001 455148.93011305 13142.42597768
0.17500001 449537.47623612 15428.12691306
0.17600001 443989.71517633 15324.30574306
0.17700001 438508.54953491 11708.17882557
0.17800001 433089.73865390 18605.53605135
0.17900001 427735.07937282 11548.84768856
0.18000001 422443.34165725 16057.07217485
0.18100001 417215.72996215 11389.98996599
0.18200001 412047.48403977 13572.84476542
0.18300001 406941.93600383 11231.59796428
0.18400001 401896.63662234 13383.15863175
0.18500001 396913.36206474 14396.04832219
0.18600001 391988.18402297 12094.79598943
0.18700001 387122.02212370 16375.26230948
0.18800001 382314.59068442 11922.48107378
0.18900001 377566.94753990 16140.98776995
0.19000001 372872.62546603 11751.08134679
0.19100001 368239.86267882 10605.30854625
0.19200001 363659.93758387 11580.75125956
0.19300001 359137.99046423 10450.91601634
0.19400001 354668.98553654 12448.88198059
0.19500001 350255.29982192 11327.25693151
0.19600001 345895.02422868 12265.43813877
0.19700001 341587.92790498 12174.19432586
0.19800001 337333.41708318 11076.34327338
0.19900001 333131.15514156 11992.72215187
0.20000001 328978.58088741 10910.57515078
0.20100001 324878.28204061 12796.95613439
0.20200001 320826.11460161 11722.98678161
0.20300001 316825.02566868 13572.78474116
0.20400001 312871.69791433 11544.96619872
0.20500001 308966.27191609 12411.17572951
0.20600001 305108.45371509 12315.70331635
0.20700001 301297.76271824 10340.53970528
0.20800001 297531.65962954 11193.14156437
0.20900001 293813.63511268 10180.64293791
0.21000001 290138.35892749 12856.03129181
0.21100001 286508.32736814 11844.25481332
0.21200001 282921.25160507 9943.26785772
0.21300001 279376.69032541 12555.18905678
0.21400001 275875.59679207 13345.48262574
0.21500001 272417.12879273 12356.84154624
0.21600001 268998.58396307 10507.08518636
0.21700001 265620.95522436 11291.54734045
0.21800001 262283.80427662 10339.22805343
0.21900001 258984.98206824 14529.05818098
0.22000001 255724.67766402 10172.72815847
0.22100001 252504.59113347 9249.24361056
0.22200001 249322.06316411 10841.77042934
0.22300001 246175.40081398 14888.68894525
0.22400001 243064.65485867 12305.14873409
0.22500001 239993.11991153 10576.49729464
0.22600001 236954.58816199 10488.79534099
0.22700001 233953.52967849 8801.33220271
0.22800001 230985.06568676 10314.63859602
0.22900001 228050.23729537 11014.82698227
0.23000001 225150.19548815 9361.74557113
0.23100001 222283.76432208 11603.21304636
0.23200001 219447.96793525 8436.67752627
0.23300001 216645.42868338 12927.23334092
0.23400001 213874.83106373 8292.99696672
0.23500001 211133.49830645 8968.95143226
0.23600001 208424.71470482 7409.49895820
0.23700001 205745.26690836 12486.68083926
0.23800001 203096.08191892 10193.39283364
0.23900001 200475.66633539 9382.26162827
0.24000001 197884.18465170 8584.21633623
0.24100001 195322.60980918 8508.25328574
0.24200001 192788.17656565 7729.84230504
0.24300001 190281.91551720 6964.31843736
0.24400001 187802.68664108 8972.27377870
0.24500001 185350.21800292 8207.30804141
0.24600001 182924.92903235 10166.05341188
0.24700001 180525.99184659 8730.23737869
0.24800001 178152.85627438 7984.81139595
0.24900001 175804.47438461 7911.20172157
0.25000001 173482.50289552 9797.42481452
0.25100001 171184.03693918 11000.28673412
0.25200001 168911.88822862 8974.28904616
0.25300001 166663.83432995 8254.86010490
0.25400001 164439.42079447 7547.76977156
0.25500001 162238.16235936 8721.92402109
0.25600001 160061.01108110 6787.38749602
0.25700001 157906.44460029 7333.17563419
0.25800001 155775.49664701 7867.44183040
0.25900001 153666.95478666 5993.01152024
0.26000001 151580.67428845 5934.38367918
0.26100001 149516.06010836 8813.97216043
0.26200001 147474.07429235 6399.63775673
0.26300001 145452.91634778 6335.92933591
0.26400001 143453.70588204 6272.51358650
0.26500001 141476.02436954 8467.34045918
0.26600001 139518.22615463 7822.78731066
0.26700001 137582.25399021 7743.12962098
0.26800001 135667.27028557 6021.59207657
0.26900001 133771.17322482 7584.82588077
0.27000001 131896.21413027 7506.21390136
0.27100001 130040.89984002 5836.23586101
0.27200001 128206.90479445 6825.09489972
0.27300001 126391.43518450 7272.56352468
0.27400001 124593.65215098 9765.02794946
0.27500001 122818.00464517 5593.13219624
0.27600001 121059.33469267 6036.01871344
0.27700001 119321.28445209 7463.54669570
0.27800001 117601.03715354 5413.76400158
0.27900001 115900.67619529 7301.74294588
0.28000001 114217.41783808 8665.67590151
0.28100001 112553.39855061 5237.10988243
0.28200001 110908.20330606 6591.27483444
0.28300001 109280.74790055 6517.50411326
0.28400001 107671.10093913 6444.11569621
0.28500001 106079.85794091 5005.90873317
0.28600001 104506.15257561 4948.88908946
0.28700001 102950.20649811 6671.17369684
0.28800001 101410.96929199 4835.78229958
0.28900001 99891.37450213  4779.80249617
0.29000001 98387.20561751  4724.06190133
0.29100001 96901.42940631  4668.71108979
0.29200001 95432.51391872  6291.38877790
0.29300001 93980.83226017  4559.01038875
0.29400001 92545.50615104  4095.13884103
0.29500001 91128.17446259  6069.13670650
0.29600001 89726.73947973  4397.05907635
0.29700001 88342.16362589  5528.45286141
0.29800001 86973.89909181  4680.93547071
0.29900001 85623.19722950  5008.95727505
0.30000001 84287.96510733  3805.60180475
0.30100001 82970.17854220  3758.54926589
0.30200001 81667.12969859  4454.12546462
0.30300001 80381.47609155  4765.01412829
0.30400001 79111.76872555  3619.36359054
0.30500001 77857.68694726  4288.40160008
0.30600001 76619.06218638  4586.80037494
0.30700001 75397.16885849  4876.68911265
0.30800001 74190.75462621  3782.61580370
0.30900001 73000.01464002  5091.75126221
0.31000001 71825.21962509  4690.90531580
0.31100001 70664.96508904  3637.83257502
0.31200001 69520.85138214  4896.00619039
0.31300001 68391.60447890  4187.61814051
0.31400001 67278.87394666  3178.92694449
0.31500001 66180.05812645  4391.70886521
0.31600002 65096.98771302  3714.43429477
0.31700002 64028.74473037  3359.58839507
0.31800002 62975.46368021  4218.72651169
0.31900002 61937.23851372  5351.37766097
0.32000002 60914.11534331  3812.91923045
0.32100002 59904.78292474  4340.10172840
0.32200002 58911.49311298  3425.11437177
0.32300002 57930.77999203  2815.43604093
0.32400002 56965.36894824  3332.47424127
0.32500002 56014.28030581  2739.09843666
0.32600002 55077.85943654  3241.88295994
0.32700002 54154.94769079  4529.52003934
0.32800002 53246.85208528  2890.50550232
0.32900002 52352.12919583  2850.57356970
0.33000002 51472.34325736  3577.84274924
0.33100002 50604.00609200  2772.08758499
0.33200002 49752.14942119  3230.65597565
0.33300002 48912.44086990  3430.71876508
0.33400002 48087.04312029  2658.01143435
0.33500002 47273.78587971  2859.11870540
0.33600002 46475.13972532  2584.25026681
0.33700002 45688.47633150  3474.60878956
0.33800002 44916.27040936  2740.79095018
0.33900002 44155.73396321  2251.94253877
0.34000002 43408.96055322  2220.36843745
0.34100002 42674.67367730  2627.05303599
0.34200002 41953.72190763  3237.77864156
0.34300002 41244.05980572  2979.47102147
0.34400002 40548.62704080  2727.90901336
0.34500002 39864.31702308  2689.64559693
0.34600002 39193.48958372  2856.02972123
0.34700002 38533.07230972  2413.71176380
0.34800002 37886.33323472  2380.01956653
0.34900002 37250.72767127  2151.22962490
0.35000002 36627.18905816  2314.10591430
0.35100002 36015.92724007  2091.80515318
0.35200002 35415.04934787  2625.31773250
0.35300002 34826.09775440  2034.19246618
0.35400002 34248.88505009  2006.12853683
0.35500002 33683.07333755  2338.27906184
0.35600002 33127.35578512  2483.55798084
0.35700002 32582.96696250  1749.70540876
0.35800002 32050.39180806  1898.50504867
0.35900002 31528.25302313  1872.77831828
0.36000002 31017.04543592  1679.57308991
0.36100002 30515.49067694  2485.48683337
0.36200002 30025.69077116  2288.85851590
0.36300002 29544.95464735  1935.78552019
0.36400002 29074.71042021  2546.94475345
0.36500002 28614.25612936  2199.29183028
0.36600002 28164.21858171  1705.48433700
0.36700002 27723.31831952  2142.45814122
0.36800002 27293.77305536  1510.71041017
0.36900002 26872.61140679  1491.43000372
0.37000002 26460.63290094  2061.54800697
0.37100002 26057.79689970  1890.23267664
0.37200002 25665.28680162  1579.57015103
0.37300002 25280.91894380  2127.38942990
0.37400002 24905.72978585  2241.51578691
0.37500002 24539.65838901  1937.65151819
0.37600002 24182.56692733  1504.27664697
0.37700002 23833.46465321  1756.76476281
0.37800002 23492.78408588  1736.23429012
0.37900002 23161.16876758  1320.18668229
0.38000002 22837.51391180  1566.19677827
0.38100002 22521.01619448  2064.72686252
0.38200002 22213.66152615  1786.64488119
0.38300002 21913.17759008  1388.41899788
0.38400002 21621.58286216  1373.51111639
0.38500002 21336.05199830  1482.42896307
0.38600002 21059.61355883  1467.01275001
0.38700002 20789.47643004  1209.94758555
0.38800002 20526.94458105  1317.52200035
0.38900002 20270.94270942  1423.02024562
0.39000002 20023.24269019  1526.67221124
0.39100002 19781.05124033  1512.06362845
0.39200002 19546.42763418  1843.61914180
0.39300002 19317.89935590  1370.02548723
0.39400002 19097.49873089  1244.67953876
0.39500002 18882.10581073  1570.23599361
0.39600002 18673.06091579  1445.57507928
0.39700002 18470.28851991  1102.67627688
0.39800002 18273.87354523  1203.06052185
0.39900002 18083.02566668  1193.47975055
0.40000002 17898.02078403  1399.53580152
0.40100002 17718.97095622  1495.83559900
0.40200002 17545.94846419  1272.78316190
0.40300002 17377.60881131  1684.93303018
0.40400002 17215.23595186  1359.57332372
0.40500002 17058.24686896  1038.84728354
0.40600002 16906.15658236  1238.54508991
0.40700002 16759.35788154  1435.94185133
0.40800002 16617.59403320  1427.28521914
0.40900002 16480.54940301  1621.68613809
0.41000002 16348.69970907  1411.05633875
0.41100002 16221.09514213  1503.69559092
0.41200002 16098.01841244  1196.72674548
0.41300002 15979.98246685  1190.82834985
0.41400002 15865.82967739  1382.70712190
0.41500002 15756.33438511  1081.51484344
0.41600002 15650.20283988  1174.70428082
0.41700002 15548.80866104  1267.38345402
0.41800002 15452.19931745  1068.28785043
0.41900002 15357.62959582  1064.28378142
0.42000002 15268.20830380  1157.02488009
0.42100002 15182.66080633  1441.59371187
0.42200002 15100.73940792  958.14196083
0.42300002 15021.74628372  1337.53635248
0.42400002 14946.36269816  1048.11373387
0.42500002 14874.52864100  1140.57891024
0.42600002 14805.26968309  1137.93308176
0.42700002 14740.38563216  1324.86592340
0.42800002 14677.85581168  1133.42407949
0.42900002 14619.45262515  1037.25021291
0.43000002 14563.34021743  1318.12798554
0.43100002 14509.22621171  1128.23748369
0.43200002 14459.14150930  1314.76979974
0.43300002 14411.43746778  1688.73232250
0.43400002 14366.56084668  937.41813967
0.43500002 14324.01103450  1030.46940265
0.43600002 14284.34859356  1123.60691362
0.43700002 14246.61215945  1216.80320220
0.43800002 14211.02371903  1029.37555187
0.43900002 14178.67903821  1122.95143304
0.44000002 14147.95500028  1029.47599438
0.44100002 14119.76668190  1310.59680552
0.44200002 14093.58183444  936.51855728
0.44300002 14069.35295366  1311.82653157
0.44400002 14047.50365770  1031.43800495
0.44500002 14026.37857191  1032.20124802
0.44600002 14007.41254758  1033.11676141
0.44700002 13991.50948833  1410.34422326
0.44800002 13975.50733618  1223.62560281
0.44900002 13963.04248739  1225.25703634
0.45000002 13951.52601464  1226.96701351
0.45100002 13941.18055024  1228.77571193
0.45200002 13932.69564156  1136.07205645
0.45300002 13925.14357904  1232.79301948
0.45400002 13919.56954024  1330.01493260
0.45500002 13915.24782132  1237.34389491
0.45600002 13912.08039602  1335.14241888
0.45700002 13910.27694459  955.63607138
0.45800002 13909.24096034  1436.47692826
0.45900002 13909.38351263  1055.72225864
0.46000002 13911.54261555  961.98321746
0.46100002 13913.38958960  1157.03753311
0.46200002 13917.36406718  1256.52927436
0.46300002 13922.16352982  1065.88089036
0.46400002 13927.15719385  971.41926031
0.46500002 13933.60173950  973.95880775
0.46600002 13940.65953999  1074.19757177
0.46700002 13947.99347884  1077.06410748
0.46800002 13957.31449484  1374.65596975
0.46900002 13966.24992279  1378.46893271
0.47000002 13976.18655325  1481.12644018
0.47100002 13986.75651026  1089.28864865
0.47200002 13998.14133439  1191.80180970
0.47300002 14010.16581174  1195.34740371
0.47400002 14021.92706237  1298.78105571
0.47500002 14034.64026723  1202.48803509
0.47600002 14048.46687501  1306.71820831
