# SAXS profile: number of points = 501, q_min = 0, q_max = 0.5, delta_q = 0.001
#    q    intensity    error
0.00000000 1719190.39626457 335.24212727
0.00100000 1719101.83884654 618.87667668
0.00200000 1718836.13318302 928.17154131
0.00300000 1718393.49984028 1031.03613663
0.00400000 1717773.83446572 1803.66259472
0.00500000 1716977.76160070 2163.39206525
0.00600000 1716005.15201938 1981.98603127
0.00700000 1714856.76795799 2469.39384849
0.00800000 1713532.35055521 3469.90315637
0.00900000 1712033.39871178 4108.88033255
0.01000000 1710359.20912691 3950.92994368
0.01100000 1708511.50368210 3075.32084053
0.01200000 1706490.08294919 3327.65580765
0.01300000 1704296.36307891 5368.53378048
0.01400000 1701930.44355898 4978.14676810
0.01500000 1699394.08078940 4894.25517061
0.01600000 1696686.73942779 4759.20651685
0.01700000 1693810.80636381 7317.26301173
0.01800000 1690766.70217631 6746.15944524
0.01900000 1687555.45049935 6075.19989593
0.02000000 1684177.85968374 7957.74074698
0.02100000 1680636.68312286 7764.54182806
0.02200000 1676930.55982990 6942.49283311
0.02300000 1673062.73072705 6625.32871525
0.02400000 1669033.59027977 8136.53912362
0.02500000 1664845.86851506 8440.76893887
0.02600000 1660499.67475761 8742.53118747
0.02700000 1655997.15945629 8346.22606593
0.02800000 1651338.78087502 7901.65642885
0.02900000 1646528.02621520 8150.31410398
0.03000000 1641565.30691657 9923.26273644
0.03100000 1636452.49029229 9425.96677780
0.03200000 1631190.72046340 8074.39443819
0.03300000 1625784.40390114 9120.65092635
0.03400000 1620231.86906661 11908.70478711
0.03500000 1614537.14730493 12205.90139727
0.03600000 1608701.02416309 8928.29109671
0.03700000 1602726.71682822 10962.65125010
0.03800000 1596615.62235023 12142.26236991
0.03900000 1590370.29752080 12404.88889513
0.04000000 1583991.01924477 13638.16330768
0.04100000 1577481.60083506 11925.76145527
0.04200000 1570844.19129377 14184.72370545
0.04300000 1564080.08858202 15484.39359572
0.04400000 1557192.47624470 13664.36461365
0.04500000 1550183.58008592 11765.89391955
0.04600000 1543054.19590675 10878.53258685
0.04700000 1535808.18845036 15480.94725957
0.04800000 1528447.57356247 15727.72626374
0.04900000 1520974.82258004 12548.04287037
0.05000000 1513391.69749260 13892.93642992
0.05100000 1505702.17423439 15267.82075797
0.05200000 1497905.66694676 14290.02072861
0.05300000 1490007.79128914 15689.78277370
0.05400000 1482009.34250899 15894.55093963
0.05500000 1473913.95329730 16095.14112083
0.05600000 1465722.56023590 15038.31416977
0.05700000 1457440.33678424 13947.70467408
0.05800000 1449066.34167813 15389.08526718
0.05900000 1440604.94985653 14261.98966970
0.06000000 1432059.68714811 15724.01609949
0.06100000 1423432.09681328 17209.29485469
0.06200000 1414725.09975815 26738.30563527
0.06300000 1405942.04512345 17546.15754352
0.06400000 1397082.33902972 16345.86413109
0.06500000 1388152.01693017 19239.78785465
0.06600000 1379152.99689834 15246.53709407
0.06700000 1370086.49250273 19564.83602855
0.06800000 1360956.61037732 26763.21299583
0.06900000 1351767.08742437 18451.62160723
0.07000000 1342516.91855008 17157.36702252
0.07100000 1333211.31284546 20158.15599439
0.07200000 1323852.25569427 15945.80116685
0.07300000 1314443.20681611 14590.32027930
0.07400000 1304986.66394228 22021.65098605
0.07500000 1295483.68212128 16245.36613526
0.07600000 1285937.54118398 17823.09515637
0.07700000 1276352.12722684 16426.65264763
0.07800000 1266728.56246970 16511.80758613
0.07900000 1257068.95977124 19610.27669223
0.08000000 1247378.46049522 22733.47350898
0.08100000 1237658.13002901 24357.11314176
0.08200000 1227909.06741908 18344.96232808
0.08300000 1218134.98681515 18418.20186505
0.08400000 1208338.89035940 18487.58589028
0.08500000 1198522.98628501 23191.42087334
0.08600000 1188689.70139019 18614.88159777
0.08700000 1178840.81478372 18672.83938301
0.08800000 1168978.81338808 21848.21504830
0.08900000 1159106.98478656 17212.73953256
0.09000000 1149227.32403502 18824.34445198
0.09100000 1139341.83199842 17295.20982229
0.09200000 1129452.38822693 15755.86155608
0.09300000 1119563.56870319 18943.01647263
0.09400000 1109673.54196876 17394.13358784
0.09500000 1099787.49315699 19004.32877501
0.09600000 1089906.54760253 28544.65382353
0.09700000 1080035.59287902 26990.09073493
0.09800000 1070173.36370700 17481.28271808
0.09900000 1060324.45750477 23857.30141569
0.10000000 1050487.48700619 19097.86341189
0.10100000 1040667.28541614 20698.87328043
0.10200000 1030865.72476282 28668.37715411
0.10300000 1021083.19888310 17521.78851707
0.10400000 1011323.53393862 19114.01569066
0.10500000 1001589.16006575 22295.37575205
0.10600001 991877.47234838 17511.59759829
0.10700001 982196.25471882 15911.58007521
0.10800001 972542.16394825 17491.17164177
0.10900001 962920.62016940 17477.01007864
0.11000001 953331.92288138 20634.87044204
0.11100001 943777.07935772 19026.54681550
0.11200001 934259.14683361 20586.40126963
0.11300001 924778.00792402 20557.81608403
0.11400001 915336.76125921 22105.38382523
0.11500001 905937.26516653 18915.97098739
0.11600001 896579.43420805 17308.46679247
0.11700001 887265.98400471 21986.45211909
0.11800001 877996.66450190 25075.58591919
0.11900001 868773.84057320 25020.68778702
0.12000001 859598.55317835 17161.88592261
0.12100001 850473.93228059 21789.14317147
0.12200001 841398.65838395 24838.08956565
0.12300001 832376.02409948 20126.85321099
0.12400001 823405.27712071 16982.73464080
0.12500001 814487.76255520 18472.58332519
0.12600001 805626.90463626 21486.07055915
0.12700001 796821.62576113 19888.66871628
0.12800001 788072.67480540 15249.20697617
0.12900001 779382.36003755 19757.34375816
0.13000001 770751.07852412 22717.88911030
0.13100001 762178.55603264 18109.36334497
0.13200001 753666.77838877 28567.74058152
0.13300001 745217.57708153 16476.76140604
0.13400001 736829.32612392 17904.95346895
0.13500001 728505.32202949 22292.26390514
0.13600001 720243.45907160 20721.40529452
0.13700001 712047.09714855 22109.06340898
0.13800001 703913.91106591 22014.90860672
0.13900001 695847.95857268 24841.77329254
0.14000001 687847.46392694 14547.97454815
0.14100001 679913.21283793 15930.36732812
0.14200001 672045.64253507 17298.45565474
0.14300001 664246.62286748 15782.50050375
0.14400001 656512.94129450 17134.98857604
0.14500001 648849.16373537 22735.67576978
0.14600001 641253.13221282 14139.63223232
0.14700001 633727.83915150 22510.01390861
0.14800001 626268.59426503 15396.81411641
0.14900001 618879.85522213 16709.75687938
0.15000001 611559.97287365 18007.38425091
0.15100001 604309.89919890 13778.26635186
0.15200001 597129.86714321 13704.13109759
0.15300001 590020.65646597 13629.47780753
0.15400001 582978.75749181 17620.53377672
0.15500001 576008.33294056 14826.45518959
0.15600001 569105.49185999 16082.92195900
0.15700001 562276.13282943 17323.72847010
0.15800001 555512.55454177 13248.97505116
0.15900001 548821.18813460 14488.88005064
0.16000001 542197.12952922 15712.87355544
0.16100001 535645.38499930 19524.27520485
0.16200001 529161.84080374 19407.01142761
0.16300001 522746.79714439 19289.35772524
0.16400001 516401.26723437 14059.02516418
0.16500001 510123.72195620 21593.53816987
0.16600001 503915.82451976 15147.71040023
0.16700001 497774.37376443 16307.08925446
0.16800001 491700.49622159 17450.45143485
0.16900001 485696.23728473 13623.78009912
0.17000001 479757.54840856 14766.93803731
0.17100001 473885.70656961 19562.00289094
0.17200001 468080.75265519 13361.36571550
0.17300001 462342.01687168 12067.12721021
0.17400001 456669.21914133 16782.59459602
0.17500001 451060.94306276 14289.61135109
0.17600001 445516.19151537 15376.99207639
0.17700001 440037.87121674 12923.91288804
0.17800001 434621.77288906 14003.51418390
0.17900001 429269.71120044 19703.48067477
0.18000001 423980.34094559 13813.28016048
0.18100001 418755.05206375 12575.21480748
0.18200001 413588.89847012 11353.01579930
0.18300001 408485.29419810 13529.03358294
0.18400001 403441.81918427 14554.16431462
0.18500001 398460.35683697 15563.86227332
0.18600001 393536.54157627 12142.57056399
0.18700001 388671.87519271 12056.60213809
0.18800001 383865.54254976 16323.88296817
0.18900001 379119.11769259 16207.34304711
0.19000001 374425.59595487 10727.29383096
0.19100001 369793.70664040 11715.06517991
0.19200001 365214.45126028 11630.25474993
0.19300001 360692.88704464 15744.24526346
0.19400001 356224.43786976 11461.52183006
0.19500001 351810.96906835 13446.21587319
0.19600001 347450.82293601 12320.60676354
0.19700001 343143.59403926 15287.04783688
0.19800001 338888.94906602 12139.00272922
0.19900001 334686.35728423 14056.82767026
0.20000001 330533.45377350 12955.25933293
0.20100001 326432.51022550 12858.17718549
0.20200001 322379.79882102 10798.11187187
0.20300001 318377.76900613 14613.54028808
0.20400001 314423.56681800 15469.64021863
0.20500001 310517.02974090 10554.47433977
0.20600001 306657.99888541 11426.07757856
0.20700001 302846.00729465 12283.43463650
0.20800001 299078.47589564 11251.33279505
0.20900001 295359.08110768 11164.57379363
0.21000001 291682.03836189 10154.91064562
0.21100001 288050.10999151 11907.99210998
0.21200001 284461.31640396 10906.24738651
0.21300001 280914.62617412 11722.56790444
0.21400001 277411.28841783 9841.16592188
0.21500001 273950.66281420 9763.60208430
0.21600001 270529.77077213 10566.89334595
0.21700001 267149.75461733 9609.37712791
0.21800001 263809.88877219 9532.77078150
0.21900001 260508.49456254 9456.45879974
0.22000001 257245.43077231 11938.76100664
0.22100001 254022.45941674 11842.52761796
0.22200001 250836.89759417 9229.54408339
0.22300001 247687.22157217 9154.52014218
0.22400001 244573.39408847 9079.78768488
0.22500001 241498.49497573 10642.83917685
0.22600001 238456.53578638 8931.38997023
0.22700001 235452.02203599 10468.19739475
0.22800001 232480.00679758 7985.68861114
0.22900001 229541.54563108 8711.10206866
0.23000001 226637.85916160 9423.60262960
0.23100001 223767.55469752 10123.24465327
0.23200001 220927.88979267 10810.00215880
0.23300001 218121.29032828 8421.66341787
0.23400001 215346.51965507 9109.15821223
0.23500001 212600.99620632 10536.50587032
0.23600001 209888.06033230 11192.28134658
0.23700001 207204.27580627 8136.91229577
0.23800001 204550.65021922 9533.08350437
0.23900001 201925.77251081 10177.05941592
0.24000001 199329.74995452 9367.50204220
0.24100001 196763.47472658 9999.52025859
0.24200001 194224.43934851 7079.48114913
0.24300001 191713.31031215 9121.71973613
0.24400001 189229.17235812 11126.67586099
0.24500001 186771.88499712 11027.01261186
0.24600001 184341.49635723 8195.82331575
0.24700001 181937.45604887 8798.49579074
0.24800001 179559.31253344 9389.15689654
0.24900001 177205.78208148 7974.26057091
0.25000001 174878.46719412 9876.26190202
0.25100001 172574.64147803 9784.98263472
0.25200001 170297.15932411 6462.77750210
0.25300001 168043.64329963 8963.44835767
0.25400001 165813.66054763 9513.55922402
0.25500001 163606.83063149 8167.25337153
0.25600001 161424.06433461 8089.76736688
0.25700001 159263.89440006 8012.56690637
0.25800001 157127.12962390 6714.82820218
0.25900001 155012.82021203 6045.50027431
0.26000001 152920.72590343 6585.53137263
0.26100001 150850.14400794 6521.25203402
0.26200001 148802.27855207 6457.27518331
0.26300001 146775.02791139 8718.43707047
0.26400001 144769.78028787 6905.51884649
0.26500001 142785.99117079 6266.87744903
0.26600001 140822.07232946 5639.92426367
0.26700001 138879.90695422 7257.86428087
0.26800001 136958.64781891 9947.30706180
0.26900001 135056.26905850 6016.75707128
0.27000001 133175.01583255 5413.56464977
0.27100001 131313.39816533 5357.58689868
0.27200001 129472.95130540 5832.10936755
0.27300001 127651.02816802 7345.04050839
0.27400001 125846.80644649 6748.53531507
0.27500001 124064.62720652 6677.15855225
0.27600001 122299.16559059 6605.98974201
0.27700001 120554.65250483 6032.55509684
0.27800001 118827.83195018 6464.82850321
0.27900001 117120.64641241 4919.06738213
0.28000001 115430.65323921 5838.48271717
0.28100001 113759.87559526 4812.04296543
0.28200001 112107.82030721 5710.77263674
0.28300001 110473.49758707 6588.63970793
0.28400001 108857.01874656 10703.36687485
0.28500001 107258.88287980 6902.10944000
0.28600001 105678.28700413 6369.23065921
0.28700001 104115.30112795 6746.67183243
0.28800001 102569.01993579 4891.00394714
0.28900001 101042.42604444 5713.94946328
0.29000001 99531.17549385  6082.35042233
0.29100001 98038.34870366  6011.71182707
0.29200001 96562.25037944  4668.30221557
0.29300001 95103.52255133  4194.06554304
0.29400001 93660.96293105  5387.84714765
0.29500001 92236.41729143  4095.29712160
0.29600001 90827.61984332  6069.55598335
0.29700001 89435.89385403  6396.45543124
0.29800001 88060.30465905  4344.45533601
0.29900001 86702.35306906  4291.76668009
0.30000001 85359.61427907  3853.98676715
0.30100001 84034.53105093  3806.76443682
0.30200001 82724.08656184  4135.79090345
0.30300001 81431.01862362  4827.23101254
0.30400001 80153.82159151  4400.44501370
0.30500001 78892.26750847  6880.19497514
0.30600001 77646.11917420  6078.52672733
0.30700001 76416.70166542  3883.49696249
0.30800001 75202.80949919  5577.04061650
0.30900001 74004.48258442  5161.81290465
0.31000001 72822.12267658  5095.72827555
0.31100001 71654.28969958  4694.78928339
0.31200001 70502.52474776  3972.11243235
0.31300001 69365.72410405  4900.68863998
0.31400001 68245.37295833  3547.05342745
0.31500001 67138.74914024  4137.08991790
0.31600002 66047.95103655  5653.04439688
0.31700002 64971.98104667  5268.57819253
0.31800002 63911.00580746  3363.95594995
0.31900002 62865.14393014  3922.78516698
0.32000002 61834.19026575  4168.24296318
0.32100002 60817.03354374  3231.20914518
0.32200002 59816.00482984  3767.51124260
0.32300002 58827.37694165  3716.71385116
0.32400002 57854.17746774  2820.39128510
0.32500002 56895.34430449  3616.83720870
0.32600002 55951.00690377  3842.15582602
0.32700002 55020.25932473  3519.09595305
0.32800002 54104.25469184  3471.05862412
0.32900002 53201.64087349  3423.52575232
0.33000002 52313.91459590  3636.34037576
0.33100002 51437.70722763  3330.07732361
0.33200002 50577.81089578  3789.54266082
0.33300002 49730.26734059  3737.22976762
0.33400002 48896.86527882  3439.89463526
0.33500002 48075.63087737  2907.61429316
0.33600002 47269.01001769  2628.39342651
0.33700002 46474.39579226  3770.00316520
0.33800002 45694.19598565  3252.96996627
0.33900002 44925.70092430  2520.33194121
0.34000002 44170.91064412  3614.94749831
0.34100002 43428.57739532  2450.67473848
0.34200002 42699.69371953  2416.58928050
0.34300002 41981.96720205  2166.26961022
0.34400002 41278.62857589  2563.40295597
0.34500002 40586.22004432  2527.70990407
0.34600002 39907.25844745  3115.75935085
0.34700002 39238.87923584  2867.57743037
0.34800002 38584.12523643  2221.86695697
0.34900002 37940.41571623  2390.24630333
0.35000002 37309.01432848  2357.18363691
0.35100002 36689.59642788  2905.81617471
0.35200002 36080.76417897  1910.47655376
0.35300002 35483.78414964  2072.60793035
0.35400002 34898.43835673  2230.01031662
0.35500002 34324.63614815  2566.10991998
0.35600002 33760.95779011  2711.84906294
0.35700002 33208.56627361  1961.63010269
0.35800002 32667.86877628  2286.91426200
0.35900002 32137.77021194  1908.98364101
0.36000002 31618.64088273  2054.57938188
0.36100002 31109.03264629  2027.06466325
0.36200002 30611.28191217  2000.14125488
0.36300002 30122.62721992  1973.63462893
0.36400002 29644.33854544  2109.93589591
0.36500002 29175.93893273  2242.46277259
0.36600002 28717.94823014  1580.92312495
0.36700002 28269.19483692  1560.45962891
0.36800002 27831.60793880  2464.76731581
0.36900002 27402.67629532  2281.27290965
0.37000002 26982.69160556  1651.74554488
0.37100002 26572.09858263  1630.99548826
0.37200002 26171.63140043  1464.30284622
0.37300002 25779.45773906  1446.22764767
0.37400002 25396.48052077  1428.55209697
0.37500002 25022.63818029  1552.40454624
0.37600002 24657.67696598  1812.70920802
0.37700002 24300.87571675  1515.64569025
0.37800002 23952.50988249  1497.87027646
0.37900002 23613.19600283  1480.54745951
0.38000002 23281.80600264  1596.66633130
0.38100002 22957.66857961  1578.56936632
0.38200002 22642.56046210  1951.22274026
0.38300002 22334.55677268  1543.76463726
0.38400002 22035.36244392  1654.30491385
0.38500002 21742.34016081  1510.65786594
0.38600002 21458.38140899  1743.92273973
0.38700002 21180.68708180  1849.07406984
0.38800002 20910.71745926  1342.15446371
0.38900002 20647.26000560  1328.65124431
0.39000002 20392.13204634  1195.99860118
0.39100002 20142.64217116  1302.82615735
0.39200002 19900.67369657  1290.45924699
0.39300002 19664.81525402  1394.62876389
0.39400002 19437.17062311  1727.47862097
0.39500002 19214.61027558  1255.48269489
0.39600002 18998.38992168  1697.03126016
0.39700002 18788.48253256  1458.17419844
0.39800002 18584.99876237  1557.23712008
0.39900002 18387.03378585  1544.51091119
0.40000002 18195.07117108  1313.32029935
0.40100002 18009.10158909  1628.92331591
0.40200002 17829.10661788  1293.32345534
0.40300002 17653.94178032  1604.74338386
0.40400002 17484.74294050  1487.07745755
0.40500002 17320.95655927  1265.81556533
0.40600002 17162.14797273  1257.29902005
0.40700002 17008.73138537  1353.21473314
0.40800002 16860.25414679  1241.25196910
0.40900002 16716.64739504  1028.07386351
0.41000002 16578.33996143  1022.05470705
0.41100002 16444.23654307  1422.75541312
0.41200002 16314.72583809  1212.83677627
0.41300002 16190.46499158  1407.59909306
0.41400002 16069.98210380  1100.39207670
0.41500002 15954.21307575  1095.09723741
0.41600002 15841.92077607  1090.00341065
0.41700002 15734.41389787  1085.20257796
0.41800002 15631.73393294  1277.19088151
0.41900002 15531.19389159  1663.39094461
0.42000002 15435.88685365  1657.11971170
0.42100002 15344.40396913  1456.95122591
0.42200002 15256.64840658  1355.24814217
0.42300002 15171.93013591  1254.41524308
0.42400002 15090.86218589  1346.85951391
0.42500002 15013.42054492  1055.29338011
0.42600002 14938.62313326  1052.50074273
0.42700002 14868.23882514  1336.35736893
0.42800002 14800.41222047  1333.36920013
0.42900002 14736.60745472  1140.61347105
0.43000002 14675.25095098  1138.50602273
0.43100002 14616.01098961  1231.25282411
0.43200002 14560.77362933  1324.01120886
0.43300002 14507.95575822  944.46796462
0.43400002 14458.14331183  1226.41206454
0.43500002 14410.62621215  942.45499894
0.43600002 14366.23646904  1412.56026776
0.43700002 14323.71292200  1223.38837864
0.43800002 14283.43552685  1222.73355622
0.43900002 14246.47772262  1034.29433168
0.44000002 14211.24742190  1128.08887381
0.44100002 14178.60293166  1786.07869594
0.44200002 14148.00280689  1222.17528039
0.44300002 14119.47547973  1316.49995612
0.44400002 14093.45812864  940.73837467
0.44500002 14068.14318214  1505.85411758
0.44600002 14045.11870470  941.72525378
0.44700002 14025.25295209  1225.24615596
0.44800002 14005.39955041  1131.91644531
0.44900002 13989.07131109  944.26235825
0.45000002 13973.82830303  1323.46134130
0.45100002 13959.83786208  1135.77246229
0.45200002 13947.81236593  1421.63084277
0.45300002 13936.78437230  1044.00456681
0.45400002 13927.75645494  1235.74025003
0.45500002 13920.12706160  1332.99143059
0.45600002 13913.74314931  1430.68070713
0.45700002 13908.79366068  1242.19442071
0.45800002 13904.65039914  1340.26931549
0.45900002 13901.79965377  1055.14664373
0.46000002 13901.00062158  961.25423854
0.46100002 13900.03459933  1155.92693207
0.46200002 13901.22748377  1544.70447121
0.46300002 13903.36973743  1257.97695346
0.46400002 13905.78009974  1066.92102872
0.46500002 13909.76060712  1069.52154377
0.46600002 13914.38517150  1072.17300021
0.46700002 13919.36804429  1172.56761963
0.46800002 13926.41787891  1469.58531632
0.46900002 13933.18035985  1276.97604050
0.47000002 13941.08318003  1280.41884536
0.47100002 13949.57270086  1283.91873224
0.47200002 13959.09453460  990.39780417
0.47300002 13969.31157712  1092.53991023
0.47400002 13979.28302323  1394.43354766
0.47500002 13990.33531497  1498.36498325
0.47600002 14002.57676856  1102.07285681
0.47700002 14014.26922245  1808.68167158
