# SAXS profile: number of points = 501, q_min = 0, q_max = 0.5, delta_q = 0.001
#    q    intensity    error
0.00000000 1700912.83420643 280.65061764
0.00100000 1700824.64682686 561.27214678
0.00200000 1700560.05733678 765.25205003
0.00300000 1700119.27617946 1224.08592245
0.00400000 1699502.20585268 1529.55204339
0.00500000 1698709.47294702 1681.72244478
0.00600000 1697740.94266635 1782.62806237
0.00700000 1696597.36609469 3664.65046307
0.00800000 1695278.52341851 2288.62610324
0.00900000 1693785.85379127 2794.74677822
0.01000000 1692118.70680792 3350.39518415
0.01100000 1690278.76503592 3346.75210049
0.01200000 1688265.87425874 3621.33045906
0.01300000 1686081.40141291 3894.84820905
0.01400000 1683725.48727250 5303.73552003
0.01500000 1681199.79489233 6455.80749986
0.01600000 1678503.90112361 5992.25919489
0.01700000 1675640.15378556 4524.22861817
0.01800000 1672608.94699036 6673.70999879
0.01900000 1669411.32642602 6510.70446684
0.02000000 1666048.10069179 5772.85693004
0.02100000 1662521.96813410 6034.95501794
0.02200000 1658831.65688324 6867.56337151
0.02300000 1654980.34398877 7745.30836242
0.02400000 1650968.48083280 6810.24529397
0.02500000 1646798.69691365 6422.51521128
0.02600000 1642471.16865155 8647.61109848
0.02700000 1637988.03969794 8943.41510637
0.02800000 1633349.74555805 7815.57889091
0.02900000 1628559.78322740 10259.92710541
0.03000000 1623618.57243738 11324.74006330
0.03100000 1618527.99095515 10876.50859968
0.03200000 1613289.11676536 10381.51594454
0.03300000 1607906.35761524 9840.38736225
0.03400000 1602378.06123124 12618.72781443
0.03500000 1596708.37597456 18106.67381968
0.03600000 1590897.92076295 8829.48386828
0.03700000 1584950.01332228 11744.48014187
0.03800000 1578865.91640878 9236.36603845
0.03900000 1572648.24578441 9435.88991168
0.04000000 1566297.35291761 9632.72916681
0.04100000 1559817.10399467 10809.53303188
0.04200000 1553209.33308390 11020.02072948
0.04300000 1546475.60814984 13268.76133383
0.04400000 1539619.09698501 12470.91526475
0.04500000 1532641.90092894 11632.75256857
0.04600000 1525544.77793702 10755.09118443
0.04700000 1518331.85150350 10931.98983925
0.04800000 1511004.80668859 12216.47443049
0.04900000 1503566.41526339 14659.77323119
0.05000000 1496018.18144180 11444.53962096
0.05100000 1488364.21809988 15092.01387458
0.05200000 1480603.94627427 14124.96230570
0.05300000 1472742.84709136 11929.21761755
0.05400000 1464781.82034089 16918.23081390
0.05500000 1456724.48084582 13460.13483092
0.05600000 1448571.66603239 13623.81715478
0.05700000 1440328.71338458 18796.29058705
0.05800000 1431994.58602620 15207.78321369
0.05900000 1423573.66675368 14093.37995910
0.06000000 1415069.46309246 14242.67481143
0.06100000 1406483.51690712 13080.29731850
0.06200000 1397818.74071168 13209.38771718
0.06300000 1389078.38591281 21336.24500520
0.06400000 1380262.05836498 14803.31126827
0.06500000 1371375.72674734 17649.60642885
0.06600000 1362421.24184317 19169.26776964
0.06700000 1353399.76580818 20707.01738593
0.06800000 1344315.49241448 15305.03259755
0.06900000 1335172.03722269 25234.75268497
0.07000000 1325968.62246121 18358.03643765
0.07100000 1316710.34332370 17064.56684874
0.07200000 1307398.98323626 17179.22344452
0.07300000 1298038.10993334 17289.86843444
0.07400000 1288630.34781533 14497.09209232
0.07500000 1279176.73312371 17499.13852936
0.07600000 1269680.41897250 16131.29047929
0.07700000 1260145.37669776 20641.18223814
0.07800000 1250572.70250698 23710.85955148
0.07900000 1240964.25132490 20848.20040012
0.08000000 1231325.71335076 23936.97299045
0.08100000 1221657.64310210 19534.30662972
0.08200000 1211961.17360889 15088.91731948
0.08300000 1202240.47007823 19692.69982410
0.08400000 1192498.15194231 25847.39865659
0.08500000 1182736.21972868 22885.94692613
0.08600000 1172957.46477326 22960.64345097
0.08700000 1163163.72814787 18424.51431904
0.08800000 1153357.13043363 18476.78209729
0.08900000 1143541.24000729 16981.58821173
0.09000000 1133717.92589380 18570.30049849
0.09100000 1123889.14624299 17060.63804150
0.09200000 1114056.87066436 20203.42229879
0.09300000 1104225.56776975 18683.49748464
0.09400000 1094393.64861501 18714.13227083
0.09500000 1084565.85497752 20303.07375948
0.09600000 1074743.68186233 21892.52982866
0.09700000 1064931.97250872 17219.95080502
0.09800000 1055129.17961831 18802.40286484
0.09900000 1045340.14460876 23520.15435967
0.10000000 1035563.41924225 18826.54384718
0.10100000 1025803.84477302 20403.23943214
0.10200000 1016063.09032777 15698.17548395
0.10300000 1006341.99102554 21978.51011788
0.10400000 996643.85325492 15697.14142724
0.10500000 986971.60635313 23539.27391903
0.10600001 977322.21265032 18823.22670134
0.10700001 967703.47762469 17244.47678276
0.10800001 958112.30927058 15665.13699380
0.10900001 948554.11563778 17216.25800912
0.11000001 939028.88860912 17198.31490439
0.11100001 929537.84443951 15616.23652169
0.11200001 920084.03233995 17154.96759058
0.11300001 910667.33630475 20244.13583916
0.11400001 901290.74252756 21766.17245689
0.11500001 891956.03017537 18624.04278703
0.11600001 882663.48769492 17039.81943238
0.11700001 873415.47735581 20097.29108044
0.11800001 864211.88823242 18511.41951779
0.11900001 855054.93371211 26164.68220399
0.12000001 845945.79722772 19960.09202581
0.12100001 836887.48606463 18378.05005973
0.12200001 827878.90752650 19856.67653250
0.12300001 818922.97089970 19801.55836929
0.12400001 810019.38500683 16706.65060294
0.12500001 801169.07571098 19684.72511777
0.12600001 792375.76189425 16604.23487294
0.12700001 783637.98431004 15045.85000781
0.12800001 774956.89336539 20993.58323068
0.12900001 766334.49343781 17932.22799163
0.13000001 757771.39137562 20846.29195933
0.13100001 749267.14850007 20769.68633546
0.13200001 740823.89474302 17735.32487620
0.13300001 732443.26147826 22083.16537464
0.13400001 724123.89254150 23461.61522446
0.13500001 715868.74248786 17524.46764235
0.13600001 707675.96272702 15997.01589172
0.13700001 699548.60550399 17376.78818009
0.13800001 691484.83516441 21626.18923957
0.13900001 683488.26071890 18659.23039756
0.14000001 675557.19641183 15716.83891574
0.14100001 667692.60124912 21332.77961603
0.14200001 659894.70093841 21232.11300411
0.14300001 652165.46206938 18312.80703868
0.14400001 644501.57132422 19625.07377253
0.14500001 636907.86368837 13948.28287275
0.14600001 629381.87340343 16653.44515587
0.14700001 621926.59874024 20710.15671508
0.14800001 614537.43703508 21975.85978517
0.14900001 607218.98366731 15028.67055483
0.15000001 599969.36578670 20383.96016438
0.15100001 592789.57456881 16218.72352548
0.15200001 585679.89503330 13441.35422527
0.15300001 578640.87701039 18713.24684558
0.15400001 571669.36419309 15949.57601366
0.15500001 564769.39836513 15858.72545451
0.15600001 557936.97469689 18395.18292392
0.15700001 551177.97517836 14369.21049108
0.15800001 544484.80755971 15583.15592786
0.15900001 537863.90151726 14199.60767029
0.16000001 531310.22454644 16680.48528699
0.16100001 524828.76608346 16579.34150319
0.16200001 518415.56418433 12675.26114266
0.16300001 512070.95479814 13856.64069098
0.16400001 505795.69939410 15022.13298119
0.16500001 499588.46217680 23635.53126145
0.16600001 493450.73502669 18541.41224402
0.16700001 487379.47132031 14738.35590859
0.16800001 481375.49335988 17084.01706599
0.16900001 475441.43104041 13336.13277039
0.17000001 469572.79156879 12044.54267248
0.17100001 463770.83869162 11965.28820326
0.17200001 458035.81372368 13074.63292016
0.17300001 452366.77983759 11806.77351133
0.17400001 446763.49407157 15245.80495519
0.17500001 441224.98553517 12813.17418508
0.17600001 435749.75741475 13882.98792691
0.17700001 430340.75228552 13788.11835445
0.17800001 424994.05430526 14834.41816619
0.17900001 419711.19493285 12465.42307829
0.18000001 414491.02882590 11253.43196418
0.18100001 409334.68694478 11174.83748145
0.18200001 404237.34707586 15534.84198196
0.18300001 399202.33888375 14323.38059578
0.18400001 394227.60243189 12033.79813272
0.18500001 389314.44845506 15206.62307505
0.18600001 384459.01474699 16176.11380970
0.18700001 379662.51363336 13918.42840737
0.18800001 374924.23321006 12754.92301643
0.18900001 370245.58729400 12662.39968372
0.19000001 365619.94414284 11522.51308409
0.19100001 361055.51984724 14557.75924810
0.19200001 356543.71598430 11354.13517202
0.19300001 352089.45171787 13319.54458787
0.19400001 347687.99678630 11186.86182522
0.19500001 343341.41776341 10094.23815925
0.19600001 339048.01352845 10018.86927322
0.19700001 334807.30711275 11932.53298940
0.19800001 330618.91249685 9868.97500443
0.19900001 326482.56037876 16650.61136622
0.20000001 322395.43736590 9720.22289597
0.20100001 318360.34223854 13504.84635603
0.20200001 314373.10916616 10529.92778920
0.20300001 310436.52907251 9499.35823860
0.20400001 306547.46161601 9426.33489024
0.20500001 302705.74527704 16836.49434812
0.20600001 298911.31537181 12993.67549340
0.20700001 295163.83541759 9209.11210034
0.20800001 291460.71054240 10964.75244891
0.20900001 287805.17431890 11785.62244548
0.21000001 284192.07966497 11693.08367057
0.21100001 280623.62685554 10708.59810704
0.21200001 277098.19481597 8853.28774290
0.21300001 273614.73778010 10539.64019756
0.21400001 270174.22601678 10455.74304116
0.21500001 266776.17234751 9507.90323198
0.21600001 263417.66277073 10289.09439428
0.21700001 260099.76030225 11907.36758961
0.21800001 256821.75689562 9280.25462420
0.21900001 253581.99051939 10041.84729936
0.22000001 250380.32762009 13280.17320489
0.22100001 247218.48618629 9878.85117511
0.22200001 244093.70858496 13063.89590119
0.22300001 241004.65303978 9717.30807005
0.22400001 237951.17253465 9637.02294335
0.22500001 234936.33129400 9557.21040897
0.22600001 231954.12594208 13426.66521508
0.22700001 229009.02261877 9398.53073272
0.22800001 226096.39431683 8543.05266326
0.22900001 223216.85063360 11551.47256657
0.23000001 220371.70679050 8399.46800155
0.23100001 217559.81953664 9085.29849352
0.23200001 214778.40128934 8257.15602808
0.23300001 212029.46874959 8186.45817560
0.23400001 209312.31166579 8853.91120221
0.23500001 206624.20988005 9508.84658841
0.23600001 203968.06836953 7976.17169084
0.23700001 201341.01918138 8625.44966970
0.23800001 198743.76117702 7837.46059272
0.23900001 196174.98746719 9180.98984772
0.24000001 193634.70761981 8399.87401386
0.24100001 191123.91604083 9019.13802458
0.24200001 188640.15385118 8251.12071974
0.24300001 186183.92608108 7495.76521859
0.24400001 183754.30787736 9454.15958751
0.24500001 181351.34905845 8030.23811617
0.24600001 178974.86547546 7294.12098750
0.24700001 176624.56497631 7884.52095353
0.24800001 174299.72511408 9114.13305737
0.24900001 171999.20553492 8384.96166650
0.25000001 169724.67243876 8307.17448551
0.25100001 167473.33560673 10128.78781668
0.25200001 165247.92408224 6271.15901561
0.25300001 163046.27578929 8075.68242191
0.25400001 160867.78461900 7383.83166335
0.25500001 158712.18660941 7313.45790498
0.25600001 156580.31970066 7243.40593206
0.25700001 154470.59441451 8369.21720135
0.25800001 152384.08557531 7104.14640565
0.25900001 150319.72127446 6448.71634779
0.26000001 148277.25687068 5805.05488116
0.26100001 146255.94122203 6897.43051439
0.26200001 144257.02739235 5690.93999991
0.26300001 142278.56239088 6197.65447100
0.26400001 140321.48877715 8366.66916423
0.26500001 138385.76422203 6625.91070448
0.26600001 136469.50588537 6012.16436627
0.26700001 134574.75332571 7573.86747557
0.26800001 132700.57402423 6960.80893983
0.26900001 130844.87421737 6888.98295354
0.27000001 129010.06722140 6293.11137686
0.27100001 127194.48463865 6227.44226261
0.27200001 125399.76011072 6675.65654541
0.27300001 123623.25065560 6097.09901087
0.27400001 121864.15819300 5529.58643969
0.27500001 120126.89298396 7459.88040735
0.27600001 118405.94470005 5411.74395863
0.27700001 116705.48385924 5839.94268870
0.27800001 115022.43931534 4813.68931317
0.27900001 113358.85720737 6189.39389645
0.28000001 111712.09836756 4708.66516905
0.28100001 110084.19639627 6519.18641913
0.28200001 108474.72122890 5525.70256093
0.28300001 106882.64892881 7740.44180178
0.28400001 105307.98276040 4952.10812369
0.28500001 103751.51200957 5786.22209864
0.28600001 102212.10733747 4400.23142915
0.28700001 100690.09831214 5219.77494357
0.28800001 99184.45042869  6449.46919440
0.28900001 97698.20442539  4674.85930303
0.29000001 96226.93292918  5040.36698541
0.29100001 94773.67706525  4981.30470234
0.29200001 93337.06539699  4922.59706205
0.29300001 91917.33173014  4458.90997330
0.29400001 90513.42044384  4005.21904423
0.29500001 89127.35195336  5540.15645968
0.29600001 87756.66494827  3909.55960851
0.29700001 86402.62879721  4634.63722808
0.29800001 85064.65221810  3815.14983259
0.29900001 83743.72387040  4899.00807833
0.30000001 82437.84839760  4094.27593449
0.30100001 81149.26245916  4043.66793977
0.30200001 79874.98842180  6171.54127258
0.30300001 78617.88058678  5018.96573426
0.30400001 77376.37364753  5663.95081914
0.30500001 76150.12273465  4893.40711859
0.30600001 74938.92177253  5176.40626650
0.30700001 73744.18249768  5110.47208904
0.30800001 72564.54410337  3699.70345627
0.30900001 71400.36451376  3652.12881779
0.31000001 70251.77188577  3604.96984499
0.31100001 69117.40677246  4852.04218515
0.31200001 67998.77374224  4150.30535186
0.31300001 66894.81522448  3465.82054087
0.31400001 65806.90693667  4042.18944997
0.31500001 64732.59338154  3988.82259303
0.31600002 63673.82643911  3935.99776769
0.31700002 62629.61874257  2987.43295547
0.31800002 61599.98790302  4421.33934108
0.31900002 60585.11382762  3198.89416156
0.32000002 59584.90819485  3155.91481197
0.32100002 58598.30382355  3113.32802956
0.32200002 57627.40103017  3071.25248333
0.32300002 56668.82414398  3029.51548219
0.32400002 55725.17096046  4889.88398332
0.32500002 54795.67392705  3483.36115649
0.32600002 53880.38343213  3435.68281224
0.32700002 52978.39474791  3127.84457403
0.32800002 52090.91745729  3084.82427790
0.32900002 51216.53054156  3295.78389642
0.33000002 50356.68654445  3750.31440799
0.33100002 49508.06640564  3205.15237088
0.33200002 48675.68431470  2431.35054666
0.33300002 47855.24382154  3116.81217769
0.33400002 47048.56786756  3073.44784149
0.33500002 46253.94326414  2564.31873600
0.33600002 45473.60796114  2298.69099129
0.33700002 44704.99520227  2493.19770050
0.33800002 43950.45574391  2681.85693650
0.33900002 43207.51104025  2644.29980089
0.34000002 42477.93385634  2172.74641965
0.34100002 41760.51305384  3213.47163168
0.34200002 41056.22542155  2957.28005717
0.34300002 40363.00076217  2499.27712556
0.34400002 39683.74440897  2258.99725747
0.34500002 39015.31839196  2227.38463249
0.34600002 38360.00108732  2795.29341162
0.34700002 37715.03610886  1968.72497812
0.34800002 37083.35387695  2135.44503414
0.34900002 36462.57722222  1914.28539483
0.35000002 35853.71959299  2265.23811117
0.35100002 35256.76593676  2606.18026148
0.35200002 34669.99116460  2202.93134294
0.35300002 34094.95735228  3077.75194596
0.35400002 33531.25831371  2142.64750773
0.35500002 32978.79952020  2113.28157335
0.35600002 32436.23603677  1910.65657424
0.35700002 31904.82566212  1884.61814113
0.35800002 31384.83137312  1690.07324949
0.35900002 30875.15985542  2834.33980898
0.36000002 30376.20269082  1809.35859898
0.36100002 29886.67674842  1947.41594917
0.36200002 29408.58985704  2562.07646970
0.36300002 28939.49093855  1738.10590810
0.36400002 28480.47850920  1871.16752669
0.36500002 28031.18863678  1538.91232905
0.36600002 27591.99150436  1974.62096554
0.36700002 27161.85641110  1499.33454491
0.36800002 26742.70800572  1628.22985406
0.36900002 26331.87854923  2192.12899306
0.37000002 25929.91227877  1731.59962400
0.37100002 25537.03205332  1709.95974729
0.37200002 25154.06912849  1548.10725785
0.37300002 24779.24899616  1529.12752799
0.37400002 24413.35788645  1373.25144616
0.37500002 24056.40855095  1492.45965720
0.37600002 23708.18892931  1742.90759170
0.37700002 23367.83299561  1589.94743234
0.37800002 23035.68240609  1440.53646751
0.37900002 22712.39359280  1424.06714573
0.38000002 22396.96111485  1407.98502719
0.38100002 22088.47332748  1265.66958162
0.38200002 21788.86362083  1627.30135661
0.38300002 21496.14194133  1981.08453516
0.38400002 21211.98319373  1592.48971371
0.38500002 20933.89019536  1939.31567957
0.38600002 20664.51078934  1679.40487141
0.38700002 20401.45582038  1781.04717750
0.38800002 20145.76252496  1175.50529902
0.38900002 19896.45961985  1978.70300294
0.39000002 19655.24932757  1152.78042768
0.39100002 19419.56752286  1941.18006155
0.39200002 19191.18461955  1470.71650300
0.39300002 18968.82626347  1345.26922234
0.39400002 18754.33861985  1222.31407746
0.39500002 18544.82827329  1211.71913678
0.39600002 18341.48589426  1310.68264410
0.39700002 18144.23647590  1191.53206583
0.39800002 17953.33178650  1611.76043750
0.39900002 17767.83255692  1385.89100510
0.40000002 17587.99659723  1481.08526362
0.40100002 17414.08503142  1470.09712800
0.40200002 17245.91366978  1251.01863688
0.40300002 17082.46145696  1138.71693467
0.40400002 16924.80615262  1953.54584273
0.40500002 16772.46003061  1123.58715069
0.40600002 16624.91029542  1116.44590379
0.40700002 16482.54515106  1210.47817325
0.40800002 16345.00209536  1002.76592606
0.40900002 16212.13121253  1096.75072849
0.41000002 16084.41836416  1090.76488305
0.41100002 15960.85036404  1085.01865916
0.41200002 15841.66816107  1275.80880580
0.41300002 15727.54757973  1172.01690117
0.41400002 15617.03473478  972.16045830
0.41500002 15511.14377517  1548.63266789
0.41600002 15408.67942218  1156.57553223
0.41700002 15310.74275241  1535.97378570
0.41800002 15217.59508606  1052.06848613
0.41900002 15126.35117374  1238.84821983
0.42000002 15040.12333572  1044.76221702
0.42100002 14957.80917115  946.82936540
0.42200002 14878.99122660  1321.70085329
0.42300002 14803.08860364  1223.91942374
0.42400002 14730.65921145  1032.98752615
0.42500002 14661.81652643  1311.64616861
0.42600002 14595.44043662  1121.80560512
0.42700002 14533.40396241  1119.65349432
0.42800002 14473.67374668  1117.65713968
0.42900002 14417.94973636  1208.94514268
0.43000002 14364.55714712  1207.26926264
0.43100002 14313.08228928  1205.73410919
0.43200002 14265.55765507  1297.16721905
0.43300002 14220.37675598  1018.32122775
0.43400002 14177.95289556  1110.13376433
0.43500002 14137.81337762  1571.84216581
0.43600002 14100.64058703  1201.58614457
0.43700002 14065.30066761  1293.72641672
0.43800002 14032.05223065  924.01068318
0.43900002 14001.98392403  1108.95717934
0.44000002 13973.59985953  1109.22440942
0.44100002 13947.65472450  1294.62137288
0.44200002 13923.63655126  925.22569268
0.44300002 13901.70040618  1388.77993639
0.44400002 13882.01775385  1389.93709347
0.44500002 13863.03768121  1112.92471779
0.44600002 13846.31575523  1021.23506692
0.44700002 13832.48252333  1115.45144354
0.44800002 13818.67689507  1116.82551959
0.44900002 13808.34201728  1118.47575641
0.45000002 13798.88085703  933.49433422
0.45100002 13790.63570080  1215.50668827
0.45200002 13784.20710082  1030.30060858
0.45300002 13778.83394582  1032.17249980
0.45400002 13775.35191311  1034.18459389
0.45500002 13773.07679970  1318.90989685
0.45600002 13772.02460648  1132.88679782
0.45700002 13772.25605913  1230.00024694
0.45800002 13773.27785509  1517.26436043
0.45900002 13775.53690979  1140.61451019
0.46000002 13779.77178612  1048.15839059
0.46100002 13783.78278225  1146.25943050
0.46200002 13789.75297228  1149.23806718
0.46300002 13796.70695771  1056.27593474
0.46400002 13803.79144370  1155.37739860
0.46500002 13812.35499567  1255.12875794
0.46600002 13821.55170997  1549.11958907
0.46700002 13831.07281065  1262.22376452
0.46800002 13842.51619006  1363.34948418
0.46900002 13853.63438403  1172.01752444
0.47000002 13865.76005419  1175.53919311
0.47100002 13878.53150339  1572.16012322
0.47200002 13892.16102091  1281.34353250
0.47300002 13906.43241380  1186.49686978
0.47400002 13920.44916422  1190.19845995
0.47500002 13935.48722367  1193.99260192
0.47600002 13951.51226123  1197.87689953
0.47700002 13967.08865763  1201.72836506
