# SAXS profile: number of points = 501, q_min = 0, q_max = 0.5, delta_q = 0.001
#    q    intensity    error
0.00000000 1682732.95097187 277.65093691
0.00100000 1682645.20921965 605.75228970
0.00200000 1682381.95164392 832.77909243
0.00300000 1681943.40245511 1210.99929291
0.00400000 1681329.43146123 1513.19654581
0.00500000 1680540.70328290 1663.73536210
0.00600000 1679577.05122048 2116.26717070
0.00700000 1678439.25257631 3826.84165492
0.00800000 1677127.07609151 3622.59463730
0.00900000 1675641.92055331 3267.50188476
0.01000000 1673983.21724344 4143.10864157
0.01100000 1672152.59658338 3310.86228539
0.01200000 1670149.86973274 4233.83010540
0.01300000 1667976.47174914 4203.30089419
0.01400000 1665632.49893109 4497.20794648
0.01500000 1663119.64219882 4789.78478282
0.01600000 1660437.43579612 5927.76191078
0.01700000 1657588.26058314 4923.03735477
0.01800000 1654572.50982578 5658.63823823
0.01900000 1651391.13885246 7926.67782416
0.02000000 1648045.11946643 6229.61083338
0.02100000 1644536.99986917 8140.45851843
0.02200000 1640865.56147513 6227.08508871
0.02300000 1637033.94927443 7661.31923134
0.02400000 1633042.71875059 6123.91047455
0.02500000 1628894.31538533 11434.83861624
0.02600000 1624589.13086348 6579.58628094
0.02700000 1620129.07573353 8845.90515866
0.02800000 1615514.79293355 7027.48967154
0.02900000 1610749.58169649 10147.72283061
0.03000000 1605833.99948172 11947.40550531
0.03100000 1600769.90541636 8452.06548950
0.03200000 1595558.28432096 12636.82219385
0.03300000 1590203.55525453 12165.05775851
0.03400000 1584704.14271393 13311.51541300
0.03500000 1579064.23515099 10232.33671629
0.03600000 1573284.24742333 16590.28315578
0.03700000 1567367.63470039 10720.79511716
0.03800000 1561315.69606713 10960.43669364
0.03900000 1555130.86617303 11196.94275498
0.04000000 1548813.63233949 12382.76556436
0.04100000 1542367.88090027 10688.60991023
0.04200000 1535795.34215595 11887.05649976
0.04300000 1529097.62733264 11101.24928973
0.04400000 1522277.76624657 13357.98801918
0.04500000 1515338.09806640 10455.83336249
0.04600000 1508279.23825653 12760.04294882
0.04700000 1501105.39309165 11888.75526621
0.04800000 1493818.08905006 13175.47615845
0.04900000 1486420.10884053 11148.15133522
0.05000000 1478913.08231854 18101.89697051
0.05100000 1471301.12089475 20657.06869965
0.05200000 1463583.42044214 16289.68422864
0.05300000 1455765.70318427 16508.38384370
0.05400000 1447848.63330982 13139.22696002
0.05500000 1439836.09158012 12094.62373348
0.05600000 1431728.50844141 14689.53518208
0.05700000 1423531.69088574 12384.72628881
0.05800000 1415244.33802399 15029.89557160
0.05900000 1406870.91326081 15194.20657287
0.06000000 1398414.79575948 15354.59517479
0.06100000 1389877.58372726 18096.20698579
0.06200000 1381262.10861522 15663.51304386
0.06300000 1372571.81500606 17129.69705218
0.06400000 1363806.01933424 21275.37489659
0.06500000 1354970.99777106 14755.63485596
0.06600000 1346068.50165740 25703.17924176
0.06700000 1337099.41757529 15002.25616728
0.06800000 1328068.05254851 20618.25748094
0.06900000 1318978.25397978 18004.05400975
0.07000000 1309829.24475596 19529.55495385
0.07100000 1300625.76905243 15451.43486005
0.07200000 1291369.80149282 24038.84998093
0.07300000 1282064.79868553 17077.10391865
0.07400000 1272713.53428065 18613.43631116
0.07500000 1263316.95154733 21602.72088403
0.07600000 1253878.21990979 15930.52353079
0.07700000 1244401.15570007 16015.44362480
0.07800000 1234887.18032045 16096.75515035
0.07900000 1225337.61486499 14704.05206805
0.08000000 1215758.75305793 17725.76345112
0.08100000 1206150.65447569 16319.21912072
0.08200000 1196514.78416178 17875.93171421
0.08300000 1186855.14913322 23927.00092947
0.08400000 1177174.31657418 18010.76788899
0.08500000 1167474.30808151 19578.54506564
0.08600000 1157757.90391560 21152.23789767
0.08700000 1148027.04615551 21215.54080919
0.08800000 1138283.59991842 15196.08677258
0.08900000 1128531.47023551 16758.69312015
0.09000000 1118772.22517205 21379.73822736
0.09100000 1109007.74683185 19895.59991288
0.09200000 1099240.41400297 16867.84494544
0.09300000 1089474.33334694 21506.22435089
0.09400000 1079708.02810531 18463.00814832
0.09500000 1069946.23756557 23110.83981769
0.09600000 1060190.34906598 18510.92436485
0.09700000 1050445.34882097 18529.85682434
0.09800000 1040709.57141474 18545.44543457
0.09900000 1030987.82411778 20104.26351565
0.10000000 1021278.87497330 17019.61325181
0.10100000 1011587.21230021 20120.47059895
0.10200000 1001914.62557942 18575.49803197
0.10300000 992262.19428525 20123.07824671
0.10400000 982632.87978478 23214.70287705
0.10500000 973029.92817033 21659.64722014
0.10600001 963449.74383718 15463.36911619
0.10700001 953900.64588415 18543.82942862
0.10800001 944379.36694234 23160.90506425
0.10900001 934891.18891004 18510.84641164
0.11000001 925436.31368632 16949.36688296
0.11100001 916015.74428001 20005.78479682
0.11200001 906632.91078557 16904.17141740
0.11300001 897287.15882768 23015.41670751
0.11400001 887981.78132247 18381.22373884
0.11500001 878718.20367747 18347.63695674
0.11600001 869497.37171075 24415.48734740
0.11700001 860320.96018460 24364.29073986
0.11800001 851189.28431273 19751.84827276
0.11900001 842104.24874174 21221.02806784
0.12000001 833067.12423171 19656.21972215
0.12100001 824081.10952655 18096.82201771
0.12200001 815145.06671166 18047.31262723
0.12300001 806261.45909130 20995.04938391
0.12400001 797430.52218439 17942.18759454
0.12500001 788653.06682966 23848.86986470
0.12600001 779932.43531798 16343.48495225
0.12700001 771267.39432374 17770.00160265
0.12800001 762659.27889780 20660.44083905
0.12900001 754109.92346731 16175.65862077
0.13000001 745619.80332822 19046.85877379
0.13100001 737188.67310876 21894.50462338
0.13200001 728818.63027030 14539.93235931
0.13300001 720511.09214534 17378.72836183
0.13400001 712264.83924294 18750.37277707
0.13500001 704082.79109796 17235.94753872
0.13600001 695963.44524281 15732.25442150
0.13700001 687909.26809484 15663.69477311
0.13800001 679918.74877322 15593.93723846
0.13900001 671995.21968739 15523.09030682
0.14000001 664137.22286234 15451.15321858
0.14100001 656345.75673840 20970.24791681
0.14200001 648620.85634419 13912.91802479
0.14300001 640964.74109775 15229.32296681
0.14400001 633373.63597110 15153.46495540
0.14500001 625852.86691008 19188.64980463
0.14600001 618399.65275222 17726.42688237
0.14700001 611017.35070804 17633.96157334
0.14800001 603700.58410842 14841.97956053
0.14900001 596454.72560511 17446.30154708
0.15000001 589277.60390490 17351.27986566
0.15100001 582170.14237555 17255.52383421
0.15200001 575132.71266218 14519.22601628
0.15300001 568165.83439717 17062.02081209
0.15400001 561266.40076370 18269.22220700
0.15500001 554438.26972658 19460.78418582
0.15600001 547677.52310383 19346.70941671
0.15700001 540990.12148893 16667.90642975
0.15800001 534368.40020638 15293.62433575
0.15900001 527818.77122124 17734.71155012
0.16000001 521336.17581972 17626.37693647
0.16100001 514925.82177849 17517.77728382
0.16200001 508583.28424393 19895.77901882
0.16300001 502309.33769825 19770.89646514
0.16400001 496104.44448437 17190.01981292
0.16500001 489967.42101769 13420.20829526
0.16600001 483899.71495597 16970.36380473
0.16700001 477898.20827133 13247.33895875
0.16800001 471963.77254382 15553.56685857
0.16900001 466099.12181532 14262.63380100
0.17000001 460299.56877244 14168.02139583
0.17100001 454566.62707807 18764.51125187
0.17200001 448900.41625865 11648.96635201
0.17300001 443299.79888643 12727.13782706
0.17400001 437764.61621623 17236.98257755
0.17500001 432294.15248565 12553.82278107
0.17600001 426886.81230452 14733.99902256
0.17700001 421545.33640814 12380.78711506
0.17800001 416265.79779684 11176.73719875
0.17900001 411049.92759362 13318.01828309
0.18000001 405896.56333263 15428.12910102
0.18100001 400806.60260282 13130.42492150
0.18200001 395775.51759538 13036.84616543
0.18300001 390806.35027170 14022.13251014
0.18400001 385897.36292032 13921.24802500
0.18500001 381049.41023829 15946.91857184
0.18600001 376259.10706683 18997.32321330
0.18700001 371527.35507720 16763.31505306
0.18800001 366853.62997368 11440.33099124
0.18900001 362239.05437443 10323.81353745
0.19000001 357677.41847924 15371.18778542
0.19100001 353176.55845069 11188.63390038
0.19200001 348727.97276188 11105.24281734
0.19300001 344336.84826386 11022.22303375
0.19400001 339997.87964724 11933.92613954
0.19500001 335713.79825918 13817.98058932
0.19600001 331482.38316938 11754.36586265
0.19700001 327303.36703933 10693.00150650
0.19800001 323176.47081021 12540.86354246
0.19900001 319101.11565444 14359.55088308
0.20000001 315074.74662932 10449.45446581
0.20100001 311100.14430327 16967.40267222
0.20200001 307172.95144901 12159.44185781
0.20300001 303296.14661820 9280.86252517
0.20400001 299466.50644911 9208.59550856
0.20500001 295683.95480041 10963.96156223
0.20600001 291948.37484865 9064.99746753
0.20700001 288259.20992972 13490.53166240
0.20800001 284614.28767667 9814.92417448
0.20900001 281016.34216139 10622.41823584
0.21000001 277460.84303945 8781.63609733
0.21100001 273949.51891035 8711.59511318
0.21200001 270480.75750913 11234.41879424
0.21300001 267053.69542951 9429.66643141
0.21400001 263669.37457754 8503.33773213
0.21500001 260326.96806473 10964.97241328
0.21600001 257023.83112441 12549.18914796
0.21700001 253761.07790809 8297.98763992
0.21800001 250537.76343445 9876.19910154
0.21900001 247352.21183652 8978.88571420
0.22000001 244204.69862185 10524.00198471
0.22100001 241096.39899476 11239.91465260
0.22200001 238025.05833198 11146.71400875
0.22300001 234988.88872151 8685.18973783
0.22400001 231988.16490108 7829.60093564
0.22500001 229025.48524009 11645.94647516
0.22600001 226095.24283752 8468.39772093
0.22700001 223201.66676537 10686.89631010
0.22800001 220340.39932246 7568.69307465
0.22900001 217511.72188294 7504.15475984
0.23000001 214717.01647610 9671.92846457
0.23100001 211955.41461702 9588.86341076
0.23200001 209223.85200275 9506.08616532
0.23300001 206524.40195736 7249.00685154
0.23400001 203856.55182179 8623.13254990
0.23500001 201217.29366694 7123.09253270
0.23600001 198609.64263925 7766.63044275
0.23700001 196030.81512257 9797.62060323
0.23800001 193481.33782675 7629.93691808
0.23900001 190960.12430670 9624.39072029
0.24000001 188467.10170340 9538.32046838
0.24100001 186003.08217125 7427.10342241
0.24200001 183565.80730062 9367.36358965
0.24300001 181155.88559824 8619.39744449
0.24400001 178772.13051853 8540.83893954
0.24500001 176414.63143479 8462.61027025
0.24600001 174083.46134533 10964.64733152
0.24700001 171778.09820674 7029.16011114
0.24800001 169497.68405292 9496.10819829
0.24900001 167241.39909926 7525.86331550
0.25000001 165010.75248650 6212.65512503
0.25100001 162803.03090367 8615.53680301
0.25200001 160621.04733546 7924.23974519
0.25300001 158462.28394467 6037.41330392
0.25400001 156326.50750385 5979.48919492
0.25500001 154213.34845980 5921.79286103
0.25600001 152123.53215149 8796.54366285
0.25700001 150055.36665734 6387.85726083
0.25800001 148010.42490427 6900.24633552
0.25900001 145987.16186274 7401.54945664
0.26000001 143985.55711473 6764.44179331
0.26100001 142004.77124768 6138.86655150
0.26200001 140046.11532501 7182.26536429
0.26300001 138107.68104411 7109.78375657
0.26400001 136190.19796918 5954.91668798
0.26500001 134293.89803875 6429.99214236
0.26600001 132416.63742026 5833.61523759
0.26700001 130560.73999132 5248.54199601
0.26800001 128725.04190090 8829.89466703
0.26900001 126907.71450307 7195.66775283
0.27000001 125110.84283780 5594.33160223
0.27100001 123332.87416758 6541.57595541
0.27200001 121575.57105583 6969.92781847
0.27300001 119836.16610117 6402.84665779
0.27400001 118113.95737345 5846.64116668
0.27500001 116413.25026520 8193.16494141
0.27600001 114728.73264926 6673.77069405
0.27700001 113064.26487155 5657.73608193
0.27800001 111417.09414766 6527.92785506
0.27900001 109789.12924810 5994.48674065
0.28000001 108177.64038853 5471.62530981
0.28100001 106584.78573180 5410.24397981
0.28200001 105010.12404680 5349.21597212
0.28300001 103452.61492522 4407.08160440
0.28400001 101912.25413804 6099.44869885
0.28500001 100389.83924909 6029.41403068
0.28600001 98884.21029824  5108.35854580
0.28700001 97395.88375317  5890.50332820
0.28800001 95923.68946701  5821.60898931
0.28900001 94470.39398235  4109.46233275
0.29000001 93032.11328459  4060.85193709
0.29100001 91611.51031260  4815.10120995
0.29200001 90207.37009251  6739.84397549
0.29300001 88819.77020096  4308.64725640
0.29400001 87447.87525020  3869.56866299
0.29500001 86093.53680386  3822.55321504
0.29600001 84754.47849331  6796.46195211
0.29700001 83431.73557951  4102.33863264
0.29800001 82124.98010371  4788.29719162
0.29900001 80834.89346435  4728.84149152
0.30000001 79559.80916774  5388.18833096
0.30100001 78301.69521389  4965.89374555
0.30200001 77057.63183807  3852.49648612
0.30300001 75830.65710640  4841.02937885
0.30400001 74619.08026757  3755.20539224
0.30500001 73422.61979271  4044.11808964
0.30600001 72240.84866946  3659.36036260
0.30700001 71075.49236996  3283.68790295
0.30800001 69924.94071186  5185.63384870
0.30900001 68789.71526362  3838.46629344
0.31000001 67669.79821508  3788.15548343
0.31100001 66563.95158566  4361.27031438
0.31200001 65473.77822069  3688.79283960
0.31300001 64397.90371167  3943.08383096
0.31400001 63337.99589398  3591.26453722
0.31500001 62291.69776382  2952.62661380
0.31600002 61260.56430801  3204.23396784
0.31700002 60243.80567698  3160.99263354
0.31800002 59241.45378343  3685.11480708
0.31900002 58253.67978474  3635.02979068
0.32000002 57280.49057034  4137.08362733
0.32100002 56320.70020165  4352.46391767
0.32200002 55376.39275336  3756.18089832
0.32300002 54444.37464141  3175.19607944
0.32400002 53527.06619512  3392.27798074
0.32500002 52623.58181428  4117.26923611
0.32600002 51734.32705135  2537.56886203
0.32700002 50858.17057783  3503.11095528
0.32800002 49996.41904253  2467.32339658
0.32900002 49147.50062072  2432.80139593
0.33000002 48313.11065809  2638.62066354
0.33100002 47489.53346137  3074.47254188
0.33200002 46682.31970547  2798.13837565
0.33300002 45886.79009017  2528.82112162
0.33400002 45104.86031867  3173.12707368
0.33500002 44334.89016001  3128.26999783
0.33600002 43578.96658029  2863.79192444
0.33700002 42834.72448309  3040.40888779
0.33800002 42104.25930963  2569.20202474
0.33900002 41385.36011247  2954.91485197
0.34000002 40679.59546070  2080.76140636
0.34100002 39986.01893212  2666.66772887
0.34200002 39305.29703869  2022.25762841
0.34300002 38635.58606593  1993.59633542
0.34400002 37979.50573230  2555.07136915
0.34500002 37334.34454033  2518.94834543
0.34600002 36702.16099132  2292.41708409
0.34700002 36080.03115338  3201.74211619
0.34800002 35471.17032654  1856.91585454
0.34900002 34873.06798462  2929.33784945
0.35000002 34286.57174064  1985.70689641
0.35100002 33712.11648782  1779.99983486
0.35200002 33147.44729196  2281.70464241
0.35300002 32594.53643864  2769.23194699
0.35400002 32052.90543746  2560.22594308
0.35500002 31522.22362154  2356.60154956
0.35600002 31001.30751557  2158.15612492
0.35700002 30491.55432334  1964.87585366
0.35800002 29993.07163316  1776.63968234
0.35900002 29504.63896319  1752.57563743
0.36000002 29026.80451727  2043.34200078
0.36100002 28558.36670821  1860.86326285
0.36200002 28101.17410269  1683.11990260
0.36300002 27652.81416531  2113.78121492
0.36400002 27214.49133418  2234.99020669
0.36500002 26785.75794680  1617.59199903
0.36600002 26366.99323422  1741.80365556
0.36700002 25957.12174361  1862.68314455
0.36800002 25558.09575351  2121.96100045
0.36900002 25167.25274597  1536.46085292
0.37000002 24785.22265201  1931.01678829
0.37100002 24412.09726339  2451.95116528
0.37200002 24048.75148217  1614.63325100
0.37300002 23693.46239589  1329.20330337
0.37400002 23346.89962776  1444.58948290
0.37500002 23009.22183453  1427.49219024
0.37600002 22680.16308341  1539.07593975
0.37700002 22358.76908598  1521.29072068
0.37800002 22045.43747598  1253.28317988
0.37900002 21740.82746373  2230.60900345
0.38000002 21444.00526950  1838.28743881
0.38100002 21154.00562291  1212.12457962
0.38200002 20872.77357346  1438.96907832
0.38300002 20598.23478062  1305.10421753
0.38400002 20332.15548374  1291.60023829
0.38500002 20072.01246777  1394.60349233
0.38600002 19820.37836537  1380.68762234
0.38700002 19575.08194717  1708.90473495
0.38800002 19336.89907640  1579.63136039
0.38900002 19105.04507063  1452.93874646
0.39000002 18881.12431686  1439.59139174
0.39100002 18662.55600532  1316.83001412
0.39200002 18451.18302509  1305.23674903
0.39300002 18245.80271899  1293.99239014
0.39400002 18048.01716158  1497.08309448
0.39500002 17855.09727264  1272.71139389
0.39600002 17668.26215803  1367.78857977
0.39700002 17487.42464785  1461.59902132
0.39800002 17312.64747291  1554.24300052
0.39900002 17143.27771782  1440.03539652
0.40000002 16979.35928799  1021.30850956
0.40100002 16821.25737743  1318.61842829
0.40200002 16668.74009048  1309.91300207
0.40300002 16520.81635207  1001.16151837
0.40400002 16378.54186105  1193.99575824
0.40500002 16241.45338041  989.10455773
0.40600002 16109.07637538  1180.15099118
0.40700002 15981.56636411  1564.91505252
0.40800002 15858.95633994  1167.53642107
0.40900002 15740.74405842  1452.08370819
0.41000002 15627.53700851  1156.12524267
0.41100002 15518.41061621  1150.84538583
0.41200002 15413.47723485  1050.35145594
0.41300002 15313.42737510  1236.25305057
0.41400002 15216.93945620  947.25452603
0.41500002 15124.90815279  1321.31203884
0.41600002 15036.18802681  1222.66768733
0.41700002 14951.75287442  1031.22244461
0.41800002 14872.04570502  1402.06217528
0.41900002 14794.03199130  1118.42887154
0.42000002 14720.89763904  1115.54967595
0.42100002 14651.55784587  1020.18802115
0.42200002 14585.60986562  1018.00268881
0.42300002 14522.38542974  1200.71088423
0.42400002 14462.43370465  1290.77226930
0.42500002 14406.02863119  1104.65432778
0.42600002 14351.87089606  1011.16111190
0.42700002 14301.96964467  918.18649470
0.42800002 14254.01645320  917.24600223
0.42900002 14210.17822147  1099.86784646
0.43000002 14168.38250501  1007.58456959
0.43100002 14128.38258268  915.51923474
0.43200002 14092.19924723  915.28838448
0.43300002 14058.26665124  1006.71252260
0.43400002 14026.85023879  1006.77722360
0.43500002 13997.64499450  1373.16903903
0.43600002 13971.10220584  1007.38637229
0.43700002 13946.34638839  1007.90250125
0.43800002 13923.59930886  1008.55596373
0.43900002 13903.81904533  1468.24336077
0.44000002 13885.51448783  918.52682690
0.44100002 13869.56705859  1011.50757352
0.44200002 13855.34496691  1012.75648835
0.44300002 13843.09976726  1014.14553701
0.44400002 13832.99871183  1108.02324933
0.44500002 13823.39372894  1202.22060958
0.44600002 13815.90726985  926.35662634
0.44700002 13811.12507332  1299.35070848
0.44800002 13806.22385250  1115.81906464
0.44900002 13804.62291779  1118.17450933
0.45000002 13803.75398155  1027.20640122
0.45100002 13803.96965594  935.90918703
0.45200002 13805.79186731  1313.34504258
0.45300002 13808.59250489  1034.40171356
0.45400002 13813.11418076  1131.29410502
0.45500002 13818.66106770  1134.23575419
0.45600002 13825.27069671  947.72235118
0.45700002 13833.01551543  1045.36103204
0.45800002 13841.40787097  1048.27907479
0.45900002 13850.96631682  1242.43173750
0.46000002 13862.24009681  1533.71831700
0.46100002 13873.20808308  1345.97871201
0.46200002 13885.97072879  1157.25685539
0.46300002 13899.49561439  1160.88592873
0.46400002 13913.08834607  1067.48175395
0.46500002 13927.95060373  1070.92017268
0.46600002 13943.36950122  1172.07969582
0.46700002 13958.96260572  979.91922137
0.46800002 13976.27719888  1671.49295082
0.46900002 13993.09249222  1183.81568095
0.47000002 14010.77536435  1385.80585697
0.47100002 14029.08015993  1191.91070688
0.47200002 14047.91756092  1196.03975783
0.47300002 14067.30270101  1000.18526945
0.47400002 14086.32213302  1204.38059946
0.47500002 14106.21078838  1309.33854744
0.47600002 14126.93705873  1111.86063391
0.47700002 14147.04098076  1217.21146368
