# SAXS profile: number of points = 501, q_min = 0, q_max = 0.5, delta_q = 0.001
#    q    intensity    error
0.00000000 1664650.74656090 299.63713438
0.00100000 1664563.73647096 649.17987264
0.00200000 1664302.67596256 823.82985069
0.00300000 1663867.78136564 1197.98484526
0.00400000 1663258.92832762 1621.67751674
0.00500000 1662476.78400743 1945.09791428
0.00600000 1661521.16168863 2093.51674896
0.00700000 1660392.86275993 2590.21297356
0.00800000 1659091.63491507 3135.68332238
0.00900000 1657618.90005469 3232.35699328
0.01000000 1655974.03830221 3278.82873742
0.01100000 1654158.66035872 3572.98286194
0.01200000 1652172.66516942 3866.08420600
0.01300000 1650017.42219768 3811.54041338
0.01400000 1647693.06807927 4448.77148103
0.01500000 1645201.20710227 4738.17968744
0.01600000 1642541.44213159 5026.17703761
0.01700000 1639716.12673638 4869.95711487
0.01800000 1636725.58744313 6064.06857435
0.01900000 1633570.89003212 5880.85546947
0.02000000 1630252.87895807 5648.82648112
0.02100000 1626774.16468104 7515.69698158
0.02200000 1623133.56095736 6159.79214369
0.02300000 1619334.09852137 7578.48392604
0.02400000 1615376.38918912 6663.42790924
0.02500000 1611262.83184857 10054.28052992
0.02600000 1606993.84432687 10413.32058753
0.02700000 1602571.32454498 7403.87985850
0.02800000 1597995.90739913 9036.66727076
0.02900000 1593270.80566653 7886.69085016
0.03000000 1588396.68370483 8124.64941060
0.03100000 1583375.26170871 10640.28224828
0.03200000 1578207.73888820 9374.55440077
0.03300000 1572898.23403468 9626.13763606
0.03400000 1567445.34604778 9874.90613573
0.03500000 1561853.19067282 10120.80914292
0.03600000 1556122.16190274 9500.12623745
0.03700000 1550255.78094488 9720.10419606
0.03800000 1544255.17252196 18971.17567241
0.03900000 1538122.93940249 11074.48567656
0.04000000 1531859.39754261 13189.31002402
0.04100000 1525468.55542914 11532.54281377
0.04200000 1518951.97597066 10776.96476949
0.04300000 1512311.31024742 10979.38062204
0.04400000 1505549.82724346 15243.69270879
0.04500000 1498669.47334158 10340.81984654
0.04600000 1491671.13261981 10516.28197384
0.04700000 1484558.63059227 14964.35169233
0.04800000 1477333.89021708 18459.28781714
0.04900000 1469999.45416042 16537.49462908
0.05000000 1462557.04299033 13426.27427986
0.05100000 1455010.65054626 17023.62540442
0.05200000 1447359.40038437 17259.76165391
0.05300000 1439609.10937381 20989.50179316
0.05400000 1431760.55955424 11812.02516716
0.05500000 1423817.26608228 13156.07215232
0.05600000 1415780.12296935 14525.90473950
0.05700000 1407654.25937306 13471.25189102
0.05800000 1399438.93449589 14862.04217829
0.05900000 1391138.41131616 13772.27091528
0.06000000 1382755.97250721 25304.43547907
0.06100000 1374293.16762440 15337.11246741
0.06200000 1365753.22597024 18068.91602419
0.06300000 1357138.75181979 18239.94567727
0.06400000 1348449.94298704 15776.86507078
0.06500000 1339692.51872364 18568.13917809
0.06600000 1330868.32754961 16050.27278122
0.06700000 1321978.14965386 16181.01330902
0.06800000 1313026.53964532 16307.79038575
0.06900000 1304016.97309781 20538.26828787
0.07000000 1294948.90155113 13791.20644734
0.07100000 1285827.07240523 16664.31963889
0.07200000 1276653.29363927 19571.09590833
0.07300000 1267431.04123694 14068.48521692
0.07400000 1258163.07644416 14154.33527333
0.07500000 1248850.23882366 15660.58272890
0.07600000 1239495.81735938 20042.64830631
0.07700000 1230103.74363979 18709.87881804
0.07800000 1220674.93935843 17357.99845170
0.07900000 1211211.31317659 14534.53643984
0.08000000 1201718.61292220 17521.05819834
0.08100000 1192197.16480451 16130.42839662
0.08200000 1182648.29964903 19141.16362802
0.08300000 1173076.06031199 16258.83495898
0.08400000 1163483.08013766 22251.61495209
0.08500000 1153871.18557413 16373.43289195
0.08600000 1144243.32167055 16425.61365379
0.08700000 1134601.06303206 17972.08168236
0.08800000 1124946.78702288 16519.84434327
0.08900000 1115283.81567952 16561.96544075
0.09000000 1105614.09078941 16600.79635303
0.09100000 1095939.26063985 16636.35875811
0.09200000 1086261.88362939 22730.03098295
0.09300000 1076585.76833734 16697.84605158
0.09400000 1066909.76260699 22805.19724751
0.09500000 1057238.52089203 22836.35312464
0.09600000 1047572.88862084 19814.84211972
0.09700000 1037918.43485992 18308.88205168
0.09800000 1028273.72019438 15269.86546284
0.09900000 1018642.40285137 25975.38249414
0.10000000 1009024.43306634 21401.40923179
0.10100000 999423.63417280 15291.18232202
0.10200000 989841.66993769 22939.58177980
0.10300000 980280.22479967 16821.60944886
0.10400000 970741.75007523 16818.10161126
0.10500000 961229.33239191 18340.25652493
0.10600001 951739.95416151 24440.68317289
0.10700001 942281.27041967 18317.94875896
0.10800001 932850.57414910 24403.37216820
0.10900001 923452.70541989 19808.06146354
0.11000001 914088.11630601 25873.26534988
0.11100001 904757.79749133 18239.91805604
0.11200001 895464.61272582 19731.56367032
0.11300001 886208.76687343 18185.00475241
0.11400001 876992.91081165 19666.56695094
0.11500001 867818.59735130 18120.05316593
0.11600001 858686.94446900 18083.94790212
0.11700001 849599.24309252 22556.86096642
0.11800001 840556.24762908 19505.10864489
0.11900001 831559.46154308 23948.91362047
0.12000001 822610.40161690 20902.53128970
0.12100001 813712.16031699 23825.49317646
0.12200001 804863.49834290 16334.70546842
0.12300001 796066.89873334 16287.52951546
0.12400001 787322.61783178 20667.21969187
0.12500001 778631.43609545 19130.97528633
0.12600001 769996.87150584 17602.12931210
0.12700001 761417.31421779 16081.13443413
0.12800001 752894.50166829 24766.46579960
0.12900001 744429.82694947 17419.65877164
0.13000001 736023.97307433 17355.44610314
0.13100001 727676.94662503 18730.40548904
0.13200001 719390.35795085 24398.12514004
0.13300001 711165.76967213 20012.20570201
0.13400001 703002.20157397 24200.85193015
0.13500001 694901.95009195 17011.20054030
0.13600001 686864.24082008 21172.59122158
0.13700001 678891.27346656 16863.66002809
0.13800001 670981.50019585 13989.96493879
0.13900001 663137.82003213 22281.43180383
0.14000001 655359.20872570 13860.84791823
0.14100001 647646.70562056 15174.36302836
0.14200001 640000.32698301 15100.80842740
0.14300001 632422.07319914 16392.38091051
0.14400001 624908.39459694 19028.46151305
0.14500001 617464.32639846 18931.45714041
0.14600001 610087.35046538 14797.66938361
0.14700001 602780.39076692 16058.07036759
0.14800001 595538.88928577 18634.41272490
0.14900001 588367.25787140 14562.09031937
0.15000001 581263.95870059 14482.19221434
0.15100001 574229.81553004 19638.66061778
0.15200001 567264.86468117 14320.60218462
0.15300001 560369.93503888 16827.90994331
0.15400001 553541.73153373 12869.84586550
0.15500001 546784.38982910 15353.70639099
0.15600001 540093.70594614 13991.12811284
0.15700001 533475.73618840 18965.06331659
0.15800001 526922.87210284 15080.53331137
0.15900001 520441.36470613 17486.83067951
0.16000001 514026.15261108 12413.73217152
0.16100001 507682.67735037 13570.35860615
0.16200001 501406.25261518 17163.13683722
0.16300001 495197.96413768 15836.43164073
0.16400001 489057.90991074 18156.27576259
0.16500001 482985.17473814 15634.23084439
0.16600001 476981.04510095 13143.21331829
0.16700001 471042.32718153 13057.29392597
0.16800001 465170.35734304 14150.48293851
0.16900001 459367.27096924 16399.41234795
0.17000001 453628.55976381 13962.68772884
0.17100001 447955.77535289 11557.25954985
0.17200001 442349.28406179 17218.44669521
0.17300001 436807.51333740 23941.42093664
0.17400001 431330.54190574 11322.42725974
0.17500001 425917.69680696 15741.91881744
0.17600001 420567.30473671 11166.06246812
0.17700001 415282.07919653 13305.63844589
0.17800001 410058.23751325 13212.07703671
0.17900001 404897.33132167 22957.67977031
0.18000001 399798.37004581 10854.52625946
0.18100001 394762.12896131 16165.50994457
0.18200001 389784.12001714 10699.57459990
0.18300001 384867.27454047 10622.33727911
0.18400001 380009.95151879 12654.33198338
0.18500001 375213.16717244 12562.13743039
0.18600001 370473.34990822 12470.13354704
0.18700001 365791.33028178 11346.84760142
0.18800001 361166.77630154 11262.98645110
0.18900001 356600.82396539 11179.43635951
0.19000001 352087.28345102 10087.30114748
0.19100001 347633.69181086 12014.22095666
0.19200001 343232.02471008 9936.56758487
0.19300001 338886.87853489 11833.93035762
0.19400001 334593.53227442 9786.86128149
0.19500001 330354.43422203 11654.90499011
0.19600001 326167.28971226 15421.19018634
0.19700001 322032.03368320 11477.22222285
0.19800001 317948.29066839 14236.13538746
0.19900001 313915.67267539 10359.21768786
0.20000001 309931.47593704 14951.09510581
0.20100001 305998.28849921 12053.27315365
0.20200001 302112.04148526 12879.03693722
0.20300001 298275.69999521 9127.23685125
0.20400001 294485.99031189 9960.98909311
0.20500001 290742.81173508 8983.95330726
0.20600001 287045.91200764 11586.60878586
0.20700001 283395.03779477 9726.11815686
0.20800001 279787.87175194 11402.75525226
0.20900001 276227.30261238 15662.08879849
0.21000001 272708.58155590 8631.22701426
0.21100001 269233.47052396 9417.78724414
0.21200001 265800.59028254 11889.26096540
0.21300001 262408.77656041 10950.31876355
0.21400001 259059.30022687 9190.12911003
0.21500001 255751.19908557 12429.50886320
0.21600001 252482.07727671 10683.77960508
0.21700001 249252.81888935 11410.79458825
0.21800001 246062.50680058 8083.15373058
0.21900001 242909.65554185 10420.82471546
0.22000001 239794.30116518 7949.18145948
0.22100001 236717.78041086 11824.05369061
0.22200001 233677.79708236 9379.82721841
0.22300001 230672.55359169 8525.65798389
0.22400001 227702.63343183 10758.94993841
0.22500001 224769.99741608 10667.58458181
0.22600001 221869.49359535 9065.58793700
0.22700001 219005.28338657 7489.98104602
0.22800001 216173.27904958 8168.10773516
0.22900001 213373.39985037 8833.65917156
0.23000001 210607.12310728 7297.53716078
0.23100001 207873.51566784 10850.99803103
0.23200001 205169.83153203 7887.75454629
0.23300001 202497.69574360 7818.43640243
0.23400001 199856.80993845 7749.44817188
0.23500001 197244.43711285 7680.69874444
0.23600001 194663.29128325 7612.30836567
0.23700001 192110.65193741 7544.18565841
0.23800001 189587.17301831 8835.71061644
0.23900001 187091.65688561 8082.35995975
0.24000001 184623.99077901 8676.40485706
0.24100001 182185.04437444 8597.31265069
0.24200001 179772.80363582 9173.80660348
0.24300001 177387.39307910 7790.85467256
0.24400001 175027.98710456 9005.19036251
0.24500001 172694.79360922 8284.16964131
0.24600001 170387.45685929 6944.14113279
0.24700001 168105.86829940 6878.89245622
0.24800001 165849.04630453 7433.35460702
0.24900001 163616.04523175 8589.84278103
0.25000001 161408.59110325 9723.25398805
0.25100001 159223.85740648 7222.39451364
0.25200001 157064.59353085 7748.78208844
0.25300001 154928.48809285 6493.05324316
0.25400001 152815.15203522 7598.73379446
0.25500001 150724.30810027 9260.50192781
0.25600001 148656.66151295 8023.00040144
0.25700001 146610.57135463 5673.82937987
0.25800001 144587.33986819 7302.38394555
0.25900001 142585.86737874 8341.27363632
0.26000001 140605.95946949 7156.14064580
0.26100001 138646.49260892 6538.56890082
0.26200001 136709.35907572 7011.13981194
0.26300001 134792.05616387 6405.31881199
0.26400001 132895.69630693 5810.86459598
0.26500001 131020.43879018 6273.25890612
0.26600001 129164.23531170 7759.54180353
0.26700001 127329.22611140 5630.49864508
0.26800001 125514.30898724 5064.50260729
0.26900001 123717.57813350 5511.61836667
0.27000001 121941.47347144 5452.61324430
0.27100001 120184.02176800 4903.50832018
0.27200001 118447.23901146 6790.58053388
0.27300001 116728.36193452 5277.28949280
0.27400001 115026.56098200 6642.78421108
0.27500001 113346.19855476 5631.03941069
0.27600001 111681.94229447 4640.38492195
0.27700001 110037.80134376 6882.86479979
0.27800001 108410.75785094 4536.99043078
0.27900001 106803.01091884 5831.44467216
0.28000001 105211.71524041 5765.07620945
0.28100001 103638.99767271 6137.50173266
0.28200001 102084.46062839 5633.53122641
0.28300001 100547.05542005 5568.29619271
0.28400001 99026.74670409  6773.42979515
0.28500001 97524.40018043  5857.31575207
0.28600001 96038.86202244  5374.81516749
0.28700001 94570.48076496  4085.44496242
0.28800001 93118.34034460  4844.01629401
0.28900001 91685.07212691  4785.96099156
0.29000001 90266.81223383  3940.14654051
0.29100001 88866.25666208  5449.27911646
0.29200001 87482.15325136  4998.29306261
0.29300001 86114.59583252  3797.65385598
0.29400001 84762.67544912  4875.97313602
0.29500001 83428.34732552  4445.06255592
0.29600001 82109.44307811  3657.97586229
0.29700001 80806.81865403  3612.06496482
0.29800001 79520.14576858  3923.12657721
0.29900001 78250.08098231  4577.62995417
0.30000001 76995.12384706  4519.22900814
0.30100001 75757.12744979  3774.97783953
0.30200001 74533.09723440  3726.28237264
0.30300001 73326.32522894  4346.78476535
0.30400001 72134.91429652  3300.17248530
0.30500001 70958.70925506  4559.80687260
0.30600001 69797.04157279  3535.56930825
0.30700001 68651.98711992  3488.89415061
0.30800001 67521.62278421  4381.47830990
0.30900001 66406.58224824  4014.27808696
0.31000001 65307.05983757  3655.88938279
0.31100001 64221.44282532  3005.56366652
0.31200001 63151.64204711  3854.46065484
0.31300001 62096.11210077  3509.67242210
0.31400001 61056.45260130  4038.88453080
0.31500001 60030.54304796  4268.17181280
0.31600002 59019.74233349  5332.13887358
0.31700002 58023.31994171  3321.25499072
0.31800002 57041.35414265  3275.31470995
0.31900002 56074.07012039  3499.02214119
0.32000002 55121.20268881  2919.49463865
0.32100002 54181.84547117  3925.47489026
0.32200002 53257.92988838  2838.38150780
0.32300002 52346.42270782  3561.65076969
0.32400002 51449.61749309  3260.61966302
0.32500002 50566.59906913  2967.24817388
0.32600002 49697.75316396  3412.74487137
0.32700002 48842.01208513  3123.93524089
0.32800002 48000.83371473  3316.37775839
0.32900002 47172.36196992  3035.54163651
0.33000002 46358.24584017  2301.68701496
0.33100002 45555.08749348  2495.50781107
0.33200002 44768.34520135  2907.03263331
0.33300002 43993.23820656  2644.87360623
0.33400002 43231.59869418  2606.86552471
0.33500002 42482.16869603  2997.54196514
0.33600002 41746.52911137  2321.31586117
0.33700002 41022.70520695  2495.82150299
0.33800002 40312.50362188  2254.87999687
0.33900002 39614.01246866  2626.40915105
0.34000002 38928.54559338  2389.43424168
0.34100002 38255.12095544  3139.98047673
0.34200002 37594.56928983  2901.36102235
0.34300002 36945.20881016  3050.19658382
0.34400002 36309.14353231  2254.79792014
0.34500002 35684.16070886  2037.20883135
0.34600002 35072.04970381  2555.70038296
0.34700002 34469.94412319  1979.26428529
0.34800002 33881.09331247  1951.04285080
0.34900002 33302.95556323  2447.76734983
0.35000002 32736.33522525  2412.99538374
0.35100002 32181.71979432  1869.11437418
0.35200002 31636.85333082  1842.68860953
0.35300002 31103.65590293  1981.92504801
0.35400002 30581.69498777  2442.71300284
0.35500002 30070.47481989  1605.76343144
0.35600002 29569.21187680  1741.77450810
0.35700002 29078.99481488  1717.69630507
0.35800002 28599.80726929  1694.10966384
0.35900002 28130.74742031  2126.68460571
0.36000002 27672.17815704  1498.44851818
0.36100002 27222.92575077  1773.84592594
0.36200002 26784.79543804  2041.80505295
0.36300002 26355.51285388  1439.01106998
0.36400002 25936.10679156  1562.00210551
0.36500002 25526.24352742  1401.39083604
0.36600002 25126.22156796  1659.83827540
0.36700002 24735.04997123  1638.44978770
0.36800002 24354.56920100  1348.02546913
0.36900002 23982.19244822  1730.31526710
0.37000002 23618.49304653  1314.36920030
0.37100002 23263.70228524  2076.98343841
0.37200002 22918.46633332  1795.20355293
0.37300002 22581.31278590  1773.53639022
0.37400002 22252.67062120  1752.39789443
0.37500002 21932.86513762  1237.01365236
0.37600002 21621.51703693  1344.96653099
0.37700002 21317.70193097  1692.19925944
0.37800002 21021.91512428  1434.11511772
0.37900002 20734.63815343  1300.06187381
0.38000002 20455.07469676  1636.61060402
0.38100002 20182.24409995  1272.08690588
0.38200002 19917.97095877  1602.00248011
0.38300002 19660.41712491  1245.68408805
0.38400002 19411.02837760  1233.08563610
0.38500002 19167.64259716  1331.76787074
0.38600002 18932.39973452  1208.92844232
0.38700002 18703.53887569  1632.81902120
0.38800002 18481.62345214  1617.60416928
0.38900002 18265.86194147  1602.82946130
0.39000002 18057.88674334  1694.55217228
0.39100002 17855.20760588  1049.88625697
0.39200002 17659.51629832  1041.02853511
0.39300002 17469.69711177  1342.19689269
0.39400002 17287.28733884  1229.12618802
0.39500002 17109.61295587  1117.94216350
0.39600002 16938.00101362  1210.38960978
0.39700002 16772.11478920  1101.42483039
0.39800002 16612.20099552  994.24027669
0.39900002 16457.53826516  1184.94281123
0.40000002 16308.17978120  1079.03076635
0.40100002 16164.54900422  1072.19458625
0.40200002 16026.21362131  1065.66312524
0.40300002 15892.42845335  1155.69745188
0.40400002 15764.06579771  1244.96715536
0.40500002 15640.75018531  1047.77390456
0.40600002 15522.09721567  1231.91130389
0.40700002 15408.10185951  1131.57105418
0.40800002 15298.80757108  938.58188896
0.40900002 15193.79359974  1308.18569092
0.41000002 15093.64922860  1023.57587094
0.41100002 14997.45318766  1297.57971128
0.41200002 14905.24044736  1200.39359631
0.41300002 14817.83664619  1012.20646926
0.41400002 14733.79185014  1100.61430336
0.41500002 14654.02244677  1188.73435721
0.41600002 14577.46456238  1367.73067737
0.41700002 14504.99298908  909.46310351
0.41800002 14437.19194665  1088.85306821
0.41900002 14370.89056479  1358.04922272
0.42000002 14309.22258011  993.99019363
0.42100002 14251.31699801  1082.53009046
0.42200002 14196.55228104  1351.15692737
0.42300002 14144.45999925  1349.38154787
0.42400002 14095.43946574  1347.87646278
0.42500002 14049.88805631  987.56667827
0.42600002 14006.32731404  1345.65796046
0.42700002 13966.97094523  986.34753489
0.42800002 13929.39434976  1523.80616710
0.42900002 13895.71902846  1075.52870377
0.43000002 13864.04413903  1075.57259527
0.43100002 13833.97904104  986.08607277
0.43200002 13807.55464642  1076.16086014
0.43300002 13783.26757077  897.29076138
0.43400002 13761.33822532  1526.47651498
0.43500002 13741.47795295  898.69270071
0.43600002 13724.19034530  1169.50693570
0.43700002 13708.45559743  1260.90380560
0.43800002 13694.76540641  991.98037922
0.43900002 13683.73539490  1083.75189463
0.44000002 13674.12301430  994.99760829
0.44100002 13666.69854733  1449.76345061
0.44200002 13660.90809477  998.54412451
0.44300002 13656.96995513  1364.33136317
0.44400002 13655.02162780  1002.62001054
0.44500002 13653.43288894  1004.75617391
0.44600002 13653.88641470  1373.23969124
0.44700002 13656.82584185  1009.51261407
0.44800002 13659.65834610  1011.97583653
0.44900002 13665.59612439  1014.67056032
0.45000002 13672.14932285  1017.41304008
0.45100002 13679.67466730  927.48198640
0.45200002 13688.68716623  1116.17560443
0.45300002 13698.57174756  1119.44733626
0.45400002 13710.04775802  1403.56620575
0.45500002 13722.47545182  1501.78778462
0.45600002 13735.78779149  1412.38244660
0.45700002 13750.17917825  1133.56482518
0.45800002 13765.10297321  1326.81833847
0.45900002 13781.11236631  950.89679834
0.46000002 13798.65246692  1049.59454964
0.46100002 13815.86776351  1053.18364953
0.46200002 13834.69025965  1249.06506929
0.46300002 13854.36129441  964.26359179
0.46400002 13873.75519424  1354.77225893
0.46500002 13894.54467050  1068.35159035
0.46600002 13915.60914956  1072.26731384
0.46700002 13936.90817332  1174.04520017
0.46800002 13959.75361922  1178.48245639
0.46900002 13981.98988381  1084.30336688
0.47000002 14005.08114960  989.45903012
0.47100002 14028.67705205  1191.87645883
0.47200002 14052.70967593  1096.74377864
0.47300002 14077.23864029  1301.15922919
0.47400002 14101.33944534  1808.49686958
0.47500002 14126.22017436  1109.47338508
0.47600002 14151.75409298  1215.06966402
0.47700002 14176.75136772  1016.47312124
