# SAXS profile: number of points = 501, q_min = 0, q_max = 0.5, delta_q = 0.001
#    q    intensity    error
0.00000000 1664650.74656090 274.66737318
0.00100000 1664563.71661427 549.30603953
0.00200000 1664302.60729121 748.93619700
0.00300000 1663867.61634283 1197.98472644
0.00400000 1663258.64072001 1496.93283353
0.00500000 1662476.33015610 1945.09738327
0.00600000 1661520.52111577 2442.43526548
0.00700000 1660391.97556996 2191.71749884
0.00800000 1659090.49288570 2687.72671195
0.00900000 1657617.45981417 3232.35418481
0.01000000 1655972.25031704 3005.58976411
0.01100000 1654156.48511012 3572.97816340
0.01200000 1652170.10932990 5154.77096711
0.01300000 1650014.41663584 4158.03651331
0.01400000 1647689.59721005 4078.03193388
0.01500000 1645197.19697936 3948.47344857
0.01600000 1642536.88335773 4188.46923980
0.01700000 1639710.98584438 5312.66383245
0.01800000 1636719.81476758 7463.44269118
0.01900000 1633564.46290256 5390.76297082
0.02000000 1630245.76295396 6162.32926272
0.02100000 1626766.34922507 6978.82795458
0.02200000 1623124.98929794 5599.78146749
0.02300000 1619324.71027423 8161.39691128
0.02400000 1615366.17933228 7269.14813845
0.02500000 1611251.78068726 6912.27045484
0.02600000 1606981.86071991 7159.10451695
0.02700000 1602558.46932988 6730.74587946
0.02800000 1597982.04890340 9036.58890096
0.02900000 1593255.94962394 7169.65210250
0.03000000 1588380.88796030 7385.97146851
0.03100000 1583358.37741011 9120.14467353
0.03200000 1578189.76733597 11718.05956218
0.03300000 1572879.15769190 12032.52611105
0.03400000 1567425.10438823 9051.88039550
0.03500000 1561831.76379456 11807.44867953
0.03600000 1556099.57111678 9499.98832070
0.03700000 1550232.00821977 8836.32285551
0.03800000 1544230.07908515 10840.49565687
0.03900000 1538096.51958108 11074.29545383
0.04000000 1531831.69611984 10362.84190445
0.04100000 1525439.49393620 10571.29618313
0.04200000 1518921.46231867 10776.74827512
0.04300000 1512279.40289639 12975.35787914
0.04400000 1505516.56404992 10162.23727929
0.04500000 1498634.68888336 16544.92773403
0.04600000 1491634.80867680 14722.43624604
0.04700000 1484520.73646700 14963.96971953
0.04800000 1477294.47722767 11943.92640411
0.04900000 1469958.52434745 14332.09627951
0.05000000 1462514.45614764 15663.53055473
0.05100000 1454966.31416522 18157.98044665
0.05200000 1447313.56552494 13807.37205855
0.05300000 1439561.45386569 17490.67247985
0.05400000 1431711.25597638 14173.94209515
0.05500000 1423766.28606362 13155.60109693
0.05600000 1415727.42882413 15735.81110568
0.05700000 1407599.76481371 15919.95408316
0.05800000 1399382.62437566 14861.44416479
0.05900000 1391080.20524410 18779.58364791
0.06000000 1382695.93765626 17712.33578888
0.06100000 1374231.32551585 20448.56307927
0.06200000 1365689.50268654 15486.91968438
0.06300000 1357073.13345243 13027.90269027
0.06400000 1348382.44324710 14461.40238014
0.06500000 1339622.94801346 14588.49458628
0.06600000 1330796.77167313 16049.40981731
0.06700000 1321904.57862329 18876.79826615
0.06800000 1312951.12934718 19024.66275477
0.06900000 1303939.47601386 23275.32073657
0.07000000 1294869.38498425 17927.46747462
0.07100000 1285745.42561403 22217.68199524
0.07200000 1276569.54761968 20967.65580192
0.07300000 1267345.15282656 16881.03822662
0.07400000 1258075.07418824 14153.34524790
0.07500000 1248760.13695838 25624.55921147
0.07600000 1239403.67130010 15746.62438208
0.07700000 1230009.46997758 18708.44491557
0.07800000 1220578.46327460 14463.85546810
0.07900000 1211112.57109443 17440.02184176
0.08000000 1201617.80346768 16059.62269672
0.08100000 1192094.11733650 19061.58583055
0.08200000 1182542.98522612 23556.25737109
0.08300000 1172968.62049752 17735.28637428
0.08400000 1163373.31875942 19282.91366355
0.08500000 1153759.13909011 17860.19231156
0.08600000 1144128.94456917 16423.97177042
0.08700000 1134484.43754320 14975.19527877
0.08800000 1124827.88114698 22524.67937781
0.08900000 1115162.70370767 16560.16692789
0.09000000 1105490.63763104 19616.93228628
0.09100000 1095813.56911854 16634.45076073
0.09200000 1086133.73765513 21212.19289310
0.09300000 1076455.38001789 21249.23020010
0.09400000 1066777.21001509 25842.67912716
0.09500000 1057103.41412238 15222.28987885
0.09600000 1047435.47936095 22860.28041166
0.09700000 1037778.78914192 16780.88380934
0.09800000 1028131.59074928 19848.08129263
0.09900000 1018498.06164825 18332.96597173
0.10000000 1008877.57752309 16812.94562009
0.10100000 999274.49782242 18346.68064290
0.10200000 989690.30906750 21407.00239204
0.10300000 980126.32276020 21405.95989604
0.10400000 970585.50153594 21401.41131570
0.10500000 961070.87211908 19865.33586135
0.10600001 951579.18383766 19854.70060501
0.10700001 942117.93408539 21367.23575055
0.10800001 932685.02631911 21349.16125717
0.10900001 923284.83187901 16757.62048731
0.11000001 913917.86457325 21303.42642595
0.11100001 904585.23569317 21275.84574503
0.11200001 895289.63454506 27315.28803589
0.11300001 886031.49095682 19696.48097130
0.11400001 876813.27047941 16637.53259072
0.11500001 867636.65817627 16606.56641946
0.11600001 858502.58936724 19586.73749878
0.11700001 849412.50962035 21048.44297967
0.11800001 840367.29369020 18000.66827865
0.11900001 831368.25531898 19454.01809078
0.12000001 822416.85529381 22390.29994007
0.12100001 813516.27618817 17864.81826667
0.12200001 804665.29293726 17815.29042493
0.12300001 795866.48304100 19244.05246660
0.12400001 787120.02594011 17710.20141811
0.12500001 778426.35999089 19125.93656620
0.12600001 769789.69346555 20530.29209218
0.12700001 761207.87953494 18999.74956858
0.12800001 752682.75468559 21846.61798436
0.12900001 744215.82689900 14512.20930852
0.13000001 735807.88761293 14458.62567310
0.13100001 727458.60120762 18724.78527773
0.13200001 719169.80262401 15782.18206256
0.13300001 710943.04780079 17147.94712136
0.13400001 702777.42221770 19923.74085919
0.13500001 694674.95576851 14171.36976583
0.13600001 686635.08454110 22576.56264421
0.13700001 678659.81420193 21072.38822460
0.13800001 670747.96972555 18180.62457673
0.13900001 662902.33263291 15313.04460596
0.14000001 655121.69841646 16626.98948995
0.14100001 647407.15705825 15168.75040528
0.14200001 639758.62912625 19211.95253880
0.14300001 632178.35959850 23213.59045939
0.14400001 624662.72091333 13586.41482073
0.14500001 617216.75061330 21627.27596169
0.14600001 609837.70845609 18825.69094813
0.14700001 602528.70985212 20064.20698464
0.14800001 595285.35755948 14635.09120606
0.14900001 588112.01560803 14555.77307305
0.15000001 581006.67976947 14475.78210947
0.15100001 573970.65222408 17012.49093466
0.15200001 567003.80419446 13012.73792030
0.15300001 560106.87613292 16820.01028399
0.15400001 553276.95371804 18009.16569339
0.15500001 546517.87252972 15346.22258487
0.15600001 539825.49211582 16526.75822110
0.15700001 533205.72114080 13900.67380621
0.15800001 526651.17485502 17584.88355839
0.15900001 520167.91283491 16229.23964648
0.16000001 513750.93990470 17369.92009808
0.16100001 507405.74642929 14795.95226431
0.16200001 501127.76745344 22054.63408674
0.16300001 494917.91549417 13392.47942550
0.16400001 488776.28723482 14516.65641620
0.16500001 482701.84481661 18028.91475507
0.16600001 476696.23446003 15523.61360811
0.16700001 470756.10741732 15421.97080714
0.16800001 464882.46885120 16498.67959854
0.16900001 459077.88138608 12877.13518091
0.17000001 453337.97410471 16279.36741881
0.17100001 447663.60193077 13859.66577025
0.17200001 442055.76447210 13765.61715571
0.17300001 436512.49440192 12532.27430611
0.17400001 431034.26222475 12446.11490952
0.17500001 425620.09016498 11236.37091102
0.17600001 420268.41048823 11158.12682545
0.17700001 414981.79603348 11080.01447741
0.17800001 409756.86128805 15402.76114332
0.17900001 404594.72044507 13108.86956160
0.18000001 399494.57117223 14100.16155555
0.18100001 394457.08009932 12922.41455446
0.18200001 389477.90403356 10691.16897075
0.18300001 384560.00328516 10613.85659206
0.18400001 379701.64778741 15805.08183579
0.18500001 374903.81028691 18827.67024207
0.18600001 370162.91410291 11421.37725423
0.18700001 365479.86887394 11337.18606809
0.18800001 360854.26454985 11253.24077166
0.18900001 356287.40810597 15231.28741617
0.19000001 351773.04816958 14109.61762874
0.19100001 347318.49772194 16004.43713124
0.19200001 342916.10257636 10920.16380254
0.19300001 338569.99718456 13793.34233707
0.19400001 334275.96763036 14666.35877282
0.19500001 330035.89660835 11643.66698257
0.19600001 325848.14842314 13480.33853730
0.19700001 321712.14292306 12421.30642526
0.19800001 317627.75671476 15169.90237761
0.19900001 313594.39250211 12230.18188558
0.20000001 309609.60954828 14002.09525358
0.20100001 305675.68928472 12966.76335230
0.20200001 301789.01144604 11027.37099943
0.20300001 297952.08681484 12764.26800245
0.20400001 294162.03532035 11759.12791773
0.20500001 290418.18035060 9871.31441670
0.20600001 286720.71641332 8902.67866545
0.20700001 283069.53067241 10598.12372934
0.20800001 279461.92902062 13141.69783341
0.20900001 275901.04792277 15643.59015671
0.21000001 272381.98740042 13793.42449400
0.21100001 268906.50258042 13681.96349808
0.21200001 265473.38055381 8481.87490967
0.21300001 262081.25629103 10095.37046959
0.21400001 258731.52449580 10012.91047136
0.21500001 255423.34598592 9103.28848132
0.21600001 252153.90334173 10669.89292436
0.21700001 248924.51958629 9767.79861038
0.21800001 245734.00044606 9686.83475558
0.21900001 242581.14022755 8005.17800601
0.22000001 239465.75684869 7938.29021488
0.22100001 236389.23127891 10233.29030593
0.22200001 233349.14031780 8586.08202398
0.22300001 230344.03893290 12383.29611858
0.22400001 227374.15261229 7673.87801353
0.22500001 224441.50333512 7608.56732285
0.22600001 221541.15516353 7543.47669004
0.22700001 218677.00072075 7478.75377831
0.22800001 215845.20540245 8897.13978743
0.22900001 213045.54436642 7350.07162823
0.23000001 210279.35900796 8743.41616104
0.23100001 207546.12573220 7944.86606876
0.23200001 204842.73170752 9307.02995529
0.23300001 202170.75942387 9225.05218881
0.23400001 199530.21808760 9143.47267631
0.23500001 196918.26704646 9759.26977640
0.23600001 194337.46714343 7599.56701208
0.23700001 191785.17725680 10270.09672786
0.23800001 189262.16095383 7463.55367023
0.23900001 186767.09961885 8068.33908516
0.24000001 184299.91481785 7328.68645938
0.24100001 181861.52641565 7921.88846538
0.24200001 179449.89747504 9811.42360855
0.24300001 177064.82818436 7128.63031991
0.24400001 174706.09520224 7062.49423263
0.24500001 172373.55076661 6996.64275659
0.24600001 170066.66104262 6931.06709867
0.24700001 167785.77208948 8738.28342379
0.24800001 165529.67392881 9273.80042057
0.24900001 163297.38608646 9797.84362870
0.25000001 161090.66661637 7884.58305054
0.25100001 158906.69657188 6006.67341459
0.25200001 156748.09185215 6543.44940394
0.25300001 154612.86120695 9425.20046509
0.25400001 152500.19352540 6416.44594615
0.25500001 150410.27478290 7508.48127240
0.25600001 148343.45605854 7434.23265211
0.25700001 146298.29557775 8492.61646010
0.25800001 144275.95018803 6165.63302301
0.25900001 142275.39059782 7768.23669419
0.26000001 140296.49940269 7140.39067495
0.26100001 138337.87709776 8698.68612350
0.26200001 136401.77736639 5919.15540889
0.26300001 134485.51170395 6390.75181857
0.26400001 132590.12007249 5270.45752227
0.26500001 130715.92576223 5737.12225318
0.26600001 128860.86060215 5676.96548246
0.26700001 127026.89454410 5617.12954254
0.26800001 125213.13281483 6062.82017779
0.26900001 123417.46150132 4998.40742734
0.27000001 121642.52971177 4944.76906678
0.27100001 119886.23199790 4891.35849699
0.27200001 118150.61646430 4838.26797318
0.27300001 116432.96722480 5263.93469734
0.27400001 114732.38029475 6152.52418447
0.27500001 113053.31422897 5148.44817364
0.27600001 111390.40492979 6016.75300703
0.27700001 109747.42987958 5491.76165108
0.27800001 108121.60911024 5429.86746650
0.27900001 106515.24742977 4921.00466416
0.28000001 104925.23741197 6191.63855272
0.28100001 103353.90680617 4809.05751130
0.28200001 101800.81709070 7346.45631306
0.28300001 100264.76309101 4271.27910984
0.28400001 98745.82203546  5909.93772854
0.28500001 97244.90389291  4171.80657446
0.28600001 95760.78461613  4122.50197285
0.28700001 94293.84851532  4480.84389354
0.28800001 92843.08076753  4427.22251595
0.28900001 91411.35164091  5964.59097690
0.29000001 89994.61885662  5499.57141865
0.29100001 88595.45472975  5044.62543110
0.29200001 87212.93507170  3833.00867784
0.29300001 85846.89975450  3785.84845838
0.29400001 84496.55108310  3738.97256242
0.29500001 83163.77042834  5169.46021453
0.29600001 81846.46882678  5104.76450237
0.29700001 80545.33749974  4680.48978368
0.29800001 79260.29004563  3554.82417683
0.29900001 77991.83209544  4211.55913253
0.30000001 76738.42241121  3811.21392947
0.30100001 75502.09954147  4104.29432537
0.30200001 74279.67111003  4726.41569648
0.30300001 73074.63859047  3998.64441297
0.30400001 71884.85892703  3288.73245161
0.30500001 70710.25132028  4219.28089603
0.30600001 69550.31712632  3843.35070635
0.30700001 68406.94192905  4108.52112677
0.30800001 67278.18693258  4053.84734555
0.30900001 66164.96432228  4922.67357864
0.31000001 65067.11413710  4249.53342549
0.31100001 63983.34544032  4791.07313341
0.31200001 62915.25717643  3544.64575714
0.31300001 61861.49471524  3787.77950075
0.31400001 60823.42039068  3161.29742448
0.31500001 59799.33797222  3684.83538031
0.31600002 58790.33664630  2795.48063989
0.31700002 57795.71861210  3032.54149916
0.31800002 56815.53845892  2990.48600838
0.31900002 55850.04973395  3216.96301700
0.32000002 54898.98940415  2643.38646497
0.32100002 53961.41594938  3388.23746789
0.32200002 53039.32431110  3083.70646146
0.32300002 52129.73118736  2786.85556124
0.32400002 51234.67010212  2997.22834290
0.32500002 50353.50356234  2954.74372895
0.32600002 49486.43988171  2427.30999114
0.32700002 48632.54061736  2871.26533401
0.32800002 47793.21982315  2830.31461195
0.32900002 46966.63044366  2557.33314876
0.33000002 46154.33505771  3208.18798178
0.33100002 45353.09121968  2936.15926460
0.33200002 44568.22427544  2448.80119878
0.33300002 43795.03553724  2194.13138432
0.33400002 43035.18331619  2378.76987045
0.33500002 42287.69728470  2983.82006171
0.33600002 41553.91520894  2100.55051329
0.33700002 40831.98630358  2691.23634472
0.33800002 40123.69717475  2040.29009796
0.33900002 39427.11591723  3619.40941261
0.34000002 38743.54320286  2774.42526015
0.34100002 38072.03432273  2148.40499858
0.34200002 37413.36186795  2117.40931520
0.34300002 36765.94997852  2086.83541961
0.34400002 36131.82134185  2243.78621159
0.34500002 35508.72513390  1842.90292173
0.34600002 34898.50216396  2543.05397313
0.34700002 34298.38264412  2148.45079058
0.34800002 33711.34100601  1941.26766377
0.34900002 33135.18356544  1913.55694153
0.35000002 32570.53318123  2229.29024917
0.35100002 32017.78826949  2366.75502098
0.35200002 31474.87151360  1833.25397814
0.35300002 30943.63102339  1971.72826220
0.35400002 30423.53328555  1782.05854661
0.35500002 29914.28218098  2396.13411619
0.35600002 29414.90379779  1732.68499028
0.35700002 28926.69014781  2330.04500177
0.35800002 28449.36507362  1685.19821996
0.35900002 27982.25367730  1813.25012417
0.36000002 27525.63190839  1639.56434228
0.36100002 27078.35612729  1470.35480736
0.36200002 26642.05682150  1740.79207517
0.36300002 26214.74514031  1860.72269820
0.36400002 25797.25488730  1694.87972638
0.36500002 25389.39858172  1672.65365779
0.36600002 24991.25232999  1513.34535653
0.36700002 24602.02339417  1493.83493125
0.36800002 24223.47185452  1474.84615372
0.36900002 23853.04312845  1853.38153887
0.37000002 23491.26567798  1830.20459567
0.37100002 23138.35810510  1936.68066514
0.37200002 22794.99868242  1402.91826037
0.37300002 22459.75492355  1889.98846635
0.37400002 22133.08920579  1493.98359216
0.37500002 21815.13208640  1476.44820955
0.37600002 21505.77588387  1337.76685223
0.37700002 21203.82827924  1322.48283242
0.37800002 20909.95610076  1188.73106064
0.37900002 20624.61713876  1645.84452564
0.38000002 20346.97439730  1162.82964189
0.38100002 20076.01262582  1840.56892473
0.38200002 19813.63536584  1365.95208683
0.38300002 19557.99043830  1464.50239340
0.38400002 19310.46119418  1226.69710547
0.38500002 19069.04936169  1214.50781138
0.38600002 18835.64520935  1093.40925620
0.38700002 18608.64125508  1191.32526959
0.38800002 18388.59319718  1180.27191028
0.38900002 18174.71031333  1063.22060370
0.39000002 17968.60268561  1370.01617667
0.39100002 17767.88410909  1985.02810671
0.39200002 17574.04977576  1035.99028336
0.39300002 17386.16399653  1541.28351131
0.39400002 17205.53546735  1121.37082721
0.39500002 17029.70649681  1112.72107522
0.39600002 16859.94703436  1004.00989346
0.39700002 16695.88811381  1594.79130819
0.39800002 16537.92871748  1187.75409676
0.39900002 16385.07126499  983.10432248
0.40000002 16237.52749086  1269.69352230
0.40100002 16095.75735469  1164.68905737
0.40200002 15959.23165500  1157.68271910
0.40300002 15827.28691772  1342.78708572
0.40400002 15700.67556166  1526.10573690
0.40500002 15579.32168182  1043.65880891
0.40600002 15462.38609106  1132.77445870
0.40700002 15350.29237850  1033.38173188
0.40800002 15242.70208531  1122.16778069
0.40900002 15139.53571008  1024.18963931
0.41000002 15041.25385500  1390.94001615
0.41100002 14946.82389692  1293.19926484
0.41200002 14856.40300823  1656.63757794
0.41300002 14770.79925634  1008.99334501
0.41400002 14688.53934948  1462.97858853
0.41500002 14610.49097357  1458.71148792
0.41600002 14535.73410319  1091.05225348
0.41700002 14465.05344484  997.65478336
0.41800002 14399.00211889  1085.97279126
0.41900002 14334.45180942  1083.68460814
0.42000002 14274.45836227  1442.29134127
0.42100002 14218.42104742  1170.03392343
0.42200002 14165.34133620  1078.54914045
0.42300002 14114.93977988  987.48123379
0.42400002 14067.68749943  1165.85965676
0.42500002 14023.89138780  1164.96471279
0.42600002 13981.99532698  895.54684313
0.42700002 13944.40466694  1074.27698645
0.42800002 13908.60241386  1074.02232929
0.42900002 13876.60794572  1074.04950590
0.43000002 13846.63734358  1432.29623469
0.43100002 13818.30041586  895.42590938
0.43200002 13793.54575082  985.47992287
0.43300002 13770.98166282  986.14004361
0.43400002 13750.65637872  1166.39948260
0.43500002 13732.52218240  1257.34979060
0.43600002 13716.92071232  1168.88745389
0.43700002 13702.88941764  1260.39182836
0.43800002 13690.79202425  991.69256727
0.43900002 13681.45127331  902.97582683
0.44000002 13673.50565422  1085.40293027
0.44100002 13667.71771030  1268.63761799
0.44200002 13663.53405643  1271.11863351
0.44300002 13661.29425866  1364.76336112
0.44400002 13660.88218505  1094.23671488
0.44500002 13660.89549545  1005.30534715
0.44600002 13663.04636158  1007.71803215
0.44700002 13667.53999262  1010.30460413
0.44800002 13672.02481202  1104.97309767
0.44900002 13679.63133742  923.37515904
0.45000002 13687.66860016  1018.56790715
0.45100002 13696.78402819  1392.96300168
0.45200002 13707.44859424  1210.84752896
0.45300002 13718.89430359  1121.10809562
0.45400002 13731.97794852  1593.25281699
0.45500002 13745.95960953  1128.26841822
0.45600002 13760.86780020  1037.63828565
0.45700002 13776.78561168  1135.75825965
0.45800002 13793.29569184  1139.60214407
0.45900002 13810.79018899  1620.00576595
0.46000002 13829.90416582  1817.04204494
0.46100002 13848.70364194  1535.54433259
0.46200002 13868.99775270  963.20193958
0.46300002 13890.21174122  1063.43466131
0.46400002 13911.13581202  1164.36212265
0.46500002 13933.43825698  1071.34211836
0.46600002 13955.96200213  1368.66125842
0.46700002 13978.75228149  1570.09353067
0.46800002 14003.11216494  1674.70227874
0.46900002 14026.85054552  1285.56091343
0.47000002 14051.39810925  1191.27758816
0.47100002 14076.44454404  1494.91848143
0.47200002 14101.95470687  1100.58710726
0.47300002 14127.96676259  1104.94833287
0.47400002 14153.53965064  1310.97167228
0.47500002 14179.88217289  1113.68799865
0.47600002 14206.79896980  1118.14616592
0.47700002 14233.24297923  1326.68064098
