# SAXS profile: number of points = 501, q_min = 0, q_max = 0.5, delta_q = 0.001
#    q    intensity    error
0.00000000 1682732.95097188 277.65093691
0.00100000 1682645.44301889 757.19046734
0.00200000 1682382.89222873 1211.31572076
0.00300000 1681945.50695941 1110.08407414
0.00400000 1681333.17356255 1387.09992090
0.00500000 1680546.55472115 1663.74115503
0.00600000 1679585.47107076 2116.27777971
0.00700000 1678450.71188725 2416.96912557
0.00800000 1677142.04041102 2490.55603516
0.00900000 1675660.86427651 3016.18968463
0.01000000 1674006.56630574 3314.53314441
0.01100000 1672180.78082763 3912.90319750
0.01200000 1670183.39190468 4233.91508411
0.01300000 1668015.77592183 3853.11661232
0.01400000 1665678.05190236 4872.10851780
0.01500000 1663171.82668743 4390.77381797
0.01600000 1660496.76529442 5504.54702302
0.01700000 1657655.13814586 6265.93670327
0.01800000 1654647.32800777 4715.74509702
0.01900000 1651474.39764511 5449.86575814
0.02000000 1648137.16479099 7787.44845591
0.02100000 1644638.33141454 7055.49876165
0.02200000 1640976.57667533 6227.50639141
0.02300000 1637155.00726861 5893.75829444
0.02400000 1633174.28550394 7961.72500487
0.02500000 1629036.69573130 7623.89208421
0.02600000 1624742.79970107 9870.31295964
0.02700000 1620294.39260671 6805.23676064
0.02800000 1615692.15326608 8433.91342682
0.02900000 1610939.29976400 9423.99533631
0.03000000 1606036.56297471 8961.68443333
0.03100000 1600985.50519122 9990.15001207
0.03200000 1595787.42110328 8689.06290811
0.03300000 1590446.47414992 12166.91608815
0.03400000 1584961.24102373 9985.25627917
0.03500000 1579335.78299079 10234.09634637
0.03600000 1573570.67225528 11353.31292500
0.03700000 1567669.18888683 10722.85774789
0.03800000 1561632.65769575 10962.66176437
0.03900000 1555463.56300322 10266.05999124
0.04000000 1549162.37680338 9527.34905883
0.04100000 1542732.84846540 12634.98261477
0.04200000 1536176.84054226 12880.84340553
0.04300000 1529495.92453630 11104.14092757
0.04400000 1522693.23205057 13361.63373178
0.04500000 1515770.81854716 11504.70104734
0.04600000 1508729.64611412 14891.16229939
0.04700000 1501573.43790071 16216.99388355
0.04800000 1494304.12211647 12081.44938944
0.04900000 1486924.40236151 12267.12689049
0.05000000 1479435.77722181 12449.45264504
0.05100000 1471842.33347970 12628.40780954
0.05200000 1464143.42785148 12803.93487324
0.05300000 1456344.51585453 14155.66935401
0.05400000 1448446.55030414 13144.65305700
0.05500000 1440453.25149357 15729.75024009
0.05600000 1432365.11777055 13471.39456126
0.05700000 1424187.62127110 12390.43288343
0.05800000 1415919.85433677 18796.33694397
0.05900000 1407566.08267457 12668.09533574
0.06000000 1399129.69907264 14082.24107907
0.06100000 1390612.31092900 16812.50362480
0.06200000 1382017.02407440 19590.09223196
0.06300000 1373346.41524406 15820.95144332
0.06400000 1364600.86259168 14635.34493574
0.06500000 1355785.79127950 20133.41994230
0.06600000 1346903.42479541 14890.01805780
0.06700000 1337954.36706612 16376.56221930
0.06800000 1328943.30680515 15130.02025620
0.06900000 1319873.48530896 15244.53946905
0.07000000 1310744.52089596 19543.20172174
0.07100000 1301561.05026168 14056.86000122
0.07200000 1292325.15678683 16981.15335569
0.07300000 1283040.05565535 21362.61792762
0.07400000 1273708.82018077 20060.91485798
0.07500000 1264331.80653419 21620.07490512
0.07600000 1254912.92665496 17393.09397884
0.07700000 1245455.55341808 18943.37985572
0.07800000 1235960.98041989 23433.82128772
0.07900000 1226430.95030496 19132.32372213
0.08000000 1216871.30564682 22177.48058578
0.08100000 1207282.43898147 17819.48963543
0.08200000 1197665.39420961 14910.93485761
0.08300000 1188024.74284051 20956.75744725
0.08400000 1178362.54739262 21033.77245826
0.08500000 1168681.03710336 19598.78191229
0.08600000 1158983.02013908 19662.14785983
0.08700000 1149270.22704564 19721.47802218
0.08800000 1139544.82392902 16734.21652530
0.08900000 1129810.22895247 18302.92656871
0.09000000 1120068.52187138 29048.97847932
0.09100000 1110321.26738764 18386.92105178
0.09200000 1100570.76710638 19958.85179928
0.09300000 1090821.37685594 18456.69856372
0.09400000 1081071.52326417 15405.26993052
0.09500000 1071326.00603346 20055.22377560
0.09600000 1061585.79450197 24713.71845774
0.09700000 1051856.34900154 21647.20468015
0.09800000 1042135.99575934 15475.72026466
0.09900000 1032429.08349932 20132.36807491
0.10000000 1022734.90630354 17043.87801507
0.10100000 1013057.56464088 20149.71590838
0.10200000 1003398.89664036 20153.26778696
0.10300000 993760.15471115 20153.45688558
0.10400000 984143.97785190 18600.32205645
0.10500000 974553.90100543 17044.94853054
0.10600001 964986.43542137 17036.83631901
0.10700001 955449.29236063 17026.10719108
0.10800001 945939.99772575 17012.73165975
0.10900001 936463.08411896 24722.62658433
0.11000001 927019.20760174 18521.84463970
0.11100001 917609.39869015 21582.17407314
0.11200001 908236.51923303 20012.99264345
0.11300001 898900.68119283 19982.56308371
0.11400001 889604.68780346 19949.38606330
0.11500001 880349.88655318 19913.51537152
0.11600001 871137.63481385 21403.85269532
0.11700001 861969.21403223 15256.85580689
0.11800001 852845.17779442 18267.94456875
0.11900001 843767.38566977 21262.93912040
0.12000001 834737.04171747 16665.52582292
0.12100001 825757.14237232 16622.49205901
0.12200001 816826.86419265 15070.45635434
0.12300001 807948.68060961 15027.84616737
0.12400001 799122.51613076 16481.90267178
0.12500001 790349.39545738 17925.12513361
0.12600001 781632.77190117 22335.15750959
0.12700001 772971.08833827 19293.35927415
0.12800001 764365.87208606 16269.52835412
0.12900001 755819.06808015 14738.47252222
0.13000001 747330.89971443 19090.56873304
0.13100001 738901.44171769 17556.29908277
0.13200001 730532.34523994 21861.18146185
0.13300001 722225.26614134 15968.40138718
0.13400001 713979.09443815 17349.69281281
0.13500001 705796.43238939 23037.19663935
0.13600001 697676.12069387 14337.24495627
0.13700001 689620.63541544 18557.69217409
0.13800001 681628.20447895 21317.92310034
0.13900001 673702.21601195 15562.52192378
0.14000001 665841.15830194 14082.54116223
0.14100001 658046.27197648 15418.02487957
0.14200001 650317.48356083 19529.03495242
0.14300001 642656.95271262 15269.52991668
0.14400001 635060.96464568 17956.34962236
0.14500001 627534.82278081 16491.61592062
0.14600001 620075.67834234 21876.27096392
0.14700001 612686.77691698 13601.64708924
0.14800001 605363.46653852 14882.86152700
0.14900001 598110.14848582 18840.47056621
0.15000001 590925.22576304 13384.45699505
0.15100001 583809.43905188 13310.85583846
0.15200001 576763.18236474 17207.73035783
0.15300001 569787.00759122 18426.91269505
0.15400001 562877.81514765 17012.98276570
0.15500001 556039.53901029 16914.72357495
0.15600001 549268.13789179 12935.26525783
0.15700001 542569.68009464 14144.79222766
0.15800001 535936.47813633 12782.08560685
0.15900001 529374.69463708 19057.48990646
0.16000001 522879.43823452 15153.04683530
0.16100001 516456.20563741 16314.85230622
0.16200001 510100.30366775 18707.92952014
0.16300001 503812.56611425 12393.78971149
0.16400001 497593.59969041 18473.16326062
0.16500001 491441.89991841 18355.35582853
0.16600001 485359.13107179 20669.01957254
0.16700001 479342.19286166 16911.19336262
0.16800001 473391.96194061 15600.63284236
0.16900001 467510.94424080 13113.68260516
0.17000001 461694.88035074 14210.96908823
0.17100001 455944.64101623 16468.72121118
0.17200001 450261.13862978 12852.70480913
0.17300001 444642.75124308 15086.72926214
0.17400001 439089.47641978 12678.70923039
0.17500001 433600.40506664 14881.16660469
0.17600001 428174.20098617 14778.43324501
0.17700001 422813.48851021 14675.85687934
0.17800001 417514.55153588 11210.26623822
0.17900001 412278.74025492 11131.52651266
0.18000001 407105.27977375 13263.49064153
0.18100001 401994.81129551 12071.90475344
0.18200001 396942.97899182 18523.34498966
0.18300001 391952.73298659 12981.47512975
0.18400001 387022.30447238 10739.86945647
0.18500001 382152.75287093 10662.06230880
0.18600001 377340.67803583 11642.84717084
0.18700001 372586.46987919 11557.63284169
0.18800001 367890.30040624 11472.65956021
0.18900001 363253.04659227 15529.06847553
0.19000001 358668.60990764 11303.44177531
0.19100001 354144.54486066 12239.23604869
0.19200001 349672.83613446 18221.45235196
0.19300001 345257.96805257 14065.81028311
0.19400001 340895.31455904 12962.54494864
0.19500001 336587.14986706 10885.22894108
0.19600001 332331.64234008 11784.48059427
0.19700001 328128.35585890 14618.11894433
0.19800001 323976.87499652 15473.13628108
0.19900001 319877.19373067 9596.31626544
0.20000001 315826.03218152 10474.37085233
0.20100001 311826.43975144 17007.01482783
0.20200001 307874.23094113 13124.67908534
0.20300001 303972.43837050 13022.17987528
0.20400001 300117.62621469 10151.47918653
0.20500001 296309.76982724 10987.16678452
0.20600001 292548.70138642 9992.00136815
0.20700001 288834.07544774 10813.94829593
0.20800001 285163.57673698 14303.80568527
0.20900001 281540.09329867 8868.51335813
0.21000001 277958.99316841 10556.88305958
0.21100001 274421.89342118 14835.24825966
0.21200001 270927.56398937 10387.36329441
0.21300001 267474.68730852 12878.90680276
0.21400001 264064.63411175 9367.69333799
0.21500001 260696.51552992 10980.53775325
0.21600001 257367.69869319 8377.31898853
0.21700001 254079.10587563 8308.38715495
0.21800001 250830.23191881 11535.68291136
0.21900001 247619.12970264 10622.86116651
0.22000001 244445.98535337 11344.73871666
0.22100001 241312.23903762 8839.26773390
0.22200001 238215.34960368 9561.96458522
0.22300001 235153.86811372 8691.28737645
0.22400001 232127.88055270 9401.17960693
0.22500001 229139.94872281 8544.62909193
0.22600001 226184.62384175 8471.74548661
0.22700001 223265.96859687 8399.26613581
0.22800001 220379.96619119 11355.07829498
0.22900001 217526.61087031 9756.06895891
0.23000001 214707.29237476 11159.41204893
0.23100001 211921.25068596 8849.83184718
0.23200001 209165.45632207 9503.43295744
0.23300001 206441.82971156 10144.55199181
0.23400001 203749.88018855 8618.62033960
0.23500001 201086.84670289 10677.71206494
0.23600001 198455.67138131 7760.60939642
0.23700001 195853.27801906 8390.35482718
0.23800001 193280.66523260 9700.75704686
0.23900001 190736.44239621 7553.16347615
0.24000001 188220.59519944 7484.59232213
0.24100001 185734.00035001 8764.78789110
0.24200001 183274.46073515 8684.46073273
0.24300001 180842.21738900 8604.47311038
0.24400001 178436.61295564 9180.56417084
0.24500001 176057.58143224 8445.48258081
0.24600001 173704.84895533 9010.07094154
0.24700001 171378.44780630 7012.80641598
0.24800001 169077.26203833 7578.04324305
0.24900001 166800.28020976 6880.51188415
0.25000001 164549.44188351 6814.81545800
0.25100001 162321.75610852 7362.91520541
0.25200001 160119.89473386 6684.20532189
0.25300001 157941.76158338 7221.09768123
0.25400001 155786.77953915 7150.61351915
0.25500001 153654.81615415 7080.41426337
0.25600001 151546.55916410 6426.33214540
0.25700001 149460.24234329 8097.75631329
0.25800001 147397.34010303 8589.58040091
0.25900001 145356.55343399 6235.79643736
0.26000001 143337.81181532 7856.34583732
0.26100001 141339.99370658 6110.12821704
0.26200001 139364.79396456 7147.32379666
0.26300001 137410.02501576 6529.72469772
0.26400001 135476.60435063 9154.83197218
0.26500001 133564.80051985 6928.00653079
0.26600001 131672.45326288 6328.17840326
0.26700001 129801.68553770 7827.04200830
0.26800001 127951.50020680 7227.98058872
0.26900001 126119.90838834 5618.64218458
0.27000001 124309.33701259 7579.76218303
0.27100001 122517.86496963 4998.72912731
0.27200001 120747.55309117 4944.61253308
0.27300001 118995.54249459 5379.78873077
0.27400001 117260.95545594 5320.71610561
0.27500001 115548.29599531 10524.13929731
0.27600001 113852.19785976 5676.67085394
0.27700001 112176.48965969 5145.53582421
0.27800001 110518.40656317 7862.83240706
0.27900001 108879.92076586 5944.84395517
0.28000001 107258.33844264 5425.12701519
0.28100001 105655.73925748 5363.08557854
0.28200001 104071.80099861 4417.84816149
0.28300001 102505.32475936 5240.07244971
0.28400001 100956.31632530 4747.47099990
0.28500001 99425.66214125  6398.04166162
0.28600001 97912.16474524  6744.19022687
0.28700001 96416.32431683  4165.18540764
0.28800001 94936.97195726  4527.06972206
0.28900001 93476.94140083  6505.99542945
0.29000001 92032.19277393  6829.24918805
0.29100001 90605.61024072  5555.93628295
0.29200001 89195.82345164  5096.20361414
0.29300001 87802.91693430  4259.31970210
0.29400001 86426.11488893  3824.35576487
0.29500001 85067.20753488  5665.47629001
0.29600001 83724.05256388  3729.90671829
0.29700001 82397.44473198  5524.74893081
0.29800001 81087.16992548  4364.11169198
0.29900001 79793.90597601  5745.16150224
0.30000001 78516.03928222  4608.49914383
0.30100001 77255.52352865  4199.61045783
0.30200001 76009.33284644  4836.47407798
0.30300001 74780.63688077  4091.99664384
0.30400001 73567.68410626  4038.86604864
0.30500001 72370.06797325  3986.14353268
0.30600001 71187.60407587  4589.46505205
0.30700001 70021.84765158  3558.51046612
0.30800001 68871.16789829  3830.61453986
0.30900001 67736.15810065  5669.51670144
0.31000001 66616.91624148  3418.44721878
0.31100001 65511.91624202  3679.14939034
0.31200001 64422.97409401  4536.98816538
0.31300001 63348.65475441  3580.46613624
0.31400001 62290.39104327  4414.83167422
0.31500001 61246.29440660  4064.30428926
0.31600002 60217.42764901  3722.34046637
0.31700002 59203.35241988  3671.20005738
0.31800002 58203.97210041  4456.09631500
0.31900002 57219.53384087  3021.19152985
0.32000002 56249.80649847  2708.42831114
0.32100002 55293.80376477  3738.96718761
0.32200002 54353.52215160  2896.77110023
0.32300002 53425.93040323  3115.80040865
0.32400002 52513.18234931  3584.02486505
0.32500002 51614.57240418  3785.92906512
0.32600002 50730.36902827  2737.15719053
0.32700002 49859.48549593  2943.70416307
0.32800002 49003.39750966  2660.14955978
0.32900002 48160.26902712  2622.32677270
0.33000002 47331.74973592  3290.03007994
0.33100002 46514.47928940  2548.06329614
0.33200002 45713.75628128  2283.40223438
0.33300002 44924.85061258  2925.95565896
0.33400002 44149.71168304  2440.37542885
0.33500002 43386.94405339  2405.37229223
0.33600002 42638.25362355  2370.90020502
0.33700002 41901.44635112  2761.72445979
0.33800002 41178.60692027  2931.50516548
0.33900002 40467.62932951  2889.38887096
0.34000002 39769.84903788  2237.65066209
0.34100002 39084.34975402  2205.52996107
0.34200002 38411.90129088  2766.80938102
0.34300002 37750.73608212  2532.31949632
0.34400002 37103.16662947  2496.11565321
0.34500002 36466.83602714  2081.89176739
0.34600002 35843.55412864  2425.35420498
0.34700002 35230.46441246  2206.83639531
0.34800002 34630.72644006  1812.91861500
0.34900002 34041.96208210  1787.20309396
0.35000002 33464.86020315  2466.69496240
0.35100002 32899.90030859  2084.53778228
0.35200002 32344.87520221  2568.99183461
0.35300002 31801.64807384  1688.66759270
0.35400002 31269.78660567  1831.62783718
0.35500002 30748.93629413  1806.19260347
0.35600002 30238.10163927  2266.95058727
0.35700002 29738.37238679  2235.73094193
0.35800002 29249.99808989  1732.62371892
0.35900002 28771.79810371  1709.04488831
0.36000002 28304.23942973  1532.67463772
0.36100002 27846.15365523  2570.47856567
0.36200002 27399.31390016  1939.46052629
0.36300002 26961.38148665  1619.30064879
0.36400002 26533.51469923  1743.25199831
0.36500002 26115.32054094  1577.10428217
0.36600002 25707.07153712  1556.69179067
0.36700002 25307.76156978  1536.68735531
0.36800002 24919.37347053  1517.21612562
0.36900002 24539.09353433  1634.30370680
0.37000002 24167.65493261  1748.40907892
0.37100002 23805.09716206  1593.98938148
0.37200002 23452.33374812  1443.37394890
0.37300002 23107.75689538  1944.51783486
0.37400002 22771.79433275  1921.37023784
0.37500002 22444.71538112  2025.41121194
0.37600002 22126.27623547  1751.73737254
0.37700002 21815.41958222  1731.70808847
0.37800002 21512.65187785  1956.79090751
0.37900002 21218.54394887  1572.29418109
0.38000002 20932.23774200  1435.53293235
0.38100002 20652.73883965  1301.74219073
0.38200002 20381.88038134  1405.12690006
0.38300002 20117.76357289  1622.29653137
0.38400002 19861.96925655  1376.43453469
0.38500002 19612.16931958  1249.09912314
0.38600002 19370.71718796  1349.36422324
0.38700002 19135.66785772  1893.28306754
0.38800002 18907.59517811  1213.58405400
0.38900002 18685.83141058  1858.30602182
0.39000002 18471.85347944  1300.04910947
0.39100002 18263.29697989  1073.88191329
0.39200002 18061.78116998  1810.06148570
0.39300002 17866.18897034  1161.48099999
0.39400002 17678.04982510  1047.42450176
0.39500002 17494.73895955  1247.02505212
0.39600002 17317.51786719  1134.38406163
0.39700002 17146.10713751  1125.98490907
0.39800002 16980.78219321  1219.55983490
0.39900002 16820.65486816  1110.16327390
0.40000002 16665.94357015  1202.94786389
0.40100002 16516.96621315  1593.55697575
0.40200002 16373.44251876  1286.70704130
0.40300002 16234.47198062  1278.95176323
0.40400002 16100.92345746  1075.94426102
0.40500002 15972.58300129  1264.54945613
0.40600002 15848.76931230  1064.32415360
0.40700002 15729.83481873  1251.46571747
0.40800002 15615.59262215  1149.61998331
0.40900002 15505.66304337  1335.03765129
0.41000002 15400.67473683  1139.34197102
0.41100002 15299.63035116  1418.27580075
0.41200002 15202.62550810  1412.70404228
0.41300002 15110.46659451  1032.19602198
0.41400002 15021.75126613  1122.12487275
0.41500002 14937.29442107  1398.13082406
0.41600002 14856.11075293  929.24977163
0.41700002 14779.07254404  1111.97747090
0.41800002 14706.65805334  1109.17620294
0.41900002 14635.81673322  1383.08474683
0.42000002 14569.65250442  1196.09567903
0.42100002 14507.38140127  1010.14901484
0.42200002 14448.17177027  1283.43115917
0.42300002 14391.64627375  915.30874638
0.42400002 14338.29542448  914.06637662
0.42500002 14288.39474230  1186.93700749
0.42600002 14240.50816622  1003.31505039
0.42700002 14196.88908574  1093.72838699
0.42800002 14155.14352381  1001.97188181
0.42900002 14117.25452461  910.56295999
0.43000002 14081.34252823  1092.43060511
0.43100002 14047.10485822  1547.42914451
0.43200002 14016.56192110  1092.45088790
0.43300002 13988.21882480  1001.69639751
0.43400002 13962.19472424  1275.44654850
0.43500002 13938.30787190  1185.03499143
0.43600002 13916.96969945  912.25740703
0.43700002 13897.26701390  1095.66058330
0.43800002 13879.53924599  1005.36447293
0.43900002 13864.59570518  1372.59503986
0.44000002 13851.05716191  1191.12171709
0.44100002 13839.73284208  1468.11892946
0.44200002 13830.03913355  1470.40983036
0.44300002 13822.24053612  1012.61738966
0.44400002 13816.40417625  1383.36753371
0.44500002 13811.03172913  1201.14548641
0.44600002 13807.65331182  1018.38351828
0.44700002 13806.83289413  1391.72882168
0.44800002 13805.89924548  1115.79282990
0.44900002 13808.19360248  1025.25842357
0.45000002 13810.96645850  1121.17431024
0.45100002 13814.78412944  1123.97089004
0.45200002 13820.21817832  1126.90064367
0.45300002 13826.37768716  1506.52218419
0.45400002 13834.24909731  1321.86256390
0.45500002 13843.09189126  1514.98804838
0.45600002 13852.84176238  1234.49605216
0.45700002 13863.68275275  1047.67855528
0.45800002 13875.10722687  1146.36141341
0.45900002 13887.52468942  1054.06317388
0.46000002 13901.58300902  1249.68286382
0.46100002 13915.37336880  1060.76896218
0.46200002 13930.73537187  1257.73650266
0.46300002 13946.96105237  1261.92109583
0.46400002 13962.99975518  973.91927908
0.46500002 13980.36396129  1074.95023593
0.46600002 13998.07415732  1765.01725415
0.46700002 14015.95176189  1475.87979048
0.46800002 14035.51643794  1283.61821667
0.46900002 14054.47967791  1189.00903711
0.47000002 14074.28545479  1292.65280886
0.47100002 14094.61353396  1297.26829115
0.47200002 14115.40473542  1301.93441748
0.47300002 14136.71969091  1206.14498120
0.47400002 14157.60983502  1210.47569827
0.47500002 14179.32332676  1518.60560027
0.47600002 14201.73885077  1320.97480182
0.47700002 14223.61168951  1121.81630712
