# SAXS profile: number of points = 501, q_min = 0, q_max = 0.5, delta_q = 0.001
#    q    intensity    error
0.00000000 1682732.95097188 353.37391970
0.00100000 1682645.38835751 555.27299135
0.00200000 1682382.68085195 757.07223036
0.00300000 1681945.02845843 1110.08375833
0.00400000 1681332.32366428 1260.99929066
0.00500000 1680545.23114308 1814.98892147
0.00600000 1679583.55748862 1939.91908788
0.00700000 1678448.10519436 3021.20671491
0.00800000 1677138.65140127 2943.37845748
0.00900000 1675656.57028758 2513.48496288
0.01000000 1674001.26267655 3866.94308376
0.01100000 1672174.37688631 4514.87101417
0.01200000 1670175.80283424 3256.84295832
0.01300000 1668006.84922813 3853.09599166
0.01400000 1665667.74929159 4497.30312246
0.01500000 1663159.99823051 4390.74259084
0.01600000 1660483.29010740 6774.77212649
0.01700000 1657639.97856831 6265.87940007
0.01800000 1654630.38900122 6130.40586710
0.01900000 1651455.53824951 6936.11357362
0.02000000 1648116.29819927 6749.03654642
0.02100000 1644615.33834471 5427.23086260
0.02200000 1640951.43465959 7359.66751882
0.02300000 1637127.54374047 7072.39131088
0.02400000 1633144.44991110 8574.00875299
0.02500000 1629004.44690322 8259.05292300
0.02600000 1624707.96101234 8554.08780598
0.02700000 1620256.91665299 6805.07936162
0.02800000 1615651.91919565 10542.12925621
0.02900000 1610896.27693663 7973.93693695
0.03000000 1605990.60786089 11948.57067170
0.03100000 1600936.62665929 12295.19385848
0.03200000 1595735.48012617 11058.44738661
0.03300000 1590391.38938708 11355.39504371
0.03400000 1584903.00488762 9152.81527554
0.03500000 1579274.21826988 10233.69740696
0.03600000 1573505.75041836 9606.25305024
0.03700000 1567600.90428380 11615.92323795
0.03800000 1561560.85902984 10962.15773771
0.03900000 1555388.18633233 11198.79546021
0.04000000 1549083.38111457 9526.86323532
0.04100000 1542650.19078590 10690.56631783
0.04200000 1536090.40868315 11889.34031479
0.04300000 1529405.74456847 12112.89405924
0.04400000 1522599.14491687 11305.29917605
0.04500000 1515672.86142102 12549.77187569
0.04600000 1508627.70987108 11699.40843392
0.04700000 1501467.40779919 17296.90534229
0.04800000 1494194.04690641 16473.49013362
0.04900000 1486810.26670841 14496.40077518
0.05000000 1479317.45999773 12448.45700556
0.05100000 1471719.79808005 13775.29795174
0.05200000 1464016.65170130 15130.61280044
0.05300000 1456213.51784405 14154.39605329
0.05400000 1448311.28330510 16727.99610226
0.05500000 1440313.59463883 15728.22518717
0.05600000 1432221.09334244 17143.68728730
0.05700000 1424039.20265985 12389.14164145
0.05800000 1415767.12179764 13782.49357424
0.05900000 1407408.80596152 19000.01976789
0.06000000 1398967.94943335 16640.72453594
0.06100000 1390446.23505709 12931.15059032
0.06200000 1381846.29145163 19587.67209692
0.06300000 1373171.29486534 17137.17856117
0.06400000 1364421.27963227 15963.72971827
0.06500000 1355601.63181153 13420.45678271
0.06600000 1346714.80472193 14887.93286279
0.06700000 1337761.14937910 17738.71367092
0.06800000 1328745.51847380 15127.76843594
0.06900000 1319671.25573691 15242.20371738
0.07000000 1310537.90342380 16748.67519007
0.07100000 1301349.80670400 14054.57857069
0.07200000 1292109.51347408 16978.31980243
0.07300000 1282819.90194622 21358.95236819
0.07400000 1273484.06764700 18624.70536217
0.07500000 1264102.81816085 18734.00464325
0.07600000 1254679.36226306 15940.70204486
0.07700000 1245217.63416389 16025.95170312
0.07800000 1235718.83418667 17571.92264619
0.07900000 1226184.33587347 14714.21272063
0.08000000 1216620.39595768 20694.71390605
0.08100000 1207027.25285046 16331.07949729
0.08200000 1197406.04548737 20870.78835221
0.08300000 1187761.13798326 16462.37014506
0.08400000 1178094.91004785 18024.85296979
0.08500000 1168409.23070522 22608.71967552
0.08600000 1158707.04367484 24193.80420787
0.08700000 1148990.33734335 19716.67511466
0.08800000 1139260.79279964 18250.95875778
0.08900000 1129522.30863184 19823.11744757
0.09000000 1119776.69610154 16813.44788178
0.09100000 1110025.72201672 15318.35568351
0.09200000 1100271.52836363 16883.66739605
0.09300000 1090518.48556227 16913.94250589
0.09400000 1080765.07792786 15400.90308428
0.09500000 1071015.85622149 15422.62905449
0.09600000 1061272.23800279 16985.66296769
0.09700000 1051539.40428080 20094.91896052
0.09800000 1041815.68227234 21659.34905281
0.09900000 1032105.52172954 15481.58355393
0.10000000 1022407.94411647 15489.48108179
0.10100000 1012727.64271432 29439.99395832
0.10200000 1003065.93051762 18596.84322652
0.10300000 993424.28828781 17047.16158893
0.10400000 983805.24025729 18593.91991562
0.10500000 974212.39683067 21685.96897376
0.10600001 964642.16248956 18579.00892376
0.10700001 955102.46061492 21661.72482610
0.10800001 945590.58413911 17006.44745609
0.10900001 936111.26375157 15445.83657887
0.11000001 926665.14296001 23143.46303478
0.11100001 917253.06891233 20032.80796806
0.11200001 907878.03825162 24621.65355650
0.11300001 898540.14938042 21511.05218892
0.11400001 889242.25275240 15339.42958223
0.11500001 879985.57382978 16842.92467620
0.11600001 870771.49917528 18338.44863622
0.11700001 861601.47024545 19825.45076403
0.11800001 852475.98890448 16738.36683049
0.11900001 843396.73091728 16699.25605872
0.12000001 834365.04114698 18172.47145219
0.12100001 825384.03168357 19635.88703876
0.12200001 816452.64209651 15063.55195634
0.12300001 807573.43010269 21029.21311065
0.12400001 798746.38517323 16474.14497042
0.12500001 789972.35172867 17916.57378144
0.12600001 781255.21258948 25300.95125198
0.12700001 772592.99887027 17800.54353285
0.12800001 763987.29382273 20696.41676506
0.12900001 755440.17604931 16204.19254000
0.13000001 746951.85313229 16145.36506646
0.13100001 738522.18408519 20471.83590783
0.13200001 730153.06824011 21849.83159709
0.13300001 721846.20424322 15960.02032822
0.13400001 713600.34804633 18785.53004798
0.13500001 705418.04822363 14390.52886225
0.13600001 697298.15056427 20061.26873764
0.13700001 689243.27229205 14267.33640920
0.13800001 681251.60522184 19885.73529415
0.13900001 673326.36342546 15553.83972862
0.14000001 665466.37066743 14074.61440338
0.14100001 657672.43562190 19611.79295520
0.14200001 649944.90513857 16729.58264732
0.14300001 642285.59885182 16648.04350749
0.14400001 634691.06318954 19326.34378574
0.14500001 627166.51921362 20602.42112803
0.14600001 619709.01417885 19130.41817017
0.14700001 612321.99335749 16312.25867260
0.14800001 605000.41456079 17578.28787438
0.14900001 597749.15565636 14794.29230050
0.15000001 590566.21055449 14713.95783021
0.15100001 583452.65148264 14632.99318964
0.15200001 576408.80917789 19842.87419227
0.15300001 569435.06104021 14469.34558383
0.15400001 562528.34113101 18310.29836790
0.15500001 555692.86820167 15603.85647550
0.15600001 548924.10238474 15512.59586551
0.15700001 542228.54323427 23131.47074611
0.15800001 535598.29854931 12774.02002332
0.15900001 529039.63801780 15236.34229408
0.16000001 522547.63710117 15143.43123800
0.16100001 516127.64083072 12541.90226422
0.16200001 509775.20781315 17449.60618717
0.16300001 503490.94090643 17340.22882341
0.16400001 497275.50386789 14769.08316212
0.16500001 491127.41498997 12229.07321060
0.16600001 485048.61592241 15795.60892327
0.16700001 479035.45468504 15693.20223643
0.16800001 473089.20897270 16789.93681920
0.16900001 467212.39835855 15488.09173690
0.17000001 461400.48425361 15385.39987393
0.17100001 455654.54924306 22336.18705864
0.17200001 449975.30627843 15179.91767414
0.17300001 444361.25477787 13917.39515688
0.17400001 438812.51796041 13822.59496854
0.17500001 433328.17943131 12583.85092499
0.17600001 427906.61617637 17041.38179407
0.17700001 422550.65684693 12410.31337774
0.17800001 417256.54104824 14564.34025319
0.17900001 412025.70623899 13349.63351269
0.18000001 406857.23360451 15464.64417978
0.18100001 401751.88152340 13161.39226040
0.18200001 396705.10199501 15245.37778983
0.18300001 391720.16612024 11892.62480521
0.18400001 386794.95168052 15026.98458267
0.18500001 381930.65328074 10655.86572994
0.18600001 377123.96232018 13751.82593569
0.18700001 372375.35467941 12601.18259769
0.18800001 367684.65992186 10423.86060127
0.18900001 363052.91135347 12416.41015493
0.19000001 358474.29876693 12324.34697392
0.19100001 353955.76440158 14271.49709500
0.19200001 349489.82470538 11129.50399363
0.19300001 345080.69362076 11046.03352475
0.19400001 340723.91602937 10962.79251628
0.19500001 336421.61233540 9890.79587005
0.19600001 332172.03960971 12760.38950462
0.19700001 327974.70852692 15585.35888573
0.19800001 323829.28032486 11599.56536942
0.19900001 319735.32936967 11510.47240129
0.20000001 315690.43101844 13325.29372306
0.20100001 311696.86166926 9444.41535494
0.20200001 307750.79884373 10308.11349447
0.20300001 303855.11770604 11157.56044952
0.20400001 300006.52973495 10147.72134792
0.20500001 296204.75953108 10983.27300256
0.20600001 292449.87333860 9988.62589602
0.20700001 288741.60147898 11711.35990957
0.20800001 285077.18906611 11618.32138959
0.20900001 281460.02932911 12412.38788016
0.21000001 277885.11540449 13192.59647747
0.21100001 274354.32495897 13086.70191920
0.21200001 270866.20080922 9519.59307747
0.21300001 267419.62675808 9442.58746723
0.21400001 264015.80834265 10217.41226590
0.21500001 260653.97453160 10134.22700891
0.21600001 257331.33827059 10888.97609374
0.21700001 254049.09483111 9968.88695250
0.21800001 250806.36088741 9886.78721363
0.21900001 247601.49267185 12256.27446675
0.22000001 244434.51207136 8103.00445830
0.22100001 241306.97239847 8839.07481690
0.22200001 238216.27244598 10358.83509713
0.22300001 235160.92446993 8691.54817939
0.22400001 232141.03999025 8618.23651716
0.22500001 229159.23853160 11652.74783036
0.22600001 226209.95177799 7702.44922228
0.22700001 223297.40456559 9164.12591674
0.22800001 220417.35889359 9085.60396325
0.22900001 217569.98787706 7506.16493673
0.23000001 214756.56213765 9673.70979898
0.23100001 211976.49681718 9589.81716954
0.23200001 209226.58299916 8774.96330598
0.23300001 206508.72421279 7248.45656268
0.23400001 203822.60761917 8621.69671006
0.23500001 201165.30295915 9969.75288619
0.23600001 198539.76364094 9881.32450377
0.23700001 195943.09242278 11192.26996856
0.23800001 193376.09941054 9705.54688847
0.23900001 190837.36303843 8931.18901264
0.24000001 188327.00462722 6808.02153930
0.24100001 185845.88594888 8095.44717486
0.24200001 183391.63072665 7353.08778180
0.24300001 180964.71435123 10597.29417369
0.24400001 178564.37867566 6562.24122675
0.24500001 176190.52939158 6501.43084210
0.24600001 173842.91270183 9661.32033043
0.24700001 171521.53099901 9570.90188251
0.24800001 169225.34171203 8848.79353673
0.24900001 166953.27893788 6886.82308199
0.25000001 164707.28621365 6201.22961931
0.25100001 162484.35004654 7370.29046679
0.25200001 160287.15970774 6691.18779856
0.25300001 158113.67447121 7831.37066706
0.25400001 155963.21848451 7755.27140605
0.25500001 153835.75368378 5907.29322094
0.25600001 151731.82669240 7604.04085446
0.25700001 149649.84627661 8687.17398738
0.25800001 147591.10893723 8027.48079491
0.25900001 145554.49901471 9082.60116826
0.26000001 143539.77291547 7867.41532575
0.26100001 141545.97738576 7231.58432681
0.26200001 139574.68810854 6607.46604770
0.26300001 137623.72282066 8174.84952236
0.26400001 135694.04283142 5393.83845778
0.26500001 133785.79531423 6405.66418275
0.26600001 131896.99497894 6338.96987864
0.26700001 130029.66888888 5749.91223035
0.26800001 128182.87760462 6206.61522732
0.26900001 126354.53775868 7164.30262994
0.27000001 124547.09306087 7087.97540151
0.27100001 122758.71694841 5509.41147737
0.27200001 120991.38159061 5945.51677272
0.27300001 119242.28788656 6861.20156969
0.27400001 117510.52095971 4847.30921899
0.27500001 115800.49793300 7191.21126197
0.27600001 114107.09652268 5689.38010188
0.27700001 112433.89008229 5626.19212599
0.27800001 110778.12555629 6026.88420613
0.27900001 109142.09175775 7334.34891324
0.28000001 107522.72962181 4985.29159486
0.28100001 105922.29659659 5376.61602971
0.28200001 104340.38620814 5758.02448542
0.28300001 102775.84913794 4816.07651855
0.28400001 101228.63301726 4327.52426631
0.28500001 99699.67427515  4704.82785173
0.28600001 98187.91744916  4649.68905088
0.28700001 96693.59073528  5430.31231272
0.28800001 95215.62197297  4540.35714869
0.28900001 93757.03590885  6525.49000813
0.29000001 92313.54846219  4835.38389733
0.29100001 90888.09636406  4378.98869010
0.29200001 89479.42562217  5112.40722492
0.29300001 88087.49606997  4273.12463663
0.29400001 86711.51906851  5755.47735062
0.29500001 85353.39087740  5684.53610152
0.29600001 84010.95063947  6362.56964787
0.29700001 82684.87480317  3696.01407866
0.29800001 81375.15237974  4014.64333270
0.29900001 80082.32195173  3964.07512427
0.30000001 78804.83383301  5337.05762399
0.30100001 77544.48862657  3512.76550108
0.30200001 76298.40711262  4508.09159767
0.30300001 75069.78077034  4450.13681474
0.30400001 73856.67165522  4054.73146583
0.30500001 72659.03526919  3668.55486442
0.30600001 71476.27866151  3949.77934583
0.30700001 70310.24281046  4547.66672028
0.30800001 69159.14923225  4167.18473428
0.30900001 68023.74798019  3163.10443083
0.31000001 66903.80635157  3745.27525688
0.31100001 65798.25493695  3079.35847684
0.31200001 64708.54768106  3038.06645747
0.31300001 63633.37755764  3596.55866984
0.31400001 62574.21565885  4434.94774480
0.31500001 61529.10357504  3499.77557705
0.31600002 60499.22351322  2876.73821426
0.31700002 59483.96532875  2837.38528053
0.31800002 58483.36109392  2798.42896085
0.31900002 57497.57592766  2759.88377521
0.32000002 56526.53720176  3810.45405319
0.32100002 55569.10505719  2952.38669148
0.32200002 54627.33190738  2911.36379186
0.32300002 53698.10898908  3131.67386453
0.32400002 52783.72568025  3345.16877338
0.32500002 51883.37299553  3298.22617750
0.32600002 50997.34646559  3251.84595136
0.32700002 50124.63443275  2466.13213087
0.32800002 49266.55598751  3403.82651436
0.32900002 48421.50210162  2636.55091428
0.33000002 47590.88422768  3544.33127069
0.33100002 46771.50839016  3027.98759657
0.33200002 45968.55229539  2525.74222548
0.33300002 45177.42246143  2489.72786975
0.33400002 44400.01607683  3123.54127892
0.33500002 43634.82197935  3518.71221105
0.33600002 42883.71561515  2384.54911970
0.33700002 42144.51286285  2777.74497434
0.33800002 41419.11551213  2948.62697295
0.33900002 40705.52911249  2491.17849966
0.34000002 40005.17603642  2455.51782140
0.34100002 39317.04134121  2622.05361122
0.34200002 38641.85008843  3180.99724993
0.34300002 37977.90693878  2743.52412719
0.34400002 37327.54647997  2511.21080837
0.34500002 36688.31233628  3046.59760069
0.34600002 36062.13759049  2627.84809068
0.34700002 35446.11553106  1850.28731835
0.34800002 34843.39241065  2371.26718281
0.34900002 34251.64095137  1798.21123511
0.35000002 33671.49793480  1950.08489525
0.35100002 33103.50411811  2447.01114031
0.35200002 32545.28258061  2240.25463254
0.35300002 31998.99507120  2888.54942189
0.35400002 31463.95179881  1843.00106391
0.35500002 30939.88500161  1817.40893107
0.35600002 30425.80567154  2118.09256215
0.35700002 29922.86964020  1928.22981094
0.35800002 29431.18354309  1743.35623975
0.35900002 28949.64720775  1563.28102326
0.36000002 28478.78537158  1542.12630092
0.36100002 28017.33610497  1521.34142256
0.36200002 27567.10963428  1651.13210975
0.36300002 27125.79211630  2221.60247956
0.36400002 26694.54358914  2338.44212917
0.36500002 26272.98925090  1875.10333166
0.36600002 25861.25716419  1850.76095662
0.36700002 25458.47414477  2248.49254297
0.36800002 25066.65402378  1803.67117572
0.36900002 24682.89519956  1643.88089816
0.37000002 24307.98033921  1488.01308695
0.37100002 23941.97124909  1335.96205898
0.37200002 23585.74978713  1715.50959203
0.37300002 23237.64932394  1433.99540771
0.37400002 22898.16924989  1545.62649759
0.37500002 22567.60118505  1272.81276713
0.37600002 22245.67292911  1761.19000923
0.37700002 21931.29699857  1740.90643822
0.37800002 21625.06740854  1475.26216850
0.37900002 21327.44376909  1337.23078767
0.38000002 21037.65054541  1562.99232131
0.38100002 20754.62987116  1308.16438275
0.38200002 20480.35357057  1176.59636837
0.38300002 20212.72796745  1280.67850469
0.38400002 19953.49442095  1382.77722888
0.38500002 19700.21202254  1368.77079617
0.38600002 19455.28763725  1581.13130118
0.38700002 19216.79347916  1565.78440686
0.38800002 18985.32694191  1772.47020727
0.38900002 18760.12495733  1207.21409820
0.39000002 18542.75826404  1087.53282371
0.39100002 18330.77971508  1401.20486780
0.39200002 18125.89530455  1495.93021036
0.39300002 17926.96842729  1483.27743795
0.39400002 17735.48108507  1366.07549530
0.39500002 17548.89645366  1355.12584835
0.39600002 17368.33034413  1344.56935729
0.39700002 17193.65151526  1642.33767055
0.39800002 17025.04241521  1018.94883683
0.39900002 16861.66736422  1315.21011672
0.40000002 16703.74042160  1306.14904415
0.40100002 16551.57014831  1497.08959085
0.40200002 16404.91347094  1190.01247956
0.40300002 16262.77740704  1281.18166483
0.40400002 16126.11342883  1077.62758094
0.40500002 15994.69731510  1071.48482391
0.40600002 15867.76863681  1259.34551753
0.40700002 15745.80446343  1349.10059035
0.40800002 15628.54486328  1150.57352735
0.40900002 15515.65270498  1145.05522388
0.41000002 15407.66883014  1139.85939406
0.41100002 15303.69333507  1040.34512221
0.41200002 15203.81788577  1507.00250024
0.41300002 15108.79163212  938.25600481
0.41400002 15017.24453897  1308.75292358
0.41500002 14929.99186166  1304.28415084
0.41600002 14846.00036766  928.61736700
0.41700002 14766.23578785  1111.01163332
0.41800002 14691.10364326  1108.00308928
0.41900002 14617.59441250  1289.27188827
0.42000002 14548.79167294  1010.63186145
0.42100002 14483.90507257  1283.56372835
0.42200002 14422.11946759  1098.10022830
0.42300002 14363.05142154  1370.23517054
0.42400002 14307.22960377  1185.71170960
0.42500002 14254.81668135  1093.05939492
0.42600002 14204.56089273  1000.78238512
0.42700002 14158.52623048  1363.46614061
0.42800002 14114.34875425  1180.73590099
0.42900002 14074.18207728  1361.67718050
0.43000002 14035.98667672  1451.88253064
0.43100002 13999.48414465  1088.59993867
0.43200002 13966.71406491  1088.56574580
0.43300002 13936.19691018  1088.69575421
0.43400002 13908.03216377  998.24905586
0.43500002 13882.03589311  998.67370948
0.43600002 13858.65001785  908.43455172
0.43700002 13836.90327951  999.99304740
0.43800002 13817.17464892  1455.77759000
0.43900002 13800.28104631  1001.90045144
0.44000002 13784.83547230  1003.05360068
0.44100002 13771.61404656  1004.36386001
0.44200002 13760.06253275  914.35619863
0.44300002 13750.48352918  1190.51692038
0.44400002 13742.86090111  1009.06960948
0.44500002 13735.76425590  1286.49174118
0.44600002 13730.73521115  1012.71042349
0.44700002 13728.26308635  922.53932312
0.44800002 13725.66594697  924.42364534
0.44900002 13726.36917823  1019.18295978
0.45000002 13727.61699383  1021.54066701
0.45100002 13729.93717023  930.88978426
0.45200002 13733.91778128  933.21975747
0.45300002 13738.64203083  1029.16172330
0.45400002 13745.16212027  1313.35030284
0.45500002 13752.60724891  940.67838041
0.45600002 13761.04665040  1131.98375111
0.45700002 13770.61011564  1608.26963163
0.45800002 13780.79699557  1233.45029355
0.45900002 13792.01416353  1332.30863134
0.46000002 13804.91417369  1431.91479053
0.46100002 13817.54176992  957.55569004
0.46200002 13831.81171072  1056.68130572
0.46300002 13846.96686647  1156.49872750
0.46400002 13862.00120313  1256.93701867
0.46500002 13878.37540123  1067.10833518
0.46600002 13895.10599567  1460.02833169
0.46700002 13912.07282529  1074.29031449
0.46800002 13930.77454338  1274.03904625
0.46900002 13948.88941962  1081.73642576
0.47000002 13967.89554255  1085.51505354
0.47100002 13987.45376779  1089.34295107
0.47200002 14007.50285944  1391.36532497
0.47300002 14028.08198770  1396.35534724
0.47400002 14048.32472264  1201.13182072
0.47500002 14069.38889462  1506.83162203
0.47600002 14091.21371369  1512.33958350
0.47700002 14112.49722365  1720.17236812
