# SAXS profile: number of points = 501, q_min = 0, q_max = 0.5, delta_q = 0.001
#    q    intensity    error
0.00000000 1682732.95097188 277.65093691
0.00100000 1682645.40796261 555.27299781
0.00200000 1682382.75002355 984.19393993
0.00300000 1681945.19530414 1110.08386845
0.00400000 1681332.61497630 1639.29936189
0.00500000 1680545.68852237 2117.48765135
0.00600000 1679584.20529261 2116.27618483
0.00700000 1678449.00028077 2416.96666085
0.00800000 1677139.80651303 2490.55271782
0.00900000 1675658.02430282 2513.48714390
0.01000000 1674003.07110595 3314.52622391
0.01100000 1672176.57934134 3912.89336602
0.01200000 1670178.38528429 4233.90239233
0.01300000 1668009.88550352 3853.10300545
0.01400000 1665671.25949588 3747.76050001
0.01500000 1663164.05840439 4789.91270149
0.01600000 1660487.90039743 4657.66876883
0.01700000 1657645.17781537 5370.77061705
0.01800000 1654636.22295656 6601.99882667
0.01900000 1651462.04169595 7431.57952296
0.02000000 1648123.49969100 5710.74818476
0.02100000 1644623.24526791 5427.25695545
0.02200000 1640960.10305753 6793.57513531
0.02300000 1637137.04656849 7661.80172669
0.02400000 1633154.77840978 6736.76376812
0.02500000 1629015.61953243 8259.10956823
0.02600000 1624720.07958486 10528.18659725
0.02700000 1620269.91323369 8846.67413144
0.02800000 1615665.94159145 9136.59131870
0.02900000 1610911.29293194 7974.01126613
0.03000000 1606006.59677185 8961.51722191
0.03100000 1600953.69951870 11526.86716692
0.03200000 1595753.66237674 9478.77719109
0.03300000 1590410.68083180 8111.09484617
0.03400000 1584923.48859183 9152.93356894
0.03500000 1579295.88309881 10233.83779506
0.03600000 1573528.60765597 10479.70101129
0.03700000 1567624.95060885 9829.00889488
0.03800000 1561586.23790742 10962.33589744
0.03900000 1555414.90830431 13065.48583482
0.04000000 1549111.40257342 9527.03556730
0.04100000 1542679.59231772 10690.77007046
0.04200000 1536121.26390554 15852.77217896
0.04300000 1529438.03405834 12113.14979201
0.04400000 1522632.79890859 14388.88061793
0.04500000 1515708.05229543 12550.06325614
0.04600000 1508664.45208963 13826.91034617
0.04700000 1501505.73585425 10810.84180094
0.04800000 1494233.93283211 13179.14390078
0.04900000 1486851.65899387 12266.52675768
0.05000000 1479360.54733435 11317.10871410
0.05100000 1471764.64680089 13775.71773578
0.05200000 1464063.05389515 12803.23200296
0.05300000 1456261.71070428 17693.58060989
0.05400000 1448361.17587475 16728.57236147
0.05500000 1440365.18155118 18148.60213416
0.05600000 1432274.43478298 17144.32578438
0.05700000 1424094.34798383 19823.39424926
0.05800000 1415824.09892941 16289.05701876
0.05900000 1407467.70978215 13933.93097764
0.06000000 1399028.70144188 21761.89246762
0.06100000 1390508.82890258 20690.77234098
0.06200000 1381910.77236625 24812.20907765
0.06300000 1373237.69071641 15819.69893671
0.06400000 1364489.58220731 15964.52885843
0.06500000 1355672.04502823 14763.26926095
0.06600000 1346787.24624457 14888.73370386
0.06700000 1337835.60914902 15010.51623713
0.06800000 1328821.83757891 17879.29866154
0.06900000 1319749.68788841 15243.10960878
0.07000000 1310618.39477609 18145.51252540
0.07100000 1301432.44796205 19677.65953484
0.07200000 1292194.28820415 16979.43374243
0.07300000 1282906.85219232 17088.32007189
0.07400000 1273573.14456078 20058.77796687
0.07500000 1264194.02708493 20176.53761800
0.07600000 1254772.63047961 18840.41192990
0.07700000 1245313.07945904 16027.18008413
0.07800000 1235816.51425531 20502.19693297
0.07900000 1226284.29061159 17658.49461306
0.08000000 1216722.45474470 17739.81422237
0.08100000 1207131.56458407 16332.49083511
0.08200000 1197512.69692219 20872.64728681
0.08300000 1187869.93879061 16463.87812432
0.08400000 1178206.03174800 19528.76589288
0.08500000 1168522.66778406 15073.94312206
0.08600000 1158822.84802049 21171.69442738
0.08700000 1149108.42099429 15168.23186939
0.08800000 1139381.17293605 25858.25693418
0.08900000 1129644.98490229 16775.22881373
0.09000000 1119901.69579431 19872.65652540
0.09100000 1110152.98759331 16852.12314340
0.09200000 1100401.30109007 19955.77853293
0.09300000 1090650.53270177 18453.80788050
0.09400000 1080899.32640287 15402.81612513
0.09500000 1071152.64449487 15424.59880572
0.09600000 1061411.39405785 20076.59746236
0.09700000 1051680.85950548 15459.70936153
0.09800000 1041959.66054426 18567.72202391
0.09900000 1032251.70963143 17032.15400981
0.10000000 1022556.69556530 21688.42853289
0.10100000 1012878.68506893 24795.27137665
0.10200000 1003219.28785832 17049.71259911
0.10300000 993580.20853212 17049.83718045
0.10400000 983963.54839571 15497.42661631
0.10500000 974372.91469141 18591.03608701
0.10600001 964805.09757117 20130.65930804
0.10700001 955267.95572470 24760.54657756
0.10800001 945758.32773471 24741.03901790
0.10900001 936281.36855851 20083.23630081
0.11000001 926837.67352524 21604.58718679
0.11100001 917427.90518505 23119.18429896
0.11200001 908055.33493553 21548.15411245
0.11300001 898719.76341595 26125.78475252
0.11400001 889424.32218267 16876.82730805
0.11500001 880169.95340060 21440.94107445
0.11600001 870958.35519924 24456.51176569
0.11700001 861790.70300079 16779.06577763
0.11800001 852667.47747120 19786.14974661
0.11900001 843590.56869688 15184.63095176
0.12000001 834561.18757357 21206.20077516
0.12100001 825582.59398838 16618.97839987
0.12200001 816653.55962002 16573.98477331
0.12300001 807776.61423899 16527.11030599
0.12400001 798951.79650976 17976.41626847
0.12500001 790180.18910128 16427.84690550
0.12600001 781465.26934837 19352.98830739
0.12700001 772805.33011401 20773.00825242
0.12800001 764202.04161930 16266.04122247
0.12900001 755657.13270501 14735.31478225
0.13000001 747170.96815208 20554.67430271
0.13100001 738743.62361147 16089.83688069
0.13200001 730376.72120481 16028.11790241
0.13300001 722072.06538328 15965.01411826
0.13400001 713828.34321169 15900.52709468
0.13500001 705648.26905071 14395.22536734
0.13600001 697530.53547984 15767.67849798
0.13700001 689478.00311537 17126.63440496
0.13800001 681488.45335512 18471.74539924
0.13900001 673565.26947135 15559.35845854
0.14000001 665707.35707297 15487.68239271
0.14100001 657915.45422433 18217.67978667
0.14200001 650190.04894633 15341.23492846
0.14300001 642532.84410136 15266.58109594
0.14400001 634940.32543562 17952.93854853
0.14500001 627417.73771030 23358.76347684
0.14600001 619962.31512284 19138.23757068
0.14700001 612577.37139139 19038.90560103
0.14800001 605257.68114068 13527.50981170
0.14900001 598008.19667449 20182.77759000
0.15000001 590827.35751451 13382.24027912
0.15100001 583715.77045720 14639.59221384
0.15200001 576673.81256020 13234.66462276
0.15300001 569702.09926435 14476.13102542
0.15400001 562797.12623921 19627.55070384
0.15500001 555963.44258554 19514.31775569
0.15600001 549196.46972026 16813.65071400
0.15700001 542502.71447872 20571.70390395
0.15800001 535874.19454632 12780.60014316
0.15900001 529317.28771569 12703.61550479
0.16000001 522827.10175448 12626.27510336
0.16100001 516408.85812103 17568.23018257
0.16200001 510058.04226630 17459.28761096
0.16300001 503775.37560565 13632.16230743
0.16400001 497561.56174194 18471.97385172
0.16500001 491415.18254843 17130.73407240
0.16600001 485337.94027051 13373.48757556
0.16700001 479326.24055219 19326.43493156
0.16800001 473381.76034402 15600.29664873
0.16900001 467506.39440439 13113.55498224
0.17000001 461695.79787208 17763.74666193
0.17100001 455951.45191252 15292.61241928
0.17200001 450273.57519889 18695.35972511
0.17300001 444661.06396867 11605.65431765
0.17400001 439113.67159124 17290.10163545
0.17500001 433630.68040316 12592.63555363
0.17600001 428210.47562196 14779.68526412
0.17700001 422855.89687574 13548.30357579
0.17800001 417562.92748221 14575.03467218
0.17900001 412333.37224472 16699.50236469
0.18000001 407166.13824236 12160.01729299
0.18100001 402062.08193485 13171.55442636
0.18200001 397016.47636198 16347.15418641
0.18300001 392032.66393494 15148.14285003
0.18400001 387108.52678939 10742.26212588
0.18500001 382245.34051389 10664.64550416
0.18600001 377439.64404025 12704.61901860
0.18700001 372692.19056696 11560.91229758
0.18800001 368002.58065334 12519.44838532
0.18900001 363371.75817532 13462.92427648
0.19000001 358794.00906551 11307.39372996
0.19100001 354276.50124714 13264.11283342
0.19200001 349811.30155848 11139.74142450
0.19300001 345403.17593207 12061.47947348
0.19400001 341047.15819750 12968.31880326
0.19500001 336745.82371381 13860.45875904
0.19600001 332496.91331019 12772.86952841
0.19700001 328300.34210338 13650.72886976
0.19800001 324155.70889861 14514.07255185
0.19900001 320062.37506436 11522.24604686
0.20000001 316018.14015100 10480.74211344
0.20100001 312025.36287358 10399.80583610
0.20200001 308079.83371183 11257.23765589
0.20300001 304184.71832547 14892.88451312
0.20400001 300336.49924096 10158.88256699
0.20500001 296535.39303081 11911.82730108
0.20600001 292781.12994795 12727.19632043
0.20700001 289073.19407524 11724.80930591
0.20800001 285409.29947613 16105.64753075
0.20900001 281792.49501197 10651.75681497
0.21000001 278217.94632021 9686.15825903
0.21100001 274687.63769543 9608.57402082
0.21200001 271199.72333647 11264.28104129
0.21300001 267753.50472287 9454.37669872
0.21400001 264349.92683495 8525.28554347
0.21500001 260988.31669843 10992.82841905
0.21600001 257665.91886159 10064.43126657
0.21700001 254383.89157020 12477.53047145
0.21800001 251141.38603030 9899.99390539
0.21900001 247936.54726231 10636.47838046
0.22000001 244769.59710897 8925.52378060
0.22100001 241642.13371245 11265.35680634
0.22200001 238551.60444935 7979.55154614
0.22300001 235496.13966804 11077.73893380
0.22400001 232476.20957119 10199.89417725
0.22500001 229494.45739208 10891.80746287
0.22600001 226545.09281224 8485.24685253
0.22700001 223632.47044097 16061.28478659
0.22800001 220752.25499741 10615.97644486
0.22900001 217904.68680070 9021.25446017
0.23000001 215091.23349542 7452.91159308
0.23100001 212310.81184039 9604.94158190
0.23200001 209560.63021389 11718.63099578
0.23300001 206842.60457266 10890.26364580
0.23400001 204156.21528006 8635.80831478
0.23500001 201498.51178800 9986.26671653
0.23600001 198872.66292433 9190.90055175
0.23700001 196275.66317162 9809.85810930
0.23800001 193708.19764237 9722.21489952
0.23900001 191169.06093172 7570.29517097
0.24000001 188658.22681996 9547.99331098
0.24100001 186176.65520424 6758.21290359
0.24200001 183721.78525790 10044.98908412
0.24300001 181294.56610093 7962.45771980
0.24400001 178893.60755399 6574.34038860
0.24500001 176519.07597085 7816.26505373
0.24600001 174171.12798972 8388.95277647
0.24700001 171849.01599596 7032.06206721
0.24800001 169552.11809707 6332.77191051
0.24900001 167279.40637497 6272.97803582
0.25000001 165032.67127710 6834.82840428
0.25100001 162808.96840763 8000.43308604
0.25200001 160611.17690600 7314.23334233
0.25300001 158436.81351231 7243.73145649
0.25400001 156285.69131218 8369.09916572
0.25500001 154157.35561425 6511.60700922
0.25600001 152052.60483774 7620.11665197
0.25700001 149969.72176717 7544.97705908
0.25800001 147910.18316193 6895.57306527
0.25900001 145872.61803385 6257.93560975
0.26000001 143856.89840057 9574.39632607
0.26100001 141862.22670419 6690.22292793
0.26200001 139889.96477823 6622.39124595
0.26300001 137938.03137327 6008.58093093
0.26400001 136007.37319347 5946.92267428
0.26500001 134098.08385353 6955.66793862
0.26600001 132208.16291802 6353.92461051
0.26700001 130339.82750759 6811.55970787
0.26800001 128491.85173469 9332.36363311
0.26900001 126662.50992824 6668.78146330
0.27000001 124853.89786645 6090.37342614
0.27100001 123064.40769109 8033.64491425
0.27200001 121295.88277876 5960.47996182
0.27300001 119545.55203700 5895.98690549
0.27400001 117812.61423829 6803.67879424
0.27500001 116101.30914548 5767.91331132
0.27600001 114406.62121045 4753.59533626
0.27700001 112732.20689435 5171.02657497
0.27800001 111075.16948940 6043.04488207
0.27900001 109437.86602978 5056.02964987
0.28000001 107817.20420694 5453.39444689
0.28100001 106215.38594169 5391.49324557
0.28200001 104632.06077032 5329.95742791
0.28300001 103066.15158062 7024.98922423
0.28400001 101517.62280283 6075.83001232
0.28500001 99987.21802650  6434.17778454
0.28600001 98474.06872250  4663.23974507
0.28700001 96978.29708083  5027.35515863
0.28800001 95498.97034403  4553.86861640
0.28900001 94038.83649735  4499.75853939
0.29000001 92593.87055015  5254.23943307
0.29100001 91167.00569752  7187.60706942
0.29200001 89756.76631729  3944.81006637
0.29300001 88363.30387086  4676.18626220
0.29400001 86985.79736080  4234.03388696
0.29500001 85626.11806270  4942.33976853
0.29600001 84282.09346247  4881.19767394
0.29700001 82954.52024163  4820.48739943
0.29800001 81643.16837392  3661.69627491
0.29900001 80348.74656360  4338.83251983
0.30000001 79069.69412148  3926.99654445
0.30100001 77807.67046122  3877.15640263
0.30200001 76559.96584954  4871.51085763
0.30300001 75329.65765031  3435.03255147
0.30400001 74114.87083382  5086.13325176
0.30500001 72915.65794635  3681.51174400
0.30600001 71731.17758954  3633.54297282
0.30700001 70563.46493542  4238.04190466
0.30800001 69410.71461741  3538.90545231
0.30900001 68273.54578510  3809.66403517
0.31000001 67151.88411749  4698.95331359
0.31100001 66044.55551300  4018.15094765
0.31200001 64953.08382561  3354.50217299
0.31300001 63876.12968171  3309.42243550
0.31400001 62815.40373213  3561.63356024
0.31500001 61768.39542407  3513.38649807
0.31600002 60736.79266343  3176.83809068
0.31700002 59719.74931633  3418.35861272
0.31800002 58717.35095446  3371.55045144
0.31900002 57729.71963275  3602.33467565
0.32000002 56756.89576900  3279.41359281
0.32100002 55797.65110117  2695.02667580
0.32200002 54854.06091711  3986.51906591
0.32300002 53922.92125534  3144.78491652
0.32400002 53006.74713872  3617.71066352
0.32500002 52104.53509690  4331.45020771
0.32600002 51216.72897884  2763.39874291
0.32700002 50342.19058553  2972.20307291
0.32800002 49482.19195218  3174.53017502
0.32900002 48635.25154326  2888.93407847
0.33000002 47802.83714340  2848.09317187
0.33100002 46981.54668162  3275.55358975
0.33200002 46176.68442377  2537.17804581
0.33300002 45383.65551994  2728.46549907
0.33400002 44604.42166497  2689.64675377
0.33500002 43837.26720010  2651.27804582
0.33600002 43084.30115927  2831.28498476
0.33700002 42343.18809476  2361.47971188
0.33800002 41615.88629734  2327.78471028
0.33900002 40900.37716846  2711.69513469
0.34000002 40198.04467008  3084.19512337
0.34100002 39508.02781529  2432.11430749
0.34200002 38830.93718163  2197.63699387
0.34300002 38165.02729379  1969.31550163
0.34400002 37512.74875445  2329.54180798
0.34500002 36871.59939069  2104.99970891
0.34600002 36243.49074104  2641.06329538
0.34700002 35625.48186432  2231.58028967
0.34800002 35020.90802541  2016.67908416
0.34900002 34427.16321773  1807.42615453
0.35000002 33845.04276355  1960.13574449
0.35100002 33275.11647383  1756.92623303
0.35200002 32714.98061927  1905.48413642
0.35300002 32166.68808712  2391.27170566
0.35400002 31629.76568484  1852.71361274
0.35500002 31103.74709474  1827.03419088
0.35600002 30587.71320027  2129.36375529
0.35700002 30082.79303410  2423.16909367
0.35800002 29589.18001223  2230.72838678
0.35900002 29105.69673665  2043.22000769
0.36000002 28632.85463813  2015.60989772
0.36100002 28169.39951116  1835.51815909
0.36200002 27717.28392109  2414.72988958
0.36300002 27273.99440838  3127.23634699
0.36400002 26840.80867101  1763.44121322
0.36500002 26417.17947785  1740.36386644
0.36600002 26003.57413690  1574.64650645
0.36700002 25598.84426662  1554.36189750
0.36800002 25205.05994136  1953.14018737
0.36900002 24819.30611488  1652.96586555
0.37000002 24442.43558451  1496.24376518
0.37100002 24074.54102565  1746.36728873
0.37200002 23716.40996922  1326.93320063
0.37300002 23366.35666425  1441.93793806
0.37400002 23024.88722154  1424.66496432
0.37500002 22692.40949892  1407.83715200
0.37600002 22368.44773163  1517.92293497
0.37700002 22052.16964714  1500.42969387
0.37800002 21744.04061821  1730.60827479
0.37900002 21444.48401336  1833.50347000
0.38000002 21152.68866824  1571.53907906
0.38100002 20867.73575492  1315.29344694
0.38200002 20591.55757077  1301.28354233
0.38300002 20321.95885809  1287.59937425
0.38400002 20060.87271519  1853.62472670
0.38500002 19805.59873444  1376.09306526
0.38600002 19558.81560261  1589.54501933
0.38700002 19318.37608782  1124.32954158
0.38800002 19084.95997231  1447.68970728
0.38900002 18857.88285310  1213.50481909
0.39000002 18638.61243797  1530.41653979
0.39100002 18424.65573146  1408.38075084
0.39200002 18217.85088226  1718.30777662
0.39300002 18016.98742326  1064.80400716
0.39400002 17823.67368959  1161.65798776
0.39500002 17635.18277536  1466.54186908
0.39600002 17452.71395005  1455.03283095
0.39700002 17276.15695800  1031.38661926
0.39800002 17105.58165670  1126.14602172
0.39900002 16940.34908862  1524.63149021
0.40000002 16780.56189000  1110.28593006
0.40100002 16626.48973827  1303.35059233
0.40200002 16477.99928260  1195.31412459
0.40300002 16333.98211222  989.83936290
0.40400002 16195.50211514  1180.65216013
0.40500002 16062.10135430  1076.00022071
0.40600002 15933.40817368  1167.28153811
0.40700002 15809.50619067  1644.82110201
0.40800002 15690.49277230  1155.13413263
0.40900002 15575.74416056  1341.07163577
0.41000002 15465.85836217  1620.89936245
0.41100002 15360.04920556  1423.87662882
0.41200002 15258.35037611  1228.83130577
0.41300002 15161.40617365  941.52336800
0.41400002 15068.08901286  1219.38516114
0.41500002 14979.07816796  934.69452197
0.41600002 14893.22619742  1117.88561135
0.41700002 14811.61346273  1485.90113299
0.41800002 14734.68741569  1296.50520714
0.41900002 14659.37414911  1108.24873819
0.42000002 14588.89238611  1197.67517719
0.42100002 14522.04355893  1103.09448101
0.42200002 14458.52253913  917.39329858
0.42300002 14397.72176768  1007.26466260
0.42400002 14340.05213852  1097.01404058
0.42500002 14285.86358213  912.86672616
0.42600002 14233.87994100  911.68005342
0.42700002 14186.05149455  1001.81900402
0.42800002 14140.08340079  1273.88017394
0.42900002 14098.13217520  1182.12843891
0.43000002 14058.21106177  999.74972703
0.43100002 14019.94460175  999.34169857
0.43200002 13985.45118538  999.19060729
0.43300002 13953.12997798  1180.85344599
0.43400002 13923.30054548  1271.89356510
0.43500002 13895.54407074  999.64548782
0.43600002 13870.42415814  1272.88888531
0.43700002 13846.95554041  1091.69402654
0.43800002 13825.54419470  1729.78304389
0.43900002 13806.92080954  1458.01090658
0.44000002 13789.74727627  1003.41100811
0.44100002 13774.84091862  1187.25359504
0.44200002 13761.67633368  1005.90977928
0.44300002 13750.30986487  1098.92481648
0.44400002 13741.10234927  1100.66235034
0.44500002 13732.33693479  1286.17073827
0.44600002 13725.58101715  1012.33027590
0.44700002 13721.48930522  1475.33460002
0.44800002 13717.19799556  1201.00932742
0.44900002 13716.16409314  925.84112016
0.45000002 13715.86988570  1206.24223426
0.45100002 13716.52877688  1208.97490369
0.45200002 13718.82096028  1491.51028549
0.45300002 13721.95446595  1401.69771513
0.45400002 13726.78638162  1030.53853644
0.45500002 13732.62692345  1033.24289869
0.45600002 13739.44234264  1036.02269895
0.45700002 13747.39228296  944.44589460
0.45800002 13755.95150081  1041.80703629
0.45900002 13765.60399372  1044.80939264
0.46000002 13776.92127029  1047.94156609
0.46100002 13787.87603939  955.49985482
0.46200002 13800.66275318  958.45607363
0.46300002 13814.18018095  1153.76038340
0.46400002 13827.64079584  1060.92579034
0.46500002 13842.43396324  1451.37926983
0.46600002 13857.65604028  1067.80173679
0.46700002 13873.07363055  1168.66777803
0.46800002 13890.22249298  1270.33035830
0.46900002 13906.77845947  1176.51351343
0.47000002 13924.23177340  983.74702142
0.47100002 13942.25449632  1381.95633118
0.47200002 13960.79630354  1089.57039915
0.47300002 13979.85685807  1292.15823064
0.47400002 13998.57499913  997.39851596
0.47500002 14018.11574282  1100.98286263
0.47600002 14038.49420021  1205.34516916
0.47700002 14058.24504004  1108.77383886
