# SAXS profile: number of points = 501, q_min = 0, q_max = 0.5, delta_q = 0.001
#    q    intensity    error
0.00000000 1700912.83420644 255.13692513
0.00100000 1700824.90284344 561.27223127
0.00200000 1700561.08392695 918.30301440
0.00300000 1700121.58560411 1020.07298770
0.00400000 1699506.29867052 1402.09274968
0.00500000 1698715.88025525 1834.61322329
0.00600000 1697750.14384406 2673.95658542
0.00700000 1696609.90263222 3461.08434521
0.00800000 1695294.89295481 2746.37784254
0.00900000 1693806.55669139 3811.06491547
0.01000000 1692144.23321559 2792.03810536
0.01100000 1690309.62437677 3651.06894762
0.01200000 1688302.55053497 3292.19011789
0.01300000 1686124.38545361 3894.94750218
0.01400000 1683775.32271368 4925.04303727
0.01500000 1681256.94732151 4438.51853857
0.01600000 1678568.83369279 5564.45593244
0.01700000 1675713.37531267 6334.19684283
0.01800000 1672690.94473586 5243.88634771
0.01900000 1669502.52457454 5008.50779972
0.02000000 1666148.96589483 7347.71727198
0.02100000 1662633.01977528 6035.35813542
0.02200000 1658953.37643087 8585.08411307
0.02300000 1655113.03739948 8341.77008820
0.02400000 1651112.73643687 8049.17495715
0.02500000 1646954.88240759 8350.06163516
0.02600000 1642639.80231353 7317.96065402
0.02700000 1638169.44546181 8256.37438328
0.02800000 1633544.44743852 8527.10240668
0.02900000 1628768.10244296 8062.40247727
0.03000000 1623840.99840628 9061.03318760
0.03100000 1618764.86195909 10101.09320341
0.03200000 1613540.91132441 11181.83903049
0.03300000 1608173.37176600 9842.02148893
0.03400000 1602660.83092105 13462.35160089
0.03500000 1597007.13081268 12073.37446647
0.03600000 1591213.08287337 8831.23301807
0.03700000 1585281.93832118 12650.55045286
0.03800000 1579215.00262603 12009.93065079
0.03900000 1573014.77578322 11325.70691013
0.04000000 1566681.72369333 10598.60235191
0.04100000 1560219.47148333 10812.32143871
0.04200000 1553630.18435375 13027.18970017
0.04300000 1546915.25155902 11230.60524762
0.04400000 1540077.66147343 12474.62963728
0.04500000 1533119.83456457 12694.23282003
0.04600000 1526042.53024017 11834.46037216
0.04700000 1518849.28796201 16403.57307289
0.04800000 1511542.47278404 12220.82146107
0.04900000 1504124.49192276 11280.93421452
0.05000000 1496596.92125118 17173.45047106
0.05100000 1488963.83553544 12775.31030402
0.05200000 1481224.60870840 16486.03066319
0.05300000 1473384.86111722 15514.74331083
0.05400000 1465445.31718310 14507.90931667
0.05500000 1457409.77431280 13466.46694285
0.05600000 1449278.79991621 17347.86804452
0.05700000 1441057.81985216 12537.20361793
0.05800000 1432746.02210064 13947.78317641
0.05900000 1424347.40622382 15382.95270569
0.06000000 1415865.62683405 20728.27374525
0.06100000 1407302.44635961 13087.91336276
0.06200000 1398660.43037715 14539.07585338
0.06300000 1389942.90689473 20015.17879510
0.06400000 1381149.68451810 14812.83105920
0.06500000 1372286.21798603 14944.19761292
0.06600000 1363355.07198875 19182.40676040
0.06700000 1354356.54869358 19340.21242045
0.06800000 1345295.51047635 15316.19010371
0.06900000 1336175.33072724 16835.80995540
0.07000000 1326995.38451810 16959.00180831
0.07100000 1317760.18582716 21347.71601028
0.07200000 1308472.33901433 20058.88189678
0.07300000 1299134.76943591 17304.47593970
0.07400000 1289750.35388449 14509.69216118
0.07500000 1280319.92130679 16055.21256573
0.07600000 1270846.80353028 20549.59377646
0.07700000 1261334.94248911 16233.38147099
0.07800000 1251785.46370708 17800.39012869
0.07900000 1242200.01588589 14906.40088980
0.08000000 1232584.28453850 20966.25966355
0.08100000 1222939.13690875 16546.36729870
0.08200000 1213265.46810908 22657.73368016
0.08300000 1203567.46855694 18197.94097865
0.08400000 1193847.66006923 19788.02589447
0.08500000 1184108.16285963 16802.49561977
0.08600000 1174351.59539300 15325.28903942
0.08700000 1164580.02950304 23058.68566694
0.08800000 1154795.31137684 16958.16994399
0.08900000 1145001.06011925 20094.76954894
0.09000000 1135199.34272673 21693.66045858
0.09100000 1125391.88487416 20189.53136317
0.09200000 1115580.70542847 23343.52735793
0.09300000 1105770.38140022 18709.63573250
0.09400000 1095959.02019606 20302.64180330
0.09500000 1086151.81747135 17204.64559741
0.09600000 1076349.67740047 17226.97739660
0.09700000 1066557.82628368 18814.08094015
0.09800000 1056774.86604747 17262.41824852
0.09900000 1047005.07360315 23557.61526381
0.10000000 1037247.45123333 25142.87940029
0.10100000 1027506.75657633 15720.85411500
0.10200000 1017784.47946950 17297.24804218
0.10300000 1008081.66531293 17298.68219051
0.10400000 998401.23820476 22014.74833810
0.10500000 988746.53059409 17293.17763372
0.10600001 979114.29640122 17286.26371634
0.10700001 969512.32377010 17276.71042258
0.10800001 959937.76964394 15694.98327231
0.10900001 950395.33142646 17249.67607726
0.11000001 940885.94885352 18798.90214295
0.11100001 931410.27623155 15647.69337728
0.11200001 921971.40948730 17190.15773915
0.11300001 912569.31355055 23407.40399461
0.11400001 903206.97109775 24928.51357604
0.11500001 893885.79396263 20219.69761154
0.11600001 884606.66418333 18629.81722501
0.11700001 875371.40753313 20142.29703594
0.11800001 866180.42096323 23191.98186359
0.11900001 857035.56927398 18511.96916826
0.12000001 847937.97256986 16929.08241980
0.12100001 838890.93524067 15351.70483809
0.12200001 829893.02484940 19904.98513876
0.12300001 820947.28629815 16796.58226902
0.12400001 812053.40825759 18271.20254669
0.12500001 803212.38727564 19734.92928528
0.12600001 794427.93837502 18160.62352704
0.12700001 785698.48949194 16593.95288008
0.12800001 777025.19601293 18042.52590175
0.12900001 768410.37411845 19479.20390200
0.13000001 759854.15816263 20903.58887634
0.13100001 751356.41305527 22315.28651963
0.13200001 742919.02509680 14821.23524936
0.13300001 734543.84627007 16240.76520667
0.13400001 726229.31800340 14706.14438290
0.13500001 717978.47792122 20505.46629623
0.13600001 709789.71190626 17503.41512091
0.13700001 701666.05884903 17429.38572366
0.13800001 693605.18383609 14461.66876493
0.13900001 685610.80053139 17277.39298816
0.14000001 677681.64815036 18632.85779463
0.14100001 669818.33809680 19973.98378408
0.14200001 662021.29100811 19880.50030664
0.14300001 654292.52220110 15545.99106077
0.14400001 646628.42791905 21096.25345597
0.14500001 639033.98829444 20992.26750572
0.14600001 631506.73935621 20887.08638954
0.14700001 624049.92759368 16624.69085539
0.14800001 616658.43077260 16538.77989360
0.14900001 609337.15224774 15081.09522967
0.15000001 602084.22946365 17728.37097303
0.15100001 594900.66178368 18989.23002014
0.15200001 587786.65146688 16187.64514524
0.15300001 580742.93793642 14756.67874932
0.15400001 573766.04717571 16008.07347164
0.15500001 566860.32929841 19896.79849736
0.15600001 560021.44513848 17145.05735207
0.15700001 553255.73696580 17045.81006042
0.15800001 546555.34538389 18249.48384372
0.15900001 539926.40193485 15549.88110969
0.16000001 533364.29421254 12880.74831324
0.16100001 526874.17726041 14083.34742296
0.16200001 520451.64540733 17815.06066327
0.16300001 514097.15037989 16440.82764528
0.16400001 507811.72327990 17595.67704233
0.16500001 501593.59454240 12489.68109376
0.16600001 495444.74234863 16134.15879633
0.16700001 489361.67173530 17264.68059397
0.16800001 483345.67845998 15928.65758574
0.16900001 477398.94468758 18260.51049653
0.17000001 471517.19937952 13303.85840870
0.17100001 465701.59468782 15619.63222341
0.17200001 459952.55642493 16710.07716402
0.17300001 454269.10053681 13042.06649232
0.17400001 448651.08299421 15310.21893022
0.17500001 443097.19401527 11697.76647446
0.17600001 437606.29011628 12780.29230645
0.17700001 432181.21427079 11539.23896604
0.17800001 426817.89296735 16044.08535444
0.17900001 421518.13093907 18209.58411667
0.18000001 416280.63518198 13562.42373485
0.18100001 411106.53891352 16834.81356373
0.18200001 405991.13737979 17831.13159603
0.18300001 400937.76429120 12172.47109890
0.18400001 395944.09078929 12086.19394230
0.18500001 391011.64205701 20727.52812465
0.18600001 386136.72587734 11914.24923982
0.18700001 381320.18903448 17205.16774209
0.18800001 376561.70593363 12810.62984111
0.18900001 371862.36744615 15897.11695942
0.19000001 367215.96109423 11572.81156069
0.19100001 362630.23143849 10443.75115890
0.19200001 358097.01743007 11403.60005890
0.19300001 353620.78444938 11319.40184510
0.19400001 349197.16896663 12256.82120991
0.19500001 344828.16944014 11151.74352667
0.19600001 340512.05326764 15093.19747434
0.19700001 336248.44172832 14979.86878691
0.19800001 332036.89769374 11893.56223746
0.19900001 327876.98038545 11803.57185171
0.20000001 323766.30416471 13666.17634467
0.20100001 319707.17559757 16468.11739335
0.20200001 315695.77284968 12496.81775890
0.20300001 311734.83170089 11446.90356109
0.20400001 307821.20491980 11358.60299841
0.20500001 303954.83011815 14088.30704189
0.20600001 300135.44747115 13978.80912672
0.20700001 296362.80291109 10171.17187669
0.20800001 292634.27434753 11008.90192135
0.20900001 288953.39653265 10012.23566315
0.21000001 285314.63771694 10836.25045274
0.21100001 281720.54300845 10750.45642941
0.21200001 278169.13713721 14220.00696270
0.21300001 274659.61681718 8816.57411664
0.21400001 271193.03996376 13118.96392847
0.21500001 267768.77468463 11278.42132293
0.21600001 264383.91010766 9466.26634896
0.21700001 261039.72216855 12803.99897774
0.21800001 257735.29912924 11006.58646971
0.21900001 254468.91447285 8397.47457465
0.22000001 251240.66322503 11660.07973159
0.22100001 248052.18387566 12390.20717044
0.22200001 244900.77367348 9011.12439340
0.22300001 241784.92666797 10561.16609625
0.22400001 238704.77439129 11278.80112332
0.22500001 235663.17191761 11184.57466810
0.22600001 232654.26082412 9506.25354681
0.22700001 229682.47649872 10211.68338803
0.22800001 226743.13053790 9346.35228276
0.22900001 223836.95210399 7722.37521279
0.23000001 220965.14863747 11484.66414356
0.23100001 218126.71540034 10627.13407689
0.23200001 215318.69469687 10535.54422978
0.23300001 212543.28521139 8206.29663012
0.23400001 209799.76835276 10353.61905789
0.23500001 207085.19773140 10263.14288498
0.23600001 204402.89069249 9446.48004014
0.23700001 201749.67256658 10803.69547693
0.23800001 199126.34138465 7138.67967629
0.23900001 196531.63780891 9905.19501408
0.24000001 193965.53969452 7011.85459162
0.24100001 191429.08340939 10423.31408468
0.24200001 188919.70132488 6886.12343902
0.24300001 186438.02531283 6823.63204923
0.24400001 183983.22851769 9465.93755501
0.24500001 181555.13349155 9379.13863985
0.24600001 179153.73376289 7965.17537989
0.24700001 176778.69321511 10521.86831791
0.24800001 174429.28588690 7817.92096329
0.24900001 172104.30008407 7744.69387017
0.25000001 169805.62234813 7032.50018224
0.25100001 167530.27155050 6965.90902062
0.25200001 165281.15136594 6899.66199019
0.25300001 163055.86318603 6212.42868130
0.25400001 160854.04713182 6152.66759388
0.25500001 158675.39864108 7921.07627492
0.25600001 156520.63920299 7844.03220478
0.25700001 154388.27554038 5974.82654610
0.25800001 152279.38351965 7690.87062855
0.25900001 150192.86068459 7029.02621262
0.26000001 148128.58913279 7539.00490062
0.26100001 146085.60929874 9185.86354734
0.26200001 144065.42764105 7956.73394510
0.26300001 142065.77826878 6188.38559421
0.26400001 140087.99870566 6125.34803325
0.26500001 138131.82657764 7716.04419774
0.26600001 136195.32054139 6000.08513037
0.26700001 134280.70207022 8097.12671799
0.26800001 132386.89592655 5341.81150342
0.26900001 130511.88621693 5285.73164191
0.27000001 128658.06378117 6798.93570226
0.27100001 126823.73813612 5691.84963690
0.27200001 125010.72648753 6654.94633950
0.27300001 123216.19987773 7089.86047649
0.27400001 121439.37908960 6011.24954942
0.27500001 119684.59389888 7927.90787505
0.27600001 117946.68670721 6860.95909046
0.27700001 116229.50719482 4846.77067941
0.27800001 114530.00089480 5751.69691715
0.27900001 112850.42222996 5213.68975378
0.28000001 111187.95508563 6092.54428727
0.28100001 109544.69839937 6950.61144241
0.28200001 107920.22434658 6413.69923647
0.28300001 106313.47488186 4528.95424432
0.28400001 104724.48978063 5820.06379503
0.28500001 103153.96297822 5310.36626547
0.28600001 101600.98682933 5248.70722803
0.28700001 100065.72134019 5619.69117646
0.28800001 98547.19608195  4272.02115236
0.28900001 97048.35991367  4643.76424168
0.29000001 95564.90291466  5839.97149355
0.29100001 94099.89115778  4533.73297059
0.29200001 92651.76860830  4886.45450770
0.29300001 91220.91430929  4425.12676261
0.29400001 89806.30177321  3973.92904158
0.29500001 88409.78111796  5103.01280769
0.29600001 87029.23094641  5040.29814886
0.29700001 85665.50927932  4978.02297987
0.29800001 84318.24629643  4538.00823050
0.29900001 82988.38911308  4854.82099294
0.30000001 81674.09312744  4793.86112305
0.30100001 80377.20510079  4005.19631978
0.30200001 79095.05716069  3594.87051814
0.30300001 77830.50636179  3903.97838393
0.30400001 76581.78824134  3503.61697791
0.30500001 75348.85182593  5187.76869382
0.30600001 74131.20232133  3755.11623136
0.30700001 72930.49012735  3706.32768374
0.30800001 71745.15825446  3657.92706678
0.30900001 70575.62753629  4594.47357013
0.31000001 69422.02971148  4533.95297512
0.31100001 68282.98451515  4154.33697459
0.31200001 67160.13242281  3783.80203985
0.31300001 66052.18078262  4044.37522081
0.31400001 64960.61503988  3069.38920596
0.31500001 63883.15308575  4542.09239945
0.31600002 62821.34509748  3584.58612098
0.31700002 61774.44091673  3241.30506837
0.31800002 60742.53770872  3487.83668038
0.31900002 59725.72683635  3726.88553105
0.32000002 58723.91178871  4524.09037842
0.32100002 57735.98015115  3625.24236535
0.32200002 56764.11856462  2750.22167468
0.32300002 55804.83222995  3254.53796976
0.32400002 54860.93167405  3744.25876405
0.32500002 53931.33880722  2637.24259255
0.32600002 53016.31183495  3380.58528423
0.32700002 52114.88488832  3333.26819530
0.32800002 51228.28119365  3033.73895594
0.32900002 50355.01560663  2741.83072962
0.33000002 49496.52821161  3440.50383891
0.33100002 48649.66328928  2907.30401584
0.33200002 47819.26298945  2388.57229943
0.33300002 47001.04278869  3061.17806179
0.33400002 46196.93703982  3017.81505504
0.33500002 45405.16552658  2974.94658618
0.33600002 44627.84339443  2707.12510851
0.33700002 43862.63656334  3335.75366861
0.33800002 43111.67990018  2630.67483209
0.33900002 42372.55356613  2161.00033421
0.34000002 41647.08377942  2343.27327982
0.34100002 40934.00520931  2729.88893669
0.34200002 40234.23311571  3105.07708776
0.34300002 39545.87421943  2244.62392700
0.34400002 38871.51929145  2011.60121860
0.34500002 38208.35823718  2776.21944100
0.34600002 37558.53320449  2150.41392047
0.34700002 36919.17300511  1927.18092214
0.34800002 36293.41540611  3419.92869569
0.34900002 35678.78315245  2622.39068591
0.35000002 35076.11325321  2216.10894030
0.35100002 34485.67733050  2913.35015886
0.35200002 33905.51342770  1795.29702103
0.35300002 33337.34439085  2301.27699230
0.35400002 32780.72424118  1920.13101337
0.35500002 32235.39074019  1893.50694176
0.35600002 31700.23161107  2037.05697981
0.35700002 31176.31880131  1841.58523882
0.35800002 30663.97196893  2146.63145936
0.35900002 30162.12095307  1954.50553034
0.36000002 29671.14547130  2088.70038439
0.36100002 29189.69162872  1743.50036357
0.36200002 28719.85514562  1720.17580543
0.36300002 28259.07256754  2314.41815291
0.36400002 27808.62593191  1979.27904446
0.36500002 27367.96192378  1652.75129886
0.36600002 26937.54277052  1631.20297974
0.36700002 26516.22563859  2049.17401442
0.36800002 26106.09511418  1878.46416292
0.36900002 25704.22845661  1426.58474692
0.37000002 25311.44400885  2112.87288872
0.37100002 24927.82492406  1947.36177531
0.37200002 24554.21190757  1373.80822131
0.37300002 24188.81218153  1356.99242767
0.37400002 23832.32608203  1340.56840562
0.37500002 23484.91829716  1457.00440018
0.37600002 23146.35935681  1832.49735709
0.37700002 22815.62833415  1423.01080661
0.37800002 22493.26738961  1278.74231168
0.37900002 22179.74312503  2149.21721063
0.38000002 21874.11209329  1500.12667842
0.38100002 21575.49157670  1359.90329850
0.38200002 21285.84422140  1345.15898930
0.38300002 21003.03591322  2177.59486664
0.38400002 20728.85930515  1316.80084974
0.38500002 20460.76092564  1540.08154783
0.38600002 20201.39619752  1524.49843627
0.38700002 19948.35302951  1393.19304158
0.38800002 19702.74943691  1494.55212934
0.38900002 19463.49797348  1480.19909101
0.39000002 19232.37750500  1127.97899411
0.39100002 19006.67255769  1564.62935908
0.39200002 18788.32350554  1107.57172312
0.39300002 18576.01675865  1427.19543518
0.39400002 18371.55628729  1415.06919007
0.39500002 18172.01859823  1079.41795587
0.39600002 17978.72961019  1820.07677832
0.39700002 17791.47850836  1168.36644900
0.39800002 17610.41085554  1264.77976757
0.39900002 17434.81292969  1464.52435548
0.40000002 17264.88798827  1557.72459255
0.40100002 17100.80554940  1237.41434818
0.40200002 16942.41885164  1229.00312173
0.40300002 16788.73703355  1424.35651741
0.40400002 16640.70774038  1617.47686900
0.40500002 16498.00190777  1406.61970930
0.40600002 16359.99227842  1198.53309110
0.40700002 16227.14440044  1092.41141280
0.40800002 16099.12032658  1185.21729460
0.40900002 15975.65407527  1080.75304940
0.41000002 15857.24048934  1270.87859923
0.41100002 15742.91689984  1167.49477261
0.41200002 15632.92124016  1355.84332340
0.41300002 15527.85714451  1157.13596924
0.41400002 15426.50213747  1152.35976427
0.41500002 15329.55858395  1339.19030135
0.41600002 15235.95406980  1143.61076667
0.41700002 15146.82045494  1044.67625628
0.41800002 15062.34321975  1041.33514784
0.41900002 14979.74289134  1698.70292437
0.42000002 14902.03988521  1129.27663601
0.42100002 14828.17790551  1126.34844707
0.42200002 14757.68285181  1685.47503837
0.42300002 14690.01999066  1214.57091038
0.42400002 14625.73638930  1118.86888680
0.42500002 14564.93055358  1023.76901712
0.42600002 14506.50379060  1022.05577300
0.42700002 14452.31462254  1298.97409983
0.42800002 14400.27898578  1111.98959598
0.42900002 14352.23919346  1018.29141903
0.43000002 14306.31708738  1017.39378788
0.43100002 14262.25146054  1109.03272613
0.43200002 14222.02754752  1293.20902618
0.43300002 14184.08040579  1292.73714944
0.43400002 14148.76385400  1015.52757375
0.43500002 14115.63949200  923.16286652
0.43600002 14085.26306408  1015.61794136
0.43700002 14056.58984956  1108.22159626
0.43800002 14030.05777706  1201.04315292
0.43900002 14006.51846468  924.43026248
0.44000002 13984.49347711  1480.11885976
0.44100002 13964.83874796  1388.80327930
0.44200002 13946.99000312  1390.16629444
0.44300002 13931.06933620  1113.37111411
0.44400002 13917.35214055  1300.57661917
0.44500002 13904.20316177  1116.22948273
0.44600002 13893.15146364  1024.68943476
0.44700002 13884.87123262  1212.98240837
0.44800002 13876.51547647  1214.95837012
0.44900002 13871.50931133  1498.12307662
0.45000002 13867.27156640  1031.93306252
0.45100002 13864.15301876  939.98961922
0.45200002 13862.75899404  1036.17197012
0.45300002 13862.14214035  1227.21550185
0.45400002 13863.43683289  1040.79756956
0.45500002 13865.77503809  1612.31239784
0.45600002 13869.20522623  950.73406332
0.45700002 13873.86937642  1143.76184560
0.45800002 13879.18977980  1051.14048779
0.45900002 13885.59095281  1245.53756750
0.46000002 13893.82765788  1152.90987369
0.46100002 13901.75562907  1252.40922398
0.46200002 13911.56745763  1545.85344916
0.46300002 13922.23447869  1065.88632221
0.46400002 13932.89017450  1166.18296288
0.46500002 13944.99972179  1267.18218478
0.46600002 13957.46436071  1075.49246729
0.46700002 13970.25767167  1078.78334854
0.46800002 13984.90689098  1278.98972033
0.46900002 13999.00681183  1085.62302971
0.47000002 14014.07073288  1188.11297305
0.47100002 14029.67376912  1092.63104493
0.47200002 14045.96241654  1195.87329683
0.47300002 14062.84050274  999.86800714
0.47400002 14079.38891867  1103.47215880
0.47500002 14096.81242623  1006.51245494
0.47600002 14115.17447450  1009.94078152
