# SAXS profile: number of points = 501, q_min = 0, q_max = 0.5, delta_q = 0.001
#    q    intensity    error
0.00000000 1682732.95097187 252.40994265
0.00100000 1682645.52474155 555.27303635
0.00200000 1682383.21655910 757.07247142
0.00300000 1681946.24310676 1110.08456000
0.00400000 1681334.49139365 1387.10100811
0.00500000 1680548.60446818 1512.49380389
0.00600000 1679588.41607105 2292.63828128
0.00700000 1678454.72379205 3222.63320361
0.00800000 1677147.26898294 2490.56379959
0.00900000 1675667.48695121 3518.90187302
0.01000000 1674014.74157739 3866.97422002
0.01100000 1672190.67379773 3912.92634705
0.01200000 1670195.16473180 3256.88071402
0.01300000 1668029.56665689 3853.14846892
0.01400000 1665694.02649552 4872.15524349
0.01500000 1663190.20134356 5189.15365926
0.01600000 1660517.63148550 4657.75216453
0.01700000 1657678.67251915 4475.73261658
0.01800000 1654673.71096365 5658.98434614
0.01900000 1651503.79444126 7927.21857101
0.02000000 1648169.70971259 5191.73482045
0.02100000 1644674.13184346 7598.39483362
0.02200000 1641015.88545846 7926.10708687
0.02300000 1637197.97349286 8251.47816200
0.02400000 1633220.95177049 12249.15769681
0.02500000 1629087.38837749 8259.47343629
0.02600000 1624797.50131910 7238.47319945
0.02700000 1620353.35926040 9527.67818883
0.02800000 1615755.48067838 7731.39032960
0.02900000 1611007.20049272 7249.53273507
0.03000000 1606109.02503724 11202.61096457
0.03100000 1601062.82487358 9222.12229561
0.03200000 1595869.74506063 9479.46672227
0.03300000 1590533.98242012 11356.41315802
0.03400000 1585054.06630498 9985.84107847
0.03500000 1579434.01287006 12793.41609502
0.03600000 1573674.41613907 12227.45077848
0.03700000 1567778.60955292 9829.97233651
0.03800000 1561747.89494432 11877.09329072
0.03900000 1555584.91741002 9333.50993670
0.04000000 1549289.75284995 11433.75890586
0.04100000 1542866.56090727 11664.07174128
0.04200000 1536316.91845097 10900.16904210
0.04300000 1529642.55875390 14133.89789895
0.04400000 1522846.48727579 12335.05711980
0.04500000 1515930.97076227 13597.90143956
0.04600000 1508896.67193131 12765.26643796
0.04700000 1501747.47020656 12975.09874603
0.04800000 1494485.43793585 12082.91532791
0.04900000 1487112.93923917 12268.68231980
0.05000000 1479631.86160987 16978.77640261
0.05100000 1472045.97901624 16074.74283968
0.05200000 1464354.64438951 11641.61996541
0.05300000 1456563.70965753 16517.43323752
0.05400000 1448673.69294412 14341.87022896
0.05500000 1440688.25003790 16942.49461080
0.05600000 1432608.48171976 14698.56370834
0.05700000 1424439.17888562 12392.62143477
0.05800000 1416179.89250224 16293.15042400
0.05900000 1407834.56108353 15204.61396985
0.06000000 1399406.81096045 14085.03021035
0.06100000 1390898.09559534 18109.49405093
0.06200000 1382311.52186183 14369.12894142
0.06300000 1373650.01169824 15824.44887464
0.06400000 1364913.45029113 14638.69743898
0.06500000 1356107.59281713 14768.01237659
0.06600000 1347234.43117026 14893.67733344
0.06700000 1338294.70216783 15015.66726104
0.06800000 1329292.98849303 13758.18307491
0.06900000 1320232.76906329 20793.66708628
0.07000000 1311113.39357246 19548.70161360
0.07100000 1301939.68748664 21091.42392516
0.07200000 1292713.54753630 18401.77821124
0.07300000 1283438.51783768 17095.40185861
0.07400000 1274117.01848379 18633.96226859
0.07500000 1264750.32948408 15859.96987513
0.07600000 1255341.28340585 15949.11175338
0.07700000 1245894.19635665 14576.96278086
0.07800000 1236409.87212340 27837.76957634
0.07900000 1226890.35677699 16194.95346906
0.08000000 1217341.09479024 14790.69499555
0.08100000 1207762.67078953 19312.12601202
0.08200000 1198156.42562478 19392.16265872
0.08300000 1188526.16865670 22463.14564185
0.08400000 1178874.84344298 27055.17892695
0.08500000 1169204.08597447 22624.10012570
0.08600000 1159516.96507433 16644.86681514
0.08700000 1149814.98934973 22766.33785818
0.08800000 1140100.55249845 15220.34309066
0.08900000 1130376.96511429 19838.11666955
0.09000000 1120646.19153785 16826.50335637
0.09100000 1110910.17661542 21462.78562056
0.09200000 1101170.99008538 15361.33603347
0.09300000 1091432.71254745 16928.12216710
0.09400000 1081694.15003235 20038.38507110
0.09500000 1071960.00139622 15436.22474565
0.09600000 1062231.14038324 20092.10296483
0.09700000 1052513.02982544 18566.33071898
0.09800000 1042804.29490514 17034.20895818
0.09900000 1033108.79181987 20145.62238778
0.10000000 1023425.94451158 17055.39416735
0.10100000 1013760.23196605 21714.74519000
0.10200000 1004113.07538162 20167.61206765
0.10300000 994486.03238618 24822.37253602
0.10400000 984881.77449446 18614.26641366
0.10500000 975302.99952281 17058.05026422
0.10600001 965747.11291453 23250.36283743
0.10700001 956221.92957007 21687.11438319
0.10800001 946724.11042882 21670.51590757
0.10900001 937259.04773234 20104.20752008
0.11000001 927826.98372335 16993.15200675
0.11100001 918428.87452043 21601.44814557
0.11200001 909067.64405670 20031.30647981
0.11300001 899743.62334523 16924.17835193
0.11400001 890459.36751635 15360.42481289
0.11500001 881216.52838086 15333.16831584
0.11600001 872015.98693041 21425.43380784
0.11700001 862859.40637793 29017.96320309
0.11800001 853747.13136229 16763.32571382
0.11900001 844681.08713722 16724.68631308
0.12000001 835662.52623367 16684.00312215
0.12100001 826694.57869652 16641.36265310
0.12200001 817776.04647499 30175.93753655
0.12300001 808909.56261238 21064.00600284
0.12400001 800095.12757617 21002.49808846
0.12500001 791333.60962017 17947.44711188
0.12600001 782628.70730027 16399.98533430
0.12700001 773978.88756457 17832.47440987
0.12800001 765385.39023290 14810.20799900
0.12900001 756850.13994056 20662.00979422
0.13000001 748373.60694282 16176.09627653
0.13100001 739955.67240047 17581.34760498
0.13200001 731598.16453145 24812.15291974
0.13300001 723302.71596506 20353.73938679
0.13400001 715068.15592588 21720.19626026
0.13500001 706896.95263373 15862.76836500
0.13600001 698787.94796134 20104.13021077
0.13700001 690744.00895161 18587.92215737
0.13800001 682762.99520195 18506.29185763
0.13900001 674848.18162453 15588.99373068
0.14000001 666998.53942810 18339.12570646
0.14100001 659214.75477706 15445.40243288
0.14200001 651497.34020178 15372.08046709
0.14300001 643847.76502676 15297.82361860
0.14400001 636263.12411604 17990.34068298
0.14500001 628747.91513034 16523.49598907
0.14600001 621299.89188983 21919.46121991
0.14700001 613921.98520954 19080.69620047
0.14800001 606609.45389234 17625.03851437
0.14900001 599366.89046573 13485.75567175
0.15000001 592192.72553831 22802.38197274
0.15100001 585087.80353114 20010.00382494
0.15200001 578052.09782417 17246.18515238
0.15300001 571086.66828375 19788.15398982
0.15400001 564187.80852012 17052.57731725
0.15500001 557360.08508404 15650.67192776
0.15600001 550599.00098329 15559.92850214
0.15700001 543910.84893902 12890.68772825
0.15800001 537287.70504598 19221.46855525
0.15900001 530736.31353064 22927.80982673
0.16000001 524251.30140087 16458.87038438
0.16100001 517838.02649361 12583.46463779
0.16200001 511492.01975678 15007.17656809
0.16300001 505214.13012987 19885.22910065
0.16400001 499004.78537771 16055.47972750
0.16500001 492862.85048636 13499.51411215
0.16600001 486789.72591115 12194.08320979
0.16700001 480782.23371660 13327.28414787
0.16800001 474841.66462615 14444.68411995
0.16900001 468970.11243678 15546.35996135
0.17000001 463163.02629047 11880.13218533
0.17100001 457422.12676467 17702.23714172
0.17200001 451747.62696861 12895.13662076
0.17300001 446138.18920407 19795.15238980
0.17400001 440593.83600775 16191.82423796
0.17500001 435113.61146656 11486.99988522
0.17600001 429696.04418171 13690.11661420
0.17700001 424343.99704060 16994.97788416
0.17800001 419053.35405973 12376.74139673
0.17900001 413826.07866453 14525.29604721
0.18000001 408660.76656359 14423.68243717
0.18100001 403558.68191012 15424.01355118
0.18200001 398514.75203849 18596.69178234
0.18300001 393532.56962264 16292.24915201
0.18400001 388609.92591940 11862.31854907
0.18500001 383748.15272753 11777.23136359
0.18600001 378943.51849598 12755.23943518
0.18700001 374197.10833300 12662.83074424
0.18800001 369508.27857475 11523.11621178
0.18900001 364878.39945898 17678.35928904
0.19000001 360301.02936056 12387.14997469
0.19100001 355784.12298198 13320.55819384
0.19200001 351319.18508406 10170.69088876
0.19300001 346911.10061225 14133.15890677
0.19400001 342555.25109624 10019.74156804
0.19500001 338253.81531454 12928.06143224
0.19600001 334004.64478325 10856.82149173
0.19700001 329807.65147491 10774.81648288
0.19800001 325662.40399123 11665.22786225
0.19900001 321568.57525858 16399.99811325
0.20000001 317523.56356148 11488.00307259
0.20100001 313529.79637646 10449.94860712
0.20200001 309583.35111041 14140.22023028
0.20300001 305686.97474326 10289.42405618
0.20400001 301837.61343986 11137.80846237
0.20500001 298035.02424289 12892.99575816
0.20600001 294279.15580760 10964.84186368
0.20700001 290569.59713147 14505.23497445
0.20800001 286903.92691184 11692.77009401
0.20900001 283285.44317060 11600.53944621
0.21000001 279708.77005303 10623.33958880
0.21100001 276176.21518054 10538.88486950
0.21200001 272686.21009798 9583.55730695
0.21300001 269237.58904574 9506.77971864
0.21400001 265831.42546867 9430.37026434
0.21500001 262467.28682055 10204.72859404
0.21600001 259142.25709202 9278.58895386
0.21700001 255857.46950840 10039.84757819
0.21800001 252611.91388665 9957.96211623
0.21900001 249404.22339383 10699.44168948
0.22000001 246234.23353281 8162.66522756
0.22100001 243103.59626539 8904.88515226
0.22200001 240009.62832482 8831.15469179
0.22300001 236950.87245455 10350.01459822
0.22400001 233927.54488912 11053.07701867
0.22500001 230942.11038472 11743.40686838
0.22600001 227989.03323384 7763.02694871
0.22700001 225072.64700520 8467.23338074
0.22800001 222188.53585102 8395.39422415
0.22900001 219337.03367798 7567.12801975
0.23000001 216519.60530736 9002.88561444
0.23100001 213735.01514040 9669.37254224
0.23200001 210980.60923287 8848.52716971
0.23300001 208258.26193681 9502.82494161
0.23400001 205567.47484117 7970.87921395
0.23500001 202905.34746128 7182.84963985
0.23600001 200274.94635688 7831.75214770
0.23700001 197673.35804584 9174.02098082
0.23800001 195101.20508484 9092.69209305
0.23900001 192557.33598808 10398.09663518
0.24000001 190041.60965617 6870.00451402
0.24100001 187555.07106631 7489.07434192
0.24200001 185095.37438482 8096.07205855
0.24300001 182662.95292727 7354.01083272
0.24400001 180256.84818811 8611.77132955
0.24500001 177877.21201764 9189.13720752
0.24600001 175523.86362358 7803.79134586
0.24700001 173196.40462082 10952.94114636
0.24800001 170894.24008409 8297.77021982
0.24900001 168616.06447827 9484.65407560
0.25000001 166363.81968245 8142.67753957
0.25100001 164134.48226161 6824.71209531
0.25200001 161931.08120951 7374.34178716
0.25300001 159751.05656905 6695.16709756
0.25400001 157594.12486782 6630.77311752
0.25500001 155459.96621861 7163.59558228
0.25600001 153349.30318867 7685.10069290
0.25700001 151260.60043943 5853.78551397
0.25800001 149194.96879381 6955.46977426
0.25900001 147151.44959313 7460.57884737
0.26000001 145129.66448153 6250.00929662
0.26100001 143128.78331967 8999.93832098
0.26200001 141150.38472317 7238.89782305
0.26300001 139192.15613758 6614.41157264
0.26400001 137255.30599717 5455.89867155
0.26500001 135339.70616690 5400.05453158
0.26600001 133443.42232078 6413.29118021
0.26700001 131568.68675684 5817.96760369
0.26800001 129714.23601847 7327.55753943
0.26900001 127878.35665866 7250.70316566
0.27000001 126063.25038515 5636.91850772
0.27100001 124267.22241208 5577.11320578
0.27200001 122492.08797038 6019.26148772
0.27300001 120735.10425846 4962.21301986
0.27400001 118995.46313509 6871.98832127
0.27500001 117277.54613522 4855.29063978
0.27600001 115575.87230824 6723.04881035
0.27700001 113894.79875873 5699.29599962
0.27800001 112230.97290262 7045.29965740
0.27900001 110586.63988364 6502.49473291
0.28000001 108959.14629334 5511.15388035
0.28100001 107350.41201579 4995.01490750
0.28200001 105760.05975745 6285.32064887
0.28300001 104187.12683766 7545.23208270
0.28400001 102631.56628669 4826.24963306
0.28500001 101094.16963382 4770.63409082
0.28600001 99573.93793072  6001.32152314
0.28700001 98070.93878281  5931.33065833
0.28800001 96584.41002363  4605.62780998
0.28900001 95117.14678356  7447.67294568
0.29000001 93665.00310565  6132.71636863
0.29100001 92230.89741552  6059.57024703
0.29200001 90813.36674656  4789.49718893
0.29300001 89412.67087283  5126.02866378
0.29400001 88027.81248820  5453.32324178
0.29500001 86660.85396303  4617.29051772
0.29600001 85309.38524699  5320.74660973
0.29700001 83974.49489531  4879.75812936
0.29800001 82655.65053981  4077.81671242
0.29900001 81353.88120119  4759.20227557
0.30000001 80067.26905712  6507.06726431
0.30100001 78797.73531497  4997.35261025
0.30200001 77542.62468134  4934.03744205
0.30300001 76304.79275022  3827.44858555
0.30400001 75082.45604293  4122.02703190
0.30500001 73875.64472480  4069.07070408
0.30600001 72683.59223275  3681.78753886
0.30700001 71508.24356425  3964.41721089
0.30800001 70347.91581964  3586.68865787
0.30900001 69203.02284064  3217.94071444
0.31000001 68073.81845889  3175.64378146
0.31100001 66958.74195843  4700.50390803
0.31200001 65859.62038224  3710.53118801
0.31300001 64775.03511266  4576.35644738
0.31400001 63706.56839690  3612.16259913
0.31500001 62651.74536117  4454.53930609
0.31600002 61612.38187931  3808.56956620
0.31700002 60587.52454912  4335.03758675
0.31800002 59577.41481248  3420.93532051
0.31900002 58582.05219610  3655.52023012
0.32000002 57601.35668919  3882.90763827
0.32100002 56634.23399729  2735.43363159
0.32200002 55682.88375787  4316.53735330
0.32300002 54743.78520233  3724.76732154
0.32400002 53819.81106341  3410.83068765
0.32500002 52909.78396241  3104.74626993
0.32600002 52014.08971312  3061.54946549
0.32700002 51131.65631262  2515.67760970
0.32800002 50263.77054293  2480.51719375
0.32900002 49408.89518529  3179.46255573
0.33000002 48568.53143835  4099.42709018
0.33100002 47739.37382693  2615.16302208
0.33200002 46926.48576439  3047.17149741
0.33300002 46125.53617459  3004.15631331
0.33400002 45338.34272133  2733.90219556
0.33500002 44563.26586615  2919.78531782
0.33600002 43802.27358211  2657.04604132
0.33700002 43053.18855899  2401.07643964
0.33800002 42318.02594887  2367.05889355
0.33900002 41594.46500721  2545.58137899
0.34000002 40884.23563579  2509.47450217
0.34100002 40186.10449507  4123.09451646
0.34200002 39501.11868972  2438.79918340
0.34300002 38827.23510259  2604.53105403
0.34400002 38167.02560585  2765.20113610
0.34500002 37517.84936191  2336.61176892
0.34600002 36881.68090414  1919.69158198
0.34700002 36255.71803618  3028.07771379
0.34800002 35643.17596195  2052.51238498
0.34900002 35041.37282560  1839.67216047
0.35000002 34451.38661200  1813.86559103
0.35100002 33873.36241010  2146.21634395
0.35200002 33305.36478949  2468.92680878
0.35300002 32749.06870048  1912.87319339
0.35400002 32204.11417704  2229.32990949
0.35500002 31670.21849850  1691.18974792
0.35600002 31146.24181897  2168.24572693
0.35700002 30633.39942178  2467.52044030
0.35800002 30131.69945123  1784.85130153
0.35900002 29640.36731377  1760.63790183
0.36000002 29159.65802471  1736.89511251
0.36100002 28688.26394409  1557.77280595
0.36200002 28228.27838126  1690.73281373
0.36300002 27777.08927195  2274.94371913
0.36400002 27336.03909588  1945.64267481
0.36500002 26904.52232299  1477.05834550
0.36600002 26483.10536125  2041.05302687
0.36700002 26070.58073363  1583.00573713
0.36800002 25668.90726319  2131.16112648
0.36900002 25275.45126683  1963.90265646
0.37000002 24890.76606061  2077.75679533
0.37100002 24515.16626789  1504.74097680
0.37200002 24149.23122126  1621.37946100
0.37300002 23791.38628227  1468.16651703
0.37400002 23442.32379347  1977.94616377
0.37500002 23102.17299764  1954.44392818
0.37600002 22770.51254412  1545.20705444
0.37700002 22446.61560925  1399.99548187
0.37800002 22130.91276293  1509.77094021
0.37900002 21823.78534501  2114.72490011
0.38000002 21524.46039591  1353.13526689
0.38100002 21231.92839751  1581.56642125
0.38200002 20948.17716026  1203.47283487
0.38300002 20671.19310448  1309.72685715
0.38400002 20402.61926904  1296.07645047
0.38500002 20139.99178635  1632.54781154
0.38600002 19885.89143158  1154.37605229
0.38700002 19638.00011572  1371.51799306
0.38800002 19397.37616463  1584.57173396
0.38900002 19162.90754533  1233.13315896
0.39000002 18936.41879805  1332.74521815
0.39100002 18715.32451435  1320.55336030
0.39200002 18501.33997368  1417.85025606
0.39300002 18293.29646680  1621.70080861
0.39400002 18092.90374389  1393.60597690
0.39500002 17897.39771455  1488.34766446
0.39600002 17708.00451884  1792.66992240
0.39700002 17524.43654728  1673.93425830
0.39800002 17346.96867236  1868.78902361
0.39900002 17174.84515418  1133.53983388
0.40000002 17008.28948956  1636.87785803
0.40100002 16847.46070187  1422.26269984
0.40200002 16692.15217007  1412.65690508
0.40300002 16541.48642362  1503.62118715
0.40400002 16396.38966636  1693.33722302
0.40500002 16256.39699417  990.01462385
0.40600002 16121.21629612  1082.62033166
0.40700002 15990.86588235  1370.09745372
0.40800002 15865.33274220  973.33820985
0.40900002 15744.22913638  1258.75117910
0.41000002 15628.11463330  1252.51530663
0.41100002 15515.99666003  1054.77750293
0.41200002 15408.09902907  1049.98495809
0.41300002 15305.09513414  1140.53574344
0.41400002 15205.64294419  1041.20644994
0.41500002 15110.55047919  1508.63743133
0.41600002 15018.75904201  1690.96216066
0.41700002 14931.31233046  1123.43199298
0.41800002 14848.48850788  1119.87305633
0.41900002 14767.43940457  1023.38359923
0.42000002 14691.25397004  1206.07855182
0.42100002 14618.71712750  1017.90132182
0.42200002 14549.62952402  1200.12624816
0.42300002 14483.27729054  1013.25012726
0.42400002 14420.16935275  1103.14300776
0.42500002 14360.62026693  1284.70114996
0.42600002 14303.31128565  916.12713126
0.42700002 14250.20117198  1006.34925445
0.42800002 14199.20162346  1187.83426810
0.42900002 14152.05886080  1095.36940773
0.43000002 14107.14335653  1094.43223346
0.43100002 14063.97272081  1093.61457059
0.43200002 14024.59978359  1184.16713884
0.43300002 13987.41572555  1639.04545239
0.43400002 13952.86950947  1365.63716795
0.43500002 13920.41587540  1183.51381381
0.43600002 13890.78158290  1183.70300868
0.43700002 13862.74080239  1092.93853665
0.43800002 13836.90377184  1093.39218787
0.43900002 13813.94803635  1002.89267497
0.44000002 13792.50636863  1459.79894324
0.44100002 13773.41614915  1004.49528736
0.44200002 13756.09816040  1553.95770233
0.44300002 13740.69617515  1281.18257209
0.44400002 13727.54903656  916.31394161
0.44500002 13714.88553620  1192.78365161
0.44600002 13704.33915810  1102.65118092
0.44700002 13696.47637137  1288.56455809
0.44800002 13688.66635562  1106.31806729
0.44900002 13684.03842618  1016.03990130
0.45000002 13680.29802300  1110.56664614
0.45100002 13677.59374946  1298.27726023
0.45200002 13676.55978779  1022.25450979
0.45300002 13676.49078826  1303.91669355
0.45400002 13678.11827929  933.53161680
0.45500002 13680.93539090  1777.97444767
0.45600002 13684.81448888  938.09407767
0.45700002 13689.89787738  1410.74404312
0.45800002 13695.61147171  1980.18007849
0.45900002 13702.52869837  1229.11688250
0.46000002 13711.21762690  1232.56996699
0.46100002 13719.61317828  950.76923832
0.46200002 13729.91476152  1239.60541299
0.46300002 13741.05364221  1338.92833036
0.46400002 13752.19211828  959.21544571
0.46500002 13764.81132466  962.16035720
0.46600002 13777.85437189  1158.16649339
0.46700002 13791.26175694  1161.77594547
0.46800002 13806.39650765  1165.53604842
0.46900002 13821.08245528  1266.70226706
0.47000002 13836.77464025  1564.10907947
0.47100002 13853.03681841  1471.19257984
0.47200002 13869.98183648  1180.89030953
0.47300002 13887.51577573  1777.32435322
0.47400002 13904.79457721  1287.93165876
0.47500002 13922.93131886  1292.32654627
0.47600002 13942.01731703  1296.81680221
0.47700002 13960.55229215  1201.16597615
