# SAXS profile: number of points = 501, q_min = 0, q_max = 0.5, delta_q = 0.001
#    q    intensity    error
0.00000000 1700912.83420643 357.19169518
0.00100000 1700824.91024332 663.32173075
0.00200000 1700561.11235775 994.82828223
0.00300000 1700121.64959701 1020.07302610
0.00400000 1699506.41759315 1402.09284779
0.00500000 1698716.05925672 1681.72896523
0.00600000 1697750.41022813 1960.90180365
0.00700000 1696610.26205096 2035.93239908
0.00800000 1695295.36522420 2288.64883968
0.00900000 1693807.14471906 3048.85299083
0.01000000 1692144.96909544 2792.03931957
0.01100000 1690310.49541394 3955.32673148
0.01200000 1688303.59608230 4279.84980371
0.01300000 1686125.62831053 3894.95037318
0.01400000 1683776.72024002 6061.59646158
0.01500000 1681258.54039762 4842.02481195
0.01600000 1678570.67991288 4280.35542512
0.01700000 1675715.40907389 5429.31816895
0.01800000 1672693.18645688 5243.89337550
0.01900000 1669505.04339426 6010.21842742
0.02000000 1666151.74307244 5773.21605090
0.02100000 1662636.06362679 6035.36918460
0.02200000 1658956.66517027 6868.08090584
0.02300000 1655116.66024488 6554.26227291
0.02400000 1651116.63109206 7430.02517871
0.02500000 1646959.04212793 7065.45461341
0.02600000 1642644.26305648 6652.70956966
0.02700000 1638174.24336182 8256.39856470
0.02800000 1633549.54792097 8527.12903120
0.02900000 1628773.53628487 8795.37749977
0.03000000 1623846.73764477 7550.88767713
0.03100000 1618770.93075450 14763.19156778
0.03200000 1613547.28952914 8785.76539614
0.03300000 1608180.09371864 11482.40639850
0.03400000 1602667.85073590 10096.80792551
0.03500000 1597014.50975751 8623.87875092
0.03600000 1591220.82881996 13246.91401212
0.03700000 1585289.94793852 15361.46030595
0.03800000 1579223.31484809 11086.14818330
0.03900000 1573023.49217762 9438.14139015
0.04000000 1566690.69421990 11562.17785912
0.04100000 1560228.82783994 11795.33048538
0.04200000 1553639.78610766 12025.17250236
0.04300000 1546925.17937919 12251.64798938
0.04400000 1540087.91076069 15593.39082064
0.04500000 1533130.34089185 12694.31981242
0.04600000 1526053.22313669 11834.54329558
0.04700000 1518860.33215664 12029.37439014
0.04800000 1511553.74306970 12220.91258133
0.04900000 1504135.99062514 11281.02045479
0.05000000 1496608.70285677 16028.67995399
0.05100000 1488975.79856197 11614.01176981
0.05200000 1481236.81308815 16486.16649795
0.05300000 1473397.26766326 11934.51842443
0.05400000 1465457.82794500 14508.03317322
0.05500000 1457422.42250040 12242.34892010
0.05600000 1449291.68091918 13630.58889510
0.05700000 1441070.77985260 16298.51128092
0.05800000 1432759.03997909 16483.89352463
0.05900000 1424360.47586027 15383.09385777
0.06000000 1415878.81675205 16841.87931210
0.06100000 1407315.55457002 20940.85643060
0.06200000 1398673.62601542 15860.95966041
0.06300000 1389956.00655011 20015.36743015
0.06400000 1381162.73167947 16159.60471638
0.06500000 1372299.21521689 14944.33915278
0.06600000 1363367.92339353 16442.21792543
0.06700000 1354369.31034651 13814.56761204
0.06800000 1345308.16624461 18101.12222412
0.06900000 1336187.73589177 14029.97188373
0.07000000 1327007.46736785 18372.41924606
0.07100000 1317772.16096043 25617.49200894
0.07200000 1308483.91337382 15760.68947493
0.07300000 1299146.06536564 21630.78300186
0.07400000 1289761.31598449 18862.76013026
0.07500000 1280330.45999936 16055.34472095
0.07600000 1270856.98512584 22017.59829950
0.07700000 1261344.61929706 17709.27928529
0.07800000 1251794.52206231 16317.14236029
0.07900000 1242208.66018983 19378.45600788
0.08000000 1232592.42826207 14975.99870592
0.08100000 1222946.65393016 15042.24454910
0.08200000 1213272.24273441 19636.81217012
0.08300000 1203573.57329712 16681.53050880
0.08400000 1193853.03289886 22832.44032591
0.08500000 1184112.69469020 16802.55992645
0.08600000 1174355.43684171 18390.40700440
0.08700000 1164582.95239718 16909.74526285
0.08800000 1154797.43424567 15416.54647120
0.08900000 1145002.23169679 18549.03702473
0.09000000 1135199.49038771 20144.11590321
0.09100000 1125391.05232314 17083.43697687
0.09200000 1115578.80168153 20231.02251908
0.09300000 1105767.26378523 20268.71489765
0.09400000 1095954.86541967 23426.03634931
0.09500000 1086146.44382171 26588.86619450
0.09600000 1076343.02773143 18792.95014761
0.09700000 1066549.94260837 20381.77036145
0.09800000 1056765.56958177 18831.56333536
0.09900000 1046994.53056451 18845.90243634
0.10000000 1037235.47525798 18856.94182698
0.10100000 1027493.22366381 15720.64706143
0.10200000 1017769.40325414 22014.35322786
0.10300000 1008065.06401474 17298.39731222
0.10400000 998383.13933666 23586.80277647
0.10500000 988726.73608309 22009.05818072
0.10600001 979092.77323810 15714.43974989
0.10700001 969489.15469141 21988.01506311
0.10800001 959912.76691985 15694.57447775
0.10900001 950368.63543893 17249.19154506
0.11000001 940857.31120421 17231.80246580
0.11100001 931379.74357378 17211.89847147
0.11200001 921938.83982625 23440.29610608
0.11300001 912534.85902946 23406.52023610
0.11400001 903170.43026762 20253.59785238
0.11500001 893847.15246450 15552.94118524
0.11600001 884566.01124496 24838.61476545
0.11700001 875328.76106617 17042.65178058
0.11800001 866135.47515767 15460.51895973
0.11900001 856988.40279988 21596.10876777
0.12000001 847888.53770409 21544.84875793
0.12100001 838838.99891964 19955.98072439
0.12200001 829838.81094629 26027.89553154
0.12300001 820890.81375301 16795.42684069
0.12400001 811994.49131508 19792.36665837
0.12500001 803151.05168021 16697.51115123
0.12600001 794364.10419070 18159.16427752
0.12700001 785632.15646528 18100.96573799
0.12800001 776956.29472387 22551.15751718
0.12900001 768338.90580044 19477.39218005
0.13000001 759780.10551052 19408.58371009
0.13100001 751279.73167581 20825.47514372
0.13200001 742839.69237883 16301.61781772
0.13300001 734461.77778531 16238.95067239
0.13400001 726144.62448488 20586.20107470
0.13500001 717891.03288465 14644.97776133
0.13600001 709699.43742884 16042.75653951
0.13700001 701572.95220398 18879.32903403
0.13800001 693509.32849502 18797.57123527
0.13900001 685512.18801129 15835.33228983
0.14000001 677580.09920857 18630.06570634
0.14100001 669713.92298867 15691.39795568
0.14200001 661914.11948515 15617.86438587
0.14300001 654182.30523064 16956.40615137
0.14400001 646515.34432701 18280.22222312
0.14500001 638918.02501975 20988.45811197
0.14600001 631387.84363515 13922.10260892
0.14700001 623928.02938259 13851.20290575
0.14800001 616533.66323845 15157.48082583
0.14900001 609209.42495923 23302.26160411
0.15000001 601953.58353594 19087.94903455
0.15100001 594767.06941236 18984.96575145
0.15200001 587650.04845272 18881.19694773
0.15300001 580603.39926979 13411.93915603
0.15400001 573623.46506001 21338.79390723
0.15500001 566714.89845351 13261.12924964
0.15600001 559873.07157788 17140.51489530
0.15700001 553104.37058220 19662.86130222
0.15800001 546400.95339477 16941.16235961
0.15900001 539769.23472621 22022.58581631
0.16000001 533204.19779624 16739.94657998
0.16100001 526711.18260138 14078.99057552
0.16200001 520285.61525538 16537.27906155
0.16300001 513928.30382054 13906.90055790
0.16400001 507639.97778706 13820.49904771
0.16500001 501419.09368660 12485.33602225
0.16600001 495267.35686185 18609.67181270
0.16700001 489181.58321698 13560.11412701
0.16800001 483162.80883144 15922.63111685
0.16900001 477213.24979079 12168.93844426
0.17000001 471328.81060943 14507.50147560
0.17100001 465510.47405531 14412.20495732
0.17200001 459758.89987086 15509.96721957
0.17300001 454072.82085008 13036.43130224
0.17400001 448452.14931278 15303.43031802
0.17500001 442895.71325422 16369.42633496
0.17600001 437402.24586497 19742.15129952
0.17700001 431974.72185999 12687.09818025
0.17800001 426608.97725978 12599.89673849
0.17900001 421306.74620964 15925.39575894
0.18000001 416066.93769944 13555.46147054
0.18100001 410890.58187759 11217.31341512
0.18200001 405772.82429242 12252.31100828
0.18300001 400717.22053198 12165.77539005
0.18400001 395721.38108312 12079.39572820
0.18500001 390786.88029914 11993.24992297
0.18600001 385909.88960028 18402.11395497
0.18700001 381091.27851460 15045.48438658
0.18800001 376330.80543185 14936.57037329
0.18900001 371629.57075898 10591.44326705
0.19000001 366981.29419858 11565.41603312
0.19100001 362393.83924236 13568.02598232
0.19200001 357858.86005447 11396.01593691
0.19300001 353381.01128359 11311.72670570
0.19400001 348955.77031893 11227.65244056
0.19500001 344585.27813100 15196.21148368
0.19600001 340267.67584361 14076.87441487
0.19700001 336002.57756355 19958.55405047
0.19800001 331789.62196225 12875.09688871
0.19900001 327628.60337910 9828.85856588
0.20000001 323516.62484960 11704.83204024
0.20100001 319456.40721735 9679.52959616
0.20200001 315443.92117483 12486.84820988
0.20300001 311482.06173470 19062.70307916
0.20400001 307567.51353043 9457.70148809
0.20500001 303700.24937126 14076.50722371
0.20600001 299880.12467007 12104.66180447
0.20700001 296106.76704315 10162.38472529
0.20800001 292377.65865582 9166.04003214
0.20900001 288696.23009938 15459.68385262
0.21000001 285057.08200655 11728.67419360
0.21100001 281462.58108369 10740.61260190
0.21200001 277910.93630311 8879.25483465
0.21300001 274401.23010171 13212.41985402
0.21400001 270934.47839089 9611.40107531
0.21500001 267510.18536246 10400.79649862
0.21600001 264125.41989353 18914.02221280
0.21700001 260781.23527751 13644.07487481
0.21800001 257477.04038644 10149.74541192
0.21900001 254210.98991997 9227.85937040
0.22000001 250983.14778200 9152.10091661
0.22100001 247795.17371438 9076.73764234
0.22200001 244644.26557229 9820.02128441
0.22300001 241529.16181843 8926.91824292
0.22400001 238449.70114977 9657.21335322
0.22500001 235408.88765552 10374.47016956
0.22600001 232400.89566951 13452.52648198
0.22700001 229429.98430260 7846.50583420
0.22800001 226491.77373184 10891.98991385
0.22900001 223586.67593795 12341.98509544
0.23000001 220716.16455727 12236.50474174
0.23100001 217879.03847849 9856.84816692
0.23200001 215072.45269869 7516.78257731
0.23300001 212298.49239967 8942.01292278
0.23400001 209556.53416639 10341.61545022
0.23500001 206843.67493936 11715.62630267
0.23600001 204163.09974555 8709.59824708
0.23700001 201511.68266601 7913.36415258
0.23800001 198890.33154726 7843.24059554
0.23900001 196297.62825123 9186.72943669
0.24000001 193733.58700051 7703.81645147
0.24100001 191199.27210010 9022.69407719
0.24200001 188692.18853243 8941.17977654
0.24300001 186212.82672939 8178.46773682
0.24400001 183760.39701457 8103.83389168
0.24500001 181334.84217199 8698.63279047
0.24600001 178935.98240524 9281.40984642
0.24700001 176563.57672299 8538.61497425
0.24800001 174216.86046780 7157.70005093
0.24900001 171894.64756649 6446.04958869
0.25000001 169598.84111253 6385.39666997
0.25100001 167326.49025908 8222.42412033
0.25200001 165080.31526613 6891.27808681
0.25300001 162858.16412467 7445.87561605
0.25400001 160659.46697277 8603.31486343
0.25500001 158484.00792120 6694.36481131
0.25600001 156332.58597991 6026.62147466
0.25700001 154203.57409060 6564.44645962
0.25800001 152098.09504795 7090.81352663
0.25900001 150015.10550252 7605.76620884
0.26000001 147954.33274318 6371.65364106
0.26100001 145914.95459958 8601.68698064
0.26200001 143898.40058669 6812.15060610
0.26300001 141902.54050864 7867.07721805
0.26400001 139928.49143198 7230.80513690
0.26500001 137976.13010946 7156.82220743
0.26600001 136043.58569067 7627.96421063
0.26700001 134132.93901046 6470.57328405
0.26800001 132243.09629980 9604.81653876
0.26900001 130372.10189494 6336.08445193
0.27000001 128522.41751600 5746.88017118
0.27100001 126692.22765482 6719.75607281
0.27200001 124883.35786389 5113.97374654
0.27300001 123093.08848446 5059.12617613
0.27400001 121320.49325405 8007.15293370
0.27500001 119570.08799985 4950.20187746
0.27600001 117836.43562367 6854.54578463
0.27700001 116123.60151899 6779.29617752
0.27800001 114428.55591546 5746.60235004
0.27900001 112753.33689125 5209.20441092
0.28000001 111095.36917922 4682.67003253
0.28100001 109456.55737700 4630.01259618
0.28200001 107836.60806236 4577.66422891
0.28300001 106234.41996379 6788.37975698
0.28400001 104649.96983937 6263.30099133
0.28500001 103084.08659132 4864.53827649
0.28600001 101535.69209698 4808.22292684
0.28700001 100005.01697748 5184.26032550
0.28800001 98491.10643922  5123.50759948
0.28900001 96996.86425312  5485.17293315
0.29000001 95518.09780238  4586.30168307
0.29100001 94057.70547668  4119.72769489
0.29200001 92614.30835377  4477.43894930
0.29300001 91188.05585460  4825.67214425
0.29400001 89778.12633918  4369.95050642
0.29500001 88386.30459621  4316.78732082
0.29600001 87010.41936424  3876.31436617
0.29700001 85651.33140623  5742.92204265
0.29800001 84308.64318996  4537.49139128
0.29900001 82983.49278160  5974.81176312
0.30000001 81673.72338360  5900.11005654
0.30100001 80381.47662458  3641.28106347
0.30200001 79103.97114582  5392.91348817
0.30300001 77843.97236735  4614.59090040
0.30400001 76599.89170250  4205.33425356
0.30500001 75371.42286321  3459.54847320
0.30600001 74158.33055121  5122.48692534
0.30700001 72962.06959765  4045.01733000
0.30800001 71781.23693054  4325.17863602
0.30900001 70616.09409463  3940.37823703
0.31000001 69466.93381495  3240.63261589
0.31100001 68332.18107838  3837.53547105
0.31200001 67213.71145133  4102.38907266
0.31300001 66110.05310645  4359.29710824
0.31400001 65022.77970035  3379.55913494
0.31500001 63949.48550664  3334.32633219
0.31600002 62891.85348271  3289.55855217
0.31700002 61849.06802860  3540.24082158
0.31800002 60821.29416319  3201.32896986
0.31900002 59808.50350847  4019.13162607
0.32000002 58810.68311622  3681.25488397
0.32100002 57826.71282751  3072.33339800
0.32200002 56858.69731184  3030.28441672
0.32300002 55903.26949752  2988.58892885
0.32400002 54963.06106235  3483.28415976
0.32500002 54037.15860875  2906.65889920
0.32600002 53125.85780138  3126.98813826
0.32700002 52228.01955760  2569.61868391
0.32800002 51344.94413717  3547.42235842
0.32900002 50475.13365234  2748.37115751
0.33000002 49620.08724240  3449.09242755
0.33100002 48776.49671694  3643.60447730
0.33200002 47949.37783742  3832.11445824
0.33300002 47134.33620242  2361.43035557
0.33400002 46333.36639476  3026.72730307
0.33500002 45544.67964000  2754.54235507
0.33600002 44770.34221937  2489.45499700
0.33700002 44007.97918617  2454.32511544
0.33800002 43259.87307596  3519.62344014
0.33900002 42523.50559450  2602.43866563
0.34000002 41800.69567986  3207.15852792
0.34100002 41090.17214003  2318.71852367
0.34200002 40392.96380256  2493.86170328
0.34300002 39706.99560300  2253.76917716
0.34400002 39034.98726288  2828.08496113
0.34500002 38374.13120402  2190.77925419
0.34600002 37726.51619318  2160.03178694
0.34700002 37089.22509483  2323.26916997
0.34800002 36465.51623424  2672.55781138
0.34900002 35852.76038867  2258.72401146
0.35000002 35251.96916321  2041.61789078
0.35100002 34663.27541515  2013.24313146
0.35200002 34084.81502814  2165.74924946
0.35300002 33518.15724223  1957.79565725
0.35400002 32963.01131532  1930.80847925
0.35500002 32419.10713955  1904.29844357
0.35600002 31885.24644050  2731.92804442
0.35700002 31362.57266897  1852.58725530
0.35800002 30851.36239883  2159.74972703
0.35900002 30350.56279327  1638.93046847
0.36000002 29860.49171552  1778.64027328
0.36100002 29379.90591568  2392.99345018
0.36200002 28910.87256745  1574.19708586
0.36300002 28450.72850818  2330.11477519
0.36400002 28000.88105298  2606.18212745
0.36500002 27560.67248482  1513.08099109
0.36600002 27130.68315689  1493.54417853
0.36700002 26709.66783744  2064.12322825
0.36800002 26299.72370941  1601.25875390
0.36900002 25898.02106865  1437.34023740
0.37000002 25505.26176654  1703.24146145
0.37100002 25121.53906584  1401.78194628
0.37200002 24747.75319348  1661.56422812
0.37300002 24382.11553671  1778.18777033
0.37400002 24025.37824368  1621.71310827
0.37500002 23677.56508420  1468.95620741
0.37600002 23338.47734562  2111.66553026
0.37700002 23007.16954285  2217.66117729
0.37800002 22684.09836950  1676.46836942
0.37900002 22369.79826620  1530.09427389
0.38000002 22063.35390708  1765.28902973
0.38100002 21763.76973035  1496.47687755
0.38200002 21473.07521176  1850.44234404
0.38300002 21189.17793358  1464.59604815
0.38400002 20913.78360620  1811.65659071
0.38500002 20644.41724145  1434.37417789
0.38600002 20383.72431636  1301.60277788
0.38700002 20129.21713572  1522.97664064
0.38800002 19882.10162526  1740.18102719
0.38900002 19641.20425568  1263.91155373
0.39000002 19408.38058461  1138.30157522
0.39100002 19180.98403900  1240.62610642
0.39200002 18960.79852965  1564.83477679
0.39300002 18746.56804933  1218.71444663
0.39400002 18540.10843592  1647.75221531
0.39500002 18338.53236451  1307.17064887
0.39600002 18143.18105527  1944.76766945
0.39700002 17953.68026756  1393.38519158
0.39800002 17770.40953377  1276.27087318
0.39900002 17592.47363832  1372.21300880
0.40000002 17420.11956571  1466.94833813
0.40100002 17253.54866681  1248.46684068
0.40200002 17092.64122676  1653.20033778
0.40300002 16936.37019870  1026.34408267
0.40400002 16785.70897661  1733.54417670
0.40500002 16640.30376823  1317.41291175
0.40600002 16499.53521912  1007.29667285
0.40700002 16363.86046924  1301.90880062
0.40800002 16232.96748455  995.89260236
0.40900002 16106.54028827  1089.60750213
0.41000002 15985.18790087  1478.23032117
0.41100002 15867.81780728  1274.82054304
0.41200002 15754.72134062  1073.60553663
0.41300002 15646.54774764  1165.98079340
0.41400002 15541.97903455  1451.23236112
0.41500002 15441.80621397  1252.63937943
0.41600002 15344.96256018  1343.75843507
0.41700002 15252.52995421  1147.60040813
0.41800002 15164.71824817  1048.41284577
0.41900002 15078.70938130  1329.94223045
0.42000002 14997.61272331  1041.80921719
0.42100002 14920.28167995  1133.34465011
0.42200002 14846.31665692  1036.19872017
0.42300002 14775.13875316  1221.60853000
0.42400002 14707.27345771  1406.38309104
0.42500002 14642.94675665  1309.95807892
0.42600002 14580.87572010  1214.07667436
0.42700002 14523.09667867  1212.09770624
0.42800002 14467.44871194  1675.76466371
0.42900002 14415.70852869  1022.79456858
0.43000002 14366.11308612  1021.64618053
0.43100002 14318.38044216  1298.96353527
0.43200002 14274.43227298  1297.97418809
0.43300002 14232.74560635  1204.51731775
0.43400002 14193.69622486  1296.59421158
0.43500002 14156.79142564  1203.61046405
0.43600002 14122.67321457  1110.88952770
0.43700002 14090.23690830  1573.73863487
0.43800002 14059.90989339  1203.59864346
0.43900002 14032.60650786  1574.45852480
0.44000002 14006.82314761  1482.48223220
0.44100002 13983.39313187  1390.64851287
0.44200002 13961.77331626  927.75988083
0.44300002 13942.06034551  1021.39538932
0.44400002 13924.59613174  1115.36020301
0.44500002 13907.69809414  1674.76508386
0.44600002 13892.91323584  1117.82385193
0.44700002 13880.85676331  932.79361870
0.44800002 13868.81903662  1307.69100894
0.44900002 13860.12541833  1216.22606310
0.45000002 13852.15068778  937.09803844
0.45100002 13845.33683789  1220.32804673
0.45200002 13840.24710727  1034.48931906
0.45300002 13836.04813616  1224.90539955
0.45400002 13833.61604174  944.14433959
0.45500002 13832.41645933  946.13733066
0.45600002 13832.27263990  1232.66303472
0.45700002 13833.36977571  1425.52882295
0.45800002 13835.15233250  1143.06033989
0.45900002 13838.04102349  954.82487587
0.46000002 13842.82883809  1244.40115738
0.46100002 13847.32374089  1151.54349687
0.46200002 13853.72017471  1250.78318525
0.46300002 13860.99591128  964.72536115
0.46400002 13868.32307012  1064.04713799
0.46500002 13877.08847104  1261.01108913
0.46600002 13886.31896025  1070.01035820
0.46700002 13895.89429500  975.49182574
0.46800002 13907.31673364  1467.56966787
0.46900002 13918.27868669  1275.61030209
0.47000002 13930.23638060  1082.58837163
0.47100002 13942.78720025  1184.57925668
0.47200002 13956.06187887  1089.20090096
0.47300002 13969.95315332  1390.56920279
0.47400002 13983.58477009  1095.96350830
0.47500002 13998.12300174  1099.41263267
0.47600002 14013.62048944  1403.74443096
0.47700002 14028.60741413  1005.85119927
