# SAXS profile: number of points = 501, q_min = 0, q_max = 0.5, delta_q = 0.001
#    q    intensity    error
0.00000000 1682732.95097187 403.85590823
0.00100000 1682645.68260703 605.75246012
0.00200000 1682383.84785900 1135.60913326
0.00300000 1681947.65762593 1009.16863053
0.00400000 1681337.00212072 1387.10307946
0.00500000 1680552.52266334 1512.49733026
0.00600000 1679594.08497768 2116.28863323
0.00700000 1678462.40591080 2416.98596496
0.00800000 1677157.28877272 2490.57867898
0.00900000 1675680.20402913 4021.63266159
0.01000000 1674030.43804610 3038.36537625
0.01100000 1672209.62824855 3912.97070047
0.01200000 1670217.68451380 3582.61709036
0.01300000 1668055.97329324 5954.96008730
0.01400000 1665724.62897412 3747.88058134
0.01500000 1663225.30451955 5588.43727203
0.01600000 1660557.49945265 5928.19053806
0.01700000 1657723.59497437 5371.02468865
0.01800000 1654723.99837293 5187.55996833
0.01900000 1651559.76344930 5450.14746531
0.02000000 1648231.63899441 5711.12288746
0.02100000 1644742.34096342 7598.70995976
0.02200000 1641090.54567336 6227.93890378
0.02300000 1637279.44930050 7073.04754293
0.02400000 1633309.49027123 6737.40195458
0.02500000 1629183.26892162 7624.57804677
0.02600000 1624901.03728495 7897.01940240
0.02700000 1620464.80277907 9528.33347675
0.02800000 1615874.99014421 7731.96218242
0.02900000 1611135.12734963 10875.16260893
0.03000000 1606245.74340999 9709.75596522
0.03100000 1601208.34458522 8454.38044842
0.03200000 1596024.45202572 11060.44996196
0.03300000 1590698.14503447 8923.81700504
0.03400000 1585227.83581393 9154.69117423
0.03500000 1579617.64455047 11941.90994426
0.03600000 1573868.15268175 9608.46551617
0.03700000 1567982.69444663 10725.00212602
0.03800000 1561962.45810040 10051.22888304
0.03900000 1555810.31299870 9334.86231029
0.04000000 1549526.11884058 13341.42050145
0.04100000 1543114.04009518 11665.94268403
0.04200000 1536575.85637004 12884.18915340
0.04300000 1529912.91481338 14136.39598906
0.04400000 1523128.83073750 11309.23209345
0.04500000 1516225.21397013 11508.14990876
0.04600000 1509202.88667461 18087.79743764
0.04700000 1502066.18279220 16222.31552862
0.04800000 1494816.56472102 13184.28271428
0.04900000 1487456.67447899 12271.51813566
0.05000000 1479988.36808148 12454.10269734
0.05100000 1472415.55374952 13781.81022511
0.05200000 1464737.26769574 15138.06036709
0.05300000 1456959.44598439 11801.37206263
0.05400000 1449082.80436192 16736.90717089
0.05500000 1441110.87867880 12105.33194561
0.05600000 1433044.84513621 14703.04079720
0.05700000 1424889.36104628 12396.53801975
0.05800000 1416643.84219292 18805.94788321
0.05900000 1408312.54296262 15209.77617438
0.06000000 1399898.84572092 15370.89004413
0.06100000 1391404.38936409 14234.06756837
0.06200000 1382832.04757927 14374.53980650
0.06300000 1374184.91449631 19788.26369395
0.06400000 1365462.58830529 14644.58694445
0.06500000 1356671.45835886 14774.15287263
0.06600000 1347812.57976039 16254.62047244
0.06700000 1338887.62793735 15022.31988849
0.06800000 1329900.61985855 16517.36647181
0.06900000 1320855.10448411 19416.57094498
0.07000000 1311750.49719199 15367.15779422
0.07100000 1302591.45237480 22508.78135130
0.07200000 1293380.22244809 14162.51409928
0.07300000 1284119.99071710 14253.73256483
0.07400000 1274813.63437363 15775.81946469
0.07500000 1265461.68054572 15868.89021786
0.07600000 1256067.66978132 20310.61517254
0.07700000 1246635.40517873 20419.88889429
0.07800000 1237165.87865205 16126.45798450
0.07900000 1227661.29918163 14731.93628116
0.08000000 1218127.01250570 16280.26828586
0.08100000 1208563.42755674 19324.93011332
0.08200000 1198972.25687288 16419.92582838
0.08300000 1189356.75917261 14985.89586889
0.08400000 1179720.06309701 19553.86096366
0.08500000 1170064.21641323 22640.74365047
0.08600000 1160391.75404274 18171.73572150
0.08700000 1150704.38366957 21265.01800877
0.08800000 1141004.63668565 19802.13639966
0.08900000 1131295.62462319 21381.48830966
0.09000000 1121579.39803393 18371.47140280
0.09100000 1111857.82519439 19946.73032111
0.09200000 1102132.84720481 16912.22933501
0.09300000 1092408.87962732 20023.85570453
0.09400000 1082684.59182735 18513.90739035
0.09500000 1072964.31994773 24721.09909355
0.09600000 1063249.66049182 20111.36827359
0.09700000 1053545.28945855 18584.53977976
0.09800000 1043850.48157605 17051.29841826
0.09900000 1034168.58281360 23268.79420746
0.10000000 1024499.52827847 21729.63601667
0.10100000 1014847.26532222 20185.31305661
0.10200000 1005213.52106382 17083.60459403
0.10300000 995599.51855516 21743.89450809
0.10400000 986008.46976761 18635.56095532
0.10500000 976442.84699357 20183.07459696
0.10600001 966899.80151215 21726.23956227
0.10700001 957387.04363611 20162.57208778
0.10800001 947902.15381646 18597.84113312
0.10900001 938449.53906503 26323.51080971
0.11000001 929029.65808232 17015.17898867
0.11100001 919643.81282410 21630.02349582
0.11200001 910294.64353740 16972.44442777
0.11300001 900982.50352689 21569.52214994
0.11400001 891709.78132078 19996.59278765
0.11500001 882478.78480551 16890.64473652
0.11600001 873289.43406578 16858.85331855
0.11700001 864144.08298516 22943.02648376
0.11800001 855042.85830906 19841.27046155
0.11900001 845987.64004094 19796.11170939
0.12000001 836979.83035074 18229.42156373
0.12100001 828022.51065688 18183.37519061
0.12200001 819114.25526889 19646.45633819
0.12300001 810258.13841271 18084.96250143
0.12400001 801453.83076450 15027.26003488
0.12500001 792702.24230380 16480.28039405
0.12600001 784006.77729973 16428.86279250
0.12700001 775366.59020247 14887.03923346
0.12800001 766782.38975159 20772.13591735
0.12900001 758256.18375599 20700.39479219
0.13000001 749788.50143231 19153.34817188
0.13100001 741379.37278024 20551.03718220
0.13200001 733030.36326700 19011.14336752
0.13300001 724743.41299232 16024.07761668
0.13400001 716516.87172170 15960.41407006
0.13500001 708353.62728264 15895.45614566
0.13600001 700252.62689610 17268.23059347
0.13700001 692215.97525983 18627.53277259
0.13800001 684242.31814399 24252.97011028
0.13900001 676334.83774177 18463.94194108
0.14000001 668492.23872196 15552.47266733
0.14100001 660715.42854885 18295.21107937
0.14200001 653004.29808174 16808.33142539
0.14300001 645361.38052866 20909.70971539
0.14400001 637783.04969735 13871.78198525
0.14500001 630273.67798774 15183.29361895
0.14600001 622831.52218853 20600.15356818
0.14700001 615459.01982366 21861.10541547
0.14800001 608152.04682565 13592.19888782
0.14900001 600914.71907495 13520.58181710
0.15000001 593745.46473085 18827.66957496
0.15100001 586645.49702489 14713.06975962
0.15200001 579614.42345376 15962.58197514
0.15300001 572653.29882221 14551.12100973
0.15400001 565758.74053371 17100.05873960
0.15500001 558935.03482940 17002.80456192
0.15600001 552177.92063554 18205.30690255
0.15700001 545493.17781285 14221.00781677
0.15800001 538873.68214217 15422.56551083
0.15900001 532325.38030297 15330.97167636
0.16000001 525843.36877807 12699.11795542
0.16100001 519433.00921352 12622.22271971
0.16200001 513089.77443579 22581.08203888
0.16300001 506814.42936709 16207.92621630
0.16400001 500607.41859715 14868.04103425
0.16500001 494467.51646785 18468.36261199
0.16600001 488396.21929395 15904.62363221
0.16700001 482390.54290507 13371.86648068
0.16800001 476451.51449650 16909.26504788
0.16900001 470581.12707953 14399.78316856
0.17000001 464775.41996863 13113.63909364
0.17100001 459035.51748660 16580.36367456
0.17200001 453361.64763299 12941.20884281
0.17300001 447752.89435385 14023.62131342
0.17400001 442209.02793720 16251.18254417
0.17500001 436729.00009353 11529.64614699
0.17600001 431311.47964921 12596.45235807
0.17700001 425959.41003907 13647.74014224
0.17800001 420668.35454203 12424.44043823
0.17900001 415440.81784854 11216.90261172
0.18000001 410274.74427323 11138.95983317
0.18100001 405171.68078832 12167.30614881
0.18200001 400126.87144611 16475.22471005
0.18300001 395143.53670897 13087.15455403
0.18400001 390219.54611227 14077.17079102
0.18500001 385356.38624261 12901.73242091
0.18600001 380550.04778446 17079.08695144
0.18700001 375801.79370083 11657.37219135
0.18800001 371110.81966300 11573.09145797
0.18900001 366478.91134421 12533.57936015
0.19000001 361899.14349497 11405.25204613
0.19100001 357379.70255262 11321.78951182
0.19200001 352912.15778289 12260.16894069
0.19300001 348501.27553481 13183.80387645
0.19400001 344142.50804926 12079.40260333
0.19500001 339837.85488662 10990.35674638
0.19600001 335585.55965077 14874.83063445
0.19700001 331384.96905607 13778.98766451
0.19800001 327236.29160658 11721.60451930
0.19900001 323138.64012414 9694.15966187
0.20000001 319089.81234762 14430.83744544
0.20100001 315091.81587228 14320.92370824
0.20200001 311141.30862469 10421.67862495
0.20300001 307240.45026179 10341.71404461
0.20400001 303386.70370221 15859.54068565
0.20500001 299579.57051737 11108.41099984
0.20600001 295818.85507758 12859.24623805
0.20700001 292104.30691629 10936.38576790
0.20800001 288433.60068413 13563.59071332
0.20900001 284810.11460070 13457.27855103
0.21000001 281228.08126264 11571.12995055
0.21100001 277690.04875101 9713.59836451
0.21200001 274194.47465745 9636.56526740
0.21300001 270739.96990015 8690.75344465
0.21400001 267328.00583442 14656.25861277
0.21500001 263957.93261775 10262.68490537
0.21600001 260626.68184844 11028.41856382
0.21700001 257335.66288927 9256.36423176
0.21800001 254083.64640309 9181.31299687
0.21900001 250869.41319843 8278.69102698
0.22000001 247692.98975754 9032.12529857
0.22100001 244555.46227329 8143.69727876
0.22200001 241454.63677673 8076.65798208
0.22300001 238388.91486824 10412.82829382
0.22400001 235358.60476525 8737.68861508
0.22500001 232365.74173132 10240.35872234
0.22600001 229405.31611664 10935.75193641
0.22700001 226481.44860623 8520.23249948
0.22800001 223589.75152987 9984.40082673
0.22900001 220730.57462136 12184.32829531
0.23000001 217905.40168648 10570.59153571
0.23100001 215112.88902573 8983.11467055
0.23200001 212350.41722760 8905.97691972
0.23300001 209619.95124337 8093.42670028
0.23400001 206920.92962082 10211.54835975
0.23500001 204250.42573819 8676.55849573
0.23600001 201611.53510682 7884.01945324
0.23700001 199001.42522870 10656.52682503
0.23800001 196420.48114551 9154.17695677
0.23900001 193867.97381039 9073.02160348
0.24000001 191343.43826222 8992.18530647
0.24100001 188847.86591462 8911.73121405
0.24200001 186379.24247911 7472.87608068
0.24300001 183937.49735444 8751.74653811
0.24400001 181522.22325845 9339.31882843
0.24500001 179133.31746818 8593.02564544
0.24600001 176770.45403335 8514.14932128
0.24700001 174433.46319135 7786.71016522
0.24800001 172121.81668426 7071.62517301
0.24900001 169834.03626550 7642.53199350
0.25000001 167571.94034214 7570.90062282
0.25100001 165332.73356933 6249.57762458
0.25200001 163119.51481436 7428.46305608
0.25300001 160929.52015838 6744.55650893
0.25400001 158762.41415466 7287.19515446
0.25500001 156618.13202215 6014.13655419
0.25600001 154497.22184647 6551.45500237
0.25700001 152398.43721191 6487.60177906
0.25800001 150322.27673404 6424.02280018
0.25900001 148268.22893166 5782.46120193
0.26000001 146236.06180276 8015.19892665
0.26100001 144224.56428586 6234.82820909
0.26200001 142235.67397386 6733.43712453
0.26300001 140266.70208590 6665.47399852
0.26400001 138319.14841206 7147.64233241
0.26500001 136392.75631862 5442.07123463
0.26600001 134485.67607462 5924.76673982
0.26700001 132599.90944218 7462.72325654
0.26800001 130734.51576600 5802.65175686
0.26900001 128887.70553046 6263.94278520
0.27000001 127061.65257087 6714.57334786
0.27100001 125254.51745537 5621.42300942
0.27200001 123468.25940119 5561.62800792
0.27300001 121700.18513443 8503.19233775
0.27400001 119949.36682128 6432.28510020
0.27500001 118220.20782754 6852.04356996
0.27600001 116507.23696111 4840.87592483
0.27700001 114814.98726336 8139.23483230
0.27800001 113139.87928552 6155.37542385
0.27900001 111484.06534241 5150.56406258
0.28000001 109845.22236217 5092.97397586
0.28100001 108225.17295168 5493.51003903
0.28200001 106623.41159172 4978.78043992
0.28300001 105039.01103884 5817.06070665
0.28400001 103472.09113399 6635.14815801
0.28500001 101923.15347592 6121.50488750
0.28600001 100391.51822558 6050.59708984
0.28700001 98877.10888803  6834.38608983
0.28800001 97379.17050008  4221.38724099
0.28900001 95900.38183837  6257.50021114
0.29000001 94436.83267386  9480.98626507
0.29100001 92991.24342568  4887.61998581
0.29200001 91562.23888263  4828.99270725
0.29300001 90150.11335984  6360.99229977
0.29400001 88753.92000035  4320.09726052
0.29500001 87375.46543878  4267.41793404
0.29600001 86012.66079031  4215.05064156
0.29700001 84666.33757010  5298.41965595
0.29800001 83336.25840627  4111.39450310
0.29900001 82023.15885017  4060.14655529
0.30000001 80725.16982074  4373.68990794
0.30100001 79444.31745424  5398.24162657
0.30200001 78178.07678382  3908.51313384
0.30300001 76928.93955165  5612.73569540
0.30400001 75695.43274148  4155.67945424
0.30500001 74477.52802829  3760.37056817
0.30600001 73274.36722617  3374.28477051
0.30700001 72088.10596709  3996.56478403
0.30800001 70916.74507094  4273.08867655
0.30900001 69760.83435589  3568.26684624
0.31000001 68620.75928695  3201.15857229
0.31100001 67494.92453104  3790.51514113
0.31200001 66384.96354629  3740.12902328
0.31300001 65289.79363019  3690.17931069
0.31400001 64210.64557204  3640.74377631
0.31500001 63145.24459087  4788.93557651
0.31600002 62095.33144535  4428.94972504
0.31700002 61060.05287809  3495.07759223
0.31800002 60039.69960876  3447.47971477
0.31900002 59034.09297227  3967.09123557
0.32000002 58043.06621903  3353.72852493
0.32100002 57065.77525074  4410.04332019
0.32200002 56104.43337956  3533.73790374
0.32300002 55155.39113625  3752.77299061
0.32400002 54221.63943973  2643.30504785
0.32500002 53301.87436815  2867.10795803
0.32600002 52396.42360040  2827.04916923
0.32700002 51504.33847847  3040.81628776
0.32800002 50627.06024924  3247.97920409
0.32900002 49762.74275851  2709.58147151
0.33000002 48913.04795362  2914.23953508
0.33100002 48074.84192223  2394.12724110
0.33200002 47252.80732908  2596.30562164
0.33300002 46442.94286720  2792.14985740
0.33400002 45646.83946071  2523.12917068
0.33500002 44863.11484736  2713.32131446
0.33600002 44093.37919288  2451.81246613
0.33700002 43335.83334453  2636.55222554
0.33800002 42592.40822028  3032.15368480
0.33900002 41860.46077727  2561.86032089
0.34000002 41142.13715327  2314.86245656
0.34100002 40435.90537099  2489.23445252
0.34200002 39743.03571252  2249.25721267
0.34300002 39061.48036417  2418.68697870
0.34400002 38393.63077537  2582.93163274
0.34500002 37736.88278719  2350.25317129
0.34600002 37093.23121546  2509.91360907
0.34700002 36460.15573748  2283.86426356
0.34800002 35840.44778011  3377.24555427
0.34900002 35231.66733791  2034.62888513
0.35000002 34634.88262638  2370.58465364
0.35100002 34050.02696572  2157.40981073
0.35200002 33475.55449256  1949.78376377
0.35300002 32912.79882864  1747.66970058
0.35400002 32361.51665515  1723.25084351
0.35500002 31821.51098823  1869.19564398
0.35600002 31291.55703061  2010.79555003
0.35700002 30772.90336736  1652.50498910
0.35800002 30265.32677114  1629.78792382
0.35900002 29768.46922085  2571.99586251
0.36000002 29282.31533699  2061.32868578
0.36100002 28805.61525575  1720.55948072
0.36200002 28340.49756317  2006.08221503
0.36300002 27884.40816439  1826.98650947
0.36400002 27438.45504540  1952.93213036
0.36500002 27002.19261544  1630.66248929
0.36600002 26576.21220786  1755.62466161
0.36700002 26159.38219809  1588.39776231
0.36800002 25753.42188309  1853.08755938
0.36900002 25355.87630099  1547.97632150
0.37000002 24967.24214815  1389.42709136
0.37100002 24587.82435046  2058.00099562
0.37200002 24218.21517403  1355.00920317
0.37300002 23856.81693011  2275.22473840
0.37400002 23504.43765842  1850.97455328
0.37500002 23161.01040952  1567.53725877
0.37600002 22826.28832012  1548.99199878
0.37700002 22499.37580181  1913.57200259
0.37800002 22180.90110743  1513.18114523
0.37900002 21871.22646975  1371.32596462
0.38000002 21569.34166571  1355.95672805
0.38100002 21274.47206984  1219.02730735
0.38200002 20988.38056922  1205.78252082
0.38300002 20709.38463244  1908.57697814
0.38400002 20438.78622812  1180.33996059
0.38500002 20174.46935265  1518.53238011
0.38600002 19918.81588049  1271.91604831
0.38700002 19669.19695254  1831.59570699
0.38800002 19427.25626480  1360.29654811
0.38900002 19191.51324318  1571.78500908
0.39000002 18963.89175378  1223.45553446
0.39100002 18741.88086362  1102.02264699
0.39200002 18527.01448560  1201.38431124
0.39300002 18318.20576902  1082.60601224
0.39400002 18117.21188287  1180.78934041
0.39500002 17921.15714843  1490.32349907
0.39600002 17731.47331437  1161.50021449
0.39700002 17547.71451493  1466.63804864
0.39800002 17370.09556016  1767.32045650
0.39900002 17197.98936383  1238.25529286
0.40000002 17031.57793132  1741.56408388
0.40100002 16871.05845750  1322.52233514
0.40200002 16716.00126574  1313.62702171
0.40300002 16565.83966602  1003.88993132
0.40400002 16421.29918669  1396.63156200
0.40500002 16281.95872220  1388.19986643
0.40600002 16147.59388512  1084.39171873
0.40700002 16018.23052349  1176.37890538
0.40800002 15893.59217935  975.07192640
0.40900002 15773.61861993  1358.10862752
0.41000002 15658.79216685  1158.43749939
0.41100002 15547.90568181  1056.94667833
0.41200002 15441.35926930  1243.56992768
0.41300002 15339.91012802  952.60846409
0.41400002 15242.00798297  1043.69654609
0.41500002 15148.56217094  1134.32438911
0.41600002 15058.52578293  941.91083235
0.41700002 14972.87867335  1220.43939849
0.41800002 14891.93087941  935.95790012
0.41900002 14812.94096139  1026.53685727
0.42000002 14738.79532690  1303.05695660
0.42100002 14668.36281358  1485.61185615
0.42200002 14601.44391905  1019.10782662
0.42300002 14537.30822341  1294.40198555
0.42400002 14476.55499477  1292.03259451
0.42500002 14419.42269789  1289.96161568
0.42600002 14364.52662526  1380.07196092
0.42700002 14313.93072307  1470.32703355
0.42800002 14265.62093541  1009.79202576
0.42900002 14221.01858905  1008.98131671
0.43000002 14178.72015085  1191.65059155
0.43100002 14138.36919728  1007.78300414
0.43200002 14101.77766527  1190.68365359
0.43300002 14067.43594238  1007.36913557
0.43400002 14035.64895098  1282.15659243
0.43500002 14006.15210181  1007.60262995
0.43600002 13979.49795649  1191.26297481
0.43700002 13954.42999692  1100.16731309
0.43800002 13931.56544017  1100.87235325
0.43900002 13911.63079324  1285.43474621
0.44000002 13893.26613626  1194.75147801
0.44100002 13877.25608325  1012.06833411
0.44200002 13862.98405691  1013.31486766
0.44300002 13850.77468615  1199.20012916
0.44400002 13840.75497654  1108.64452616
0.44500002 13831.15680409  1480.48709447
0.44600002 13823.79684351  926.88562228
0.44700002 13819.15354455  1300.10602709
0.44800002 13814.58495164  1023.45357465
0.44900002 13813.16516442  1118.86643134
0.45000002 13812.58874986  1401.63250982
0.45100002 13813.16326421  1030.18576507
0.45200002 13815.36919809  1126.50525780
0.45300002 13818.48230357  1129.24642737
0.45400002 13823.35287694  1132.13265428
0.45500002 13829.37773660  1324.30127482
0.45600002 13836.46977202  1327.88606695
0.45700002 13844.77602094  1046.24977349
0.45800002 13853.67092651  1526.12046159
0.45900002 13863.72503906  1052.25678034
0.46000002 13875.50387318  1055.44025214
0.46100002 13887.03438831  1154.84583447
0.46200002 13900.50604768  1641.16332430
0.46300002 13914.72436391  1162.15783395
0.46400002 13928.98223111  1457.31983500
0.46500002 13944.63854756  1072.20330874
0.46600002 13960.68267139  1466.91880122
0.46700002 13977.11338841  1079.31274701
0.46800002 13995.22146756  984.56387691
0.46900002 14012.87678517  1580.65257628
0.47000002 14031.47453676  1090.45609531
0.47100002 14050.53496209  994.77792247
0.47200002 14070.42226317  1497.44476033
0.47300002 14090.83594990  1102.04433188
0.47400002 14110.91210195  1105.94278841
0.47500002 14131.77613549  1513.51329585
0.47600002 14153.58626325  1316.49588868
0.47700002 14174.76390104  1219.59674385
