# SAXS profile: number of points = 501, q_min = 0, q_max = 0.5, delta_q = 0.001
#    q    intensity    error
0.00000000 1682732.95097188 277.65093691
0.00100000 1682645.57482494 706.71115821
0.00200000 1682383.41683872 908.48707386
0.00300000 1681946.68860428 1412.83526876
0.00400000 1681335.27235649 1261.00150218
0.00500000 1680549.82376195 2117.49286175
0.00600000 1679590.19822323 2998.06862589
0.00700000 1678457.11808948 2014.14862542
0.00800000 1677150.38886624 4301.89092907
0.00900000 1675671.45346338 2764.85801641
0.01000000 1674019.64312955 3314.55903652
0.01100000 1672196.58138440 3912.94017081
0.01200000 1670202.17143267 3582.58381480
0.01300000 1668037.78471078 4553.74335310
0.01400000 1665703.56941748 4872.18315653
0.01500000 1663201.09194384 3991.68279841
0.01600000 1660529.99708565 4234.35168186
0.01700000 1657692.57895926 5370.92419676
0.01800000 1654689.24534916 7073.79684217
0.01900000 1651521.08135412 4954.56346763
0.02000000 1648188.80758639 7787.69246813
0.02100000 1644695.13665001 5970.24361672
0.02200000 1641038.78035286 6227.74245438
0.02300000 1637222.91692433 6483.40304613
0.02400000 1633248.06164757 7349.61661254
0.02500000 1629116.57533354 6353.55493397
0.02600000 1624829.08887625 7896.66973312
0.02700000 1620387.23795890 8847.31472447
0.02800000 1615791.68417379 7731.56356334
0.02900000 1611045.91790997 7974.67765981
0.03000000 1606150.38086930 8215.45957577
0.03100000 1601106.72180522 9990.90640378
0.03200000 1595916.25628863 10269.72158222
0.03300000 1590583.15795348 12167.96171929
0.03400000 1585105.92386233 13314.89037480
0.03500000 1579488.70196637 8529.23938448
0.03600000 1573731.97111218 9607.63412764
0.03700000 1567839.02908585 10724.01945491
0.03800000 1561811.19821231 11877.57471209
0.03900000 1555651.21982832 12134.08007659
0.04000000 1549359.03025157 12387.12602087
0.04100000 1542938.86393558 10692.56682285
0.04200000 1536392.33658868 11891.67723689
0.04300000 1529720.95811727 11105.77467144
0.04400000 1522928.16181833 13363.69524059
0.04500000 1516015.74366368 10460.50911733
0.04600000 1508984.40124880 17021.34483736
0.04700000 1501838.64059241 11894.56258668
0.04800000 1494579.60414792 10985.16060161
0.04900000 1487210.33524338 16731.11705028
0.05000000 1479732.39105430 18111.92530991
0.05100000 1472149.87096362 11482.76952843
0.05200000 1464461.64955596 16299.45891913
0.05300000 1456673.81265848 14158.87011910
0.05400000 1448786.88550876 16733.48930797
0.05500000 1440804.64298266 13313.03552220
0.05600000 1432728.06217373 13474.80805353
0.05700000 1424562.03004539 16111.79731189
0.05800000 1416305.69797344 18801.45901848
0.05900000 1407963.53537115 16473.17413324
0.06000000 1399538.91223372 14086.35980973
0.06100000 1391033.26420826 15523.93195402
0.06200000 1382449.66554002 13064.14995002
0.06300000 1373791.11859103 17144.91396163
0.06400000 1365057.28974977 15971.17103699
0.06500000 1356254.63649240 13426.92152936
0.06600000 1347384.11348123 14895.33207147
0.06700000 1338447.27010583 16382.59535278
0.06800000 1329448.33682174 24767.62367434
0.06900000 1320390.74119421 19409.74480430
0.07000000 1311274.05282174 22344.11090642
0.07100000 1302102.88710549 19687.79657517
0.07200000 1292879.37758435 16988.43581731
0.07300000 1283606.66697643 17097.64160525
0.07400000 1274287.90378985 17202.88750736
0.07500000 1264923.19246777 14420.12507004
0.07600000 1255516.72907375 15951.34079069
0.07700000 1246071.65052043 16036.94289415
0.07800000 1236589.43873423 19049.66119706
0.07900000 1227071.94564259 14724.86403836
0.08000000 1217524.73634060 19230.80411264
0.08100000 1207948.17471332 16343.53957068
0.08200000 1198343.82607310 16411.31946818
0.08300000 1188715.26675455 17973.37567686
0.08400000 1179065.54883377 19543.01238924
0.08500000 1169396.43495444 18102.25766291
0.08600000 1159710.63776112 15134.22453336
0.08700000 1150010.09235002 16698.14732503
0.08800000 1140296.87543631 18267.55680240
0.08900000 1130574.46655784 19841.58282004
0.09000000 1120844.95924424 21419.34817734
0.09100000 1111109.88218999 15333.31709460
0.09200000 1101371.47591516 16900.54609202
0.09300000 1091634.05687430 23088.06138785
0.09400000 1081896.24204202 18500.42660839
0.09500000 1072162.45781278 21614.79616546
0.09600000 1062434.24470628 24733.47037943
0.09700000 1052716.36260974 20117.41063525
0.09800000 1043007.86006087 26330.73466525
0.09900000 1033312.52270189 21699.56399711
0.10000000 1023629.90921001 26363.58955151
0.10100000 1013964.00396926 23270.47498555
0.10200000 1004316.54258450 24826.70610045
0.10300000 994689.20389381 20172.29800389
0.10400000 985084.40845091 18618.09619561
0.10500000 975505.40910260 24816.85877519
0.10600001 965948.94095515 15503.48123182
0.10700001 956422.76342056 23241.07424479
0.10800001 946924.34951851 17030.43522757
0.10900001 937458.23411943 18561.67390918
0.11000001 928024.96683319 23177.42463761
0.11100001 918625.76897500 18519.49637431
0.11200001 909263.38910562 20035.61972216
0.11300001 899937.97010292 15388.94001328
0.11400001 890652.03367478 21509.24762600
0.11500001 881407.69855021 16870.14414463
0.11600001 872205.37050556 15307.20497321
0.11700001 863047.00007968 18331.11914500
0.11800001 853932.85416624 16766.97238125
0.11900001 844864.65802880 15207.56456082
0.12000001 835843.90544274 19721.73787791
0.12100001 826873.68794537 16644.96812245
0.12200001 817952.75872041 24145.96657497
0.12300001 809084.05298345 16553.86050397
0.12400001 800267.05320740 19506.51034103
0.12500001 791503.04164795 14959.40819204
0.12600001 782795.21098367 20877.14926074
0.12700001 774142.60195924 19322.60025551
0.12800001 765546.18474786 17775.98324761
0.12900001 757007.92944010 16237.82085181
0.13000001 748528.11512188 20592.00941760
0.13100001 740106.98158289 21981.17838915
0.13200001 731746.17759868 24817.17278315
0.13300001 723447.38469523 15995.42242968
0.13400001 715209.24225658 18827.88419006
0.13500001 707034.50887047 18750.55605930
0.13600001 698922.06648307 20107.98880082
0.13700001 690874.13513261 17161.31432591
0.13800001 682889.22587495 17085.88923709
0.13900001 674970.68927955 15591.82365764
0.14000001 667117.06836134 15520.47932738
0.14100001 659329.44214254 19661.20489197
0.14200001 651607.62523588 15374.68264259
0.14300001 643954.18847919 15300.35223995
0.14400001 636365.10650912 16609.13006334
0.14500001 628845.66493852 16526.06485415
0.14600001 621393.32153738 16442.06806352
0.14700001 614010.84461375 16357.24967219
0.14800001 606693.92695382 14915.57089786
0.14900001 599446.87992482 13487.55543466
0.15000001 592268.19497498 21463.80039862
0.15100001 585158.56461862 17344.10067368
0.15200001 578118.26271963 19901.72213323
0.15300001 571148.07920745 14512.87337751
0.15400001 564244.55330109 17054.29242833
0.15500001 557411.92004469 14347.78349907
0.15600001 550646.09305126 18154.80254471
0.15700001 543952.90014719 14180.85277613
0.15800001 537325.16112885 21785.84968623
0.15900001 530768.62219847 15286.13704083
0.16000001 524278.55112138 15193.59312867
0.16100001 517860.31612240 16359.20815853
0.16200001 511509.28445133 16258.32337378
0.16300001 505226.44387854 13671.42821675
0.16400001 499012.12174586 14820.66071553
0.16500001 492865.12461101 17181.27905509
0.16600001 486786.85665709 17071.61586897
0.16700001 480774.34351648 12115.51402865
0.16800001 474828.55653716 13240.59492421
0.16900001 468951.65941273 13154.09466764
0.17000001 463139.73096406 15443.39505823
0.17100001 457393.69625008 16521.06108870
0.17200001 451713.99949908 16410.77037677
0.17300001 446099.51165514 12807.51758445
0.17400001 440550.03388463 13877.32672274
0.17500001 435064.66656201 13782.84928762
0.17600001 429642.03807777 11406.99664971
0.17700001 424284.99486442 12461.25088772
0.17800001 418989.21544387 13499.83315923
0.17900001 413756.96767748 13405.72638595
0.18000001 408586.64051605 12202.44059539
0.18100001 403479.25815729 18725.47325560
0.18200001 398430.49196209 13124.30102520
0.18300001 393443.33471899 11944.94020634
0.18400001 388515.69223864 14015.70425962
0.18500001 383648.98964844 13914.94951192
0.18600001 378839.60845601 11689.09667114
0.18700001 374088.25116341 11604.21809933
0.18800001 369394.46868009 13614.03378642
0.18900001 364759.82165394 15593.48311246
0.19000001 360177.59354818 11350.99739699
0.19100001 355655.99797053 13315.76119319
0.19200001 351186.28006126 11183.52761699
0.19300001 346773.67131154 11100.22574320
0.19400001 342413.12653949 19029.61040665
0.19500001 338107.09160106 11928.41875536
0.19600001 333853.48493149 13811.51932430
0.19700001 329651.87991234 11748.79355530
0.19800001 325502.25663537 9716.24281974
0.19900001 321404.08317173 10606.33524592
0.20000001 317354.68808282 11481.89315748
0.20100001 313356.48943116 13292.58290991
0.20200001 309405.93555972 10363.55230139
0.20300001 305505.27286292 9348.46179146
0.20400001 301651.78904354 12058.53083697
0.20500001 297845.12530514 10123.75628764
0.20600001 294085.21934888 10044.48114164
0.20700001 290371.54085368 15401.30725488
0.20800001 286702.04402866 10785.73140620
0.20900001 283079.62150926 10700.41019887
0.21000001 279499.12032301 12384.60660696
0.21100001 275962.82507020 10530.74190250
0.21200001 272469.10605902 10446.46602015
0.21300001 269016.77019880 10362.52647795
0.21400001 265607.11062702 9422.41269495
0.21500001 262239.42983389 11895.18109964
0.21600001 258910.86774648 10955.81388667
0.21700001 255622.63614107 10866.51877612
0.21800001 252373.74686615 9948.57357184
0.21900001 249162.68811559 12333.55364487
0.22000001 245989.59465791 10600.92208302
0.22100001 242855.63958153 9704.51181654
0.22200001 239758.62566881 8821.91904862
0.22300001 236696.78241584 12724.81962437
0.22400001 233670.51538063 10252.29434712
0.22500001 230682.05288537 7820.12196261
0.22600001 227726.23972122 10080.30247794
0.22700001 224806.94489309 9994.91724260
0.22800001 221920.04133368 8385.24915833
0.22900001 219065.90573056 9825.10633665
0.23000001 216245.81129938 8242.20948747
0.23100001 213458.60192998 11142.53954771
0.23200001 210701.67589748 8836.82870507
0.23300001 207976.99741956 10949.98943201
0.23400001 205283.82259449 7959.88059757
0.23500001 202619.29002074 7889.99552657
0.23600001 199986.61981252 9242.38207177
0.23700001 197382.79589674 9160.53599084
0.23800001 194808.37810496 9777.43295955
0.23900001 192262.44266994 8997.88274255
0.24000001 189744.76809776 10288.91053677
0.24100001 187256.10804518 7477.13674792
0.24200001 184794.55440793 8756.49037482
0.24300001 182360.21482073 10011.57626723
0.24400001 179952.34950932 7935.89898876
0.24500001 177570.88954800 8518.07597456
0.24600001 175215.86710876 8439.27263851
0.24700001 172886.77979078 7717.66621495
0.24800001 170582.99718203 7008.40277077
0.24900001 168303.23813187 8835.92041993
0.25000001 166049.45178012 7502.11458634
0.25100001 163818.73598434 10526.99247237
0.25200001 161613.95786007 7359.89998914
0.25300001 159432.55912939 7289.25694825
0.25400001 157274.27644321 6617.31549442
0.25500001 155138.88976628 7148.80037865
0.25600001 153027.09066615 8848.79193643
0.25700001 150937.27343640 6425.40003419
0.25800001 148870.49492329 8097.06660198
0.25900001 146825.90044686 7444.07350487
0.26000001 144803.17079651 5669.04440492
0.26100001 142801.35434268 8418.14023682
0.26200001 140822.05996693 6666.51663427
0.26300001 138862.95007018 6048.87039127
0.26400001 136925.25580128 8164.16876347
0.26500001 135008.89264817 5925.54057872
0.26600001 133111.88389125 5331.13120211
0.26700001 131236.41793397 7913.55637589
0.26800001 129381.36482772 7830.80747676
0.26900001 127544.94307805 5682.12748301
0.27000001 125729.35687011 5621.98845849
0.27100001 123932.74170448 6067.74732099
0.27200001 122157.16236978 6503.03684650
0.27300001 120399.78290930 6432.96070528
0.27400001 118659.79131685 6363.13161050
0.27500001 116941.50489991 6293.79209157
0.27600001 115239.58571816 4788.20501320
0.27700001 113558.21954527 6629.52917081
0.27800001 111894.27920100 5151.05338680
0.27900001 110249.70231636 5556.58525973
0.28000001 108621.98990517 7325.46734591
0.28100001 107013.28293129 4979.32829046
0.28200001 105422.87122407 5370.24131433
0.28300001 103849.92234098 4866.40759123
0.28400001 102294.43729452 5247.70488159
0.28500001 100757.02220943 4754.72410311
0.28600001 99236.85068879  5981.00527411
0.28700001 97734.13449408  5066.53777199
0.28800001 96247.90219171  5424.05078475
0.28900001 94780.75364192  4535.25927644
0.29000001 93328.87813569  4073.80572345
0.29100001 91895.04625135  5232.50418123
0.29200001 90477.80525162  5964.74959356
0.29300001 89077.53274975  4321.15131824
0.29400001 87693.22329606  4268.46784599
0.29500001 86326.61075788  6132.64271854
0.29600001 84975.69666840  6057.06794525
0.29700001 83641.31778330  4486.52049828
0.29800001 82323.09862381  6645.94406651
0.29900001 81021.92033478  4739.78256396
0.30000001 79735.92200247  4680.10016349
0.30100001 78467.11332763  5687.29664322
0.30200001 77212.79530641  4562.11822665
0.30300001 75975.66823616  4850.28688981
0.30400001 74754.20909397  3762.00575075
0.30500001 73548.20875850  3375.86294184
0.30600001 72357.08892538  4331.65733359
0.30700001 71182.74138056  3617.50708822
0.30800001 70023.41731883  4543.81976494
0.30900001 68879.41785459  3843.47169825
0.31000001 67751.35090349  3476.66073621
0.31100001 66637.38463118  3742.35569807
0.31200001 65539.37790099  3077.07393814
0.31300001 64456.04692111  4857.40792595
0.31400001 63388.74783791  4492.67771572
0.31500001 62335.28160763  3250.16173691
0.31600002 61297.13745819  3789.08273138
0.31700002 60273.71578914  4025.07893098
0.31800002 59265.09105607  3119.41821544
0.31900002 58271.14960938  3915.82143916
0.32000002 57291.86843438  3034.46395531
0.32100002 56326.31844581  2992.61744073
0.32200002 55376.53552832  3756.19058274
0.32300002 54439.09900345  3439.46243790
0.32400002 53516.83414335  3130.73494563
0.32500002 52608.53489483  2829.81322599
0.32600002 51714.58734524  2790.26069234
0.32700002 50833.88551976  2751.13001460
0.32800002 49967.93444804  2712.50944996
0.32900002 49114.87280799  3403.66084677
0.33000002 48276.52584639  2636.62258396
0.33100002 47449.42732374  4017.06870745
0.33200002 46638.58257731  2329.59731005
0.33300002 45839.74037842  2296.57110171
0.33400002 45054.68385133  2716.79756489
0.33500002 44281.83360027  2678.16542297
0.33600002 43523.04054097  2200.08980353
0.33700002 42776.26341950  2385.63232388
0.33800002 42043.43982540  2351.69991800
0.33900002 41322.29458167  2739.66826051
0.34000002 40614.48978066  3531.63312613
0.34100002 39918.84263188  2662.18774120
0.34200002 39236.35381460  2624.32364917
0.34300002 38565.12602012  2188.95665657
0.34400002 37907.50857637  1961.71366173
0.34500002 37261.03810205  2514.00235981
0.34600002 36627.58911026  2478.40593452
0.34700002 36004.47919052  2067.37729303
0.34800002 35394.72348464  1852.91386218
0.34900002 34795.83800367  2192.13789805
0.35000002 34208.79462971  1801.09312256
0.35100002 33633.71937162  3018.96279378
0.35200002 33068.72007295  2101.18657295
0.35300002 32515.44712713  2244.54142149
0.35400002 31973.69223186  1872.85911119
0.35500002 31442.95237405  1679.05373630
0.35600002 30922.21446959  2152.65006226
0.35700002 30412.64280134  1959.79079494
0.35800002 29914.24394334  1933.05853518
0.35900002 29426.25078723  1906.82114133
0.36000002 28948.88378002  2508.13140950
0.36100002 28480.94373239  2010.46991330
0.36200002 28024.50924577  1831.12152085
0.36300002 27576.93827791  1656.27099142
0.36400002 27139.39539189  1634.47016490
0.36500002 26711.49526227  1613.10727530
0.36600002 26293.67711731  2460.69388958
0.36700002 25884.91375347  1571.73203756
0.36800002 25487.02462010  1692.84825546
0.36900002 25097.36646205  1532.19429509
0.37000002 24716.54534872  2200.76130210
0.37100002 24344.73746941  2037.65462271
0.37200002 23982.75843076  1341.83539776
0.37300002 23628.88432826  1590.69656833
0.37400002 23283.84150804  1702.63099093
0.37500002 22947.69833001  1294.25024712
0.37600002 22620.15678868  1662.92090510
0.37700002 22300.29395056  1517.31207227
0.37800002 21988.66923778  1625.07267700
0.37900002 21685.75566916  1359.69694487
0.38000002 21390.60452008  1222.47310623
0.38100002 21102.38984111  1813.75049277
0.38200002 20822.82554237  1674.77993771
0.38300002 20550.16283220  1302.05837873
0.38400002 20285.82934546  1405.80804024
0.38500002 20027.56225015  1507.47468198
0.38600002 19777.85997705  1377.72579127
0.38700002 19534.33471330  1705.34750126
0.38800002 19298.09872472  1238.64852533
0.38900002 19068.12350144  1115.48527768
0.39000002 18846.03264838  1657.97980079
0.39100002 18629.45711691  1752.65940859
0.39200002 18420.00210887  1520.20284607
0.39300002 18216.46797385  1291.91196991
0.39400002 18020.57899385  1494.80709836
0.39500002 17829.52098424  1482.70303530
0.39600002 17644.70303521  1576.11317329
0.39700002 17465.75621138  1146.97626474
0.39800002 17292.79502650  1138.47121451
0.39900002 17125.30600007  1130.27024956
0.40000002 16963.31992683  1224.41249033
0.40100002 16807.06154498  1114.81244510
0.40200002 16656.30208862  1409.62291255
0.40300002 16510.27394504  1100.57491332
0.40400002 16369.75988820  1193.35555239
0.40500002 16234.35857491  1384.14147768
0.40600002 16103.75899660  1376.38834665
0.40700002 15978.00885254  1466.78128216
0.40800002 15857.08175111  1556.53121844
0.40900002 15740.52438189  1355.25921349
0.41000002 15628.98700009  1445.29064131
0.41100002 15521.45304348  1151.07101224
0.41200002 15417.99790109  1432.71752284
0.41300002 15319.59023237  1046.48125836
0.41400002 15224.63017818  1042.50660085
0.41500002 15134.03403289  1227.67289892
0.41600002 15046.74745709  1129.40891764
0.41700002 14963.74246661  1219.69470625
0.41800002 14885.36593442  935.54529331
0.41900002 14808.77570881  1026.24820525
0.42000002 14736.92232942  1302.89136488
0.42100002 14668.79594322  1114.24179264
0.42200002 14604.02284670  1297.27541094
0.42300002 14541.96808897  1294.81690000
0.42400002 14483.12448148  1384.94884417
0.42500002 14427.85596098  921.94003959
0.42600002 14374.71448826  920.70050660
0.42700002 14325.80379845  1011.68831219
0.42800002 14278.94800219  1194.50545173
0.42900002 14235.90361916  1010.03740964
0.43000002 14194.99288541  917.70633353
0.43100002 14155.90540832  1100.76325671
0.43200002 14120.51137875  1467.40361202
0.43300002 14087.32177567  917.08469105
0.43400002 14056.57955807  1192.34941752
0.43500002 14028.06259274  1100.92240445
0.43600002 14002.20701623  1009.62918475
0.43700002 13977.93713052  1102.02061559
0.43800002 13955.80041652  1102.78740117
0.43900002 13936.47032799  1379.71062785
0.44000002 13918.66173251  920.71951724
0.44100002 13903.13031837  1106.13310055
0.44200002 13889.26699015  1384.41275285
0.44300002 13877.35331773  1478.77083962
0.44400002 13867.55476648  1110.79118944
0.44500002 13858.19481681  1297.95858805
0.44600002 13850.87214582  1207.31132781
0.44700002 13846.25441441  1488.74934519
0.44800002 13841.58647712  1025.45398276
0.44900002 13840.07705866  1027.62577031
0.45000002 13839.29635297  1029.85128691
0.45100002 13839.57546327  938.32326088
0.45200002 13841.46642099  1128.63322546
0.45300002 13844.19605803  1319.90571473
0.45400002 13848.59540204  1134.20001718
0.45500002 13854.13723329  1231.90994117
0.45600002 13860.59832598  1045.15846630
0.45700002 13868.27734738  1143.30083870
0.45800002 13876.49597445  1242.01583106
0.45900002 13885.79975088  1053.93225104
0.46000002 13896.82112717  1345.35131708
0.46100002 13907.52260582  1156.54963471
0.46200002 13920.04089743  966.74688615
0.46300002 13933.32571380  1454.63927346
0.46400002 13946.57460922  972.77362510
0.46500002 13961.14237778  1073.47228831
0.46600002 13976.11374377  1370.63753981
0.46700002 13991.38626420  1080.41489853
0.46800002 14008.29951654  1084.03230947
0.46900002 14024.69790388  1087.61537399
0.47000002 14042.01372036  1091.27514800
0.47100002 14059.80478414  1294.06449367
0.47200002 14078.24572263  1098.73673950
0.47300002 14097.22001626  1202.77486880
0.47400002 14115.83096816  1005.75300415
0.47500002 14135.20835473  1312.03010167
0.47600002 14155.53588080  1114.11150431
0.47700002 14175.12318151  1219.62765634
