# SAXS profile: number of points = 501, q_min = 0, q_max = 0.5, delta_q = 0.001
#    q    intensity    error
0.00000000 1700912.83420644 280.65061764
0.00100000 1700824.92378377 816.39598280
0.00200000 1700561.16489723 918.30305812
0.00300000 1700121.76704431 1122.08040622
0.00400000 1699506.61532847 1274.63000993
0.00500000 1698716.37597038 2140.38271844
0.00600000 1697750.86946572 3030.48542537
0.00700000 1696610.86839244 2035.93312668
0.00800000 1695296.15330746 2975.24487467
0.00900000 1693808.13573204 2540.71231221
0.01000000 1692146.21207270 2792.04137048
0.01100000 1690312.00401133 3042.56173969
0.01200000 1688305.36411100 4279.85428567
0.01300000 1686127.69463337 3894.95514639
0.01400000 1683779.15880539 4925.05425784
0.01500000 1681261.29222801 4438.53000912
0.01600000 1678573.75435110 5992.50857092
0.01700000 1675718.89548133 4976.88534284
0.01800000 1672697.09174575 5243.90561859
0.01900000 1669509.37157785 5509.38117480
0.02000000 1666156.52638532 5248.39329553
0.02100000 1662641.25547681 7681.40294857
0.02200000 1658962.30458473 9157.47233735
0.02300000 1655122.81011677 8937.66358146
0.02400000 1651123.31478416 6810.88398404
0.02500000 1646966.16119924 9634.75248304
0.02600000 1642652.01588099 7983.28916232
0.02700000 1638182.46552044 10320.55000547
0.02800000 1633558.29906457 7816.57681949
0.02900000 1628782.88310129 7329.52331049
0.03000000 1623856.66740185 9816.21400565
0.03100000 1618781.47320798 8547.16657182
0.03200000 1613558.40452913 7987.11447029
0.03300000 1608191.74649982 9842.13394231
0.03400000 1602680.11447842 11779.69938494
0.03500000 1597027.38069692 8623.94825400
0.03600000 1591234.24304664 12363.89063985
0.03700000 1585303.96666961 9036.23302792
0.03800000 1579237.93312108 12010.10503721
0.03900000 1573038.73747960 9438.23286196
0.04000000 1566706.48685336 9635.24534064
0.04100000 1560245.21637022 12778.40891456
0.04200000 1553656.86626809 10021.08725234
0.04300000 1546942.78603993 11230.80514796
0.04400000 1540106.13987041 10395.71692692
0.04500000 1533149.18054252 19041.71370711
0.04600000 1526072.48857570 10758.81154460
0.04700000 1518880.36234876 13123.12694102
0.04800000 1511574.14819521 14443.09165802
0.04900000 1504156.91720656 12409.29514458
0.05000000 1496630.11242711 12594.14298253
0.05100000 1488997.97885688 12775.60325373
0.05200000 1481259.29196969 17664.01787990
0.05300000 1473420.28546917 13128.17535554
0.05400000 1465481.18418704 15717.28643336
0.05500000 1457446.15314490 14691.05790903
0.05600000 1449315.73406049 18587.47515669
0.05700000 1441095.39942349 12537.53056022
0.05800000 1432783.99666171 15216.16675503
0.05900000 1424385.80687187 16665.31471877
0.06000000 1415904.48157714 16842.18459521
0.06100000 1407341.52984319 17014.75989093
0.06200000 1398699.76569782 14539.48474406
0.06300000 1389982.42032099 18681.36460257
0.06400000 1381189.16084201 16159.91393760
0.06500000 1372326.18853331 17661.83887261
0.06600000 1363394.88089892 19182.96687179
0.06700000 1354396.52087577 17959.29870729
0.06800000 1345335.23700134 16709.06442569
0.06900000 1336214.93500089 15433.28322183
0.07000000 1327034.81812358 15546.21362232
0.07100000 1317799.37773852 18501.90413004
0.07200000 1308511.30536198 18626.65930443
0.07300000 1299173.25994038 15862.90624714
0.07400000 1289788.53472727 21765.18254353
0.07500000 1280357.38007767 14596.07481704
0.07600000 1270883.77266148 16146.57908863
0.07700000 1261371.10000117 22137.06384299
0.07800000 1251820.84089554 19284.30095836
0.07900000 1242234.62856551 17888.17949037
0.08000000 1232618.08803060 14976.31047213
0.08100000 1222971.89222637 19555.32147420
0.08200000 1213297.42073099 15105.55359693
0.08300000 1203598.07770756 16681.87013994
0.08400000 1193877.21696446 19788.51580003
0.08500000 1184136.54360059 15275.36212955
0.08600000 1174378.57885620 16858.20529100
0.08700000 1164605.60385876 18447.35363137
0.08800000 1154819.34128417 24666.94228828
0.08900000 1145023.52205807 21640.94558337
0.09000000 1135220.27113147 17045.33317175
0.09100000 1125411.08852966 18636.80850163
0.09200000 1115598.13332405 21787.63256755
0.09300000 1105785.87639918 15591.58158991
0.09400000 1095972.75815313 21864.65755274
0.09500000 1086163.33767842 23461.12919659
0.09600000 1076359.26155476 17227.13079099
0.09700000 1066565.12467991 15678.50806988
0.09800000 1056779.91429789 17262.50071170
0.09900000 1047007.73253624 15705.11672654
0.10000000 1037247.92289585 20428.59880213
0.10100000 1027504.55650164 15720.82045385
0.10200000 1017779.56215464 15724.69497492
0.10300000 1008074.31823005 17298.55611456
0.10400000 998391.22731603 20442.06134099
0.10500000 988733.72380646 23581.30042227
0.10600001 979098.64738147 17285.98743289
0.10700001 969493.82446957 17276.38076503
0.10800001 959916.22489362 18833.55721875
0.10900001 950370.86912185 21953.56810997
0.11000001 940858.32506656 23497.93777457
0.11100001 931379.49135659 15647.17619136
0.11200001 921937.48010516 17189.52512579
0.11300001 912532.16836633 20285.59105785
0.11400001 903166.44832343 18695.54636056
0.11500001 893841.88228227 17108.13443247
0.11600001 884559.46885753 17076.42135045
0.11700001 875320.87758685 21690.45236811
0.11800001 866126.35186653 15460.35610897
0.11900001 856977.80424243 20053.28156382
0.12000001 847876.54721687 15388.96005688
0.12100001 838825.74972194 15350.51194305
0.12200001 829824.27851936 18372.31039196
0.12300001 820874.92923792 22902.41160477
0.12400001 811977.22278320 22836.86046679
0.12500001 803132.61783240 16697.12791151
0.12600001 794344.27102156 21185.16270646
0.12700001 785611.01471200 15083.73219331
0.12800001 776934.00577401 21047.14320835
0.12900001 768315.28173291 14982.14869993
0.13000001 759754.92938925 16422.10357280
0.13100001 751253.30544568 22312.22422348
0.13200001 742812.04688109 23710.56165417
0.13300001 734432.83869788 17714.52090451
0.13400001 726114.45948309 19114.96404708
0.13500001 717859.72843934 16108.77306568
0.13600001 709667.07916407 18958.75691379
0.13700001 701539.36589257 15974.05211460
0.13800001 693474.48866289 21688.41565567
0.13900001 685476.24547984 15834.50201731
0.14000001 677543.10538190 21495.05603196
0.14100001 669675.87753950 14264.09686433
0.14200001 661874.95575044 15616.94031751
0.14300001 654142.39910949 15542.42413594
0.14400001 646474.22441422 14060.81504426
0.14500001 638875.99078777 18188.80031573
0.14600001 631345.04539952 15313.27479856
0.14700001 623884.37922701 20775.35080837
0.14800001 616489.11087412 16534.23873371
0.14900001 609164.06689560 16447.43058218
0.15000001 601907.53175283 20449.80935618
0.15100001 594720.32224671 16271.54878444
0.15200001 587602.83269052 18879.67990522
0.15300001 580555.70037465 16093.00477380
0.15400001 573575.27525765 13335.62577906
0.15500001 566666.06417112 18563.98113834
0.15600001 559823.79744415 17139.00636763
0.15700001 553054.66631039 17039.61507324
0.15800001 546351.03623997 15636.56739521
0.15900001 539718.97747931 16839.23289218
0.16000001 533153.76025827 15450.79670160
0.16100001 526660.58556195 14077.63811660
0.16200001 520234.94641358 13991.71954429
0.16300001 513877.55936645 16433.80512434
0.16400001 507589.23963965 18844.25141125
0.16500001 501368.43871879 12484.07471349
0.16600001 495216.93323421 14886.22171584
0.16700001 489131.17984034 14791.32757674
0.16800001 483112.74845522 18370.36312739
0.16900001 477163.38863025 14601.20038153
0.17000001 471279.38770685 13297.14855204
0.17100001 465461.65298836 14410.69345701
0.17200001 459710.51619130 21473.07922532
0.17300001 454025.04036581 13035.05952448
0.17400001 448404.96097518 12947.69385963
0.17500001 442849.22708444 12860.34216190
0.17600001 437356.63054379 16256.54672509
0.17700001 431930.08146570 12685.78709181
0.17800001 426565.04927874 12598.59932551
0.17900001 421263.98699238 17061.19227905
0.18000001 416025.08451257 13554.09789365
0.18100001 410849.80116156 13459.44012183
0.18200001 405733.27988736 13364.85487082
0.18300001 400678.97770609 13270.48836851
0.18400001 395684.33613221 14274.31310030
0.18500001 390751.09671255 18533.32539263
0.18600001 385875.68396395 14070.95748051
0.18700001 381058.65300700 12895.02542698
0.18800001 376299.69023474 14935.33541105
0.18900001 371600.08412447 15885.90434689
0.19000001 366953.46753419 12615.86080991
0.19100001 362367.76454860 15654.28816817
0.19200001 357834.35787975 10359.30515011
0.19300001 353358.66897974 10282.73775320
0.19400001 348935.15042259 11226.98899537
0.19500001 344566.83228497 13169.34495225
0.19600001 340251.28252517 11059.86846113
0.19700001 335988.19944749 15966.15999227
0.19800001 331777.53029632 11884.27169685
0.19900001 327618.49013318 12777.12171904
0.20000001 323508.91340359 13655.31188013
0.20100001 319450.94620299 10647.30054016
0.20200001 315440.92042783 10565.69412910
0.20300001 311481.35990400 11437.59607627
0.20400001 307569.23295865 12295.08066866
0.20500001 303704.50680511 16892.04546693
0.20600001 299887.02084544 10242.64168113
0.20700001 296116.16938855 10162.70741380
0.20800001 292389.75706511 12832.98704421
0.20900001 288710.93382235 11822.71329890
0.21000001 285074.52146633 9924.86993402
0.21100001 281482.83667517 8951.15462942
0.21200001 277933.92625882 9767.98830014
0.21300001 274426.95636361 13213.65857359
0.21400001 270963.17972721 9612.41925526
0.21500001 267541.69833519 10402.02172305
0.21600001 264159.79005116 8598.40157269
0.21700001 260818.59915969 10234.52231491
0.21800001 257517.37120001 9305.39064828
0.21900001 254254.19791488 9229.42782069
0.22000001 251029.38260784 9985.94931230
0.22100001 247844.30081606 9078.53716816
0.22200001 244696.59939708 9003.61180055
0.22300001 241584.37218886 11364.12940512
0.22400001 238508.04626464 11269.50571890
0.22500001 235470.19549941 7982.44000490
0.22600001 232465.34942721 11081.62373123
0.22700001 229497.55167393 10988.34329378
0.22800001 226562.20397699 8560.65328210
0.22900001 223660.26393759 10802.79125906
0.23000001 220792.81177792 7650.47128991
0.23100001 217958.65327612 8343.45764199
0.23200001 215155.06504294 8271.63686677
0.23300001 212384.38660256 8200.16155455
0.23400001 209645.49344781 8868.00479226
0.23500001 206935.52456791 10988.27687426
0.23600001 204257.95844038 7261.37076600
0.23700001 201609.61694726 9356.70276507
0.23800001 198991.15129952 7133.83311151
0.23900001 196401.44687817 9191.58814866
0.24000001 193840.43180764 11211.73110607
0.24100001 191308.95651267 6944.51544989
0.24200001 188804.64626894 8258.31561844
0.24300001 186328.28019568 8865.49999107
0.24400001 183878.77518775 8109.05436937
0.24500001 181455.82147222 8034.86415487
0.24600001 179060.03199760 7961.00939921
0.24700001 176690.21183911 8544.73904876
0.24800001 174346.10503099 7814.19279715
0.24900001 172026.61630083 7096.09825811
0.25000001 169733.36513635 8946.64609959
0.25100001 167463.53514463 6963.13412073
0.25200001 165219.99758577 6897.10912552
0.25300001 163000.25095386 9936.49576825
0.25400001 160804.05356883 7380.90640801
0.25500001 158630.98799999 6700.57325014
0.25600001 156481.88505048 7842.09004033
0.25700001 154355.16862478 7765.60890093
0.25800001 152251.87494902 7097.98274596
0.25900001 150171.06723799 7028.00627927
0.26000001 148112.32037219 6958.31714032
0.26100001 146075.16851124 6888.90527295
0.26200001 144060.58846511 6251.50953225
0.26300001 142066.69426488 5625.84135909
0.26400001 140094.54918385 6682.51031227
0.26500001 138143.96826058 6063.13905386
0.26600001 136213.09877356 6000.86835043
0.26700001 134304.05695229 5399.02334496
0.26800001 132415.84125284 5342.97944739
0.26900001 130546.62361776 5287.13850671
0.27000001 128698.35173924 9416.85884239
0.27100001 126869.57402227 6729.16252458
0.27200001 125062.09692354 7681.93966706
0.27300001 123273.04366367 5573.17456778
0.27400001 121501.69259134 5513.13956224
0.27500001 119752.36139982 7932.39679453
0.27600001 118019.82778383 5884.46889179
0.27700001 116308.02590248 5820.05389160
0.27800001 114613.90462841 6715.22898999
0.27900001 112939.52173607 4743.46013741
0.28000001 111282.35721127 5159.60673630
0.28100001 109644.32128028 6493.13701353
0.28200001 108024.92426135 5044.22407712
0.28300001 106423.32174983 4533.63372112
0.28400001 104839.46493363 5378.26480565
0.28500001 103273.87190199 4873.49424572
0.28600001 101725.84640053 6568.94684224
0.28700001 100195.55943135 4761.29320954
0.28800001 98681.96003435  6416.79475496
0.28900001 97187.76638764  5495.96844937
0.29000001 95709.06165069  4595.47081268
0.29100001 94248.69811837  4540.90249029
0.29200001 92805.18310875  4894.54558884
0.29300001 91378.75922657  4432.78381991
0.29400001 89968.66339493  4379.22489805
0.29500001 88576.51682139  4326.07728634
0.29600001 87200.31733147  5827.16148152
0.29700001 85840.80030369  4988.20914178
0.29800001 84497.70516758  3789.72225617
0.29900001 83171.98777394  5614.10944051
0.30000001 81861.65909001  4804.87030775
0.30100001 80568.68606263  4014.73781656
0.30200001 79290.55573897  3964.13152183
0.30300001 78029.67730245  4981.41483481
0.30400001 76784.67136080  4215.47865728
0.30500001 75555.44501683  4508.39361759
0.30600001 74341.33248010  4108.10222734
0.30700001 73144.10835837  4055.10955937
0.30800001 71962.22846541  3668.99439201
0.30900001 70795.86488884  6584.01574638
0.31000001 69645.51970858  3573.86001305
0.31100001 68509.60211110  3847.49943672
0.31200001 67389.74620631  4113.13335444
0.31300001 66284.78041874  4058.61729720
0.31400001 65196.21596738  3696.62562037
0.31500001 64121.48535515  3647.23025969
0.31600002 63062.38420799  3298.47816217
0.31700002 62018.09736814  3549.91606143
0.31800002 60988.79786954  5252.96540922
0.31900002 59974.32805513  2878.76788295
0.32000002 58974.96831916  2839.64485902
0.32100002 57989.31627567  3641.14934136
0.32200002 57019.60710283  3038.86010444
0.32300002 56062.46345157  3542.02660859
0.32400002 55120.53366565  2955.83875778
0.32500002 54192.82882840  3180.03534623
0.32600002 53279.70982758  3920.05483619
0.32700002 52379.95870606  3092.51290844
0.32800002 51495.05178003  2795.40901825
0.32900002 50623.31013209  3007.02476424
0.33000002 49766.49293978  4200.54103549
0.33100002 48920.97470010  2679.89112098
0.33200002 48091.81882090  2882.62375663
0.33300002 47274.89155877  4263.24992266
0.33400002 46471.98488684  3269.30429161
0.33500002 45681.26118724  2762.80280744
0.33600002 44904.94340842  2950.92849583
0.33700002 44140.61578264  2461.72225878
0.33800002 43390.52941130  2206.40852505
0.33900002 42652.07952879  2392.78177488
0.34000002 41927.24352966  2359.03646892
0.34100002 41214.77000609  2748.61314188
0.34200002 40515.58880944  2084.52714297
0.34300002 39827.59969951  2055.10424182
0.34400002 39153.56931719  2026.19730812
0.34500002 38490.71518219  2796.73549759
0.34600002 37841.10725557  1969.62972594
0.34700002 37201.87975364  2330.32585813
0.34800002 36576.15526347  2297.71418247
0.34900002 35961.47982780  2454.37111449
0.35000002 35358.73066267  2233.96470907
0.35100002 34768.06962611  2386.48041217
0.35200002 34187.63402131  2172.28236860
0.35300002 33619.04024432  1963.68823368
0.35400002 33062.10547904  1936.61292016
0.35500002 32516.37391190  2430.92422879
0.35600002 31980.63387763  2226.33193284
0.35700002 31456.15863096  2364.87411789
0.35800002 30943.18517821  1832.91966085
0.35900002 30440.52747389  1808.16741759
0.36000002 29948.66364565  1621.72021323
0.36100002 29466.34573643  2240.03170899
0.36200002 28995.67865281  1736.69625517
0.36300002 28533.90367121  1713.74633567
0.36400002 28082.36985151  1845.01178664
0.36500002 27640.50540030  1972.70296386
0.36600002 27208.90799727  1797.42054744
0.36700002 26786.37518751  2217.91197058
0.36800002 26374.92572908  2189.77831238
0.36900002 25971.73292617  1873.86061939
0.37000002 25577.54276127  1850.40741872
0.37100002 25192.40073730  1686.88323328
0.37200002 24817.33222340  1943.94172514
0.37300002 24450.31809865  1508.82920134
0.37400002 24092.28004874  1355.19081694
0.37500002 23743.20651966  1740.85198449
0.37600002 23402.87581484  1720.46249703
0.37700002 23070.33529718  1569.70568798
0.37800002 22746.13544972  1681.05322005
0.37900002 22430.74442590  1662.11824070
0.38000002 22123.17210071  1643.64114909
0.38100002 21822.62898642  2125.74239027
0.38200002 21530.92065765  1731.73203053
0.38300002 21246.03728213  1958.03488868
0.38400002 20969.79291901  1453.20671813
0.38500002 20699.48095100  1558.05000499
0.38600002 20438.04679028  1779.64300857
0.38700002 20182.66046829  1292.09398439
0.38800002 19934.74392993  1744.78854513
0.38900002 19693.23481735  1267.25972053
0.39000002 19459.68477982  1711.96584961
0.39100002 19231.63445593  1243.90217554
0.39200002 19010.84584225  1232.75835704
0.39300002 18796.05207662  1555.18542250
0.39400002 18589.02683199  1321.67987037
0.39500002 18386.98598695  1310.62442324
0.39600002 18191.09991854  1191.60805662
0.39700002 18001.27228828  1074.67600653
0.39800002 17817.51491552  1492.92964550
0.39900002 17639.22901263  1587.53068635
0.40000002 17466.58554279  1260.73820421
0.40100002 17299.70672551  1460.44131096
0.40200002 17138.60624779  1346.83743579
0.40300002 16982.06349911  1234.93571617
0.40400002 16831.26830290  1226.99951742
0.40500002 16685.59725510  1117.76821308
0.40600002 16544.78567789  1414.08289889
0.40700002 16408.92789983  1104.64907856
0.40800002 16278.04272726  1398.12115609
0.40900002 16151.57778655  1390.65091331
0.41000002 16030.15831200  1087.08523744
0.41100002 15912.77673753  1081.75061387
0.41200002 15799.69921977  1174.54969565
0.41300002 15691.56845754  974.44644739
0.41400002 15587.06565208  1067.32437110
0.41500002 15487.08241492  1063.03338733
0.41600002 15390.28886555  1058.92887557
0.41700002 15297.94227412  1055.09912864
0.41800002 15210.28430559  1433.94962086
0.41900002 15124.45297972  1048.12464116
0.42000002 15043.60319375  1045.00394537
0.42100002 14966.36069285  947.37067675
0.42200002 14892.63192556  1322.91255663
0.42300002 14821.65131333  942.65706820
0.42400002 14754.04835488  1128.68475263
0.42500002 14689.94016377  1408.03083142
0.42600002 14628.15549063  1405.40010536
0.42700002 14570.57481388  1216.06023159
0.42800002 14515.13926409  1120.85910709
0.42900002 14463.62419415  1026.19418520
0.43000002 14414.29966505  1118.26142101
0.43100002 14366.85007566  1117.16631482
0.43200002 14323.19476181  1209.37900702
0.43300002 14281.77853630  929.74382677
0.43400002 14242.97102458  1394.03085509
0.43500002 14206.33097264  929.09408964
0.43600002 14172.46020921  1021.90529181
0.43700002 14140.34215198  1021.92257575
0.43800002 14110.23187952  1022.07469463
0.43900002 14083.18324704  1022.43915219
0.44000002 14057.59526469  1115.89196499
0.44100002 14034.39220014  1116.57629636
0.44200002 14012.99638593  1862.32730795
0.44300002 13993.50126585  1304.75411986
0.44400002 13976.26142743  1212.79014284
0.44500002 13959.52522192  1120.67073793
0.44600002 13944.84585781  1496.00313452
0.44700002 13933.02713503  1310.81925499
0.44800002 13921.06706012  1125.10069312
0.44900002 13912.39902608  1032.99567664
0.45000002 13904.58346249  1128.77413898
0.45100002 13897.83752319  1224.95545735
0.45200002 13892.78770396  1604.82544768
0.45300002 13888.58763524  1134.97543534
0.45400002 13886.19068841  1137.27907128
0.45500002 13884.97165577  1424.59815940
0.45600002 13884.75313220  1142.15984679
0.45700002 13885.77790210  1240.13888321
0.45800002 13887.47784409  1051.76818437
0.45900002 13890.26239055  1054.27096541
0.46000002 13894.91020015  1537.33293741
0.46100002 13899.18128731  1733.78395595
0.46200002 13905.45818081  1545.17458628
0.46300002 13912.43524332  1549.28886213
0.46400002 13919.51836247  1067.97509698
0.46500002 13927.94091448  1265.63205088
0.46600002 13936.96695397  1464.42687210
0.46700002 13946.15857699  1174.82445421
0.46800002 13957.19434279  1472.83300283
0.46900002 13967.71550361  1280.14118658
0.47000002 13979.23276107  1185.15940966
0.47100002 13991.25399175  1882.10357618
0.47200002 14004.09991735  1291.66821710
0.47300002 14017.44335832  1195.96832402
0.47400002 14030.46054908  1099.63739765
0.47500002 14044.37168240  1203.32182278
0.47600002 14059.32799541  1005.94496575
0.47700002 14073.51399632  1009.07100136
