# SAXS profile: number of points = 501, q_min = 0, q_max = 0.5, delta_q = 0.001
#    q    intensity    error
0.00000000 1700912.83420644 357.19169518
0.00100000 1700825.04195111 612.29702964
0.00200000 1700561.63713065 841.77803703
0.00300000 1700122.83002788 1326.09585466
0.00400000 1699508.51430238 1402.09457758
0.00500000 1698719.32560648 2140.38643498
0.00600000 1697755.13066605 1782.64295977
0.00700000 1696616.65993437 2239.53408419
0.00800000 1695303.71164342 3661.85617175
0.00900000 1693817.72633830 3302.94470755
0.01000000 1692158.02678270 3908.88521065
0.01100000 1690326.27857433 3651.10492069
0.01200000 1688322.35080998 3292.22872842
0.01300000 1686147.61646756 3540.91015075
0.01400000 1683802.21001827 4546.26616859
0.01500000 1681287.76916708 6859.65440365
0.01600000 1678603.85261403 5136.52801862
0.01700000 1675752.80642558 4976.98605835
0.01800000 1672735.05733722 6197.48366631
0.01900000 1669551.66468357 6010.38626406
0.02000000 1666203.32920170 5248.54072441
0.02100000 1662692.81620265 5486.88654224
0.02200000 1659018.80795295 8585.42272121
0.02300000 1655184.47339922 8342.13012565
0.02400000 1651190.32891574 8668.74962208
0.02500000 1647038.82703933 8992.83240634
0.02600000 1642730.44333782 7318.36445980
0.02700000 1638266.99219085 7568.79385058
0.02800000 1633648.97598009 10659.56005711
0.02900000 1628880.00717985 8795.95244263
0.03000000 1623960.43033949 7551.41634818
0.03100000 1618892.00570648 10101.88658043
0.03200000 1613675.99713968 8786.46620911
0.03300000 1608316.64155274 9842.89830006
0.03400000 1602812.37265447 9256.24187917
0.03500000 1597167.27749637 11212.11480578
0.03600000 1591381.95295578 8832.17024707
0.03700000 1585459.62578066 12651.96839885
0.03800000 1579401.70983429 12011.35055917
0.03900000 1573210.95626527 11327.11940967
0.04000000 1566887.15926970 9636.35647605
0.04100000 1560434.64714632 14746.10809926
0.04200000 1553855.03529476 12026.83853114
0.04300000 1547149.98850852 13274.54751758
0.04400000 1540322.61414538 16635.48500535
0.04500000 1533375.02524145 11638.31698236
0.04600000 1526307.75787228 13988.61125119
0.04700000 1519125.30206570 10937.70268356
0.04800000 1511828.97423068 11111.94347761
0.04900000 1504421.65187859 14668.11178858
0.05000000 1496905.00844337 17176.98577175
0.05100000 1489283.01895894 16262.97132463
0.05200000 1481554.80298458 15311.86960240
0.05300000 1473726.22953562 15518.33792044
0.05400000 1465797.84216672 12092.83276181
0.05500000 1457773.49892382 15918.88735085
0.05600000 1449654.25774582 14873.45337853
0.05700000 1441444.81588695 15048.68458031
0.05800000 1433144.51382299 15219.99544746
0.05900000 1424757.57488348 17951.94628199
0.06000000 1416287.66419938 16846.74255271
0.06100000 1407736.09102803 15710.33551004
0.06200000 1399105.93987597 14543.70692483
0.06300000 1390400.37724659 17352.19751934
0.06400000 1381618.77797484 14817.86208676
0.06500000 1372767.64024775 14949.44030160
0.06600000 1363848.22365369 15077.34281794
0.06700000 1354861.83082239 13819.59132113
0.06800000 1345812.82925780 16714.99612180
0.06900000 1336704.60627020 15438.93892526
0.07000000 1327536.55836624 18379.74451128
0.07100000 1318313.58337403 18509.12357750
0.07200000 1309037.77802163 14333.96434084
0.07300000 1299712.28716127 15869.48776981
0.07400000 1290340.00669613 20322.85605788
0.07500000 1280921.43711612 17523.00608110
0.07600000 1271460.38981889 19090.97864813
0.07700000 1261960.34602852 14764.93674084
0.07800000 1252422.54688284 17809.44945187
0.07900000 1242849.25728594 20879.86850175
0.08000000 1233245.45523005 14983.93298396
0.08100000 1223611.99171468 18060.51384508
0.08200000 1213950.25765374 19647.78584210
0.08300000 1204263.66376529 19725.83973825
0.08400000 1194555.63263165 18276.70203715
0.08500000 1184827.72060007 15284.27831326
0.08600000 1175082.68659157 16868.31275801
0.08700000 1165322.43136248 21535.15954282
0.08800000 1155549.13380380 20054.55615900
0.08900000 1145766.13019421 18561.41218097
0.09000000 1135975.62153939 17056.67475866
0.09100000 1126179.28470487 18649.52983089
0.09200000 1116379.19757961 18688.18864558
0.09300000 1106579.61911682 23404.16004413
0.09400000 1096779.31022436 15629.10590523
0.09500000 1086982.61223931 17217.80538715
0.09600000 1077191.19673319 18807.75917907
0.09700000 1067409.65429831 15690.92265586
0.09800000 1057637.19084106 17276.50432469
0.09900000 1047877.72868529 20433.61667020
0.10000000 1038130.34050421 20445.97801775
0.10100000 1028399.41238826 22028.31644939
0.10200000 1018686.85820859 15738.71269961
0.10300000 1008993.90528900 17314.33622924
0.10400000 999323.34543597 22035.08080351
0.10500000 989678.13340558 25177.41289842
0.10600001 980055.20310322 20448.85277494
0.10700001 970462.48156917 20437.94082361
0.10800001 960897.08583137 18852.80171126
0.10900001 951363.70904329 20406.75251944
0.11000001 941863.14066539 15682.02203022
0.11100001 932396.12619124 20363.53235460
0.11200001 922965.70455877 18773.12331451
0.11300001 913572.20581008 24995.33672776
0.11400001 904217.90400513 26516.19128345
0.11500001 894905.09713474 18685.61930804
0.11600001 885633.93868818 21760.02689828
0.11700001 876406.75101753 17063.64024592
0.11800001 867223.30320509 20123.91769868
0.11900001 858085.90681342 18534.65646018
0.12000001 848995.62703958 18491.12562794
0.12100001 839955.82117525 16908.31147678
0.12200001 830965.09477195 15331.30672082
0.12300001 822026.53607793 16818.66372056
0.12400001 813139.40265488 21344.91032541
0.12500001 804305.17806523 18241.64229807
0.12600001 795526.95637968 19701.22600313
0.12700001 786804.16571620 21149.29697114
0.12800001 778137.22471334 22585.43401174
0.12900001 769528.32519583 19507.54396315
0.13000001 760977.91789943 17943.86014985
0.13100001 752485.95447900 17879.06712120
0.13200001 744054.27931990 17812.66028661
0.13300001 735684.60161463 20702.16566540
0.13400001 727375.55675380 16202.29129056
0.13500001 719129.95542231 17604.30213875
0.13600001 710946.29552351 16070.94176807
0.13700001 702827.33300199 20367.93707081
0.13800001 694771.29884803 17383.17871689
0.13900001 686781.70363378 15864.65810209
0.14000001 678857.10498986 17229.39413719
0.14100001 670998.22165963 14292.26279542
0.14200001 663205.44304671 21338.63613647
0.14300001 655480.79772873 19821.74025826
0.14400001 647820.75243912 16908.12243622
0.14500001 640230.20843208 14021.04222606
0.14600001 632706.85942552 18136.54298101
0.14700001 625253.52376486 15268.69177066
0.14800001 617865.68215013 17952.08824183
0.14900001 610547.72880665 13737.32454629
0.15000001 603298.13830702 15031.17382513
0.15100001 596117.80698627 20387.22996090
0.15200001 589006.90473780 14869.48001175
0.15300001 581966.27011614 14787.76362147
0.15400001 574992.10667834 17379.13724449
0.15500001 568089.08354121 14622.61370044
0.15600001 561253.01560617 19826.26371199
0.15700001 554489.60335412 15769.68506367
0.15800001 547791.73636831 16984.28358774
0.15900001 541165.25639472 19481.95014977
0.16000001 534605.47043931 15492.86726463
0.16100001 528117.56490905 16683.23466300
0.16200001 521696.96934568 16582.13895343
0.16300001 515344.58687645 19016.21615346
0.16400001 509060.99481173 16379.03828132
0.16500001 502844.83413291 15025.00435324
0.16600001 496697.74877828 17419.19087207
0.16700001 490616.34072998 17308.94531819
0.16800001 484602.12803240 13513.13097822
0.16900001 478656.78192845 20749.77247636
0.17000001 472776.54909825 12126.71905699
0.17100001 466962.42002428 16866.68340774
0.17200001 461214.80370230 20346.49202615
0.17300001 455532.66682766 16645.16443194
0.17400001 449915.85476596 14172.35009443
0.17500001 444363.16962755 12904.30705542
0.17600001 438873.39753540 13982.50710586
0.17700001 433449.54800298 12730.41382611
0.17800001 428087.13152589 17241.21003654
0.17900001 422788.45519230 12556.81771231
0.18000001 417551.83887680 13603.83955318
0.18100001 412378.72345324 20264.29142771
0.18200001 407264.07764175 13415.27935123
0.18300001 402211.64263616 16651.56279175
0.18400001 397218.60760940 14329.66194645
0.18500001 392287.07647435 12039.29094576
0.18600001 387412.83803164 11953.62368220
0.18700001 382597.15957509 17262.78465561
0.18800001 377839.10815428 11782.91314449
0.18900001 373140.55197120 17015.20997381
0.19000001 368494.59763045 13724.58193722
0.19100001 363909.64377874 12576.71788324
0.19200001 359376.71428354 15605.93455516
0.19300001 354901.26158666 16524.20352029
0.19400001 350478.16347200 11276.63544258
0.19500001 346109.87388712 12210.75692776
0.19600001 341794.23150480 12120.02402191
0.19700001 337530.86784732 12029.60069857
0.19800001 333319.89441956 13929.43904608
0.19900001 329160.40745511 10862.29395937
0.20000001 325050.29823850 12740.34704158
0.20100001 320991.52537256 11671.25241416
0.20200001 316980.76874250 10617.27135084
0.20300001 313020.07641002 11494.09774904
0.20400001 309106.98517540 11406.04829209
0.20500001 305240.99396629 9431.94715938
0.20600001 301422.08997350 11230.98760328
0.20700001 297649.74658290 13001.34154530
0.20800001 293921.72817904 11057.33593678
0.20900001 290241.38933473 11885.38545509
0.21000001 286602.97321889 9978.08298430
0.21100001 283009.29746092 10799.63530164
0.21200001 279458.40260904 11607.30530110
0.21300001 275949.18066002 12401.15676513
0.21400001 272482.97763252 9666.33408850
0.21500001 269059.13997853 13076.27482117
0.21600001 265674.70793585 11242.02579781
0.21700001 262330.94529409 13725.15570671
0.21800001 259026.84926130 9359.93564060
0.21900001 255760.87265559 9284.12011637
0.22000001 252533.16466963 10882.91724601
0.22100001 249344.97212043 14945.73833559
0.22200001 246194.08219399 10705.75017042
0.22300001 243078.67753470 9800.93274164
0.22400001 239999.09582872 11339.95781413
0.22500001 236957.66755829 8836.15184109
0.22600001 233949.23773923 9559.16630606
0.22700001 230977.77058961 11849.16019158
0.22800001 228038.76011337 8616.44495836
0.22900001 225132.96080273 11650.63127251
0.23000001 222261.69193699 12322.18878373
0.23100001 219423.48434603 8399.53137800
0.23200001 216615.84524857 8327.79656443
0.23300001 213840.83757786 9006.97650476
0.23400001 211097.69763936 8185.31361309
0.23500001 208383.35014744 7376.77094411
0.23600001 205701.45489461 9506.49318758
0.23700001 203048.56770576 9423.48447294
0.23800001 200425.44951797 9340.82851659
0.23900001 197831.11388986 11395.07269904
0.24000001 195265.35860019 8470.61165674
0.24100001 192729.00621093 7695.66958202
0.24200001 190219.92995856 9706.92348494
0.24300001 187738.52169866 8245.47626304
0.24400001 185283.89859234 10894.69375259
0.24500001 182855.92294977 7422.12226363
0.24600001 180454.82501771 7354.43674150
0.24700001 178079.79523129 7287.02556558
0.24800001 175730.48602285 7219.88735980
0.24900001 173405.59242640 9103.79403306
0.25000001 171106.86818265 7086.39128103
0.25100001 168831.49345374 7658.19690536
0.25200001 166582.49661552 6321.80604564
0.25300001 164357.08135215 8140.60662451
0.25400001 162155.13153673 7442.92088967
0.25500001 159976.28093186 7371.70737411
0.25600001 157821.36871026 6084.01405163
0.25700001 155688.87399858 7832.70762146
0.25800001 153579.60968423 6563.22493039
0.25900001 151492.86722517 8862.33315199
0.26000001 149428.13618993 7020.13417036
0.26100001 147384.77189941 6371.44399068
0.26200001 145364.16756821 8028.46335467
0.26300001 143363.97378578 7948.09908277
0.26400001 141385.64140802 5620.07951190
0.26500001 139428.79774977 6119.53022281
0.26600001 137491.64944077 6607.84898480
0.26700001 135576.26595938 7085.21599431
0.26800001 133681.55104638 8091.07625996
0.26900001 131805.81075573 5871.94914704
0.27000001 129951.15588421 6867.26915768
0.27100001 128115.89212357 7317.98010441
0.27200001 126301.77728906 5689.26382722
0.27300001 124506.12595815 5117.20201905
0.27400001 122728.11875430 6581.29567966
0.27500001 120972.10409213 8013.19255429
0.27600001 119232.64516905 6440.35163360
0.27700001 117514.22628242 5880.41216147
0.27800001 115813.31417970 5816.14491337
0.27900001 114131.99344030 7669.67032218
0.28000001 112467.90275238 5688.62679045
0.28100001 110822.97954063 5156.59348208
0.28200001 109196.62048172 5098.93643472
0.28300001 107587.94834974 6416.54554327
0.28400001 105997.04565354 6343.92348263
0.28500001 104424.42143756 4479.80789171
0.28600001 102869.32269005 4871.37700656
0.28700001 101331.79203939 4815.28698563
0.28800001 99811.07625908  4759.49139670
0.28900001 98309.69625290  4704.11918836
0.29000001 96823.78362990  5071.63002660
0.29100001 95356.19790798  5429.58216589
0.29200001 93905.30964603  4127.13855430
0.29300001 92471.71184862  5301.40349123
0.29400001 91054.25593844  7655.38693040
0.29500001 89654.70397921  6369.07047218
0.29600001 88271.10742046  4325.72582391
0.29700001 86904.27231744  5050.00750342
0.29800001 85553.70226578  4988.20884674
0.29900001 84220.56527807  5684.88842539
0.30000001 82902.64321890  3743.05451853
0.30100001 81602.13527909  5544.86535471
0.30200001 80316.49523266  5110.53883359
0.30300001 79048.01260973  5046.42536391
0.30400001 77795.46478114  3915.05695046
0.30500001 76558.61911220  4216.84894034
0.30600001 75336.82014150  6244.66931717
0.30700001 74131.99759231  4794.85783127
0.30800001 72942.50996166  3380.88549679
0.30900001 71768.34042279  3670.95078642
0.31000001 70610.38492999  3623.37207423
0.31100001 69466.66264768  4226.35195558
0.31200001 68339.09109221  3850.22457443
0.31300001 67226.46417335  4432.91325747
0.31400001 66130.10203339  4686.97120353
0.31500001 65047.50465082  4933.20298629
0.31600002 63980.54778117  4563.41278656
0.31700002 62928.41965632  4202.36006362
0.31800002 61891.31351638  2961.49949198
0.31900002 60869.07981447  3506.05916332
0.32000002 59861.74767682  3458.81194454
0.32100002 58868.18477644  3127.66680527
0.32200002 57890.65814505  3926.72352791
0.32300002 56925.39925025  3596.54689493
0.32400002 55975.69190056  3547.45964217
0.32500002 55040.03238271  3229.74925315
0.32600002 54118.95145269  3450.89510279
0.32700002 53211.26233990  2617.99423109
0.32800002 52318.34175686  3614.67440315
0.32900002 51438.61703541  3310.07516297
0.33000002 50573.71965403  3766.47794959
0.33100002 49720.23445269  3218.88813090
0.33200002 48883.02768253  3418.39028772
0.33300002 48058.08116079  3611.56497026
0.33400002 47247.09005609  3086.41630407
0.33500002 46448.32694280  3043.29452541
0.33600002 45663.94960591  2769.97531427
0.33700002 44891.54828214  3186.40224796
0.33800002 44133.43946176  2693.02260349
0.33900002 43386.93363445  2876.55383619
0.34000002 42654.01380675  2836.27878240
0.34100002 41933.36109119  3011.65413620
0.34200002 41226.11914629  3181.62589579
0.34300002 40530.08353138  2300.48765019
0.34400002 39848.00842806  2474.56144058
0.34500002 39176.97054764  3659.91276189
0.34600002 38519.20124672  2205.41697183
0.34700002 37871.89366465  1976.91294292
0.34800002 37238.14713844  1949.41709502
0.34900002 36615.28286032  1922.30244121
0.35000002 36004.54106240  1895.63917672
0.35100002 35405.68047259  2430.24602274
0.35200002 34817.23548768  2396.64451831
0.35300002 34240.53921220  2545.44180560
0.35400002 33675.50635779  2331.18703803
0.35500002 33121.66457203  1768.69697192
0.35600002 32577.91685505  1919.00228324
0.35700002 32045.35467123  2581.25344103
0.35800002 31524.18525553  2037.09294770
0.35900002 31013.50695463  2679.56712780
0.36000002 30513.67905165  1982.77895869
0.36100002 30023.23715186  1956.31422548
0.36200002 29544.58599560  1769.57306203
0.36300002 29074.79417243  1904.98060441
0.36400002 28615.22819218  2350.02572660
0.36500002 28165.35995226  2164.78966847
0.36600002 27725.77922940  2289.45632832
0.36700002 27295.32238841  2410.72298754
0.36800002 26875.88846094  1636.33854646
0.36900002 26464.77672448  1615.67469556
0.37000002 26062.60606006  1450.38409595
0.37100002 25669.65587611  2005.31361203
0.37200002 25286.61802229  1839.22224898
0.37300002 24911.72258288  1956.56678434
0.37400002 24545.88068306  1656.84702459
0.37500002 24188.99023660  1500.68502537
0.37600002 23840.78006366  1483.01579411
0.37700002 23500.47885404  1332.47721415
0.37800002 23168.57234799  1317.13340038
0.37900002 22845.45801295  2213.72498632
0.38000002 22530.15802162  1545.11831032
0.38100002 22221.87202635  1273.31332743
0.38200002 21922.43175692  1637.27689333
0.38300002 21630.01001104  1370.47749922
0.38400002 21346.09730135  1479.28461306
0.38500002 21068.29819490  1341.83997560
0.38600002 20799.33064990  2052.58204243
0.38700002 20536.34412540  1434.25834167
0.38800002 20281.01299789  1301.73688094
0.38900002 20032.01365565  1874.99656700
0.39000002 19791.07657955  1276.82136602
0.39100002 19555.64296167  1379.84623275
0.39200002 19327.54704810  1481.16663820
0.39300002 19105.37159571  1354.95301776
0.39400002 18891.11763442  1455.08840473
0.39500002 18681.84722130  1109.70177752
0.39600002 18478.85554441  1100.41589981
0.39700002 18281.87237887  1309.71339927
0.39800002 18090.98711526  1407.56931919
0.39900002 17905.65760543  1611.50926084
0.40000002 17726.03748412  1492.70968726
0.40100002 17552.21948914  1375.91855094
0.40200002 17384.12265930  1261.04431745
0.40300002 17220.77526480  1461.01064269
0.40400002 17063.14263317  1243.90315689
0.40500002 16910.67953333  1441.80460533
0.40600002 16763.16373372  1228.06943332
0.40700002 16620.69348328  1424.06108512
0.40800002 16483.10867352  1314.61039454
0.40900002 16350.03669923  1206.63276558
0.41000002 16222.18355219  1400.13672873
0.41100002 16098.34443902  1094.36550682
0.41200002 15978.79555893  1286.85236131
0.41300002 15864.39519869  1576.28638163
0.41400002 15753.62719230  980.66333919
0.41500002 15647.36224365  1366.95363038
0.41600002 15544.43170008  1166.76509869
0.41700002 15446.02017186  1355.85171493
0.41800002 15352.24312987  964.88852643
0.41900002 15260.49786182  1057.55255194
0.42000002 15173.72185196  1245.68675446
0.42100002 15090.59104279  1241.80479575
0.42200002 15011.06703698  1428.67837294
0.42300002 14934.32783013  1424.73494251
0.42400002 14861.05942426  1042.13184151
0.42500002 14791.38360342  1039.68640275
0.42600002 14724.07365879  1037.38465879
0.42700002 14661.02052519  1129.48507478
0.42800002 14600.27725930  939.52788616
0.42900002 14543.41039607  938.05001500
0.43000002 14488.80552732  1030.37145390
0.43100002 14436.25823543  1309.65740918
0.43200002 14387.44810524  1214.80423833
0.43300002 14340.99076662  1307.03796041
0.43400002 14297.23791948  1119.47378215
0.43500002 14255.68719092  932.32198647
0.43600002 14217.05195533  1491.08447974
0.43700002 14180.10899899  1304.28648754
0.43800002 14145.38702481  1210.91591364
0.43900002 14113.75559557  1490.41266152
0.44000002 14083.68802047  1211.12680872
0.44100002 14056.05787763  1118.30001774
0.44200002 14030.27284990  1118.77401007
0.44300002 14006.49579613  1399.24899634
0.44400002 13985.10224301  1213.55730465
0.44500002 13964.20180932  1307.88720344
0.44600002 13945.51537449  1402.57027526
0.44700002 13929.69036222  936.07523670
0.44800002 13913.91681385  1218.23304437
0.44900002 13901.42919925  1219.85047004
0.45000002 13889.91108700  1127.58303548
0.45100002 13879.59967574  1223.34797340
0.45200002 13870.97614498  1131.03944846
0.45300002 13863.30667280  1510.54596666
0.45400002 13857.48162054  945.77316543
0.45500002 13853.00032827  947.54526736
0.45600002 13849.57342710  1234.20479445
0.45700002 13847.51230876  1712.38345326
0.45800002 13846.09828641  1239.29508586
0.45900002 13845.89762616  1433.05047223
0.46000002 13847.63835905  1340.58993308
0.46100002 13849.10795615  1055.71754953
0.46200002 13852.63232022  1539.30457638
0.46300002 13857.01357820  1157.33782890
0.46400002 13861.53193904  1063.52608843
0.46500002 13867.53468805  1163.20886476
0.46600002 13874.03650935  1166.25156425
0.46700002 13881.00945291  1071.89160076
0.46800002 13889.81928688  1270.29348309
0.46900002 13898.18980296  1175.78691306
0.47000002 13907.67786423  1080.83523645
0.47100002 13917.65639094  1083.90713110
0.47200002 13928.62371979  1383.53025966
0.47300002 13940.19099223  1387.60667714
0.47400002 13951.50175957  994.04454748
0.47500002 13963.76323017  1196.41529027
0.47600002 13977.13774958  1800.11565609
0.47700002 13989.86172134  1705.22432604
