# SAXS profile: number of points = 501, q_min = 0, q_max = 0.5, delta_q = 0.001
#    q    intensity    error
0.00000000 1700912.83420644 459.24646524
0.00100000 1700825.15090437 765.37133608
0.00200000 1700562.07203789 841.77825231
0.00300000 1700123.80822664 1020.07432127
0.00400000 1699510.26171328 1911.94911708
0.00500000 1698722.05110730 2293.27485977
0.00600000 1697759.05637256 2317.44120630
0.00700000 1696622.00122919 2443.13578331
0.00800000 1695310.68106385 2975.27037088
0.00900000 1693826.56408840 3048.88794569
0.01000000 1692168.92938016 4188.11828106
0.01100000 1690339.45206787 3651.13337543
0.01200000 1688338.02129156 4609.16300021
0.01300000 1686165.98476604 3895.04359660
0.01400000 1683823.47922020 4925.18389506
0.01500000 1681312.22187262 6052.72426826
0.01600000 1678631.63068336 4280.51084960
0.01700000 1675784.13353925 5882.00257258
0.01800000 1672770.15684099 6197.61370997
0.01900000 1669590.73586484 5008.77243360
0.02000000 1666246.59499331 6298.41241399
0.02100000 1662740.48996936 6035.74825224
0.02200000 1659071.09056681 7440.93417925
0.02300000 1655241.56317220 6554.75688852
0.02400000 1651252.36561254 7430.63598408
0.02500000 1647106.18538615 8993.20018293
0.02600000 1642803.10960802 10645.36463716
0.02700000 1638345.32584050 8945.36588880
0.02800000 1633733.11459972 8528.08724931
0.02900000 1628970.10791007 10262.51215103
0.03000000 1624056.75343331 9817.42352576
0.03100000 1618994.64291195 9325.40957226
0.03200000 1613785.28243503 9585.88501917
0.03300000 1608432.78338533 9023.30833077
0.03400000 1602935.50456795 11781.57650218
0.03500000 1597297.52020621 8625.40700742
0.03600000 1591519.51605521 9716.22709454
0.03700000 1585604.74590766 9941.74221662
0.03800000 1579554.48945210 10164.43361003
0.03900000 1573371.65394563 13216.32250519
0.04000000 1567055.93144340 10601.13386746
0.04100000 1560611.59546435 10815.03885802
0.04200000 1554040.41484457 14032.98559708
0.04300000 1547343.89005634 12254.96417810
0.04400000 1540525.33193854 12478.25576822
0.04500000 1533586.63126836 13756.27272166
0.04600000 1526528.47769071 11838.22889481
0.04700000 1519355.16469798 12033.29346405
0.04800000 1512068.36976671 13336.44364186
0.04900000 1504670.51614318 18056.04703418
0.05000000 1497163.61566527 13743.96263181
0.05100000 1489551.41016591 13942.20184864
0.05200000 1481833.25788465 12958.63244409
0.05300000 1474014.80691388 19103.23278816
0.05400000 1466096.82778061 16933.41915054
0.05500000 1458082.91300934 15922.26615282
0.05600000 1449974.31228706 27274.01808684
0.05700000 1441775.53159418 12543.44771038
0.05800000 1433486.15548066 13954.98837520
0.05900000 1425110.20783753 17956.38945742
0.06000000 1416651.35828102 16851.06869401
0.06100000 1408111.07652338 13095.43362363
0.06200000 1399492.29751267 17192.76367859
0.06300000 1390798.29940076 14686.83072836
0.06400000 1382028.30612659 17517.20959938
0.06500000 1373188.83394465 21751.31214716
0.06600000 1364281.18839101 15082.12924333
0.06700000 1355306.83109062 15206.54335649
0.06800000 1346269.87443024 22294.23016414
0.06900000 1337173.85256740 18252.42394210
0.07000000 1328018.03953995 19800.74989678
0.07100000 1318807.31184979 15667.43159860
0.07200000 1309543.93587994 18641.35880054
0.07300000 1300231.07077048 18762.33523034
0.07400000 1290871.33439388 21783.45478876
0.07500000 1281465.66024103 20452.19289609
0.07600000 1272017.24247810 16160.97982332
0.07700000 1262530.13055521 14771.60322011
0.07800000 1253005.18252360 19302.54574199
0.07900000 1243444.95786968 19397.74225259
0.08000000 1233854.23147895 16490.46257730
0.08100000 1224233.90533232 19575.50106471
0.08200000 1214585.48767541 16633.74903426
0.08300000 1204912.11760116 21254.65075201
0.08400000 1195217.29770351 15239.02126102
0.08500000 1185502.79025205 18351.58405462
0.08600000 1175771.24406393 18412.57854654
0.08700000 1166024.33257443 18469.82629528
0.08800000 1156264.65306152 18523.36061197
0.08900000 1146495.22757029 32503.14122828
0.09000000 1136718.17826415 21722.68540706
0.09100000 1126935.50213543 21772.39492415
0.09200000 1117149.00327168 18701.07519347
0.09300000 1107363.05568249 15613.81981885
0.09400000 1097576.46233481 26588.79104967
0.09500000 1087793.49027796 18797.07239552
0.09600000 1078015.78282947 21959.18252849
0.09700000 1068247.91420733 17273.56958481
0.09800000 1058489.31684680 25149.70735076
0.09900000 1048743.48277021 17304.26827940
0.10000000 1039009.82806259 15740.99963540
0.10100000 1029292.72459057 18897.81531228
0.10200000 1019594.06879960 18903.27492468
0.10300000 1009914.62460601 15754.66888497
0.10400000 1000258.00318266 18904.87714953
0.10500000 990626.34471568 18901.15154646
0.10600001 981017.03165764 17319.85650888
0.10700001 971437.91692148 17311.02449416
0.10800001 961886.21064341 20444.89236940
0.10900001 952366.53865359 15714.04862738
0.11000001 942879.54401759 15698.94514684
0.11100001 933426.09636694 18817.87098858
0.11200001 924009.04767005 17228.14950486
0.11300001 914629.02921571 21896.21999032
0.11400001 905288.14747125 15616.22127916
0.11500001 895988.85258422 17149.22744598
0.11600001 886730.85809233 21786.97820931
0.11700001 877516.91299661 15532.05009152
0.11800001 868346.56635111 20149.98302121
0.11900001 859222.36155200 17012.60356005
0.12000001 850145.24823159 18516.16437869
0.12100001 841118.52489050 16931.71670367
0.12200001 832140.67684358 18423.59545328
0.12300001 823214.90543615 21436.51714753
0.12400001 814340.67101572 15268.88830098
0.12500001 805519.10258648 16746.74293189
0.12600001 796753.41684606 28838.49128171
0.12700001 788043.24050445 16643.47402380
0.12800001 779388.71162894 19605.52396502
0.12900001 770792.11849889 16533.49172106
0.13000001 762254.00021746 14978.29181027
0.13100001 753774.23016193 19402.14959894
0.13200001 745354.61122985 16356.80771450
0.13300001 736996.95561551 19257.73135810
0.13400001 728699.70859874 17707.40375378
0.13500001 720465.81808425 19106.75439644
0.13600001 712293.82472504 20492.69430359
0.13700001 704186.37044587 18949.65612224
0.13800001 696141.74815402 17417.46736015
0.13900001 688163.41508202 15896.57563805
0.14000001 680250.09603594 20142.20629354
0.14100001 672402.24515045 15754.38534690
0.14200001 664620.39005861 18532.94045090
0.14300001 656906.43452640 15608.09762054
0.14400001 649257.32833294 19769.88658028
0.14500001 641677.11102988 14052.72939445
0.14600001 634164.16289334 18178.31658689
0.14700001 626720.96410138 13913.20605943
0.14800001 619343.33968341 20763.48644248
0.14900001 612035.27071066 19279.11193699
0.15000001 604795.41060567 16438.34003587
0.15100001 597624.84683424 16351.01658091
0.15200001 590523.40506291 16263.01534284
0.15300001 583492.07556980 16174.40109805
0.15400001 576527.13189966 14744.68209415
0.15500001 569633.13081936 18661.18224632
0.15600001 562806.07241525 14579.49199400
0.15700001 556051.34537387 21085.46801174
0.15800001 549361.85785842 13102.28092833
0.15900001 542743.90307207 18236.19600398
0.16000001 536192.36298269 16833.76003044
0.16100001 529712.53350584 19308.02275771
0.16200001 523299.95263806 19192.02666898
0.16300001 516955.30511822 13988.81121688
0.16400001 510679.22268487 12639.31135815
0.16500001 504470.38803901 15073.57590625
0.16600001 498330.45141697 16228.13191657
0.16700001 492256.15378846 13645.34122728
0.16800001 486248.80945814 13559.04869195
0.16900001 480310.25129083 12247.91198624
0.17000001 474436.41590675 17037.01249969
0.17100001 468628.64105317 19344.99121617
0.17200001 462887.13604945 22822.65132067
0.17300001 457210.90834281 16706.48737980
0.17400001 451599.88355461 20152.64575535
0.17500001 446052.73695118 15308.53065515
0.17600001 440568.32935229 12866.79866642
0.17700001 435149.63678243 15104.04460609
0.17800001 429792.19366176 16155.88932282
0.17900001 424498.37356347 16046.03927861
0.18000001 419266.23963610 12521.38683818
0.18100001 414097.61093989 12435.35184393
0.18200001 408987.19402976 14594.70870838
0.18300001 403938.76457086 13378.45251458
0.18400001 398949.60782492 18820.44863823
0.18500001 394021.79100015 12092.52933707
0.18600001 389150.87255607 16373.52373634
0.18700001 384338.50714317 11922.18105484
0.18800001 379583.39447104 11837.30871585
0.18900001 374887.84415799 11752.73446964
0.19000001 370244.47531699 11668.25519093
0.19100001 365661.94789598 12637.27751640
0.19200001 361131.30883869 15682.12782732
0.19300001 356657.81192575 10378.74281746
0.19400001 352236.67658419 17514.96957080
0.19500001 347870.01788137 15341.06851351
0.19600001 343555.83554192 14212.90558802
0.19700001 339293.70376019 10077.02347789
0.19800001 335083.85525444 11002.47890724
0.19900001 330925.10743038 14891.63053815
0.20000001 326815.76613719 12809.54455914
0.20100001 322757.37360347 12713.41354711
0.20200001 318746.92460461 13588.18203812
0.20300001 314786.10119215 11558.94618210
0.20400001 310873.01911387 10515.28036854
0.20500001 307006.69036140 10435.15789862
0.20600001 303187.21197864 10355.35971461
0.20700001 299414.20050455 14946.75759571
0.20800001 295685.16203078 11123.67632142
0.20900001 292003.90626144 11957.56052666
0.21000001 288364.14816598 10952.07086507
0.21100001 284768.84626712 10866.77968726
0.21200001 281216.37382423 8984.86356844
0.21300001 277705.14888304 8914.33570058
0.21400001 274236.79491461 14150.61928659
0.21500001 270810.77834221 11406.55052305
0.21600001 267423.80837996 9575.10991174
0.21700001 264077.45807542 9498.86661608
0.21800001 260770.39807303 11136.20037623
0.21900001 257501.47846488 12746.32378668
0.22000001 254270.55510045 12643.60395019
0.22100001 251078.92947658 9197.02162159
0.22200001 247924.42012403 9122.37946981
0.22300001 244805.33729563 9048.00569429
0.22400001 241721.86832602 9789.73613012
0.22500001 238676.17886018 10518.45969976
0.22600001 235663.31135701 9629.20335740
0.22700001 232687.40378816 7957.90958588
0.22800001 229743.79679370 11048.37971029
0.22900001 226833.11952829 8608.31729319
0.23000001 223956.93447815 9312.12977599
0.23100001 221113.55122288 8464.22714111
0.23200001 218300.56124284 7629.60497627
0.23300001 215519.90833131 8321.22405422
0.23400001 212771.01304899 11250.26784705
0.23500001 210050.83592798 13384.43989836
0.23600001 207362.94594370 8846.10369235
0.23700001 204703.86816860 7307.92843927
0.23800001 202074.35287468 8693.23907185
0.23900001 199473.58974913 7899.15452769
0.24000001 196901.14881021 8541.57223941
0.24100001 194358.00876712 11288.31368315
0.24200001 191841.97694044 10488.96058537
0.24300001 189353.32582481 6930.33205301
0.24400001 186891.40818652 6868.25957575
0.24500001 184456.17002333 7487.07629542
0.24600001 182047.28383804 7419.33740379
0.24700001 179664.54852547 8020.22582558
0.24800001 177307.53994651 9933.65539543
0.24900001 174974.73715707 7873.86354456
0.25000001 172667.77643839 7151.03629950
0.25100001 170384.01285715 8372.67078790
0.25200001 168126.77523179 7656.49370628
0.25300001 165892.80607324 6952.56783146
0.25400001 163682.15969221 6886.92719488
0.25500001 161494.53866960 8061.80775181
0.25600001 159330.65971820 8599.07611184
0.25700001 157189.27092405 6691.54757984
0.25800001 155070.73310307 7229.39791932
0.25900001 152974.71620888 7755.81847876
0.26000001 150900.66646282 9452.41819448
0.26100001 148847.70900387 6434.68676470
0.26200001 146817.54443193 6371.14764209
0.26300001 144807.57998012 8601.57065782
0.26400001 142819.50847486 6812.49087661
0.26500001 140852.76460734 6744.03068852
0.26600001 138905.59145857 6119.48612128
0.26700001 136979.98909869 8810.55331575
0.26800001 135075.02820082 7630.38870414
0.26900001 133189.05965110 7012.40432247
0.27000001 131324.00904841 8541.31395270
0.27100001 129478.31925604 6867.53037833
0.27200001 127653.60473648 6272.89843361
0.27300001 125847.31690737 6206.78996360
0.27400001 124058.57363437 7676.12460690
0.27500001 122291.74356003 5569.16626529
0.27600001 120541.29832644 6010.18941899
0.27700001 118812.05256780 6440.80167452
0.27800001 117100.13999777 5390.70519992
0.27900001 115407.57986534 5816.54230050
0.28000001 113732.36447561 5273.20132848
0.28100001 112076.17490873 6163.06914992
0.28200001 110438.56546884 4688.11732604
0.28300001 108818.48678947 6026.36808363
0.28400001 107216.21525899 5500.19210311
0.28500001 105632.12004005 5437.94179705
0.28600001 104065.57140298 5376.02767314
0.28700001 102516.41779301 6200.19324159
0.28800001 100984.07513738 6566.48979662
0.28900001 99471.09340890  4759.69204491
0.29000001 97973.47939980  5131.85109387
0.29100001 96494.23360343  5071.73715827
0.29200001 95031.57964268  5011.96574760
0.29300001 93586.24720165  5365.29980604
0.29400001 92156.94378441  5709.12293769
0.29500001 90745.59060008  6043.65662005
0.29600001 89350.04972343  5174.70837469
0.29700001 87971.38358195  3932.32103226
0.29800001 86608.89907390  4272.85023808
0.29900001 85263.87538843  6906.37423340
0.30000001 83933.95486092  6063.38918619
0.30100001 82621.51844651  4865.58145165
0.30200001 81323.88978252  5544.25644839
0.30300001 80043.42504887  4014.97839053
0.30400001 78778.86348503  5406.19976260
0.30500001 77530.09352691  4270.35775363
0.30600001 76296.27335821  4567.47662083
0.30700001 75079.53262884  3468.67457167
0.30800001 73878.01810429  3766.67093138
0.30900001 72691.94717125  4732.24598489
0.31000001 71521.97302999  3336.50019981
0.31100001 70366.40986542  4281.09257890
0.31200001 69226.88374300  3575.22258018
0.31300001 68102.41022220  5132.19787734
0.31400001 66994.16333482  5064.75898791
0.31500001 65899.65562059  4373.10135404
0.31600002 64820.87815500  4315.12606309
0.31700002 63756.88994210  3041.20379423
0.31800002 62707.98843707  4200.80834430
0.31900002 61674.10939625  4144.50034767
0.32000002 60654.99718745  3504.64590343
0.32100002 59649.65146043  4033.50962274
0.32200002 58660.57175044  3694.73628665
0.32300002 57683.66877397  3924.79700922
0.32400002 56722.43769796  3318.26276245
0.32500002 55775.28252448  3545.63487797
0.32600002 54842.59798588  2959.03251444
0.32700002 53923.51774840  3714.25207839
0.32800002 53019.26324064  3924.75114724
0.32900002 52128.19354526  2838.38027295
0.33000002 51251.93355073  2544.65862129
0.33100002 50387.30380692  3262.07420293
0.33200002 49538.81365221  2474.46385911
0.33300002 48702.83652080  2684.01344776
0.33400002 47880.74123860  4090.21251400
0.33500002 47071.00228723  2846.85435315
0.33600002 46275.61382243  3508.84858425
0.33700002 45492.41246065  2767.75850518
0.33800002 44723.56856590  2956.45164006
0.33900002 43966.26712286  2914.96364829
0.34000002 43222.74717805  2431.92798514
0.34100002 42491.46380455  2615.77463569
0.34200002 41773.78362044  2794.03964978
0.34300002 41067.28939439  3178.60834966
0.34400002 40374.92642189  2298.34279541
0.34500002 39693.54562713  2266.10462718
0.34600002 39025.48183484  3453.16992370
0.34700002 38368.15416270  2603.66306479
0.34800002 37724.33865225  2567.32998857
0.34900002 37091.47531807  2531.49331035
0.35000002 36470.92727449  2304.23329434
0.35100002 35862.21727136  3408.34529090
0.35200002 35264.15434288  2614.13188525
0.35300002 34677.89433771  2209.67553186
0.35400002 34103.20744088  2179.19505869
0.35500002 33540.02397409  1970.14110155
0.35600002 32986.96518073  2826.32331055
0.35700002 32445.21822973  2090.76996175
0.35800002 31914.79392211  2062.33408093
0.35900002 31395.09976890  1864.86901460
0.36000002 30886.38785646  2675.99677063
0.36100002 30387.06380283  1815.01940691
0.36200002 29899.66017821  2604.85851811
0.36300002 29421.22422052  1606.39891853
0.36400002 28953.07334981  1743.69892509
0.36500002 28494.79110995  1720.80051664
0.36600002 28046.87353929  1698.37850762
0.36700002 27608.22490245  2133.56372152
0.36800002 27180.56695119  1504.44445201
0.36900002 26761.50385481  2376.42165488
0.37000002 26351.33034493  2346.32256506
0.37100002 25950.65053192  1448.04636827
0.37200002 25559.77755098  1573.07658389
0.37300002 25177.27982941  1694.93455841
0.37400002 24803.96527647  1674.26773547
0.37500002 24439.66941477  2205.43587246
0.37600002 24084.12101663  1770.54424041
0.37700002 23736.66312901  1884.21640844
0.37800002 23397.72648389  1463.17689498
0.37900002 23067.67407882  1709.31473022
0.38000002 22745.51012319  1689.87775466
0.38100002 22430.48153404  1413.79331807
0.38200002 22124.29191730  1398.14469395
0.38300002 21825.40808210  1634.28663461
0.38400002 21535.10867438  1368.01784335
0.38500002 21251.05666202  1476.52348683
0.38600002 20975.93906061  1461.18398419
0.38700002 20706.77708433  1928.21517344
0.38800002 20445.51566201  1550.89466402
0.38900002 20190.61837191  1417.38147686
0.39000002 19943.96608940  1169.71366656
0.39100002 19702.93741176  1737.79916205
0.39200002 19469.28262393  1721.57139758
0.39300002 19241.65885403  1364.61851058
0.39400002 19022.10340755  1239.76564832
0.39500002 18807.66014174  1340.61007842
0.39600002 18599.60405149  1218.36712112
0.39700002 18397.66538924  1208.17474335
0.39800002 18201.94227737  1198.32492661
0.39900002 18011.77122030  1080.70632442
0.40000002 17827.56220946  1715.72466833
0.40100002 17649.30367899  1383.52898095
0.40200002 17476.72602349  1795.99583490
0.40300002 17309.07269927  1153.82284080
0.40400002 17147.20661245  1041.69285106
0.40500002 16990.62820500  1552.09396007
0.40600002 16839.15273851  1850.45458211
0.40700002 16692.86294610  1225.92391285
0.40800002 16551.36860902  1421.59711719
0.40900002 16414.68010639  1211.40344925
0.41000002 16283.33802100  1204.64140387
0.41100002 16155.93851051  1098.28075198
0.41200002 16033.07138805  1191.89858346
0.41300002 15915.48868415  1186.02227294
0.41400002 15801.55649850  1180.37632637
0.41500002 15692.23337612  1272.95403179
0.41600002 15586.37144176  1657.37688579
0.41700002 15485.11605507  1068.00850492
0.41800002 15388.53965295  1354.03766822
0.41900002 15294.20379536  1156.24186172
0.42000002 15204.91801974  960.19061845
0.42100002 15119.27414212  1244.16512811
0.42200002 15037.37481583  1049.53362500
0.42300002 14958.36155558  1331.89257602
0.42400002 14882.95925676  948.78869758
0.42500002 14811.19522980  1135.72250404
0.42600002 14741.90030626  1321.90626310
0.42700002 14676.95994647  1036.48696054
0.42800002 14614.55092106  1034.49103597
0.42900002 14555.91323085  938.85644788
0.43000002 14499.68473369  1406.10699368
0.43100002 14445.66997189  1216.90329610
0.43200002 14395.43223194  1121.98004133
0.43300002 14347.58613245  1120.83348178
0.43400002 14302.57147487  1026.56711626
0.43500002 14259.83904712  1119.11222145
0.43600002 14220.19068835  1118.56025255
0.43700002 14182.19129667  1211.30101605
0.43800002 14146.53891111  931.54963144
0.43900002 14114.08082484  1397.29406788
0.44000002 14083.21296784  1024.76504017
0.44100002 14054.89277829  1118.20732243
0.44200002 14028.43941840  932.18984353
0.44300002 14004.14966610  1212.47933555
0.44400002 13982.31645637  933.31966769
0.44500002 13960.94546445  1027.38602542
0.44600002 13941.93054914  1028.28713638
0.44700002 13925.89962007  1122.98459858
0.44800002 13909.99896692  1405.25771223
0.44900002 13897.36067003  1219.49345659
0.45000002 13885.81327575  939.37531262
0.45100002 13875.53799512  1034.83767272
0.45200002 13867.03912367  1036.49188842
0.45300002 13859.48880974  1226.98060248
0.45400002 13853.90831036  1229.18807309
0.45500002 13849.67294912  1136.78120954
0.45600002 13846.63360650  949.18677871
0.45700002 13844.97664909  951.14994087
0.45800002 13843.99401013  1143.79083933
0.45900002 13844.30276732  1146.30832346
0.46000002 13846.52116216  1148.98438049
0.46100002 13848.62500618  1055.68073425
0.46200002 13852.85721188  1154.49717476
0.46300002 13857.92086228  1446.76700659
0.46400002 13863.22308757  1063.65584181
0.46500002 13870.07880054  1163.42226493
0.46600002 13877.42475054  1263.74774480
0.46700002 13885.29936482  974.74806161
0.46800002 13895.03657933  1173.01904362
0.46900002 13904.44050763  1078.28941247
0.47000002 13915.00892441  1179.71451253
0.47100002 13926.02982872  1183.15555033
0.47200002 13938.15469692  1285.58575940
0.47300002 13950.94050678  1388.67668386
0.47400002 13963.45838295  1293.36539402
0.47500002 13976.94559481  997.95396277
0.47600002 13991.59552774  1201.31844895
0.47700002 14005.66641494  1405.88886137
