# SAXS profile: number of points = 501, q_min = 0, q_max = 0.5, delta_q = 0.001
#    q    intensity    error
0.00000000 1682732.95097188 277.65093691
0.00100000 1682645.60119498 555.27306158
0.00200000 1682383.52465624 984.19439309
0.00300000 1681946.93436679 1311.91865554
0.00400000 1681335.70908612 1261.00182973
0.00500000 1680550.50062757 1966.24416356
0.00600000 1679591.16819990 1939.92787825
0.00700000 1678458.44240029 2416.98025751
0.00800000 1677152.12728995 2490.57101418
0.00900000 1675673.61577976 2513.51053112
0.01000000 1674022.31756869 2762.13694326
0.01100000 1672199.85188542 3310.95585089
0.01200000 1670206.04371333 3582.59212084
0.01300000 1668042.33180212 5954.91138717
0.01400000 1665708.81052726 4497.41398780
0.01500000 1663207.13273355 4790.03675557
0.01600000 1660536.83411607 4234.36911629
0.01700000 1657700.30864524 5818.52834436
0.01800000 1654697.93822181 4715.88933614
0.01900000 1651530.70082664 7927.34772167
0.02000000 1648199.49790709 5191.82865326
0.02100000 1644706.89197302 5427.53298959
0.02200000 1641051.68602306 7360.11714620
0.02300000 1637236.97374636 5894.05337377
0.02400000 1633263.36324686 7349.68546974
0.02500000 1629133.12093077 6988.98140798
0.02600000 1624846.97852816 7896.75667683
0.02700000 1620406.47164718 7486.27824189
0.02800000 1615812.37964689 9840.29784332
0.02900000 1611068.04386308 7974.78718328
0.03000000 1606173.98144967 8215.58029275
0.03100000 1601131.88706780 8453.97675271
0.03200000 1595943.01906478 10269.89380069
0.03300000 1590611.54636337 9734.54311251
0.03400000 1585136.03594904 13315.14331634
0.03500000 1579520.54953257 11941.17590589
0.03600000 1573765.54846466 11354.71895692
0.03700000 1567874.39007064 8936.88443671
0.03800000 1561848.48163931 11877.85825257
0.03900000 1555690.35859970 11200.97110063
0.04000000 1549400.12010576 12387.45453427
0.04100000 1542981.90298606 12637.02237139
0.04200000 1536437.39194767 11892.02596538
0.04300000 1529768.13719537 12115.76420898
0.04400000 1522977.25396167 16448.15510667
0.04500000 1516066.98453024 14645.20775105
0.04600000 1509037.83030167 10638.71719819
0.04700000 1501894.30395753 12976.36738970
0.04800000 1494637.43667656 15379.81993900
0.04900000 1487270.39014770 14500.88697892
0.05000000 1479794.71860684 14716.55916184
0.05100000 1472214.55256705 12631.60144946
0.05200000 1464528.63384941 17464.50477252
0.05300000 1456743.31514914 15339.50782362
0.05400000 1448858.70330961 28687.40366333
0.05500000 1440878.88701967 14524.05985870
0.05600000 1432804.69000903 13475.52873836
0.05700000 1424641.14105609 17352.12990804
0.05800000 1416387.38820525 13788.53186800
0.05900000 1408047.73932084 13939.67327034
0.06000000 1399625.64640378 19209.86289435
0.06100000 1391122.53695461 16818.67225774
0.06200000 1382541.51718870 18291.02512739
0.06300000 1373885.71635463 14508.23384304
0.06400000 1365154.38477965 15972.30704889
0.06500000 1356354.40098135 13427.90919784
0.06600000 1347486.63659835 16250.68959772
0.06700000 1338552.49261596 16383.88327637
0.06800000 1329556.08983671 24769.63111310
0.06900000 1320501.22825341 20797.89531873
0.07000000 1311387.35614700 18156.15879608
0.07100000 1302218.88461202 14063.96461253
0.07200000 1292998.23146681 18405.83068718
0.07300000 1283728.30491178 19949.13879306
0.07400000 1274412.25751955 17204.56628279
0.07500000 1265050.37817778 14421.57498720
0.07600000 1255646.64951684 18853.53532636
0.07700000 1246204.32253200 16038.65038302
0.07800000 1236724.95418429 21982.78709154
0.07900000 1227210.20584059 17671.82779298
0.08000000 1217665.82228932 16274.10447833
0.08100000 1208092.03664924 14859.53274797
0.08200000 1198490.62337590 17905.45075345
0.08300000 1188864.80184744 20971.57608883
0.08400000 1179217.93502250 18042.03525271
0.08500000 1169551.67769078 19613.38255563
0.08600000 1159868.69295832 16649.91586916
0.08700000 1150170.91915395 16700.48253033
0.08800000 1140460.44710623 16747.66245229
0.08900000 1130740.91401397 19844.50397304
0.09000000 1121014.17384471 18362.21303015
0.09100000 1111281.86108376 18402.82848413
0.09200000 1101546.34300964 23049.85831051
0.09300000 1091811.65072914 16933.99949857
0.09400000 1082076.63590012 20045.47062214
0.09500000 1072345.58371181 15441.77713126
0.09600000 1062620.25668672 15461.12546158
0.09700000 1052905.06201456 18573.24616712
0.09800000 1043199.28867628 24786.41626435
0.09900000 1033506.61629959 17052.85997081
0.10000000 1023826.77690995 20164.26931951
0.10100000 1014163.49374910 17068.37240255
0.10200000 1004518.69367358 21727.74036615
0.10300000 994894.10467442 20176.45339191
0.10400000 985292.01253195 15518.34992744
0.10500000 975715.61602459 21719.43063459
0.10600001 966161.61843147 27912.41046986
0.10700001 956638.23286054 15497.54010162
0.10800001 947142.32289791 17034.35547898
0.10900001 937678.74013014 17018.86993437
0.11000001 928248.05070603 17000.86384890
0.11100001 918851.19889156 21611.38121525
0.11200001 909491.40093989 15415.87997167
0.11300001 900168.47717024 21550.03435805
0.11400001 890885.11621010 16904.54587603
0.11500001 881643.02104574 15340.58928855
0.11600001 872443.25121236 16842.51775779
0.11700001 863287.22520929 19864.23998757
0.11800001 854175.35301128 22870.54615404
0.11900001 845109.55024839 18254.36714518
0.12000001 836090.97393004 18210.06226998
0.12100001 827123.02393017 19677.25766626
0.12200001 818204.50235137 16605.46115753
0.12300001 809337.87252034 19569.79067956
0.12400001 800523.01177315 18011.76861356
0.12500001 791761.19918726 22446.43105465
0.12600001 783055.49787044 14917.20793738
0.12700001 774404.99846883 17842.29200556
0.12800001 765810.69629364 16300.28143883
0.12900001 757274.42671151 17720.22242024
0.13000001 748796.63390953 17656.62545983
0.13100001 740377.41421369 14659.47349244
0.13200001 732018.53108230 17524.52446022
0.13300001 723721.62086905 17456.16631830
0.13400001 715485.35848107 18835.15295001
0.13500001 707312.43747502 18757.92672624
0.13600001 699201.79658022 17242.31711666
0.13700001 691155.77623570 20029.69533978
0.13800001 683172.62877315 17092.97997794
0.13900001 675255.65502298 15598.40636662
0.14000001 667403.72102792 18350.26617507
0.14100001 659617.60635560 15454.84124581
0.14200001 651897.46004195 19576.48164839
0.14300001 644245.52371512 15307.27436548
0.14400001 636658.01449688 15232.04371533
0.14500001 629139.95090587 22045.06491965
0.14600001 621689.12207496 15079.07036727
0.14700001 614308.26651925 23183.99507218
0.14800001 606992.57771985 13566.28475208
0.14900001 599746.77757269 21590.88501129
0.15000001 592569.43187863 14763.86809186
0.15100001 585461.07720087 16018.21582803
0.15200001 578421.99838238 15929.74258713
0.15300001 571453.09275052 22440.96401128
0.15400001 564550.71246197 14438.38515258
0.15500001 557719.14695003 14355.69151998
0.15600001 550954.42164142 16867.47041461
0.15700001 544262.31531166 14188.91922985
0.15800001 537635.45516512 17951.64869526
0.15900001 531079.89912290 17844.28545279
0.16000001 524590.85425814 15202.64367400
0.16100001 518173.72959286 23924.08222462
0.16200001 511823.40871053 13765.49122708
0.16300001 505541.34681897 12436.31771884
0.16400001 499327.76593269 13594.19906929
0.16500001 493181.52726951 13508.24266965
0.16600001 487103.99998105 15862.54250830
0.16700001 481092.08584101 14548.22536272
0.16800001 475147.05221492 14453.97401084
0.16900001 469270.76215903 15556.32650011
0.17000001 463459.35603488 17831.59956544
0.17100001 457713.87823613 15351.72420097
0.17200001 452034.69105884 11730.30078692
0.17300001 446420.71542815 13981.89746750
0.17400001 440871.64140769 13887.45736019
0.17500001 435386.68925090 13793.05096688
0.17600001 429964.52673077 15981.78221339
0.17700001 424607.81875292 14738.13808501
0.17800001 419312.20319656 11258.53318759
0.17900001 414080.23577320 12298.18358335
0.18000001 408910.09322791 11101.90955554
0.18100001 403803.08911145 11023.82485347
0.18200001 398754.39025238 10945.80852948
0.18300001 393767.39854468 10867.98071323
0.18400001 388839.84901204 10790.30631983
0.18500001 383973.23623806 14997.99531600
0.18600001 379163.79262962 11699.09937429
0.18700001 374412.58029243 11614.27878939
0.18800001 369718.81337880 12577.83462540
0.18900001 365084.00879792 11445.38421658
0.19000001 360501.80985912 12394.05280856
0.19100001 355980.03772070 12302.67068493
0.19200001 351510.10537434 16281.94885028
0.19300001 347097.49125441 10100.53747278
0.19400001 342736.58699712 12030.05477207
0.19500001 338430.48220514 10944.84231171
0.19600001 334176.59721629 10862.41080583
0.19700001 329974.69826032 9800.24900147
0.19800001 325824.85452478 9725.87236720
0.19900001 321726.17718360 9651.78577165
0.20000001 317676.58534325 9577.94950076
0.20100001 313677.98188888 10454.88763048
0.20200001 309726.98067981 11317.42440894
0.20300001 305825.81682895 13101.57861219
0.20400001 301971.91225572 12071.32776298
0.20500001 298164.75794257 10134.62060150
0.20600001 294404.46639082 16454.26640434
0.20700001 290690.24246247 10883.44319225
0.20800001 287020.24642984 12597.31921128
0.20900001 283397.18435805 12497.81642098
0.21000001 279816.16883026 9741.80037834
0.21100001 276279.29386243 9664.25015617
0.21200001 272784.97190105 13944.76842281
0.21300001 269331.90161137 12103.77623063
0.21400001 265921.60141349 10291.16646123
0.21500001 262553.24223949 12760.08817611
0.21600001 259223.99987663 10125.28991389
0.21700001 255935.08557991 10042.89323298
0.21800001 252685.43947814 10790.93220312
0.21900001 249473.59684248 8232.62908505
0.22000001 246299.71721632 13063.73761884
0.22100001 243164.92800426 8097.39248541
0.22200001 240067.26414893 8833.27540204
0.22300001 237004.50320831 7963.35168435
0.22400001 233977.42484018 7896.73846176
0.22500001 230988.05819752 7830.49554318
0.22600001 228031.44495972 9317.36528166
0.22700001 225111.26232197 10008.44719613
0.22800001 222223.45519536 9160.05125633
0.22900001 219368.35719091 8325.02954909
0.23000001 216547.44484406 8253.70625056
0.23100001 213759.24887635 10414.35109778
0.23200001 211001.35740063 7374.49778992
0.23300001 208275.73103807 10965.71775777
0.23400001 205581.67778541 7246.75448467
0.23500001 202916.09453895 7901.55309506
0.23600001 200282.45598907 9968.05830604
0.23700001 197677.69385943 8468.51280548
0.23800001 195102.25739619 8393.29951018
0.23900001 192555.33199312 9011.58996352
0.24000001 190036.60926160 10991.71799960
0.24100001 187546.99622747 8169.54754210
0.24200001 185084.22746250 10119.48061518
0.24300001 182649.01047958 7353.44950975
0.24400001 180240.10193273 7286.20646529
0.24500001 177857.53193416 7219.23756271
0.24600001 175501.63568045 10403.73745529
0.24700001 173171.42488318 10951.36142768
0.24800001 170866.46135552 11487.35274036
0.24900001 168585.68031994 7586.35597329
0.25000001 166330.75080669 6888.58837055
0.25100001 164098.92412657 6202.93962544
0.25200001 161893.18407670 7372.61595165
0.25300001 159710.61236411 6084.97461896
0.25400001 157551.30736805 7231.60535033
0.25500001 155414.86796970 6564.72433363
0.25600001 153301.90739523 7682.72545260
0.25700001 151210.98116342 9362.98439663
0.25800001 149143.15203736 8111.89642312
0.25900001 147097.37934490 7457.83748565
0.26000001 145073.45371329 7951.47637425
0.26100001 143070.61005159 6747.21028928
0.26200001 141090.17001147 6122.60821735
0.26300001 139129.99105119 7162.41227822
0.26400001 137191.25916262 7089.35865268
0.26500001 135273.74233876 6476.90708966
0.26600001 133375.59267787 9080.87765718
0.26700001 131499.05512201 7929.39339908
0.26800001 129642.77754128 6277.30358560
0.26900001 127805.33789782 8281.78628769
0.27000001 125988.56826054 7170.00975901
0.27100001 124190.87123452 5066.98778615
0.27200001 122414.20901681 7018.00693505
0.27300001 120655.64893579 5950.73688713
0.27400001 118914.52146938 6867.31393985
0.27500001 117195.07329601 5337.06389048
0.27600001 115492.07242398 8637.65250537
0.27700001 113809.65527721 5695.03541960
0.27800001 112144.54639461 7509.19918197
0.27900001 110498.88044753 6497.33447782
0.28000001 108870.11182454 5965.53805977
0.28100001 107260.17659793 4990.81625331
0.28200001 105668.68210981 4934.19934465
0.28300001 104094.61113466 4434.43064422
0.28400001 102538.12624781 4383.50510457
0.28500001 100999.48851635 5199.45391492
0.28600001 99478.32603764  5139.05056635
0.28700001 97974.41640956  6771.99198276
0.28800001 96487.17374348  5019.26301571
0.28900001 95018.81128409  5786.64588110
0.29000001 93565.92687037  4900.98348145
0.29100001 92131.05715126  5649.47669193
0.29200001 90712.70745769  4385.50604963
0.29300001 89311.32496490  4332.49257913
0.29400001 87925.90442390  3890.72145493
0.29500001 86558.22672872  4611.82253842
0.29600001 85206.22003887  4555.12473891
0.29700001 83870.76804783  4123.92586013
0.29800001 82551.50199112  4072.67854353
0.29900001 81249.24792859  5484.32449480
0.30000001 79962.23833153  3971.32475474
0.30100001 78692.31268094  4277.71431984
0.30200001 77436.97516462  4223.41282542
0.30300001 76198.68808539  3822.12637531
0.30400001 74976.17514023  4802.22424508
0.30500001 73769.22243266  4401.80971095
0.30600001 72577.01512552  3676.38887523
0.30700001 71401.58122730  3628.62852976
0.30800001 70241.21076555  3255.68027312
0.30900001 69096.16722746  4498.16069947
0.31000001 67966.95433380  4121.85614072
0.31100001 66851.92917765  3754.40452037
0.31200001 65752.91425091  3395.80941727
0.31300001 64668.50359937  3959.65266286
0.31400001 63600.30928977  3906.64918309
0.31500001 62545.71312279  2964.66694239
0.31600002 61506.52724975  4094.48971288
0.31700002 60482.05897986  5192.98982989
0.31800002 59472.37264919  3414.90379921
0.31900002 58477.30843249  3087.60203143
0.32000002 57497.15953024  3322.18603496
0.32100002 56530.51456616  3276.50877940
0.32200002 55579.71012563  4847.10674957
0.32300002 54641.19238526  2921.11828323
0.32400002 53717.91660538  3142.49827022
0.32500002 52808.52944178  2840.57093318
0.32600002 51913.53529967  3819.53854054
0.32700002 51031.89788407  3264.00034322
0.32800002 50164.80736884  2970.76003306
0.32900002 49310.74244029  3173.14642629
0.33000002 48471.42971855  3609.90989923
0.33100002 47643.22801090  3321.68601422
0.33200002 46831.28807614  3508.83442526
0.33300002 46031.46138842  2536.79395725
0.33400002 45245.38926040  2273.58091800
0.33500002 44471.37896703  2465.49336669
0.33600002 43711.65528519  2872.51156310
0.33700002 42963.79047068  2178.26428002
0.33800002 42229.90085564  2362.12961622
0.33900002 41507.65272462  2116.89038921
0.34000002 40798.72863084  2712.91158879
0.34100002 40102.09133044  2674.40859748
0.34200002 39418.63213933  2839.32420746
0.34300002 38746.22986501  2399.16666686
0.34400002 38087.57774286  1971.03224154
0.34500002 37439.98919888  2331.76263774
0.34600002 36805.52068509  2682.01841934
0.34700002 36181.27067906  2077.52866079
0.34800002 35570.52243706  2793.17540666
0.34900002 34970.52838779  3121.11980643
0.35000002 34382.34623428  2172.27673797
0.35100002 33806.19779545  2141.96079377
0.35200002 33240.09454366  3168.11356101
0.35300002 32685.71548582  1909.17273195
0.35400002 32142.91639820  2567.41556891
0.35500002 31611.06808566  1856.83422730
0.35600002 31089.20258783  2330.75762840
0.35700002 30578.47520528  1642.06419630
0.35800002 30079.07181229  1781.73390319
0.35900002 29589.84516837  1917.42205773
0.36000002 29111.36361938  1734.01845612
0.36100002 28642.23693332  2177.38295481
0.36200002 28184.69391510  2148.51931892
0.36300002 27735.88264560  1968.69304344
0.36400002 27297.19673525  1494.52159205
0.36500002 26868.12942988  1475.06037557
0.36600002 26449.20272902  1892.83728296
0.36700002 26039.23420129  1868.57553480
0.36800002 25640.15645863  1986.85581809
0.36900002 25249.25193875  2102.00032347
0.37000002 24867.26378101  1660.63595396
0.37100002 24494.30675064  1503.46061957
0.37200002 24131.13671556  2025.20574479
0.37300002 23775.99673375  2000.75021992
0.37400002 23429.73404537  1581.50712298
0.37500002 23092.34595342  1693.13088551
0.37600002 22763.48207237  1416.00246939
0.37700002 22442.40753344  1781.47839440
0.37800002 22129.60393915  1635.48845660
0.37900002 21825.43134525  1617.26453930
0.38000002 21528.96506458  1230.38041173
0.38100002 21239.41504217  1338.72039353
0.38200002 20958.59001798  1685.69947500
0.38300002 20684.60278836  2382.86635410
0.38400002 20419.04160416  2240.47944616
0.38500002 20159.41529216  1400.67624086
0.38600002 19908.44496492  1271.25381346
0.38700002 19663.59394539  1487.74758839
0.38800002 19425.90601823  1926.95283877
0.38900002 19194.68246753  1459.75567081
0.39000002 18971.23711949  1780.26097563
0.39100002 18753.20624438  1764.30172706
0.39200002 18542.39581116  1093.07428485
0.39300002 18337.41768234  1192.11558001
0.39400002 18140.18491049  1074.80600687
0.39500002 17947.75711696  1172.70650558
0.39600002 17761.49963448  1163.46708868
0.39700002 17581.16950338  1364.47462980
0.39800002 17406.70358629  1458.50776260
0.39900002 17237.80966482  1137.69549178
0.40000002 17074.34424206  1540.53278223
0.40100002 16916.64380408  1734.12523852
0.40200002 16764.44500438  1317.43397309
0.40300002 16616.91940010  1409.77950870
0.40400002 16474.96579242  1401.19590703
0.40500002 16337.97857119  1392.97611898
0.40600002 16205.95253670  1385.12282894
0.40700002 16078.61042556  1476.01650700
0.40800002 15956.21770147  1468.37100355
0.40900002 15838.13845144  1266.25922919
0.41000002 15725.01213461  1066.39174844
0.41100002 15615.92958340  1061.57094338
0.41200002 15510.93656719  1153.08307904
0.41300002 15410.87683923  1244.12014618
0.41400002 15314.39513143  1239.31748473
0.41500002 15222.22985566  1139.84062560
0.41600002 15133.36639900  1514.54738098
0.41700002 15048.72431439  1037.91056514
0.41800002 14968.75028921  1223.02180033
0.41900002 14890.45018317  938.09840599
0.42000002 14817.11461587  1029.27091556
0.42100002 14747.21980483  1120.19886946
0.42200002 14680.82968284  1024.64855627
0.42300002 14617.13523533  1022.61482952
0.42400002 14556.59804476  1391.97475399
0.42500002 14499.64771449  1111.83303943
0.42600002 14444.84657038  1757.86568668
0.42700002 14394.22573011  1663.39680419
0.42800002 14345.59595119  1015.45305752
0.42900002 14300.85331089  1106.88609871
0.43000002 14258.23036004  1013.97410010
0.43100002 14217.41183230  1197.67482951
0.43200002 14180.29989156  1381.51578240
0.43300002 14145.33116374  1197.11943312
0.43400002 14112.88046463  1289.21169154
0.43500002 14082.54564360  920.99852874
0.43600002 14054.91315858  1013.42956132
0.43700002 14028.88797675  921.69798375
0.43800002 14004.96773902  1291.11803705
0.43900002 13983.87913145  1015.22967305
0.44000002 13964.22234010  1108.48002189
0.44100002 13946.89076565  1017.14679174
0.44200002 13931.28531484  925.73395304
0.44300002 13917.47425355  1112.28459506
0.44400002 13905.93052669  1206.68717864
0.44500002 13894.74084501  1115.46984790
0.44600002 13885.52447152  1210.33179792
0.44700002 13879.15762982  1492.28709908
0.44800002 13872.57308280  934.31784141
0.44900002 13869.14100006  1029.78376806
0.45000002 13866.56474459  938.07314943
0.45100002 13864.95431814  940.04394732
0.45200002 13864.96488562  1036.33684949
0.45300002 13865.81146342  1133.11416649
0.45400002 13868.30537703  1041.16307552
0.45500002 13871.95222556  1043.72573492
0.45600002 13876.52322618  1141.48285468
0.45700002 13882.28532901  953.71304730
0.45800002 13888.58238286  1625.58920204
0.45900002 13896.02867283  1246.47383103
0.46000002 13905.14119502  1057.69461513
0.46100002 13913.85403957  1060.65314371
0.46200002 13924.54057073  1063.76532732
0.46300002 13935.82056780  1551.89305198
0.46400002 13947.13671602  1167.37539846
0.46500002 13959.76168263  1073.36612665
0.46600002 13972.86299640  1272.43882908
0.46700002 13986.20949008  1669.11431965
0.46800002 14001.20875559  1280.48060743
0.46900002 14015.64106777  1482.15411317
0.47000002 14030.99072581  1486.93431264
0.47100002 14046.84660022  1093.96846508
0.47200002 14063.37538811  1097.57618419
0.47300002 14080.38758958  1401.56184710
0.47400002 14097.03803182  1104.85540811
0.47500002 14114.47238872  1108.55071395
0.47600002 14132.90570815  1516.81417702
0.47700002 14150.47327932  1420.42457510
