# SAXS profile: number of points = 501, q_min = 0, q_max = 0.5, delta_q = 0.001
#    q    intensity    error
0.00000000 1664650.74656090 349.57665678
0.00100000 1664563.89394071 599.24301605
0.00200000 1664303.30545180 1048.51111564
0.00300000 1663869.19939721 1098.15371072
0.00400000 1663261.44526673 2245.40303643
0.00500000 1662480.70172155 2094.72576708
0.00600000 1661526.82057922 1744.60323263
0.00700000 1660400.53762839 2590.22494635
0.00800000 1659101.65485214 3359.68099292
0.00900000 1657631.57058628 2486.44746217
0.01000000 1655989.69111290 2732.38310832
0.01100000 1654177.61011859 3870.77577621
0.01200000 1652195.17326508 3221.78072912
0.01300000 1650043.80067540 3465.09213425
0.01400000 1647723.63415418 3707.37834120
0.01500000 1645236.28085837 5133.13742485
0.01600000 1642581.25836173 4188.58239607
0.01700000 1639761.00681164 5755.56139210
0.01800000 1636775.86073876 5597.77369561
0.01900000 1633626.81164370 5390.96872168
0.02000000 1630314.80979560 7189.68863643
0.02100000 1626842.26458136 6442.29565983
0.02200000 1623208.17816539 7280.08900982
0.02300000 1619415.52745724 6412.88578063
0.02400000 1615464.86395953 7875.39157090
0.02500000 1611358.62458490 8798.01849204
0.02600000 1607097.33075310 9112.24228215
0.02700000 1602682.66808950 8077.52101713
0.02800000 1598115.34230846 9037.34267520
0.02900000 1593398.65823231 9321.38257864
0.03000000 1588533.18032523 8125.34759085
0.03100000 1583520.65082575 8360.98942108
0.03200000 1578362.28885957 10938.05116558
0.03300000 1573062.20094171 8022.61759465
0.03400000 1567618.98620400 9876.00006877
0.03500000 1562036.70863244 9278.49847774
0.03600000 1556315.73124197 9501.30797832
0.03700000 1550459.62180631 9721.38227832
0.03800000 1544469.56021841 10842.17681450
0.03900000 1538348.19248535 11999.11645706
0.04000000 1532095.54727342 13191.34327330
0.04100000 1525715.90313980 12495.61382609
0.04200000 1519210.75853767 10778.80083188
0.04300000 1512581.68018964 11979.64746317
0.04400000 1505831.89802580 11180.80236210
0.04500000 1498963.59572648 11377.13422020
0.04600000 1491977.23151405 15777.65995672
0.04700000 1484877.29264407 17105.78720681
0.04800000 1477664.90461579 11946.92130969
0.04900000 1470343.05398554 12130.33076002
0.05000000 1462913.52418943 15667.80457366
0.05100000 1455380.27896918 21568.73673908
0.05200000 1447741.94342090 12660.50388521
0.05300000 1440005.15092264 19828.87185258
0.05400000 1432169.84081158 15360.02225900
0.05500000 1424240.00607919 15552.70159191
0.05600000 1416216.56504715 21795.57395315
0.05700000 1408104.58173419 12250.51043292
0.05800000 1399903.24486378 14866.97315463
0.05900000 1391616.68736272 15029.46092548
0.06000000 1383248.40103441 17719.41284508
0.06100000 1374799.80819009 15342.76657639
0.06200000 1366274.02921264 15493.54821549
0.06300000 1357674.16984498 14337.03990390
0.06400000 1348999.49389030 14468.02024860
0.06500000 1340257.02580884 14595.39969380
0.06600000 1331447.34311560 21409.67427903
0.06700000 1322571.99062828 14839.25842931
0.06800000 1313634.91653908 20394.18303390
0.06900000 1304640.14174073 13698.72212964
0.07000000 1295587.08435243 19317.20433229
0.07100000 1286480.07585623 20840.97820502
0.07200000 1277321.37730593 22378.67157877
0.07300000 1268114.22863305 15483.67545711
0.07400000 1258861.31102761 19827.06657786
0.07500000 1249563.54753961 21367.53766448
0.07600000 1240224.09514072 20054.42455859
0.07700000 1230846.90372867 14400.90944886
0.07800000 1221433.23844602 15921.38300980
0.07900000 1211984.66836768 17452.58004309
0.08000000 1202507.16712424 16071.50904255
0.08100000 1193000.63885748 20543.47196499
0.08200000 1183467.30378428 16207.58548587
0.08300000 1173909.75086781 17749.51626614
0.08400000 1164332.02740492 17814.28085547
0.08500000 1154735.20140140 17875.30175685
0.08600000 1145122.28040641 17932.61575313
0.08700000 1135494.84378710 22482.79896273
0.08800000 1125855.43011374 16533.18776768
0.08900000 1116207.25169638 18082.55832681
0.09000000 1106552.43517822 18125.32973967
0.09100000 1096892.39219239 15137.11572341
0.09200000 1087229.72595191 16683.54092864
0.09300000 1077568.25598489 18232.45574805
0.09400000 1067906.92562768 24348.27904862
0.09500000 1058249.99125666 21334.32082650
0.09600000 1048599.18661749 21359.96643548
0.09700000 1038958.75004689 25963.58038429
0.09800000 1029328.48950294 19871.18742415
0.09900000 1019711.22075357 18354.80283665
0.10000000 1010107.49575533 22954.69392053
0.10100000 1000520.63451708 15307.96642807
0.10200000 990952.49006227 21434.30336824
0.10300000 981404.97049954 16840.91008598
0.10400000 971880.40158986 21429.96386323
0.10500000 962381.56593924 18362.24114205
0.10600001 952905.43039864 21411.78602856
0.10700001 943460.32616026 18340.86960363
0.10800001 934042.96215519 18325.92377993
0.10900001 924658.26745595 19833.92077043
0.11000001 915306.69174409 15239.85713487
0.11100001 905989.22213271 16742.68161315
0.11200001 896708.90784799 19758.98171463
0.11300001 887465.89918145 16693.23434953
0.11400001 878262.52576918 15150.02928285
0.11500001 869100.75590875 24195.76618383
0.11600001 859981.40648520 27166.81391019
0.11700001 850906.00452492 21085.45178515
0.11800001 841874.93416234 19535.70876734
0.11900001 832890.11616541 16491.22507684
0.12000001 823952.71833472 19441.16530488
0.12100001 815066.11580583 23865.13699504
0.12200001 806229.06098527 19337.40493874
0.12300001 797443.85307690 19282.19327587
0.12400001 788710.76066730 17745.99295116
0.12500001 780030.76829791 14742.58221551
0.12600001 771407.00167059 19103.89529661
0.12700001 762838.49287266 17575.79970407
0.12800001 754326.38334050 17515.45944666
0.12900001 745872.09986707 17453.40795950
0.13000001 737476.51564823 17389.69705865
0.13100001 729139.55921693 23099.14232483
0.13200001 720863.05150422 18695.58412208
0.13300001 712648.50206653 21486.35335024
0.13400001 704494.62128339 18545.82177964
0.13500001 696404.05694630 17047.97211783
0.13600001 688375.77417941 19804.57195694
0.13700001 680412.14931538 15492.98537046
0.13800001 672511.55470480 21032.79986521
0.13900001 664676.68204647 16749.85317746
0.14000001 656907.20193977 15282.94677388
0.14100001 649203.37936805 16593.63915925
0.14200001 641565.42136477 19266.21051228
0.14300001 633995.54233531 17802.59566848
0.14400001 626490.24787341 14988.77988739
0.14500001 619054.17641581 17624.47323394
0.14600001 611685.26900705 13487.66081788
0.14700001 604386.25302327 13417.37545010
0.14800001 597152.31863426 13346.35495114
0.14900001 589987.97298264 19912.09502763
0.15000001 582892.17750759 13202.50844348
0.15100001 575865.28642050 15755.67497990
0.15200001 568907.41382340 13056.42576334
0.15300001 562019.61197897 14280.91901429
0.15400001 555198.15473238 14199.19347735
0.15500001 548447.36982771 14117.03596559
0.15600001 541763.24056879 14034.37740929
0.15700001 535151.50458645 16488.01863449
0.15800001 528604.80103678 15128.67011973
0.15900001 522129.42071334 15037.32802631
0.16000001 515720.29224489 12454.64564560
0.16100001 509382.82670644 14853.60392791
0.16200001 503111.94716077 15991.41399540
0.16300001 496909.16050484 15891.15570313
0.16400001 490774.46165180 15790.66904912
0.16500001 484707.04352593 13276.12654896
0.16600001 478707.94921923 16788.28857174
0.16700001 472774.29241265 14296.69527757
0.16800001 466907.21468323 16570.53783151
0.16900001 461108.78758941 14109.92956648
0.17000001 455374.72593790 17520.54340778
0.17100001 449706.51473409 19724.12866764
0.17200001 444104.15740933 13829.40411479
0.17300001 438566.88747850 13735.91556450
0.17400001 433094.03658123 11368.71899716
0.17500001 427685.14219094 13549.06594450
0.17600001 422338.73746700 14577.02221213
0.17700001 417057.39971103 11135.43309822
0.17800001 411836.74541244 16586.72570491
0.17900001 406679.61418338 10980.35010159
0.18000001 401583.83333226 11993.30174897
0.18100001 396550.98449867 10825.84238819
0.18200001 391575.96879212 15048.26519153
0.18300001 386662.29324003 11739.06777731
0.18400001 381807.91148487 11654.68704865
0.18500001 377013.94893727 12622.42760673
0.18600001 372276.73780371 11486.59928760
0.18700001 367597.50880183 14512.75033315
0.18800001 362975.31426188 10290.35064550
0.18900001 358411.67184181 11236.20644312
0.19000001 353900.38563661 11153.17118031
0.19100001 349448.98057875 12076.95733944
0.19200001 345049.06670822 12985.92223917
0.19300001 340706.16564796 10906.00487773
0.19400001 336414.45723368 9840.12333907
0.19500001 332177.25721712 12695.81537078
0.19600001 327991.78891161 11630.58938442
0.19700001 323857.88029406 12504.15334907
0.19800001 319775.64655220 12408.89455089
0.19900001 315744.06657423 13261.25142284
0.20000001 311761.28122423 10339.56338046
0.20100001 307828.95506971 10259.93955738
0.20200001 303943.89316231 10180.60118264
0.20300001 300108.17201020 12856.63469658
0.20400001 296319.33646710 11845.36603515
0.20500001 292576.84959257 14465.00012757
0.20600001 288880.60182922 9866.71742186
0.20700001 285230.08085383 9789.09683763
0.20800001 281623.48481309 13243.34499935
0.20900001 278063.28853174 10510.79280336
0.21000001 274544.59863914 10427.20434923
0.21100001 271069.60055758 10344.01644627
0.21200001 267636.80250817 8550.99624438
0.21300001 264244.66693989 10178.70505173
0.21400001 260894.95320779 10096.63516648
0.21500001 257586.59219081 9180.38657971
0.21600001 254317.01992182 9105.82132881
0.21700001 251087.38110040 9031.61352519
0.21800001 247896.33133355 8143.39486933
0.21900001 244742.66699834 8884.15923210
0.22000001 241626.70758753 8810.91830878
0.22100001 238549.15099245 10326.79323475
0.22200001 235508.27973229 11028.85326136
0.22300001 232501.76252811 10155.67746744
0.22400001 229530.84094862 10070.66612283
0.22500001 226596.64496451 7681.62662754
0.22600001 223694.83755886 9901.85245278
0.22700001 220829.12289647 8307.59199622
0.22800001 217995.41954991 9734.58592035
0.22900001 215193.78430972 8166.60450076
0.23000001 212425.87709085 7360.55698929
0.23100001 209690.18985419 9486.38463764
0.23200001 206984.32890521 10127.74369231
0.23300001 204310.20245130 7888.41728972
0.23400001 201667.31412876 9241.40510703
0.23500001 199052.41376383 7046.45578051
0.23600001 196468.78217548 8381.35864402
0.23700001 193913.77838213 8307.26665881
0.23800001 191387.45653917 8233.48876975
0.23900001 188889.26764083 7480.01535238
0.24000001 186418.75947270 8086.84616844
0.24100001 183976.89360842 8681.87002004
0.24200001 181561.45519605 10588.66456790
0.24300001 179173.07543709 9180.82881968
0.24400001 176810.40467230 11046.23055443
0.24500001 174473.72745539 9013.31318671
0.24600001 172163.20263324 8930.10574303
0.24700001 169877.84161145 6951.40160758
0.24800001 167617.34448779 8138.66054662
0.24900001 165380.55600828 7442.12537244
0.25000001 163169.11791014 7371.98109594
0.25100001 160980.19008125 6693.55662024
0.25200001 158817.18955323 6629.82389155
0.25300001 156676.72034629 7163.25999313
0.25400001 154559.04466755 6503.07211206
0.25500001 152463.84261138 7025.53419992
0.25600001 150391.52105343 6957.11209309
0.25700001 148340.82422321 6888.94820286
0.25800001 146312.82105318 8526.38005029
0.25900001 144306.37169932 6753.53851507
0.26000001 142321.36863082 8357.82276830
0.26100001 140356.91621988 8274.04060266
0.26200001 138414.56413990 6006.50029506
0.26300001 136492.00786584 7026.60889742
0.26400001 134590.36755590 5884.96409985
0.26500001 132709.48649849 5824.61963803
0.26600001 130847.56158194 6812.57861613
0.26700001 129006.85919310 5186.07598497
0.26800001 127185.93694699 7697.92919799
0.26900001 125383.47073291 6601.44004648
0.27000001 123601.19590588 6029.26662161
0.27100001 121837.65878084 5468.07438485
0.27200001 120094.65009121 4917.87615397
0.27300001 118369.21055295 4864.97478396
0.27400001 116660.96670211 7218.39765630
0.27500001 114973.95156599 4759.92182010
0.27600001 113302.81938735 5649.27884201
0.27700001 111652.08482327 5587.07058897
0.27800001 110018.17924602 5525.11322322
0.27900001 108403.26458493 5463.52479366
0.28000001 106804.90614434 8103.28861269
0.28100001 105224.92052955 4896.11578397
0.28200001 103663.05455793 4840.54656168
0.28300001 102118.08231642 4350.23051258
0.28400001 100590.40846739 6020.33623172
0.28500001 99080.14691640  4675.59235429
0.28600001 97587.07229451  5041.34839335
0.28700001 96110.75024880  4151.98460727
0.28800001 94650.81353633  4923.73555322
0.28900001 93209.31444851  6081.90805564
0.29000001 91783.00168576  5608.85949851
0.29100001 90374.23219940  7520.94395964
0.29200001 88981.74191579  4692.89729078
0.29300001 87605.79736319  3863.41584659
0.29400001 86245.41114687  4197.99558629
0.29500001 84902.44708028  4146.63571169
0.29600001 83574.82048213  5212.56180022
0.29700001 82263.45757263  4044.89440032
0.29800001 80967.93062755  4357.69423266
0.29900001 79688.95929068  6813.40634189
0.30000001 78425.03614664  4603.15771454
0.30100001 77177.70141982  3845.76504381
0.30200001 75944.65328829  4142.02158643
0.30300001 74728.42840079  3748.37814604
0.30400001 73527.67632029  4036.66962109
0.30500001 72342.12218500  4648.70499169
0.30600001 71170.91720098  3605.16298149
0.30700001 70016.28101197  3881.70280308
0.30800001 68876.31530230  3830.90083848
0.30900001 67751.44316422  3465.48648192
0.31000001 66642.00085023  4352.38928159
0.31100001 65546.59715210  3067.58089195
0.31200001 64466.80849441  3329.38848233
0.31300001 63401.34791076  3284.82399078
0.31400001 62351.89458739  3535.35259049
0.31500001 61315.61391202  4359.54035556
0.31600002 60294.58921093  2867.00785273
0.31700002 59287.89316366  3393.63916537
0.31800002 58295.78817313  3626.28967501
0.31900002 57317.97855756  3301.51572124
0.32000002 56354.87078943  3798.88201979
0.32100002 55404.93764772  3746.48206113
0.32200002 54470.66985811  2903.01448755
0.32300002 53548.39559493  2862.69736406
0.32400002 52641.20607142  3079.51070100
0.32500002 51747.57740213  2530.45665479
0.32600002 50868.02815134  3243.59996866
0.32700002 50001.69611828  3444.11699172
0.32800002 49149.64093784  2910.64187417
0.32900002 48310.34178526  2630.49823477
0.33000002 47485.59133789  2829.19166588
0.33100002 46671.66291251  2324.24892311
0.33200002 45873.90353078  3437.10238481
0.33300002 45087.92444651  3162.46717044
0.33400002 44315.49741549  2894.91000576
0.33500002 43554.95343424  3073.23765986
0.33600002 42808.42792831  3029.55258796
0.33700002 42073.70963979  2986.39205166
0.33800002 41352.60711498  2943.89223993
0.33900002 40643.02745112  2280.07394799
0.34000002 39946.52337590  3064.89715116
0.34100002 39262.07848697  3021.21708265
0.34200002 38590.65270388  2184.03809321
0.34300002 37930.19850459  2544.35783619
0.34400002 37283.20757497  2508.22790840
0.34500002 36647.09237174  2282.38102101
0.34600002 36023.94399333  2062.55101102
0.34700002 35410.80289885  2772.66599830
0.34800002 34811.05714628  2369.06660629
0.34900002 34221.86633916  2335.64248827
0.35000002 33644.29106478  2125.64641015
0.35100002 33078.58269536  1921.20417394
0.35200002 32522.80211868  2066.49894450
0.35300002 31978.60913556  2037.67707063
0.35400002 31445.81291750  2176.83650232
0.35500002 30923.72498595  1816.45969171
0.35600002 30411.57437715  1791.39387353
0.35700002 29910.44252635  1927.42900769
0.35800002 29420.42662687  1742.71905379
0.35900002 28940.42301115  1719.06120829
0.36000002 28471.04673636  1850.04870456
0.36100002 28010.94782644  2129.39235463
0.36200002 27562.25200554  1950.99410062
0.36300002 27122.15638565  1628.95678968
0.36400002 26692.06448051  1753.66871944
0.36500002 26271.47418493  2307.68640171
0.36600002 25860.89422061  1850.73498256
0.36700002 25459.21377967  2108.02300081
0.36800002 25068.22599170  1387.52637437
0.36900002 24685.24469276  1781.04048895
0.37000002 24311.16894250  1623.49993888
0.37100002 23946.05947127  1469.80919997
0.37200002 23590.49269061  1715.85456713
0.37300002 23242.95432394  1825.50171908
0.37400002 22904.10774252  1288.35612155
0.37500002 22574.10243038  1400.49738112
0.37600002 22252.45508893  1384.21403438
0.37700002 21938.55512116  1243.91613430
0.37800002 21632.85823180  1475.79365848
0.37900002 21335.59045163  1459.35445602
0.38000002 21046.02015399  1323.05811966
0.38100002 20763.20523343  1189.73171624
0.38200002 20489.10621734  1412.51904954
0.38300002 20221.74780410  1630.68182017
0.38400002 19962.71456116  1383.41618463
0.38500002 19709.56789783  1940.01286009
0.38600002 19464.93234613  1355.92725147
0.38700002 19226.41173871  1118.97721620
0.38800002 18994.95958802  1219.19153892
0.38900002 18769.85471406  1427.44751863
0.39000002 18552.50184498  1414.53557019
0.39100002 18340.42175998  1617.62527587
0.39200002 18135.54126673  1496.72629165
0.39300002 17936.46643326  1590.06782464
0.39400002 17745.03961845  1471.95110609
0.39500002 17558.31645295  1773.03887942
0.39600002 17377.78236553  1241.81638668
0.39700002 17203.05354686  1335.12904903
0.39800002 17034.08206549  1121.43884591
0.39900002 16870.71187864  1619.58841708
0.40000002 16712.71187084  1306.85056666
0.40100002 16560.47517191  1398.03538025
0.40200002 16413.51117574  992.19679758
0.40300002 16271.24494891  1873.47123218
0.40400002 16134.55328925  1078.19157464
0.40500002 16002.71546491  1754.21775238
0.40600002 15875.89938109  1163.06844377
0.40700002 15753.60315603  1156.94467060
0.40800002 15636.19867365  1055.20891749
0.40900002 15523.08028962  1050.13643135
0.41000002 15414.88719131  1425.49176056
0.41100002 15310.70159782  946.20140358
0.41200002 15210.57902022  942.29541495
0.41300002 15115.33360399  1220.26093967
0.41400002 15023.61602238  1028.74215588
0.41500002 14936.14776643  1118.41879774
0.41600002 14852.00742297  928.99310833
0.41700002 14771.98949959  926.20378551
0.41800002 14696.62818260  1200.78806256
0.41900002 14622.96389860  1289.74547697
0.42000002 14554.13108993  1194.82144844
0.42100002 14488.71986195  1283.99041501
0.42200002 14426.80124826  1098.45669909
0.42300002 14367.55694154  1096.53199774
0.42400002 14311.37834198  1186.05553629
0.42500002 14258.86047518  1366.71184131
0.42600002 14208.38734959  910.04725286
0.42700002 14162.11467128  1000.12858548
0.42800002 14117.72076670  1181.01798670
0.42900002 14077.21629806  1361.97074138
0.43000002 14038.85792983  1361.41831226
0.43100002 14002.22946170  1361.01676817
0.43200002 13969.30220749  1451.68995419
0.43300002 13938.42412961  1179.60888999
0.43400002 13910.06344027  1179.92118724
0.43500002 13883.79421935  1271.20025896
0.43600002 13860.22855890  1181.09943262
0.43700002 13838.18248647  1181.91922218
0.43800002 13818.32164252  909.93652328
0.43900002 13801.20755514  1366.31961271
0.44000002 13785.49466448  1367.86577291
0.44100002 13772.07471723  1095.70631643
0.44200002 13760.32798301  1005.81122158
0.44300002 13750.43739343  1098.93500856
0.44400002 13742.74256451  1100.79373158
0.44500002 13735.39438103  1378.34689146
0.44600002 13730.00185225  1472.95466851
0.44700002 13727.39448515  1106.97714374
0.44800002 13724.58103925  1201.65574984
0.44900002 13724.84548296  1111.71253681
0.45000002 13725.99766449  1021.42016461
0.45100002 13728.11643910  1209.99624029
0.45200002 13731.69742048  1119.68266073
0.45300002 13736.23896099  1309.61308461
0.45400002 13742.36053045  1219.29099585
0.45500002 13749.58478600  1034.51880833
0.45600002 13757.71938436  1320.32839189
0.45700002 13767.03725496  1702.43190763
0.45800002 13776.81012827  1327.94679120
0.45900002 13787.82620597  1046.49605863
0.46000002 13800.35967665  1431.44237530
0.46100002 13812.54855936  1052.93062658
0.46200002 13826.66452216  1344.36665521
0.46300002 13841.38096295  963.36016068
0.46400002 13856.05905253  1256.39821414
0.46500002 13872.04576000  1163.58725350
0.46600002 13888.48692779  1167.46626648
0.46700002 13905.22666750  976.14695832
0.46800002 13923.47575869  1077.46822265
0.46900002 13941.18890086  1474.28079614
0.47000002 13959.80575811  1282.13842062
0.47100002 13978.92156932  1187.64923282
0.47200002 13998.62187616  1092.52249611
0.47300002 14018.83393794  1295.76088230
0.47400002 14038.66063907  1600.40738871
0.47500002 14059.22366043  1003.82861693
0.47600002 14080.74634345  1007.47744863
0.47700002 14101.41062316  1011.07118960
