# SAXS profile: number of points = 501, q_min = 0, q_max = 0.5, delta_q = 0.001
#    q    intensity    error
0.00000000 1682732.95097188 277.65093691
0.00100000 1682645.42542627 605.75236754
0.00200000 1682382.82468527 757.07229508
0.00300000 1681945.35221202 1513.75087092
0.00400000 1681332.91276898 1639.29965224
0.00500000 1680546.12866023 2268.73736349
0.00600000 1679584.87882428 2116.27703348
0.00700000 1678449.89448727 3021.20993564
0.00800000 1677140.94673403 2264.14037368
0.00900000 1675659.52157607 2764.83832879
0.01000000 1674004.91517385 3590.74069809
0.01100000 1672178.78629132 3912.89853029
0.01200000 1670181.00983892 5210.96497917
0.01300000 1668012.95872195 4553.67557815
0.01400000 1665674.80640856 3747.76848056
0.01500000 1663168.19561293 5189.08500138
0.01600000 1660492.59226369 4234.25629956
0.01700000 1657650.45075670 5370.78770138
0.01800000 1654642.08553314 6130.44920276
0.01900000 1651468.62150646 5449.84669688
0.02000000 1648130.85234237 5710.77366170
0.02100000 1644631.34640423 7055.46879596
0.02200000 1640968.96795963 6793.61183600
0.02300000 1637146.79663194 8251.22023061
0.02400000 1633165.37108579 9186.55563124
0.02500000 1629027.18916072 6988.52696067
0.02600000 1624732.57079644 6580.16721269
0.02700000 1620283.53223642 10888.30583533
0.02800000 1615680.48993943 10542.31568032
0.02900000 1610926.96503644 7974.08884305
0.03000000 1606023.44741705 10455.21312326
0.03100000 1600971.65772165 13063.92932812
0.03200000 1595772.82826444 8688.98345010
0.03300000 1590431.30676317 8922.32004226
0.03400000 1584945.27888924 9153.05940791
0.03500000 1579319.17508659 8528.32393929
0.03600000 1573553.27312177 10479.86528330
0.03700000 1567651.07220901 9829.17267733
0.03800000 1561613.75771794 12789.61726761
0.03900000 1555444.09557775 11199.19800679
0.04000000 1549142.12176687 11432.66938842
0.04100000 1542712.07831127 10690.99519840
0.04200000 1536155.45695897 10899.02347276
0.04300000 1529473.77392282 10094.52737646
0.04400000 1522670.70106258 15417.04156426
0.04500000 1515747.70007961 14642.12346311
0.04600000 1508705.81063545 13827.28939726
0.04700000 1501549.16781221 14054.50086437
0.04800000 1494279.47536783 10982.95465497
0.04900000 1486899.35294389 12266.92023278
0.05000000 1479410.33030786 12449.23850925
0.05100000 1471816.63600947 12628.18732523
0.05200000 1464117.27754000 13967.67947864
0.05300000 1456318.14865965 17694.26633108
0.05400000 1448420.08893048 13144.41292002
0.05500000 1440426.46409301 15729.45772166
0.05600000 1432338.52929698 18369.74249544
0.05700000 1424161.01089848 14868.24164781
0.05800000 1415893.26681924 21302.11519394
0.05900000 1407539.70175825 15201.42948898
0.06000000 1399103.60850326 16642.33820066
0.06100000 1390586.41018129 14225.69964094
0.06200000 1381991.41949358 14365.80147714
0.06300000 1373321.41775518 17139.05209493
0.06400000 1364576.21408963 13304.61870959
0.06500000 1355761.95111533 16106.45273267
0.06600000 1346880.21917171 14889.76151961
0.06700000 1337932.05086549 15011.59831324
0.06800000 1328921.85739846 17880.64442827
0.06900000 1319853.05035217 15244.30344529
0.07000000 1310725.17649984 15355.14616175
0.07100000 1301542.96892166 18273.66413956
0.07200000 1292308.42466186 19811.08907815
0.07300000 1283024.92242134 19938.20822864
0.07400000 1273695.23601516 18627.79369970
0.07500000 1264320.15350554 18737.22555321
0.07600000 1254902.86596138 15943.54165948
0.07700000 1245447.44473491 18943.25652264
0.07800000 1235954.97384328 17575.28055227
0.07900000 1226427.29641727 16188.84107203
0.08000000 1216870.12219733 17741.96721393
0.08100000 1207283.69078633 19304.46712140
0.08200000 1197669.64287169 19384.28407949
0.08300000 1188031.58694193 17963.03843760
0.08400000 1178372.52753450 19531.52556067
0.08500000 1168694.25380748 18091.38789824
0.08600000 1158999.64015695 18149.93521702
0.08700000 1149290.20846991 22755.94719627
0.08800000 1139568.54264847 22819.86113824
0.08900000 1129837.83550610 21353.93609405
0.09000000 1120100.16096290 15289.36791537
0.09100000 1110357.16196884 15322.92955506
0.09200000 1100611.21886920 18424.23266956
0.09300000 1090866.30396953 16919.33716964
0.09400000 1081121.28880193 18487.17490736
0.09500000 1071380.66518413 23141.82345571
0.09600000 1061645.80364646 20081.03131994
0.09700000 1051921.51577485 17009.57170975
0.09800000 1042207.06519628 21667.48590419
0.09900000 1032505.79816431 17036.34647080
0.10000000 1022817.56575249 17045.25553486
0.10100000 1013146.57595429 17051.25767526
0.10200000 1003494.16583851 17054.38415060
0.10300000 993862.10343303 15504.24954289
0.10400000 984253.15385249 26353.37943420
0.10500000 974669.99885820 20146.42982428
0.10600001 965109.77205111 23235.01885542
0.10700001 955580.15288632 17028.43912575
0.10800001 946078.75953979 20108.90498038
0.10900001 936609.90906960 20090.28349511
0.11000001 927174.27073305 18524.94280121
0.11100001 917773.14548033 15418.58956987
0.11200001 908408.84561474 23096.29598706
0.11300001 899082.07442857 16911.73461622
0.11400001 889795.16917180 16883.86413000
0.11500001 880550.32081892 18385.89156445
0.11600001 871347.55354318 19879.79537026
0.11700001 862189.18310106 19838.97403747
0.11800001 853075.40464724 16750.13635915
0.11900001 844007.93897043 18230.57234045
0.12000001 834988.45547372 19701.55353494
0.12100001 826019.90268327 18139.39791744
0.12200001 817100.85336848 18090.61374585
0.12300001 808234.15904483 18039.78727981
0.12400001 799419.95764977 17986.94989462
0.12500001 790658.89006907 19426.48984438
0.12600001 781954.49468678 17875.48059089
0.12700001 773305.69383278 16332.21702343
0.12800001 764713.44774454 23675.52945798
0.12900001 756179.54858550 17694.60227088
0.13000001 747704.79186524 14692.39985268
0.13100001 739288.93209544 17565.50585458
0.13200001 730933.82445276 17498.55658229
0.13300001 722641.12513754 18882.61349003
0.13400001 714409.41053168 24593.54511703
0.13500001 706241.53792741 15848.06085830
0.13600001 698136.39192593 24389.39600191
0.13700001 690095.94619784 15713.48543587
0.13800001 682119.16932413 22755.49656171
0.13900001 674208.84828459 21237.57972249
0.14000001 666364.08771965 18321.68145591
0.14100001 658585.52873407 26652.95760490
0.14200001 650873.31855134 18149.60334384
0.14300001 643229.74094208 16672.51567162
0.14400001 635651.11108848 15207.95355015
0.14500001 628142.14583318 19258.83909973
0.14600001 620700.77238652 17792.38847980
0.14700001 613329.69625001 13615.91989910
0.14800001 606024.55102431 14899.11428985
0.14900001 598789.53954041 18861.87138544
0.15000001 591623.27207591 14740.29451926
0.15100001 584526.57592887 17325.36852803
0.15200001 577499.30099499 14578.97054156
0.15300001 570542.68917547 17133.39776445
0.15400001 563652.90977031 14415.42384765
0.15500001 556834.46177369 15635.91242451
0.15600001 550083.27470760 16840.80024997
0.15700001 543404.91473552 15454.43650448
0.15800001 536792.20581449 14082.74418423
0.15900001 530251.27693287 15271.23749648
0.16000001 523777.08901666 17708.90421556
0.16100001 517375.04502983 17601.09986276
0.16200001 511040.47245649 12494.94014140
0.16300001 504774.44886367 18626.17804237
0.16400001 498577.20447689 17275.70095070
0.16500001 492447.55716552 14714.33370279
0.16600001 486386.90892205 15839.19043686
0.16700001 480392.34953364 14527.06533579
0.16800001 474464.84839470 13230.45292218
0.16900001 468606.53851698 15534.30748534
0.17000001 462813.28400461 11871.16129527
0.17100001 457086.35127636 12972.11126178
0.17200001 451425.94388630 12885.95417675
0.17300001 445830.90953563 12799.80601723
0.17400001 440301.15446742 15025.27760579
0.17500001 434835.88921702 12627.63481923
0.17600001 429433.49590449 11401.45985474
0.17700001 424096.81100346 16985.07808290
0.17800001 418821.73160682 15743.50963470
0.17900001 413610.35692891 15634.47223038
0.18000001 408461.02354863 12198.68904449
0.18100001 403374.99686866 14315.77931510
0.18200001 398347.76198470 10934.64658301
0.18300001 393382.16622995 10857.34830084
0.18400001 388476.42927604 14014.28784818
0.18500001 383631.76973891 10703.32688136
0.18600001 378844.41149741 15939.87936681
0.18700001 374115.37421444 17935.09188718
0.18800001 369443.96637375 10473.73694154
0.18900001 364832.02670025 13517.02722789
0.19000001 360272.42643835 19611.43045979
0.19100001 355773.56415839 13320.16287147
0.19200001 351326.87549265 11188.00487871
0.19300001 346937.21656018 13124.63552264
0.19400001 342599.84087913 11023.15040117
0.19500001 338317.03598489 12930.47772637
0.19600001 334086.69937142 10859.48867625
0.19700001 329908.44645331 12737.76571952
0.19800001 325782.38555563 9724.60466841
0.19900001 321707.50453751 15441.96094759
0.20000001 317681.79458731 14367.15983922
0.20100001 313707.07738001 12356.92236202
0.20200001 309780.19408446 17922.33397583
0.20300001 305902.99197558 10296.69519657
0.20400001 302073.27002591 12075.37954004
0.20500001 298290.28924975 9217.17037348
0.20600001 294554.03511030 10975.08386698
0.20700001 290864.03973449 11797.44600929
0.20800001 287218.11382898 9904.71712359
0.20900001 283619.49765953 16974.62773734
0.21000001 280062.47177980 12409.56871119
0.21100001 276549.62673546 14950.27352807
0.21200001 273079.47485183 10469.86756078
0.21300001 269650.49490519 9521.35942523
0.21400001 266264.22900671 9445.72397057
0.21500001 262919.78502780 10222.32172517
0.21600001 259614.47665263 15210.81290622
0.21700001 256349.51010057 10059.15525194
0.21800001 253123.46754784 10809.63819272
0.21900001 249935.45701260 9072.65751853
0.22000001 246785.19546886 12271.39442491
0.22100001 243673.83379122 9737.20685871
0.22200001 240599.45617285 9657.66262744
0.22300001 237560.13110109 7982.02078243
0.22400001 234556.21144918 9499.52701289
0.22500001 231589.80396967 9421.07367098
0.22600001 228655.92840567 8564.30820343
0.22700001 225758.56137720 8493.03748064
0.22800001 222893.37079980 11484.58147357
0.22900001 220060.72563538 9110.51447215
0.23000001 217262.04987464 11292.19557626
0.23100001 214496.00422105 8210.90742990
0.23200001 211760.13050572 7401.01691120
0.23300001 209055.99694536 9539.22559177
0.23400001 206383.34080498 8002.51441819
0.23500001 203739.22317948 10097.31637834
0.23600001 201126.60626490 9295.06654816
0.23700001 198542.75580948 9923.16740470
0.23800001 195987.94382501 8431.40174215
0.23900001 193461.48865795 9053.99809744
0.24000001 190962.90623037 8283.97126411
0.24100001 188493.19822862 7526.53376128
0.24200001 186050.38543726 6781.53686997
0.24300001 183634.32291726 7393.11819036
0.24400001 181244.52053021 6660.73644456
0.24500001 178881.15165743 6600.71480840
0.24600001 176543.54682275 9157.31420688
0.24700001 174231.73057292 8425.84688910
0.24800001 171945.02119844 10917.64963747
0.24900001 169682.19628480 6363.08266170
0.25000001 167444.67363307 8826.00916474
0.25100001 165230.06484640 7494.83609601
0.25200001 163041.26921762 6187.41645953
0.25300001 160875.39320924 7968.15860263
0.25400001 158732.35212145 7892.96658266
0.25500001 156611.85488271 6615.28506323
0.25600001 154514.54799183 7147.84332829
0.25700001 152439.17866149 7079.27579198
0.25800001 150386.19035662 7011.00452614
0.25900001 148355.18118738 6364.43757407
0.26000001 146345.79278684 7448.26947630
0.26100001 144356.80893932 5673.22285975
0.26200001 142390.23495726 7864.21304880
0.26300001 140443.32004265 6117.71131053
0.26400001 138517.61171630 6607.29039151
0.26500001 136612.78907784 7631.19075899
0.26600001 134727.03981792 8093.72730005
0.26700001 132862.41036102 5341.06914925
0.26800001 131017.89207714 8458.51551276
0.26900001 129191.59349769 7325.16369796
0.27000001 127385.84133905 6213.88163457
0.27100001 125598.77297522 5124.43017989
0.27200001 123832.23434416 7606.39535455
0.27300001 122083.61421993 8028.21885103
0.27400001 120351.99648588 5957.42410798
0.27500001 118641.71276559 6385.29728323
0.27600001 116947.37344150 6316.91267540
0.27700001 115273.43184665 5768.28280260
0.27800001 113616.42258881 5230.33226141
0.27900001 111978.31001979 5643.70709210
0.28000001 110356.86312430 7907.62140143
0.28100001 108753.90117554 5060.31926120
0.28200001 107168.96787969 4549.32290181
0.28300001 105601.05681948 6298.04732680
0.28400001 104050.33579999 7117.04330557
0.28500001 102517.33013821 5277.59240531
0.28600001 101001.16127939 5217.72023866
0.28700001 99501.94099359  4728.33245982
0.28800001 98018.98747006  6798.59729272
0.28900001 96554.78837300  4200.13349303
0.29000001 95105.50607894  4151.35553685
0.29100001 93673.86262572  5744.08152810
0.29200001 92258.44859266  4865.71080910
0.29300001 90859.72504527  4808.29687700
0.29400001 89476.52711430  4751.20381467
0.29500001 88110.63929891  4303.32382706
0.29600001 86760.09396985  3865.16236932
0.29700001 85425.82783920  6109.65549628
0.29800001 84107.31357074  4526.65583066
0.29900001 82805.57229872  4844.12620879
0.30000001 81518.48793713  5152.78386644
0.30100001 80248.43617708  3998.77976401
0.30200001 78992.38368882  4308.24481034
0.30300001 77753.32794657  4254.66230666
0.30400001 76529.50632044  4551.59260389
0.30500001 75320.88099102  4494.39718151
0.30600001 74126.70851961  4096.24210672
0.30700001 72949.12280403  3370.24963310
0.30800001 71786.16231370  4990.93317115
0.30900001 70638.19574438  4270.07913491
0.31000001 69505.82851230  4539.42587506
0.31100001 68387.30449777  3840.63120243
0.31200001 67284.43970826  3790.80551264
0.31300001 66195.91745886  4364.95900390
0.31400001 65123.18070378  3692.48452073
0.31500001 64063.85166576  4554.94006910
0.31600002 63019.71147397  3595.90490696
0.31700002 61989.86447732  2956.91667557
0.31800002 60974.53392601  4376.44737976
0.31900002 59973.77809371  2878.74148480
0.32000002 58987.25446745  3408.28372451
0.32100002 58014.16860083  3642.70981893
0.32200002 57056.72375288  3593.71791574
0.32300002 56111.25032788  4090.51034259
0.32400002 55180.74198760  4035.09194891
0.32500002 54263.95854757  3714.91077807
0.32600002 53361.13912964  3664.30959755
0.32700002 52471.43607458  2839.75425483
0.32800002 51596.27367130  2800.90384888
0.32900002 50733.71007152  4269.24190468
0.33000002 49885.55877930  2476.81811068
0.33100002 49048.49677604  3175.39983165
0.33200002 48227.42105304  2890.75175481
0.33300002 47418.25588831  3088.35115226
0.33400002 46622.49948678  2577.05878117
0.33500002 45838.87038625  3234.39084762
0.33600002 45068.97143013  2506.06027505
0.33700002 44311.00406040  2920.53841593
0.33800002 43566.77365088  2658.44465407
0.33900002 42833.96312588  3058.34511202
0.34000002 42114.43627170  3015.81492424
0.34100002 41406.83810779  2549.00507463
0.34200002 40712.19845087  2513.57125140
0.34300002 40028.66935622  2478.57532392
0.34400002 39358.67271964  2444.17369164
0.34500002 38699.48161141  2209.35350983
0.34600002 38053.21195099  2772.93768620
0.34700002 37417.23181153  2148.49755237
0.34800002 36794.40692654  2118.80602321
0.34900002 36182.24705102  3419.22250826
0.35000002 35581.90618252  2060.72619416
0.35100002 34993.31518521  2217.17655515
0.35200002 34414.85248035  2368.94648269
0.35300002 33847.87021408  2156.78639219
0.35400002 33292.21362865  2481.93464357
0.35500002 32747.60400282  2273.33877755
0.35600002 32212.84384302  1897.49765645
0.35700002 31689.23933178  2552.56834908
0.35800002 31176.55305160  2014.62895362
0.35900002 30674.28765610  1822.05277307
0.36000002 30182.61967524  2124.70561268
0.36100002 29700.21372048  2257.81035397
0.36200002 29229.20092692  1591.53006586
0.36300002 28767.12985747  2041.89097400
0.36400002 28314.93482941  1705.26703088
0.36500002 27872.34989574  1989.24970628
0.36600002 27439.80769220  1812.67378201
0.36700002 27016.32588231  1938.69163715
0.36800002 26603.49930573  2061.50525885
0.36900002 26199.10226273  1890.26531780
0.37000002 25803.32713393  1866.74178993
0.37100002 25416.72709970  1843.72947115
0.37200002 25039.72211493  1541.06977056
0.37300002 24670.90154990  2214.46022802
0.37400002 24310.94688778  1914.48715810
0.37500002 23959.79763191  1621.59918054
0.37600002 23617.27498461  1736.22405274
0.37700002 23282.48653753  1584.14045906
0.37800002 22955.93207931  1566.05376064
0.37900002 22638.07807232  1290.37051125
0.38000002 22328.01457702  1531.25531223
0.38100002 22024.85957358  1766.83431869
0.38200002 21730.33128607  1747.77062814
0.38300002 21442.89706505  1482.13311535
0.38400002 21163.72770957  1344.42586644
0.38500002 20890.73802858  1814.36068374
0.38600002 20626.33436566  1317.09464332
0.38700002 20367.99703236  1422.50098013
0.38800002 20117.15928158  1525.98718960
0.38900002 19872.50625261  1860.06667337
0.39000002 19635.94941309  1727.47273146
0.39100002 19404.84436667  1141.00490282
0.39200002 19180.97380060  1583.00584276
0.39300002 18963.01259756  1232.78550737
0.39400002 18752.89607405  1222.22005953
0.39500002 18547.63117190  1211.90227819
0.39600002 18348.69938975  1529.73114060
0.39700002 18155.69627344  1409.06365454
0.39800002 17968.75999894  1182.97337058
0.39900002 17787.36683955  1067.24206094
0.40000002 17611.57868234  1377.13746031
0.40100002 17441.70978251  1367.25569463
0.40200002 17277.24427341  1044.40946581
0.40300002 17117.73393414  1659.73556089
0.40400002 16963.79547256  1236.66074854
0.40500002 16815.10684962  1228.84806679
0.40600002 16671.29467103  1323.11736426
0.40700002 16532.55539481  1112.97168191
0.40800002 16398.49827660  1106.65270863
0.40900002 16269.15584128  1200.66375798
0.41000002 16144.93642860  995.33537798
0.41100002 16024.70409548  1584.52281604
0.41200002 15908.79950467  985.55017601
0.41300002 15798.05296204  1079.16504897
0.41400002 15690.76719758  976.75030433
0.41500002 15588.04575142  1167.23292117
0.41600002 15488.78424624  1065.70585056
0.41700002 15393.92249623  1061.71888487
0.41800002 15303.77654396  1154.21088164
0.41900002 15215.61820705  1246.15919021
0.42000002 15132.37008116  1146.73105909
0.42100002 15052.84444632  1143.41411832
0.42200002 14976.81439862  1045.30681048
0.42300002 14903.78946308  1232.24537120
0.42400002 14834.00218166  1040.23445228
0.42500002 14767.97605837  1132.40845782
0.42600002 14704.18304066  1035.98326522
0.42700002 14644.81479496  1316.27601614
0.42800002 14587.67099146  1032.58834006
0.42900002 14534.41633126  1031.21688757
0.43000002 14483.51646673  936.35938395
0.43100002 14434.61579154  1215.97209190
0.43200002 14389.45823386  1028.05489224
0.43300002 14346.59637994  1214.15250917
0.43400002 14306.49969659  1213.54889427
0.43500002 14268.64007103  1026.48601535
0.43600002 14233.75611454  1212.92958478
0.43700002 14200.47605179  1026.26845290
0.43800002 14169.46952429  1026.36557363
0.43900002 14141.48237759  933.33788115
0.44000002 14115.15544149  1400.57636505
0.44100002 14091.26722067  934.25106100
0.44200002 14069.21483577  1215.36918118
0.44300002 14049.23938734  1029.24732629
0.44400002 14031.56394377  1311.24971269
0.44500002 14014.40036780  1031.31977194
0.44600002 13999.49901549  1220.26638951
0.44700002 13987.47322983  1221.94571927
0.44800002 13975.56399246  941.25427950
0.44900002 13966.86594949  1037.03984590
0.45000002 13959.10132638  1133.19989938
0.45100002 13952.57360310  1324.37834917
0.45200002 13947.75865016  1421.62536779
0.45300002 13943.98903649  1899.17139678
0.45400002 13942.02032953  1522.46869214
0.45500002 13941.30146300  1144.30207832
0.45600002 13941.71132799  1051.27479251
0.45700002 13943.43919556  1053.70574995
0.45800002 13945.87196314  1344.24266224
0.45900002 13949.51993559  1155.02030541
0.46000002 13954.98759616  1254.48366941
0.46100002 13960.34602838  1547.92324099
0.46200002 13967.66615803  1552.08713704
0.46300002 13975.88446009  1361.81024633
0.46400002 13984.17261494  1072.93569473
0.46500002 13994.00689784  1173.81735422
0.46600002 14004.29364608  1765.80146953
0.46700002 14015.04889382  1082.24212687
0.46800002 14027.57413223  986.83988697
0.46900002 14039.75504733  1088.78305552
0.47000002 14053.00780087  1092.12955301
0.47100002 14066.74481662  1195.11069626
0.47200002 14081.40791873  1098.98353311
0.47300002 14096.71267345  1102.50395045
0.47400002 14111.72805353  1106.00673862
0.47500002 14127.65971171  1109.58644635
0.47600002 14144.58714139  1113.24978373
0.47700002 14161.02279064  1319.94899688
