# SAXS profile: number of points = 501, q_min = 0, q_max = 0.5, delta_q = 0.001
#    q    intensity    error
0.00000000 1700912.83420644 306.16431016
0.00100000 1700824.77418207 612.29693325
0.00200000 1700560.57079027 841.77750920
0.00300000 1700120.42745035 1530.10843921
0.00400000 1699504.24855768 1657.01670531
0.00500000 1698712.66605839 1987.49389796
0.00600000 1697745.53118588 2673.94932048
0.00700000 1696603.62026307 2443.10931472
0.00800000 1695286.67698089 2288.63711055
0.00900000 1693796.16533460 2794.76379227
0.01000000 1692131.42913218 4467.22716580
0.01100000 1690294.14802064 5172.30031814
0.01200000 1688284.12884788 3621.36961515
0.01300000 1686102.77798505 5665.30558390
0.01400000 1683750.29437977 4167.28216333
0.01500000 1681228.28424570 4438.44286805
0.01600000 1678536.22882493 5136.32108982
0.01700000 1675676.61698899 5429.19248259
0.01800000 1672649.78082630 5720.46250783
0.01900000 1669456.73095459 5509.20746074
0.02000000 1666098.39324118 5773.03119373
0.02100000 1662577.25402260 8229.75778054
0.02200000 1658892.25583313 7440.13210543
0.02300000 1655046.41854340 5958.16737796
0.02400000 1651040.33091524 6191.40152324
0.02500000 1646876.46317802 7707.38219967
0.02600000 1642555.17324557 7982.81850709
0.02700000 1638078.40686683 8255.91554874
0.02800000 1633446.71179506 7105.49352216
0.02900000 1628663.49698588 9527.68189482
0.03000000 1623729.31177810 9060.40997619
0.03100000 1618645.92701520 9323.40096861
0.03200000 1613414.48214285 9583.68246534
0.03300000 1608039.35592456 10661.30142127
0.03400000 1602518.89449921 10937.19195960
0.03500000 1596857.21919522 9485.33232003
0.03600000 1591054.89332908 10596.42607927
0.03700000 1585115.31711064 9035.15772538
0.03800000 1579039.77472350 10161.12142060
0.03900000 1572830.84631826 9436.98551494
0.04000000 1566488.76503935 11560.68762170
0.04100000 1560017.58398993 9828.11123483
0.04200000 1553419.09879186 18035.19657368
0.04300000 1546694.67433588 15312.27798669
0.04400000 1539847.69021109 15590.95858746
0.04500000 1532880.11615755 12692.24795153
0.04600000 1525792.85732257 16135.26021626
0.04700000 1518589.78946567 13120.61639120
0.04800000 1511272.87800787 13329.42740422
0.04900000 1503844.71843238 13534.60309589
0.05000000 1496306.82037421 16025.44679245
0.05100000 1488663.42301354 13933.89028850
0.05200000 1480913.55986334 15305.24235443
0.05300000 1473063.17966470 20284.08092958
0.05400000 1465112.93787746 16922.05522163
0.05500000 1457066.45805511 17135.10234607
0.05600000 1448924.65165047 16104.79825461
0.05700000 1440692.73254773 16294.23556571
0.05800000 1432369.84573993 15211.76847203
0.05900000 1423960.22147427 16660.33536938
0.06000000 1415467.36049953 14246.67964902
0.06100000 1406892.79482085 14392.51396360
0.06200000 1398239.57168637 13213.36457008
0.06300000 1389510.69789605 17341.09432053
0.06400000 1380705.98978598 18846.63764197
0.06500000 1371831.40034697 14939.24464860
0.06600000 1362888.78281418 17806.14278059
0.06700000 1353878.98105153 15190.52287830
0.06800000 1344806.44417314 18094.37155333
0.06900000 1335674.79350734 15427.04458729
0.07000000 1326483.41431028 16952.45882874
0.07100000 1317236.84371625 18494.00615199
0.07200000 1307937.67743521 21482.87735828
0.07300000 1298588.77580782 17297.20330423
0.07400000 1289193.05342806 15953.76478383
0.07500000 1279751.44903032 17507.00064333
0.07600000 1270266.96125798 19073.05931744
0.07700000 1260743.82212129 17700.84409255
0.07800000 1251183.26832169 16309.17466741
0.07900000 1241586.74435635 16388.94579421
0.08000000 1231960.19311035 22452.47557271
0.08100000 1222304.04120014 21048.07657700
0.08200000 1212619.74328207 15097.11651230
0.08300000 1202910.81562792 21219.34778354
0.08400000 1193180.56979865 15213.05297901
0.08500000 1183430.60199447 19846.13212713
0.08600000 1173663.79491316 19911.20721556
0.08700000 1163881.79974240 18435.88857363
0.08800000 1154086.99137266 20029.18067592
0.08900000 1144282.78398531 15447.81830938
0.09000000 1134471.25838414 26325.40678745
0.09100000 1124654.06956040 21728.31764473
0.09200000 1114833.41709220 23327.89034876
0.09300000 1105013.61297872 21812.96974524
0.09400000 1095193.14598426 20288.45398286
0.09500000 1085376.80394937 21881.19739609
0.09600000 1075565.97433691 17214.43422847
0.09700000 1065765.36590224 18800.10193836
0.09800000 1055974.13441765 17249.33829674
0.09900000 1046195.89649785 26677.99661516
0.10000000 1036430.33956209 29833.64872729
0.10100000 1026681.80580924 15708.23236767
0.10200000 1016951.72406226 17283.09536337
0.10300000 1007241.64752103 20426.86157262
0.10400000 997554.27298014 25138.36886174
0.10500000 987892.50395196 18848.98986224
0.10600001 978253.59760655 20411.26227448
0.10700001 968645.19180421 17261.25813023
0.10800001 959064.49126709 18816.84620421
0.10900001 949516.33252169 17233.72224639
0.11000001 940001.23202333 21911.42974982
0.11100001 930520.33943617 17196.01668225
0.11200001 921076.29231065 23418.36583447
0.11300001 911669.55918134 17148.50521557
0.11400001 902302.66322330 21790.61034284
0.11500001 892977.50062159 17091.59016671
0.11600001 883694.53505376 18610.60778463
0.11700001 874455.77229637 18573.44147829
0.11800001 865261.45459301 16989.40946111
0.11900001 856113.55338514 18492.05362413
0.12000001 847013.45937273 18447.95401413
0.12100001 837964.15867841 29136.01516979
0.12200001 828964.45484427 22941.59236862
0.12300001 820017.04956699 15252.31784055
0.12400001 811121.98289826 21291.95305430
0.12500001 802280.15955309 21228.33402206
0.12600001 793495.10180611 18139.29888207
0.12700001 784765.49644638 22601.24736277
0.12800001 776092.48911717 24027.82459548
0.12900001 767478.00400069 16462.40396172
0.13000001 758922.55936315 19386.67769272
0.13100001 750426.08746611 20801.81212511
0.13200001 741990.38155901 20723.79233387
0.13300001 733617.16933366 19169.41753839
0.13400001 725305.03745190 16156.17047093
0.13500001 717056.97433995 19016.35185608
0.13600001 708871.40740101 23307.69297432
0.13700001 700751.12712828 17406.65881865
0.13800001 692694.27460866 15886.94393731
0.13900001 684704.08348115 18692.42236054
0.14000001 676779.67811142 15745.27995382
0.14100001 668921.37251475 18522.43367851
0.14200001 661129.82127012 15599.35886862
0.14300001 653406.90150316 21170.38460726
0.14400001 645749.11109819 15449.54821178
0.14500001 638161.17770323 20963.59567645
0.14600001 630641.04856890 13905.63577693
0.14700001 623191.64603993 19368.79727267
0.14800001 615808.02660642 15139.64104839
0.14900001 608494.80174999 16429.36042240
0.15000001 601250.62538935 17703.82549991
0.15100001 594076.14590935 16253.92411902
0.15200001 586971.47025033 14818.09546569
0.15300001 579937.74978370 16075.87518261
0.15400001 572970.90374229 13321.57414067
0.15500001 566075.68310205 14570.78877069
0.15600001 559247.94934951 15804.34779450
0.15700001 552493.43245762 18331.73295414
0.15800001 545804.73583005 14319.18792035
0.15900001 539188.05879581 14234.56542409
0.16000001 532638.51529168 14149.54282662
0.16100001 526161.37738598 19178.58311103
0.16200001 519752.09087255 21603.49667693
0.16300001 513411.35175217 20207.87175894
0.16400001 507139.95288152 15062.05731165
0.16500001 500936.34009124 14967.97854858
0.16600001 494802.22977311 14873.75572921
0.16700001 488734.33526165 17242.54816213
0.16800001 482733.98519649 13461.03781279
0.16900001 476803.04239241 17021.86941715
0.17000001 470937.54390590 12079.54857158
0.17100001 465138.67109915 15600.75176535
0.17200001 459406.61031460 13113.76231070
0.17300001 453740.53307925 15395.41701442
0.17400001 448140.00970836 11763.67581040
0.17500001 442604.19881117 15190.17682059
0.17600001 437131.71054102 13927.01695560
0.17700001 431725.29498600 13832.47910467
0.17800001 426380.73971036 17172.48510293
0.17900001 421100.36436871 20465.47867498
0.18000001 415882.36504011 13549.44809302
0.18100001 410728.24653476 14576.74615807
0.18200001 405633.05631965 12248.09071415
0.18300001 400600.12472610 12162.22036122
0.18400001 395627.24593591 16467.98489004
0.18500001 390715.95396460 10900.97563060
0.18600001 385862.33211022 12988.12671243
0.18700001 381067.44271315 15044.54334909
0.18800001 376330.66425536 11735.87231928
0.18900001 371653.53439046 11651.33885364
0.19000001 367029.40020659 14721.54993786
0.19100001 362466.31730063 17746.35173356
0.19200001 357955.77491385 14507.94824278
0.19300001 353502.77140429 16459.08981432
0.19400001 349102.35095688 12253.49309761
0.19500001 344756.99472998 11149.44173644
0.19600001 340464.51891193 13078.94511206
0.19700001 336224.65239213 10984.45991275
0.19800001 332037.33899086 10902.44654100
0.19900001 327901.50409177 11804.45470518
0.20000001 323815.40943026 10739.33856131
0.20100001 319780.75361792 10658.29302182
0.20200001 315794.23541081 10577.52841502
0.20300001 311857.97013973 10497.13977105
0.20400001 307969.42760421 10417.06638108
0.20500001 304128.19716719 9397.56173666
0.20600001 300334.24712680 13988.06822112
0.20700001 296586.82636814 14805.61507215
0.20800001 292883.89586972 12854.67479736
0.20900001 289228.66244648 13666.05494661
0.21000001 285615.58460918 11751.65378427
0.21100001 282047.14769186 8969.09972060
0.21200001 278521.70117414 11568.39940516
0.21300001 275037.93103430 8828.71800358
0.21400001 271597.31444364 9634.91518539
0.21500001 268199.02408722 12165.50830775
0.21600001 264840.16102903 14654.93100341
0.21700001 261522.05691072 8551.77166530
0.21800001 258243.52738777 9331.63030336
0.21900001 255003.23178291 9256.61775139
0.22000001 251801.09149906 10851.36855123
0.22100001 248638.45020047 12419.49117475
0.22200001 245513.24078928 13961.11109763
0.22300001 242423.35953686 8145.42526560
0.22400001 239369.22643338 10502.32530638
0.22500001 236353.30492801 12018.56612391
0.22600001 233370.26768010 11124.76118638
0.22700001 230424.17777784 8668.55797793
0.22800001 227510.52366651 10159.48291477
0.22900001 224629.91338044 9299.67885374
0.23000001 221783.71855846 9221.76745377
0.23100001 218970.60214802 8382.19504664
0.23200001 216187.87625908 9066.91995911
0.23300001 213437.61462013 10488.32487847
0.23400001 210719.11010962 11141.77347400
0.23500001 208029.37332517 8837.08819681
0.23600001 205371.79668377 10951.45157613
0.23700001 202743.24036425 8685.52082801
0.23800001 200144.17744005 9327.71983078
0.23900001 197573.84440647 7823.92460856
0.24000001 195031.81552472 8460.48055765
0.24100001 192519.16932261 7687.29079467
0.24200001 190033.48701345 10390.08139393
0.24300001 187575.32351963 7551.78288212
0.24400001 185143.69808692 9525.64371717
0.24500001 182738.71083283 8091.67049845
0.24600001 180360.18493732 8018.81420164
0.24700001 178007.59368915 7946.25935819
0.24800001 175680.49665383 7874.00023252
0.24900001 173377.71848164 7151.83122570
0.25000001 171100.67718206 7086.13488073
0.25100001 168846.84369075 10850.09868887
0.25200001 166619.21263962 8220.15924447
0.25300001 164414.83803211 6890.62618792
0.25400001 162233.74884650 6205.44118697
0.25500001 160075.49672911 7990.96917479
0.25600001 157940.83185043 6697.48129149
0.25700001 155828.41772257 7839.72806655
0.25800001 153738.94608768 8959.13750715
0.25900001 151671.52732007 5915.18984536
0.26000001 149626.07826318 9372.57798587
0.26100001 147601.65679102 8121.04354090
0.26200001 145599.69805535 7467.08086809
0.26300001 143617.92469165 6824.72410428
0.26400001 141657.60419541 8446.33504982
0.26500001 139718.54466517 6689.72423512
0.26600001 137798.90596759 6622.61573418
0.26700001 135900.66752068 5463.20709285
0.26800001 134022.80752445 7030.16670137
0.26900001 132163.70178044 6423.15621048
0.27000001 130325.22831314 7416.80909428
0.27100001 128505.88537122 6291.64844551
0.27200001 126707.41501192 5707.53577931
0.27300001 124927.10863599 6674.85573030
0.27400001 123164.09370497 6096.62292692
0.27500001 121422.65307364 7540.34711272
0.27600001 119697.66337784 6465.46959334
0.27700001 117993.22226904 5904.38112178
0.27800001 116306.05114040 5840.89016470
0.27900001 114638.09270987 4814.80012169
0.28000001 112987.04206497 5238.64445328
0.28100001 111354.74879528 6123.39792607
0.28200001 109740.86371901 4658.49988536
0.28300001 108144.20757900 5989.02649919
0.28400001 106565.12054097 5466.79094250
0.28500001 105003.86767839 5405.59936394
0.28600001 103459.87099233 5344.73718844
0.28700001 101933.07540343 4403.50906586
0.28800001 100422.76721899 4788.65988150
0.28900001 98931.45212805  4733.87020840
0.29000001 97455.30781022  4253.92438727
0.29100001 95997.19181871  5886.54808096
0.29200001 94555.44852674  4571.28337541
0.29300001 93130.61147971  5339.17820887
0.29400001 91721.62655251  7711.49611744
0.29500001 90330.25096999  7219.19399926
0.29600001 88954.36226499  3962.91702650
0.29700001 87595.04530002  5481.69819437
0.29800001 86251.65745192  5415.74182778
0.29900001 84925.38498477  4585.97100627
0.30000001 83614.00485951  4152.68974793
0.30100001 82319.78191999  5593.62944627
0.30200001 81039.92902913  3683.26494874
0.30300001 79777.16816033  4365.40684840
0.30400001 78529.82858885  5029.83575924
0.30500001 77298.00752764  4612.37232753
0.30600001 76080.90717129  4554.58372344
0.30700001 74880.48620406  3459.47862641
0.30800001 73695.02191857  4440.49375593
0.30900001 72524.73923195  4046.88064074
0.31000001 71370.13735822  3662.35877193
0.31100001 70229.74186027  3615.42728214
0.31200001 69105.05990155  3568.93098759
0.31300001 67995.00099419  4483.59057784
0.31400001 66901.10559073  4425.50834436
0.31500001 65820.54997910  4367.85190342
0.31600002 64755.42182858  4618.68068061
0.31700002 63704.84691695  4861.95414691
0.31800002 62668.95491537  4797.93541550
0.31900002 61647.79455806  3846.82256257
0.32000002 60641.21569164  3795.83707595
0.32100002 59648.11125610  3745.30508311
0.32200002 58670.82172283  3126.86159178
0.32300002 57705.65011453  3084.94420120
0.32400002 56755.67880810  3043.52342020
0.32500002 55819.57555033  3275.49284839
0.32600002 54897.69094722  3769.82461586
0.32700002 53989.07663441  2921.88896581
0.32800002 53094.98784713  2882.26155177
0.32900002 52213.88456570  2584.58740839
0.33000002 51347.37292488  2804.33690509
0.33100002 50492.05480050  3771.75667221
0.33200002 49652.80841653  3472.22105699
0.33300002 48825.63714348  2690.78099040
0.33400002 48012.15631266  2653.87206586
0.33500002 47210.75817831  2617.36455735
0.33600002 46423.50988704  3050.72109670
0.33700002 45648.16431796  3008.67065268
0.33800002 44886.76574454  2510.74136082
0.33900002 44136.89002975  3151.37409737
0.34000002 43400.40599854  2663.91704635
0.34100002 42676.11076923  2189.28458614
0.34200002 41964.91746016  2806.82363725
0.34300002 41264.78643065  2342.18938873
0.34400002 40578.53968702  3149.90929238
0.34500002 39903.13692891  3727.75122845
0.34600002 39240.83174138  2246.73392776
0.34700002 38588.88639316  2417.20795815
0.34800002 37950.31008769  2185.36870990
0.34900002 37322.51049688  1959.43189389
0.35000002 36706.66167898  2705.64816050
0.35100002 36102.68986829  1906.22211533
0.35200002 35508.93171549  2632.27723274
0.35300002 34926.81722988  2040.07549102
0.35400002 34356.17324504  2012.41294314
0.35500002 33796.71416183  1985.21908389
0.35600002 33247.21527842  2670.58269373
0.35700002 32708.82519232  1932.11039562
0.35800002 32181.76417393  1906.28689113
0.35900002 31665.05616646  1880.90442538
0.36000002 31159.12391881  2024.71996815
0.36100002 30662.50086477  2164.46603857
0.36200002 30177.49871877  1971.79785968
0.36300002 29701.40171767  1946.03593272
0.36400002 29235.41615876  2080.83084366
0.36500002 28779.10095196  1737.96998881
0.36600002 28332.98418285  1715.70393846
0.36700002 27895.98967194  1693.84457311
0.36800002 27469.83542190  1672.50100889
0.36900002 27052.06832053  1501.38986291
0.37000002 26643.11172801  2075.76493306
0.37100002 26243.45713486  1757.26197299
0.37200002 25853.54461983  1735.80706800
0.37300002 25471.88175240  2286.35621440
0.37400002 25099.11813306  2117.73819280
0.37500002 24735.31514107  2371.62212807
0.37600002 24380.18817338  2205.91953043
0.37700002 24032.97204472  1498.93653744
0.37800002 23694.12325412  1616.41316497
0.37900002 23364.03907487  1731.27537746
0.38000002 23041.75022321  1580.20330517
0.38100002 22726.52283651  1692.89876629
0.38200002 22420.11071283  1288.03542147
0.38300002 22120.66924787  1656.39579175
0.38400002 21829.86993661  1386.74255342
0.38500002 21545.06642738  1995.93504839
0.38600002 21269.14026514  1605.07574615
0.38700002 20999.28355253  1466.59003279
0.38800002 20736.96980879  1573.00291937
0.38900002 20481.07324848  1317.95712598
0.39000002 20233.27322518  1898.69044940
0.39100002 19990.99197089  1528.11149865
0.39200002 19756.05663556  1281.08155323
0.39300002 19527.09227475  1384.86144974
0.39400002 19306.13258437  1487.05493276
0.39500002 19090.11841826  1587.53432288
0.39600002 18880.38525611  1574.05779338
0.39700002 18676.79792499  1226.50537784
0.39800002 18479.28152945  1437.78056752
0.39900002 18287.37432979  1206.96676295
0.40000002 18101.24052036  1415.42656955
0.40100002 17920.99120745  1512.89014941
0.40200002 17746.47754896  1609.16192799
0.40300002 17576.75514637  1278.18169480
0.40400002 17412.78973966  1163.60972948
0.40500002 17254.08936240  1050.77409196
0.40600002 17100.35249671  1148.37422633
0.40700002 16951.76459342  1348.68245495
0.40800002 16808.04302105  1237.40818584
0.40900002 16669.03265383  1332.68922382
0.41000002 16535.17291514  1019.39345852
0.41100002 16405.40817483  1013.85427324
0.41200002 16280.11385965  1109.40841153
0.41300002 16159.94150602  1103.88565658
0.41400002 16043.46092291  1098.57603875
0.41500002 15931.57737083  1292.36961756
0.41600002 15823.09727464  1385.62869400
0.41700002 15719.19350844  1281.27152358
0.41800002 15620.02345279  981.71852053
0.41900002 15522.91696329  1075.73819653
0.42000002 15430.92525582  1169.35557130
0.42100002 15342.58203908  1165.42258691
0.42200002 15257.86982775  1452.16782967
0.42300002 15176.19543774  1351.28850581
0.42400002 15097.90473998  1154.98976734
0.42500002 15023.32635798  1055.98965974
0.42600002 14951.18375881  1053.38570164
0.42700002 14883.40222684  1624.37459601
0.42800002 14818.00624043  953.53874676
0.42900002 14756.52317247  1427.69368459
0.43000002 14697.46937072  950.19143984
0.43100002 14640.46934287  1328.18344172
0.43200002 14587.32957669  1326.42594126
0.43300002 14536.53290617  1040.96117074
0.43400002 14488.60752604  945.38168587
0.43500002 14442.94095996  1039.02522190
0.43600002 14400.30562222  1415.91011740
0.43700002 14359.39872177  1132.09504887
0.43800002 14320.75509580  1131.62612130
0.43900002 14285.26796241  1319.95882228
0.44000002 14251.43884096  1037.00599641
0.44100002 14220.15505269  942.79632467
0.44200002 14190.81277335  942.97955348
0.44300002 14163.49791098  1792.24911059
0.44400002 14138.64701343  1321.25662602
0.44500002 14114.36156181  1038.67591656
0.44600002 14092.33421552  944.89105393
0.44700002 14073.36991623  945.73050319
0.44800002 14054.40205979  1230.53323066
0.44900002 14038.81861027  1137.14436132
0.45000002 14024.26244568  1043.61553935
0.45100002 14010.91922155  1234.92247871
0.45200002 13999.46763918  1141.51664540
0.45300002 13989.02885202  1143.18349197
0.45400002 13980.46721665  1240.41701258
0.45500002 13973.24349906  1146.92388076
0.45600002 13967.19991070  1148.94191911
0.45700002 13962.57889011  1151.07505825
0.45800002 13958.67971811  1057.16065855
0.45900002 13956.04794116  962.96735358
0.46000002 13955.35023555  1254.51626888
0.46100002 13954.50100968  967.04696580
0.46200002 13955.80659366  1260.00005803
0.46300002 13957.96406521  1360.06408297
0.46400002 13960.32527217  1168.47928066
0.46500002 13964.23119817  1171.31976842
0.46600002 13968.74893987  1467.76636442
0.46700002 13973.63815696  1569.51911218
0.46800002 13980.51266847  1081.88202413
0.46900002 13987.01762324  1183.30174701
0.47000002 13994.67675594  1384.21354354
0.47100002 14002.86470897  1189.68344206
0.47200002 14012.08570785  1491.23629214
0.47300002 14021.94504755  1196.35240816
0.47400002 14031.59102830  1299.67618060
0.47500002 14042.21742751  1002.61437185
0.47600002 14053.99858716  1307.23274054
0.47700002 14065.21413251  1008.47590110
