# SAXS profile: number of points = 501, q_min = 0, q_max = 0.5, delta_q = 0.001
#    q    intensity    error
0.00000000 1719190.39626457 257.87855944
0.00100000 1719101.94770677 567.30365622
0.00200000 1718836.58068956 1237.56237728
0.00300000 1718394.49202186 1752.76244430
0.00400000 1717775.60543781 1288.33175303
0.00500000 1716980.52960491 2163.39555293
0.00600000 1716009.13255440 2162.17159505
0.00700000 1714862.18348846 3292.53552914
0.00800000 1713539.41818673 2313.27831222
0.00900000 1712042.35027630 3338.48272575
0.01000000 1710370.23792802 3386.53321733
0.01100000 1708524.82671746 3075.34482199
0.01200000 1706505.92328742 4658.76137483
0.01300000 1704314.91178120 4294.87376711
0.01400000 1701951.95607572 4978.20969221
0.01500000 1699418.76963282 4486.46575161
0.01600000 1696714.74197252 4759.28506399
0.01700000 1693842.38836359 5030.71211911
0.01800000 1690802.06340276 6264.42192679
0.01900000 1687594.77419494 5569.06300613
0.02000000 1684221.39604953 7427.41669256
0.02100000 1680684.54711878 5546.25925695
0.02200000 1676983.03640127 7521.26925997
0.02300000 1673119.91403889 11444.14073294
0.02400000 1669095.78064816 7510.93135540
0.02500000 1664913.19825693 9090.42647765
0.02600000 1660572.34235465 7397.85012355
0.02700000 1656075.34944066 10433.27517933
0.02800000 1651422.61938714 9338.79534091
0.02900000 1646617.70712816 8150.75802452
0.03000000 1641661.05593887 8397.09668710
0.03100000 1636554.42311879 12568.73854788
0.03200000 1631299.06052939 10497.40993800
0.03300000 1625899.34670632 13267.33928075
0.03400000 1620353.53694823 10208.22775379
0.03500000 1614665.71149811 10463.03429367
0.03600000 1608836.60347712 8929.04356194
0.03700000 1602869.49700534 12790.89917765
0.03800000 1596765.71155454 9341.07984490
0.03900000 1590527.90332588 12406.11822047
0.04000000 1584156.21387681 9742.56116680
0.04100000 1577654.57970771 13914.91403821
0.04200000 1571025.07369901 10133.11219546
0.04300000 1564268.93734639 15486.26319857
0.04400000 1557389.59305174 13666.09431371
0.04500000 1550388.89685725 12837.22066246
0.04600000 1543267.88188789 11968.04298040
0.04700000 1536030.29046413 18801.01162968
0.04800000 1528678.32483772 14606.52207344
0.04900000 1521214.39299950 13690.93017427
0.05000000 1513640.00759667 16211.08523625
0.05100000 1505959.40472194 21143.67102725
0.05200000 1498171.90552568 16674.65408556
0.05300000 1490283.06914811 15692.68144969
0.05400000 1482293.79853585 13451.81684902
0.05500000 1474207.71299388 17336.68351355
0.05600000 1466025.65774892 12534.51995867
0.05700000 1457752.80310300 13950.69497689
0.05800000 1449388.35197484 12827.08751390
0.05900000 1440936.46862964 14265.27170570
0.06000000 1432400.77854810 14417.11450964
0.06100000 1423782.89331667 15889.41783195
0.06200000 1415085.65104551 18721.58403844
0.06300000 1406312.28108004 18900.83794143
0.06400000 1397462.47155588 16350.31168185
0.06500000 1388541.89860559 23369.16124669
0.06600000 1379552.84073804 16637.40803774
0.06700000 1370496.21259720 16774.87442724
0.06800000 1361376.29759564 15499.26987363
0.06900000 1352196.61334065 17037.67812578
0.07000000 1342956.50238296 18593.23364618
0.07100000 1333660.64189115 14403.53560705
0.07200000 1324311.79176667 21751.82219877
0.07300000 1314912.68900655 24812.40360415
0.07400000 1305466.21160755 17623.79468263
0.07500000 1295973.28146127 20683.73454162
0.07600000 1286437.01351010 20801.68748365
0.07700000 1276861.53223836 19421.06481597
0.07800000 1267247.95295320 18020.26673608
0.07900000 1257598.23469219 18109.41542897
0.08000000 1247917.69913873 18194.64090697
0.08100000 1238207.29861613 19798.93563380
0.08200000 1228468.11811967 15294.42878828
0.08300000 1218703.93918293 16891.23738981
0.08400000 1208917.68685001 18496.44147700
0.08500000 1199111.56587040 15468.53992590
0.08600000 1189287.95219007 23280.31275717
0.08700000 1179448.84551587 23353.08823782
0.08800000 1169596.48227703 18736.93652604
0.08900000 1159734.24214642 17222.05430479
0.09000000 1149864.09510021 17265.21019897
0.09100000 1139988.17262966 20451.38877781
0.09200000 1130107.97896419 22071.00986621
0.09300000 1120228.54840320 17374.74560221
0.09400000 1110347.89710307 22151.44158827
0.09500000 1100471.00100431 20600.81810709
0.09600000 1090599.14668445 19041.86199623
0.09700000 1080737.22232259 19064.20549803
0.09800000 1070884.25691459 17492.89515918
0.09900000 1061044.12159993 15915.66257239
0.10000000 1051215.95059699 23888.88360074
0.10100000 1041404.62773380 22306.88817519
0.10200000 1031611.61731463 22313.76033207
0.10300000 1021837.74109679 22316.93731536
0.10400000 1012086.57766116 25504.58295693
0.10500000 1002360.64135892 25500.05591593
0.10600001 992657.25060296 25491.43939495
0.10700001 982984.03380016 15924.34209692
0.10800001 973338.22060927 15914.08065591
0.10900001 963724.64613314 17491.60315057
0.11000001 954143.84541899 17475.14535140
0.11100001 944596.93894862 19043.07518563
0.11200001 935086.57337607 17434.68998137
0.11300001 925613.22374741 23741.98030691
0.11400001 916179.40977575 15804.09556276
0.11500001 906787.34404572 23667.15079403
0.11600001 897436.81295805 23625.02521366
0.11700001 888130.47126826 25151.85613084
0.11800001 878868.28665889 17256.57962130
0.11900001 869652.33547631 17219.11705348
0.12000001 860484.00893469 17179.56404762
0.12100001 851366.20177268 15580.00222638
0.12200001 842297.58553545 24864.62589641
0.12300001 833281.36485442 24798.45458643
0.12400001 824317.15323988 15455.94735149
0.12500001 815405.89541164 16952.28936441
0.12600001 806551.17268475 21510.72078916
0.12700001 797752.02136142 15316.83953197
0.12800001 789008.95941251 19847.52130942
0.12900001 780324.52089689 18259.59464960
0.13000001 771698.95261130 16680.27364692
0.13100001 763132.07977301 22665.02383763
0.13200001 754625.84494240 19571.22221117
0.13300001 746181.98144339 14998.25853407
0.13400001 737798.98203056 19422.55911764
0.13500001 729480.08870817 17857.67341353
0.13600001 721223.41552342 22231.71283175
0.13700001 713031.96803678 16235.73867777
0.13800001 704903.72511934 17636.69203416
0.13900001 696842.33222133 14633.68966675
0.14000001 688846.57256791 16026.01626659
0.14100001 680916.82370708 15953.88193189
0.14200001 673053.60676761 15880.70060070
0.14300001 665258.94348740 17243.51262853
0.14400001 657529.58863671 20021.77691841
0.14500001 649869.80829533 15655.36442033
0.14600001 642277.78629924 21243.33878399
0.14700001 634756.36273181 18319.06949267
0.14800001 627300.87864017 15422.19282897
0.14900001 619915.76529424 15342.91591492
0.15000001 612599.41836532 13875.37748066
0.15100001 605352.88254622 16562.45564796
0.15200001 598176.21665283 16473.77378397
0.15300001 591070.37816563 17749.84429391
0.15400001 584031.44866487 20368.09773338
0.15500001 577064.21276551 17554.29418077
0.15600001 570164.46780444 18798.32339070
0.15700001 563337.91699244 18691.55296799
0.15800001 556577.20173959 18584.11364323
0.15900001 549888.49472639 18476.25429490
0.16000001 543267.01549632 14431.88894788
0.16100001 536717.82658701 16954.91694223
0.16200001 530236.77546982 12964.28977223
0.16300001 523824.18044089 14174.68299189
0.16400001 517480.98455831 12807.65497246
0.16500001 511205.58167376 14001.92154309
0.16600001 504999.79012348 13915.26987383
0.16700001 498860.40256976 18856.92410746
0.16800001 492788.52241587 13741.40859639
0.16900001 486786.18495108 16136.96279308
0.17000001 480849.33685003 16033.92189438
0.17100001 474979.16458132 20832.58714228
0.17200001 469175.92835967 14610.13909905
0.17300001 463438.70242372 12095.75070447
0.17400001 457767.45195428 16822.95465380
0.17500001 452160.71743057 14324.45220471
0.17600001 446617.32868360 15414.99782755
0.17700001 441140.33874434 15311.98188101
0.17800001 435725.38312188 12869.14979834
0.17900001 430374.65436960 16268.16270357
0.18000001 425086.33597468 15003.42293691
0.18100001 419862.20672742 14900.91042062
0.18200001 414697.02368071 12521.77722154
0.18300001 409594.41760893 15826.72904405
0.18400001 404551.81424817 12348.94471330
0.18500001 399571.19869177 18951.66284927
0.18600001 394648.18823874 16604.82330461
0.18700001 389784.17649819 12091.10572622
0.18800001 384978.39441853 12005.55179716
0.18900001 380232.61088720 11920.29291452
0.19000001 375539.71444860 12911.05599277
0.19100001 370908.34324614 13886.80902729
0.19200001 366329.63867307 16968.38966512
0.19300001 361808.37621220 13687.21151886
0.19400001 357340.35227590 14633.08811717
0.19500001 352927.19569831 11413.66604824
0.19600001 348567.25591925 14420.22805883
0.19700001 344260.22527847 12269.43500875
0.19800001 340005.83337278 13193.92698756
0.19900001 335803.29100790 11081.50912697
0.20000001 331650.60770925 14998.89944252
0.20100001 327549.58997436 14887.12956793
0.20200001 323496.97100829 12805.62820260
0.20300001 319494.75261801 11731.84787063
0.20400001 315540.68449987 10673.16415768
0.20500001 311633.98736328 9629.49066468
0.20600001 307774.76217148 12423.32886228
0.20700001 303962.51890289 12328.72034947
0.20800001 300194.73770550 12234.43711351
0.20900001 296475.25653666 11206.76522684
0.21000001 292797.86787810 11120.46354770
0.21100001 289165.48695312 9195.46291981
0.21200001 285576.35284605 10948.99788573
0.21300001 282029.17023131 9958.45047166
0.21400001 278525.32249096 12575.41890499
0.21500001 275064.25448741 9803.29049341
0.21600001 271642.77276408 9726.16993866
0.21700001 268262.23453983 11403.82812946
0.21800001 264921.65187381 10443.21201063
0.21900001 261619.63990104 12086.82793491
0.22000001 258355.93140063 11133.84939015
0.22100001 255132.12857326 10195.08033985
0.22200001 251945.81759066 12641.38199535
0.22300001 248795.45844364 10031.43335879
0.22400001 245680.88311729 8291.73019729
0.22500001 242604.90595651 11514.02938116
0.22600001 239562.04987595 8157.08818401
0.22700001 236556.56412579 9708.28185082
0.22800001 233583.66819698 11233.03913480
0.22900001 230644.14179972 7957.22326839
0.23000001 227739.48153113 8680.29074907
0.23100001 224868.10510919 9390.49251346
0.23200001 222027.30303170 9311.82552954
0.23300001 219219.38799655 7694.60088259
0.23400001 216443.45815949 10681.48516535
0.23500001 213696.63289403 9834.31951091
0.23600001 210982.43684540 9000.51118152
0.23700001 208297.36926647 7436.21643453
0.23800001 205642.26925899 10321.18598229
0.23900001 203016.07818176 7308.57916024
0.24000001 200418.59450848 11592.21205469
0.24100001 197850.79923520 11491.17496313
0.24200001 195310.31976882 9254.77994002
0.24300001 192797.48582692 7762.02714656
0.24400001 190311.70652142 8392.74665460
0.24500001 187852.91336339 7624.95011411
0.24600001 185420.62682271 8930.78491339
0.24700001 183014.87348301 7488.96897720
0.24800001 180635.02169238 6746.71837938
0.24900001 178279.64969256 6685.48717974
0.25000001 175950.41828613 8611.89363043
0.25100001 173644.60460267 7876.51963741
0.25200001 171365.37014182 7803.97932546
0.25300001 169109.75285090 9020.31464382
0.25400001 166877.70539881 7659.68704019
0.25500001 164668.79721657 6955.61032351
0.25600001 162483.81584061 8769.25195581
0.25700001 160321.58454223 7445.33473841
0.25800001 158182.45633935 6759.92759150
0.25900001 156065.88430709 9129.85466394
0.26000001 153971.54156548 8439.18059251
0.26100001 151898.45993227 6566.57073358
0.26200001 149848.19466631 7684.96502709
0.26300001 147818.40006824 8195.05248755
0.26400001 145810.64196333 5795.97329230
0.26500001 143824.33101804 8034.02751083
0.26600001 141857.79829657 6249.54559968
0.26700001 139912.89662083 7311.84832340
0.26800001 137988.83694857 6681.41980122
0.26900001 136083.72935687 6613.66955971
0.27000001 134199.73606346 8728.35124661
0.27100001 132335.20840962 8098.91513793
0.27200001 130491.87182315 6412.37088485
0.27300001 128666.96893018 5817.03394062
0.27400001 126859.74203193 7326.15044905
0.27500001 125074.42016000 6213.69748761
0.27600001 123305.84028378 7172.70106876
0.27700001 121558.20926770 5068.97756636
0.27800001 119828.21385723 8525.17867835
0.27900001 118117.57782846 7441.40775538
0.28000001 116424.31026294 6870.19887377
0.28100001 114750.17297107 6795.50556497
0.28200001 113094.77455700 7201.31011075
0.28300001 111456.87698972 5697.67582139
0.28400001 109836.86631135 6104.18413417
0.28500001 108235.11751883 4643.28676133
0.28600001 106650.86541711 5509.58396823
0.28700001 105084.17067124 4993.60002666
0.28800001 103534.21520688 4937.02928582
0.28900001 102003.80509427 4880.88230479
0.29000001 100488.68997088 5702.23098231
0.29100001 98992.00950447  4335.85022153
0.29200001 97511.98465417  7714.17347114
0.29300001 96049.31032097  4659.35226423
0.29400001 94602.72067497  4604.78764683
0.29500001 93174.07428778  4550.62200363
0.29600001 91761.25997488  4496.76075793
0.29700001 90365.33390694  5251.12980191
0.29800001 88985.51754092  3991.00065064
0.29900001 87623.34633879  4337.35584910
0.30000001 86276.25660375  4284.91048707
0.30100001 84946.73098669  5387.32193421
0.30200001 83631.94862065  4941.39391818
0.30300001 82334.44215607  4129.89581406
0.30400001 81052.65833552  4078.97522384
0.30500001 79786.70110230  4394.65170477
0.30600001 78535.89381258  3978.23588942
0.30700001 77302.01208519  4642.75906564
0.30800001 76083.44177001  4231.76123160
0.30900001 74880.34056896  4178.32320157
0.31000001 73693.28626613  4812.90875391
0.31100001 72520.69436415  4072.76238832
0.31200001 71364.07180665  4020.65199595
0.31300001 70222.54082573  3968.97819539
0.31400001 69097.31574543  3591.33315591
0.31500001 67985.77343266  4511.53613860
0.31600002 66889.95514983  3180.61751797
0.31700002 65808.98569311  4708.63314929
0.31800002 64743.01897207  3407.74896495
0.31900002 63692.21578203  4280.11710321
0.32000002 62656.09129426  3318.58003253
0.32100002 61633.80750618  3869.98695656
0.32200002 60627.67467182  3818.63427002
0.32300002 59633.83535583  4057.48634974
0.32400002 58655.56376806  3145.40475600
0.32500002 57691.53622460  2821.11625497
0.32600002 56741.88876859  3339.82773107
0.32700002 55805.88523033  2745.64968335
0.32800002 54884.62640038  3791.97901756
0.32900002 53976.66746596  3206.21419930
0.33000002 53083.50795262  3162.71555358
0.33100002 52202.04585943  2599.66200690
0.33200002 51336.68212231  2820.69413278
0.33300002 50483.77944227  2782.16121681
0.33400002 49644.85841929  2993.58510445
0.33500002 48818.25663631  2952.52830118
0.33600002 48006.11486771  3640.06383222
0.33700002 47206.09356640  2632.68396287
0.33800002 46420.48366677  2832.57804749
0.33900002 45646.44491234  3026.35944101
0.34000002 44886.21717085  3214.30216383
0.34100002 44138.27835623  3170.01130167
0.34200002 43403.88846748  3126.38223437
0.34300002 42680.68422618  2642.78809245
0.34400002 41971.75997598  2606.44641795
0.34500002 41273.77637837  2998.95273368
0.34600002 40589.16665579  2746.46609184
0.34700002 39915.30277971  2291.93679416
0.34800002 39254.96194494  3082.49603272
0.34900002 38605.67962194  2229.47810376
0.35000002 37968.67849190  2398.86122073
0.35100002 37343.64642831  2168.91908728
0.35200002 36729.23977623  1944.81333826
0.35300002 36126.66667607  2877.48913704
0.35400002 35535.73346684  2838.41684510
0.35500002 34956.36051774  1866.66974006
0.35600002 34387.12520280  2025.57370601
0.35700002 33829.17985600  2179.95245317
0.35800002 33282.79957737  2150.73461056
0.35900002 32747.11686887  2652.51659202
0.36000002 32222.45612110  2268.29990608
0.36100002 31707.24254170  2066.04402188
0.36200002 31203.92944613  2208.77025047
0.36300002 30709.74475305  1844.42735723
0.36400002 30225.87331419  2151.32663504
0.36500002 29751.99047169  2450.07653140
0.36600002 29288.45187739  1934.79522267
0.36700002 28834.26262247  1750.81650937
0.36800002 28391.15353324  1885.74050700
0.36900002 27956.70259986  2172.23589491
0.37000002 27531.18522221  2144.95474227
0.37100002 27115.25678505  1815.63768033
0.37200002 26709.23075866  1643.81968491
0.37300002 26311.63541664  1623.69109848
0.37400002 25923.26717404  1895.63900190
0.37500002 25543.95398038  1440.67907274
0.37600002 25173.63070319  2135.35332555
0.37700002 24811.40384008  2110.20999656
0.37800002 24457.70703365  1807.54692395
0.37900002 24113.07294955  1511.88974556
0.38000002 23776.34462073  1358.81815945
0.38100002 23446.84328301  1477.85460214
0.38200002 23126.37682001  1328.61041125
0.38300002 22813.14494630  1971.05581674
0.38400002 22508.69382961  2079.80340838
0.38500002 22210.50141678  1800.38333014
0.38600002 21921.38066721  1654.29707042
0.38700002 21638.33391552  1511.22131225
0.38800002 21363.25400777  1994.47348865
0.38900002 21094.62224667  1480.84255187
0.39000002 20834.38927515  1466.32438665
0.39100002 20579.81524740  1331.10251326
0.39200002 20332.73148770  1678.06040918
0.39300002 20091.75429930  1187.42273535
0.39400002 19859.05074995  1294.31369395
0.39500002 19631.45952586  1282.71962619
0.39600002 19410.35794340  1502.65293138
0.39700002 19195.51265187  1604.36102346
0.39800002 18986.96209981  1590.91762972
0.39900002 18784.09830777  1352.45514224
0.40000002 18587.27452748  1677.03692370
0.40100002 18396.47243455  1331.16880843
0.40200002 18211.54137082  1100.88772803
0.40300002 18031.57167194  1420.52728362
0.40400002 17857.51598988  1301.81297734
0.40500002 17688.96148769  1831.33826959
0.40600002 17525.40502808  1069.92602766
0.40700002 17367.30926366  1381.74319049
0.40800002 17214.05013534  1584.12303876
0.40900002 17065.79426241  1259.45567624
0.41000002 16922.87871860  1147.62507468
0.41100002 16784.06844861  1140.98102720
0.41200002 16649.95255953  1340.90399292
0.41300002 16521.15808025  1128.56036194
0.41400002 16396.12020764  1224.79023754
0.41500002 16275.83285299  1015.61201815
0.41600002 16159.07588563  1111.82526899
0.41700002 16047.14115695  1710.46485697
0.41800002 15939.91878945  1402.55352074
0.41900002 15835.02775171  1396.64951388
0.42000002 15735.36379309  1093.05709768
0.42100002 15639.48056693  1286.97291684
0.42200002 15547.32379062  986.47774126
0.42300002 15458.27519013  1179.77561841
0.42400002 15372.92855149  1176.02908992
0.42500002 15291.27477451  1465.66875659
0.42600002 15212.21774963  1266.64537094
0.42700002 15137.60416579  1069.01765685
0.42800002 15065.72566327  1260.32334008
0.42900002 14997.67067762  1160.81976546
0.43000002 14932.15029635  1254.97263113
0.43100002 14868.90600661  1059.85567038
0.43200002 14809.59083311  1058.07126721
0.43300002 14752.73931612  960.40337499
0.43400002 14698.88660678  1150.92287585
0.43500002 14647.45594651  1532.70986288
0.43600002 14599.11107735  1052.66895412
0.43700002 14552.57760838  956.10439418
0.43800002 14508.41843160  1337.53115859
0.43900002 14467.62500630  1145.83595480
0.44000002 14428.52524475  1049.89168919
0.44100002 14392.11388231  1145.03663474
0.44200002 14357.62983504  1049.47100253
0.44300002 14325.41144293  954.07244731
0.44400002 14295.67727007  1145.08380360
0.44500002 14266.60471845  954.43590090
0.44600002 14239.93166146  1050.26620946
0.44700002 14216.42481042  1050.87817179
0.44800002 14193.00857344  1051.48908999
0.44900002 14173.08937163  956.68357792
0.45000002 14154.26806229  957.53627979
0.45100002 14136.79757991  1246.01739775
0.45200002 14121.30788474  1247.40579112
0.45300002 14106.78919496  1056.73962868
0.45400002 14094.33262908  1346.71354653
0.45500002 14083.28837114  1155.95636429
0.45600002 14073.55282855  1254.16471976
0.45700002 14065.32811951  1256.17451389
0.45800002 14057.86831326  1258.24956301
0.45900002 14051.70553242  1066.52450046
0.46000002 14047.61160223  1068.53162717
0.46100002 14043.43396140  1459.81502947
0.46200002 14041.48528343  975.18119915
0.46300002 14040.50599479  1563.55082168
0.46400002 14039.78247647  1370.98482381
0.46500002 14040.74656020  1079.59305418
0.46600002 14042.24507162  1278.75710805
0.46700002 14044.23704990  985.90548763
0.46800002 14048.33158326  1185.96020847
0.46900002 14052.14618659  1188.81162373
0.47000002 14057.17029289  1092.45304109
0.47100002 14062.74748155  995.64256888
0.47200002 14069.44675321  1597.16367113
0.47300002 14076.90357697  1301.12825929
0.47400002 14084.16157469  1605.59449562
0.47500002 14092.47433786  1106.82298696
0.47600002 14102.00785457  1210.79845178
0.47700002 14111.05120884  1315.29114552
