# SAXS profile: number of points = 501, q_min = 0, q_max = 0.5, delta_q = 0.001
#    q    intensity    error
0.00000000 1700912.83420644 306.16431016
0.00100000 1700824.89236130 561.27222781
0.00200000 1700561.04279357 994.82824154
0.00300000 1700121.48733009 1224.08751448
0.00400000 1699506.14495239 1274.62965715
0.00500000 1698715.61286597 1528.84411209
0.00600000 1697749.78734346 2495.69228900
0.00700000 1696609.40265769 2646.71077814
0.00800000 1695294.22395939 2288.64729897
0.00900000 1693805.73944810 2794.77958956
0.01000000 1692143.22592780 3071.24008767
0.01100000 1690308.40128733 3955.32183122
0.01200000 1688301.09165343 3950.62472768
0.01300000 1686122.67930415 4603.11511752
0.01400000 1683773.31238948 5682.73518124
0.01500000 1681254.72039697 4842.01381035
0.01600000 1678566.27931101 5136.41304431
0.01700000 1675710.49027338 6334.18593738
0.01800000 1672687.68826407 8104.17221431
0.01900000 1669498.97265818 6010.19657276
0.02000000 1666145.12616431 5248.35738483
0.02100000 1662628.73397634 7132.67759214
0.02200000 1658948.67211664 6295.71049671
0.02300000 1655107.99993481 8937.58360647
0.02400000 1651107.26049458 7429.98301101
0.02500000 1646949.03507898 6423.10153016
0.02600000 1642633.48007386 6652.66589858
0.02700000 1638162.80221098 6880.28408441
0.02800000 1633537.26173613 9948.24238020
0.02900000 1628760.49044049 7329.42254351
0.03000000 1623832.91193217 9060.98806507
0.03100000 1618756.29022827 10101.03971581
0.03200000 1613531.89399701 10383.07821610
0.03300000 1608164.07442142 9841.96458918
0.03400000 1602650.95340860 9255.30968298
0.03500000 1596996.91535156 12073.29723758
0.03600000 1591202.40322914 11480.52586986
0.03700000 1585270.76016146 16264.87875147
0.03800000 1579203.31495244 10162.17380202
0.03900000 1573002.81480232 10381.81905848
0.04000000 1566669.18086134 10598.51749965
0.04100000 1560206.72895509 11795.16341780
0.04200000 1553616.97110532 13027.07890708
0.04300000 1546901.57157895 14293.37118486
0.04400000 1540063.87796445 15593.14748857
0.04500000 1533105.62664254 12694.11517843
0.04600000 1526027.76652992 12910.19550500
0.04700000 1518834.38613464 16403.41213314
0.04800000 1511527.33136354 13331.67168292
0.04900000 1504109.05469210 11280.81843528
0.05000000 1496581.31361125 12593.73234048
0.05100000 1488948.04095225 15097.93383858
0.05200000 1481208.65912930 15308.29220549
0.05300000 1473368.70664105 19094.85932823
0.05400000 1465429.15284997 14507.74928977
0.05500000 1457393.33443016 14690.52549636
0.05600000 1449262.68589875 19825.91446825
0.05700000 1441041.63994722 13790.76913803
0.05800000 1432729.89291091 19019.49021646
0.05900000 1424331.47958427 17946.57748097
0.06000000 1415850.00924870 15546.03382784
0.06100000 1407286.80581665 19631.65185856
0.06200000 1398645.19507989 22469.23610925
0.06300000 1389928.08901922 14677.64130630
0.06400000 1381135.00876427 13466.06696522
0.06500000 1372272.22397190 17661.14434867
0.06600000 1363341.46473712 15071.74059785
0.06700000 1354343.70056752 13814.30639228
0.06800000 1345283.35591005 16708.42006251
0.06900000 1336163.78662573 19641.60858300
0.07000000 1326984.50313456 19785.33986825
0.07100000 1317750.34878593 17078.04532016
0.07200000 1308463.43411218 21491.51291210
0.07300000 1299127.07298794 24514.52901593
0.07400000 1289743.75252483 17411.54147506
0.07500000 1280314.74155150 14595.58873782
0.07600000 1270842.75254427 16146.05792801
0.07700000 1261332.26279384 19184.86461664
0.07800000 1251784.12553562 22250.46387486
0.07900000 1242200.54026425 19378.32933704
0.08000000 1232586.70613346 20966.30085488
0.08100000 1222943.22841850 19554.86313989
0.08200000 1213271.69564210 19636.80331543
0.08300000 1203575.53944538 18198.06301049
0.08400000 1193858.06958722 18266.02932207
0.08500000 1184120.87487538 22912.74000448
0.08600000 1174366.96157286 24520.78330893
0.08700000 1164597.67933292 16909.95909797
0.08800000 1154815.77162822 23125.18691290
0.08900000 1145024.41255701 21640.96241380
0.09000000 1135225.60831223 24793.32845022
0.09100000 1125421.26420112 18636.97701076
0.09200000 1115613.45529599 17119.08927589
0.09300000 1105806.25109080 20269.42953500
0.09400000 1095998.64474774 20303.37584816
0.09500000 1086195.01985282 23461.81353159
0.09600000 1076396.78541565 25058.51834242
0.09700000 1066608.79181765 15679.14997684
0.09800000 1056830.27256098 17263.32331397
0.09900000 1047064.71811985 18847.16581240
0.10000000 1037311.57677003 18858.32535253
0.10100000 1027575.48375097 22010.66789715
0.10200000 1017857.84247060 17298.49484645
0.10300000 1008160.06764419 17300.02757458
0.10400000 998485.19661901 20443.98536256
0.10500000 988835.67074539 17294.73669504
0.10600001 979208.87326085 17287.93347088
0.10700001 969612.55279432 21990.81373221
0.10800001 960044.04199678 18836.06499043
0.10900001 950507.86992081 18820.05671021
0.11000001 941004.74353040 17234.50268898
0.11100001 931535.65833984 17214.77977648
0.11200001 922103.19856637 18755.57994180
0.11300001 912708.20161205 23410.96647356
0.11400001 903352.86201329 17141.12136378
0.11500001 894039.36624152 20223.17141665
0.11600001 884767.63987076 21738.74193533
0.11700001 875540.26037277 23245.59500765
0.11800001 866357.04214107 18557.36871668
0.11900001 857220.23950607 16972.96154167
0.12000001 848131.19850512 21551.01476917
0.12100001 839092.83921537 23033.09952151
0.12200001 830103.84799380 16846.95838872
0.12300001 821167.14637155 19855.82253476
0.12400001 812282.68426424 16753.33115232
0.12500001 803451.28441910 19740.79898837
0.12600001 794676.29256671 22707.87613017
0.12700001 785957.20655005 18108.45489230
0.12800001 777294.23502966 18048.77298801
0.12900001 768689.57978328 17987.33701471
0.13000001 760144.02994895 20911.56324956
0.13100001 751657.27372085 16371.09619333
0.13200001 743231.13902077 17792.95430692
0.13300001 734867.39888691 16247.91895536
0.13400001 726564.57770410 14712.93339216
0.13500001 718325.66687373 14653.84429513
0.13600001 710149.17008966 21890.34920016
0.13700001 702037.61750150 15985.39730427
0.13800001 693989.49682613 20257.55436761
0.13900001 686008.00494989 21609.25317497
0.14000001 678092.09930268 15775.81343427
0.14100001 670242.14892876 17131.39013459
0.14200001 662458.79210941 19893.63846533
0.14300001 654743.78543395 18385.20636217
0.14400001 647094.06783480 18296.58563108
0.14500001 639513.86904801 19607.49614994
0.14600001 632001.32344700 16722.75580729
0.14700001 624559.23352019 15251.73720209
0.14800001 617183.02110257 16552.84940691
0.14900001 609876.91986813 16466.67761335
0.15000001 602639.63299176 15014.76716443
0.15100001 595472.02311208 13576.76276757
0.15200001 588373.99911489 18904.45748361
0.15300001 581346.71588954 16114.93172491
0.15400001 574386.23086549 18696.27269697
0.15500001 567497.15339510 14607.37741776
0.15600001 560675.61465696 15844.69361799
0.15700001 553926.88368370 17066.48809178
0.15800001 547243.83667295 16967.29595688
0.15900001 540632.81651851 12975.18820888
0.16000001 534088.72725393 21927.01373242
0.16100001 527616.81659428 14103.19817330
0.16200001 521212.60630808 14018.01370839
0.16300001 514876.86573840 16465.76294363
0.16400001 508610.21643371 18882.15517652
0.16500001 502411.20812392 15012.04760748
0.16600001 496281.48709603 13675.03702257
0.16700001 490217.98619702 13588.84321897
0.16800001 484221.83605540 23322.54583481
0.16900001 478294.94332889 12196.52163078
0.17000001 472433.19089847 12117.91191875
0.17100001 466637.93624781 21670.66678267
0.17200001 460909.50266212 14352.72259068
0.17300001 455246.69324915 11881.93925492
0.17400001 449649.44150623 20065.60727483
0.17500001 444116.62757137 11724.67952161
0.17600001 438646.98814542 11646.07808529
0.17700001 433243.33615317 12724.35738380
0.17800001 427901.37349109 12638.06766298
0.17900001 422623.46586491 18257.33458772
0.18000001 417407.66465026 13599.14235666
0.18100001 412255.76185119 12380.04111318
0.18200001 407162.45394223 17882.57582188
0.18300001 402131.37420712 14428.47438814
0.18400001 397160.13770473 12123.31377615
0.18500001 392250.44508558 12038.16672838
0.18600001 387398.11647607 13039.82121663
0.18700001 382604.59589685 11868.39512544
0.18800001 377868.74572440 12855.09533690
0.18900001 373192.72418200 12763.19177005
0.19000001 368569.19639250 13727.36036824
0.19100001 364006.89839378 10483.39916908
0.19200001 359496.80677175 13529.66296215
0.19300001 355044.09656749 13431.31880781
0.19400001 350644.06832367 16410.14317299
0.19500001 346298.74257475 10181.18351281
0.19600001 342006.22987673 12127.54148453
0.19700001 337766.13097691 12037.98547690
0.19800001 333578.43330825 16927.43839820
0.19900001 329442.24104770 9883.26769851
0.20000001 325355.57213190 11771.36515606
0.20100001 321320.13223213 12656.80060681
0.20200001 317332.89227260 10629.06572904
0.20300001 313395.47352710 11507.88233183
0.20400001 309506.05480105 17131.16094296
0.20500001 305663.48451924 14167.50317712
0.20600001 301868.13418166 10310.30661032
0.20700001 298119.26989571 13021.85032458
0.20800001 294414.72912672 13844.85329163
0.20900001 290758.02499638 13738.31733051
0.21000001 287142.97314589 13632.11329452
0.21100001 283572.48923810 10821.12670088
0.21200001 280045.13162423 9842.18661622
0.21300001 276559.07235496 12428.56529920
0.21400001 273116.05229017 10569.59172332
0.21500001 269715.41848961 10486.53596665
0.21600001 266354.04772793 13871.71946151
0.21700001 263033.36940658 14622.02569663
0.21800001 259751.99970896 12799.28039082
0.21900001 256508.94686683 9311.27521152
0.22000001 253303.93112473 10076.43085658
0.22100001 250138.22922523 9995.52411246
0.22200001 247009.74735383 9914.97172761
0.22300001 243916.76612659 9834.72447526
0.22400001 240859.39276091 14632.20880213
0.22500001 237839.86756012 10481.60345902
0.22600001 234853.27364548 8796.42978036
0.22700001 231903.56403297 7931.10226498
0.22800001 228986.18718622 8652.24349200
0.22900001 226101.75684774 9360.61317617
0.23000001 223251.72061980 8509.23973384
0.23100001 220434.56811942 7671.12333334
0.23200001 217647.78470197 8367.46947859
0.23300001 214893.27821996 7542.75442225
0.23400001 212170.50725935 8974.81288154
0.23500001 209476.44564676 8157.01317928
0.23600001 206814.50765830 8822.70731399
0.23700001 204181.43279717 8018.20524519
0.23800001 201577.77359610 8671.87623027
0.23900001 199002.81414284 10029.74230720
0.24000001 196456.07943468 9942.64265048
0.24100001 193938.56264624 9151.96120417
0.24200001 191448.13155911 8373.94167050
0.24300001 188984.84579340 8300.21481987
0.24400001 186548.19763883 8226.77590503
0.24500001 184138.18212831 11550.98871132
0.24600001 181754.36824085 7407.39962806
0.24700001 179396.53666705 7340.90662768
0.24800001 177064.28453798 7936.02160842
0.24900001 174756.12009458 7208.69029493
0.25000001 172473.63900154 7142.99609717
0.25100001 170214.20411536 7077.50694195
0.25200001 167981.15228964 7012.37353408
0.25300001 165771.12374138 7579.05613602
0.25400001 163584.31987413 6257.10053122
0.25500001 161420.31712916 7438.24856523
0.25600001 159279.83604596 8596.33315812
0.25700001 157161.65468080 7298.58758870
0.25800001 155066.13601276 9638.91147061
0.25900001 152992.87026852 6563.39444506
0.26000001 150941.46663679 8864.03804765
0.26100001 148910.85113308 8778.29508965
0.26200001 146902.83340591 6954.38046250
0.26300001 144914.76080393 6886.34975925
0.26400001 142948.33146901 6818.63573372
0.26500001 141003.04898868 7876.43068921
0.26600001 139077.07093929 6127.04065016
0.26700001 137172.44807572 7168.63247566
0.26800001 135288.15907996 5458.87747720
0.26900001 133422.59278433 7565.06136886
0.27000001 131577.68056707 5883.49626498
0.27100001 129751.84709490 6882.03829559
0.27200001 127946.80640551 6811.24856133
0.27300001 126159.85674143 8814.78960768
0.27400001 124390.21594075 5644.20631542
0.27500001 122642.12861397 6600.59967438
0.27600001 120910.21522931 7535.72952080
0.27700001 119199.18135606 5467.66670757
0.27800001 117505.19394610 6392.87037919
0.27900001 115830.23417879 5837.84407890
0.28000001 114172.39343394 5293.60327210
0.28100001 112533.23302910 5712.18717891
0.28200001 110912.34871441 4708.22942577
0.28300001 109308.70363689 4656.55099533
0.28400001 107722.55071783 4605.13926115
0.28500001 106154.25769584 5009.41965777
0.28600001 104603.18768372 4953.48418722
0.28700001 103069.21269199 6233.62627866
0.28800001 101551.73568088 4842.49474515
0.28900001 100053.30889648 5222.78297161
0.29000001 98569.91625888  5163.09245803
0.29100001 97104.60246089  5529.13632584
0.29200001 95655.53140331  5044.87296501
0.29300001 94223.46018630  4155.25479091
0.29400001 92807.13971585  5338.73096487
0.29500001 91408.39022631  5681.94580543
0.29600001 90025.13929233  4411.68215986
0.29700001 88658.43998719  4359.33570053
0.29800001 87307.61888154  3915.74689220
0.29900001 85973.91801209  4642.59179243
0.30000001 84655.00312848  4204.39092941
0.30100001 83353.22244631  5286.26161780
0.30200001 82065.93320721  5594.84526127
0.30300001 80795.55837129  5157.98869061
0.30400001 79540.66012067  4002.88391008
0.30500001 78301.26239207  3594.02811395
0.30600001 77076.49668777  4969.12197671
0.30700001 75868.49807459  3855.63725469
0.30800001 74675.36518097  3461.20334000
0.30900001 73497.32143693  4442.91329121
0.31000001 72335.11948831  3374.43348389
0.31100001 71186.97387488  4331.01569560
0.31200001 70054.55941725  4933.59258054
0.31300001 68936.90595496  3571.62126663
0.31400001 67835.15119529  3846.25325488
0.31500001 66746.78431195  4112.93704404
0.31600002 65673.83420184  3435.07006057
0.31700002 64615.39087383  3390.36971968
0.31800002 63571.72655806  3650.28871180
0.31900002 62542.79149398  4202.87578740
0.32000002 61528.30332016  2962.58794514
0.32100002 60527.24865695  4092.85274798
0.32200002 59542.17985808  2884.81875072
0.32300002 58569.00650749  3131.09923615
0.32400002 57611.20578077  3370.25569776
0.32500002 56667.19442182  4156.53890766
0.32600002 55737.34564660  3007.30862676
0.32700002 54820.75524808  3506.33567170
0.32800002 53918.75945079  2926.97999539
0.32900002 53029.65509080  4724.94249233
0.33000002 52155.09350710  3884.25077288
0.33100002 51291.87937618  3831.50357084
0.33200002 50444.50258017  3275.61393016
0.33300002 49609.38197088  3728.14523166
0.33400002 48787.85029956  3187.06647174
0.33500002 47978.46879330  2418.11494169
0.33600002 47183.12001805  3577.66024479
0.33700002 46399.73039048  2352.46644220
0.33800002 45630.40480230  2320.30619408
0.33900002 44872.41235481  3661.58902156
0.34000002 44127.91879193  2257.14315310
0.34100002 43395.48053673  3339.28238544
0.34200002 42676.31894796  2415.26638524
0.34300002 41968.14677368  2598.66777130
0.34400002 41273.87902897  2349.51567500
0.34500002 40590.33425377  2527.96613705
0.34600002 39919.87506480  2701.17847419
0.34700002 39259.93251601  2664.17914671
0.34800002 38613.31435499  3234.25136355
0.34900002 37977.40607458  2193.19530468
0.35000002 37353.56417815  2163.33177184
0.35100002 36741.41947423  2715.92585617
0.35200002 36139.68381192  1913.59634847
0.35300002 35549.50769068  2642.75052689
0.35400002 34970.77644437  2234.63272064
0.35500002 34403.34009419  2571.99382726
0.35600002 33845.81958074  2174.93246927
0.35700002 33299.42389826  2145.81497764
0.35800002 32764.19342906  2470.09265961
0.35900002 32239.51927158  1740.93412313
0.36000002 31725.64948603  2748.71040166
0.36100002 31220.98146323  2373.41912325
0.36200002 30728.03831699  2509.71264842
0.36300002 30243.98301095  2146.71801580
0.36400002 29770.00819430  1955.88963101
0.36500002 29305.75627522  2091.55192443
0.36600002 28851.71008527  1747.11538697
0.36700002 28406.83683105  1724.86321409
0.36800002 27972.76062223  1548.29237378
0.36900002 27547.14896240  2140.41357577
0.37000002 27130.28823931  2566.66104046
0.37100002 26722.83108389  1640.24744963
0.37200002 26325.04576321  2356.61820836
0.37300002 25935.50423993  1891.47641382
0.37400002 25555.04948773  1868.71308231
0.37500002 25183.45446831  1562.38158923
0.37600002 24820.59624753  1824.68621958
0.37700002 24465.62464858  1664.64117995
0.37800002 24119.12840520  1508.28976627
0.37900002 23781.40425211  1491.09411724
0.38000002 23451.45479575  1474.27577558
0.38100002 23128.58850946  2252.95591344
0.38200002 22814.48810979  1441.76164440
0.38300002 22507.56934943  1426.07966154
0.38400002 22209.22410458  1795.61585392
0.38500002 21916.96362787  1395.89147959
0.38600002 21633.63777323  1381.41600545
0.38700002 21356.21886640  1864.39799536
0.38800002 21086.58538951  1599.52301050
0.38900002 20823.29485952  1461.79536839
0.39000002 20568.18432286  1568.22128799
0.39100002 20318.64332457  1553.15716931
0.39200002 20076.44269717  1183.50635307
0.39300002 19840.21582217  1407.06817277
0.39400002 19612.06332584  1162.01480711
0.39500002 19388.94772674  1497.21461439
0.39600002 19172.19056995  1370.04480304
0.39700002 18961.54911535  1471.60589656
0.39800002 18757.03404205  1459.39110279
0.39900002 18558.13286295  1447.53443189
0.40000002 18365.13859396  1215.12945264
0.40100002 18178.09800457  1644.20904242
0.40200002 17996.65034809  1087.89756509
0.40300002 17820.23360286  1295.88744900
0.40400002 17649.53415725  1608.31387628
0.40500002 17484.14026140  1171.26261161
0.40600002 17323.83796668  1374.90646537
0.40700002 17168.74468373  1365.94539176
0.40800002 17018.42399489  1148.48839771
0.40900002 16872.95190046  1348.99256836
0.41000002 16732.80991338  1237.89333605
0.41100002 16596.62410343  1333.37284365
0.41200002 16465.03698958  1224.01090780
0.41300002 16338.72203524  1116.09815511
0.41400002 16216.03880050  1110.39330948
0.41500002 16098.04396304  1004.51799089
0.41600002 15983.54850149  999.77100614
0.41700002 15873.71202697  995.28179125
0.41800002 15768.53982161  991.05277475
0.41900002 15665.65092115  1283.01687124
0.42000002 15567.87342001  1081.42237836
0.42100002 15473.77750889  1567.18426036
0.42200002 15383.39306102  1073.68396957
0.42300002 15296.07161338  1167.39624085
0.42400002 15212.31181841  1454.67738657
0.42500002 15132.27737420  1160.34308404
0.42600002 15054.75307569  964.25698019
0.42700002 14981.62326722  1058.00228527
0.42800002 14911.12703885  1055.48417746
0.42900002 14844.38562701  1244.70179381
0.43000002 14780.21716744  1242.20341070
0.43100002 14718.24935055  1716.73668560
0.43200002 14660.18193035  1237.83251995
0.43300002 14604.48857325  950.75225117
0.43400002 14551.73377548  1329.30094338
0.43500002 14501.32270721  1232.90251499
0.43600002 14454.08373655  947.46523383
0.43700002 14408.52089579  1135.96784126
0.43800002 14365.40750656  1135.15455496
0.43900002 14325.54699077  1040.03476082
0.44000002 14287.38892597  1323.15515114
0.44100002 14251.83892313  944.89696538
0.44200002 14218.22608800  1039.28128515
0.44300002 14186.85211313  1511.75103282
0.44400002 14158.00928503  1039.55188102
0.44500002 14129.75238373  1039.80852720
0.44600002 14103.85112888  1134.79591561
0.44700002 14081.10012546  1324.74996258
0.44800002 14058.49996799  1041.52401949
0.44900002 14039.28688366  1231.94748243
0.45000002 14021.20497292  1422.80184206
0.45100002 14004.48614937  1424.25630889
0.45200002 13989.66295216  1140.71717118
0.45300002 13975.87543747  1713.16289232
0.45400002 13964.13589385  1143.66278391
0.45500002 13953.79686087  1336.21565072
0.45600002 13944.74738762  1147.09497447
0.45700002 13937.21942868  957.48702013
0.45800002 13930.43393436  1150.93250620
0.45900002 13924.99447185  960.82466410
0.46000002 13921.56288390  1925.35223809
0.46100002 13918.12082657  1060.97840089
0.46200002 13916.89693327  1643.09851430
0.46300002 13916.62643961  1162.31669532
0.46400002 13916.64144596  1358.96010161
0.46500002 13918.31216164  1070.17907283
0.46600002 13920.58295964  1462.70532381
0.46700002 13923.39045400  1172.90646744
0.46800002 13928.23731400  1273.80700393
0.46900002 13932.82057406  1375.16945584
0.47000002 13938.66820623  1181.72034653
0.47100002 13945.02264358  1086.03841496
0.47200002 13952.59325254  1583.89846110
0.47300002 13960.88121154  1091.88057131
0.47400002 13969.02455215  1691.99817908
0.47500002 13978.21781678  1397.26271919
0.47600002 13988.64963413  1401.24310027
0.47700002 13998.60414801  1104.06996148
