# SAXS profile: number of points = 501, q_min = 0, q_max = 0.5, delta_q = 0.001
#    q    intensity    error
0.00000000 1719190.39626458 309.45427133
0.00100000 1719101.95617851 670.44977883
0.00200000 1718836.61540876 1005.51945185
0.00300000 1718394.56954652 1134.14045630
0.00400000 1717775.74701090 1417.16504513
0.00500000 1716980.74092032 1545.28272799
0.00600000 1716009.44775373 2522.53399090
0.00700000 1714862.60612075 2263.61873416
0.00800000 1713539.97631598 2544.60697226
0.00900000 1712043.05133642 2568.06468678
0.01000000 1710371.09319709 3950.95739589
0.01100000 1708525.85817792 3997.95068220
0.01200000 1706507.15786192 4325.99583485
0.01300000 1704316.37195762 3936.97099286
0.01400000 1701953.62350031 4212.33540490
0.01500000 1699420.67098449 5710.05370877
0.01600000 1696716.92621821 6922.60536843
0.01700000 1693844.81908173 6860.07182501
0.01800000 1690804.74802011 6264.43187330
0.01900000 1687597.80103348 6075.35235786
0.02000000 1684224.71300359 5305.30808595
0.02100000 1680688.19478447 6100.89842367
0.02200000 1676986.98531779 6364.16589842
0.02300000 1673124.20281838 6625.57214475
0.02400000 1669100.45904117 6259.12700681
0.02500000 1664918.17190274 7791.81740036
0.02600000 1660577.71368856 8742.94206246
0.02700000 1656081.13150031 6955.54107087
0.02800000 1651428.73833665 12212.31608005
0.02900000 1646624.27252847 11855.69530655
0.03000000 1641668.00660372 9923.88355607
0.03100000 1636561.79137559 13354.34483210
0.03200000 1631306.80448233 10497.45977034
0.03300000 1625907.51069661 11608.98016155
0.03400000 1620362.02637415 9357.59113407
0.03500000 1614674.70484280 12206.94133230
0.03600000 1608846.06532284 12500.73450526
0.03700000 1602879.32162742 10963.69506698
0.03800000 1596775.93699935 13077.59552925
0.03900000 1590538.59761293 14314.84804144
0.04000000 1584167.27632747 10716.89212097
0.04100000 1577666.14326241 9939.29716340
0.04200000 1571036.94719072 14186.46429128
0.04300000 1564281.26075430 12389.10816025
0.04400000 1557402.35813400 12614.95968675
0.04500000 1550402.05909652 16046.66205726
0.04600000 1543281.31133817 14144.17387593
0.04700000 1536044.20921539 11059.51882071
0.04800000 1528692.56185820 20224.60353440
0.04900000 1521228.99558858 14831.98339738
0.05000000 1513655.00613915 12737.40746979
0.05100000 1505974.69399026 14095.92379239
0.05200000 1498187.57690442 13101.65097058
0.05300000 1490299.01256353 14485.70707741
0.05400000 1482310.00003900 14674.86968473
0.05500000 1474224.11127364 16098.52804609
0.05600000 1466042.52163719 16295.06338839
0.05700000 1457769.84085417 16487.37766967
0.05800000 1449405.56557252 15392.68782510
0.05900000 1440953.89378238 16859.16134467
0.06000000 1432418.48330039 18349.28162833
0.06100000 1423800.62959191 15889.61576879
0.06200000 1415103.61260398 20059.09464629
0.06300000 1406330.39637960 17551.00416742
0.06400000 1397480.52712684 16350.52293204
0.06500000 1388560.09176379 16496.09466180
0.06600000 1379571.10565468 13864.69026054
0.06700000 1370514.43717709 15377.17270476
0.06800000 1361394.58365422 21135.65190057
0.06900000 1352214.78800383 17037.90712654
0.07000000 1342974.48328592 21454.01837515
0.07100000 1333678.72957878 18724.85024032
0.07200000 1324329.68835411 15951.55184350
0.07300000 1314930.41412665 14595.72828070
0.07400000 1305483.78999659 16155.36265832
0.07500000 1295990.52268285 19206.58044642
0.07600000 1286454.05962073 16344.39959372
0.07700000 1276878.27972877 16433.42423065
0.07800000 1267264.22926981 15017.08182109
0.07900000 1257614.29083841 22637.05829685
0.08000000 1247933.41898597 21227.34845275
0.08100000 1238222.49924415 15230.13745527
0.08200000 1228482.72050558 18353.53270560
0.08300000 1218718.06818919 16891.43321785
0.08400000 1208931.28765836 18496.64956938
0.08500000 1199124.49521691 17015.57738593
0.08600000 1189300.29887512 15520.36962902
0.08700000 1179460.48570163 21796.43079928
0.08800000 1169607.38264858 20298.53707916
0.08900000 1159744.40039137 18787.86016880
0.09000000 1149873.48046196 15695.77374562
0.09100000 1139996.64811770 22024.73627638
0.09200000 1130115.71488644 18918.13795610
0.09300000 1120235.18836632 17374.84858804
0.09400000 1110353.66796765 20569.30266581
0.09500000 1100475.68099717 17431.53560632
0.09600000 1090602.71439701 17455.09726445
0.09700000 1080739.73183630 20652.93724634
0.09800000 1070885.49046671 19083.18033736
0.09900000 1061044.33834363 17507.23240590
0.10000000 1051214.86824623 17518.49660317
0.10100000 1041402.14830352 17526.79898026
0.10200000 1031607.63494715 17532.17258058
0.10300000 1021832.50970524 17534.64669138
0.10400000 1012079.90778263 15940.25929749
0.10500000 1002352.62590092 19124.88900200
0.10600001 992647.65761905 20711.59435078
0.10700001 982972.85858767 19108.99327017
0.10800001 973325.53126763 22279.42245922
0.10900001 963710.22439286 17491.34139597
0.11000001 954127.77855003 20652.09673880
0.11100001 944579.08433375 22216.50110934
0.11200001 935066.91188756 17434.32339290
0.11300001 925591.77017142 18993.14401813
0.11400001 916156.08686500 22125.17053954
0.11500001 906762.10087693 17355.42742802
0.11600001 897409.63303150 15749.53980137
0.11700001 888101.42534456 22007.15435646
0.11800001 878837.15791040 21962.14161056
0.11900001 869619.11326035 17218.45925357
0.12000001 860448.63992036 18740.57226024
0.12100001 851328.63627817 28042.76660005
0.12200001 842257.86514223 17093.62417836
0.12300001 833239.52059808 15498.25581332
0.12400001 824273.01003966 18546.14359974
0.12500001 815359.49391586 21574.41322561
0.12600001 806502.34790033 18436.64454180
0.12700001 797700.97543236 18379.03134010
0.12800001 788955.55149435 19846.17783318
0.12900001 780268.58715880 19779.80961674
0.13000001 771640.62801658 15162.73905522
0.13100001 763071.29986859 22663.21867439
0.13200001 754562.49221290 16558.87467220
0.13300001 746116.11363713 19496.01496844
0.13400001 737730.57373603 17926.85378696
0.13500001 729409.11572800 19343.93066114
0.13600001 721149.88360271 26675.33545223
0.13700001 712955.63423563 17709.81878949
0.13800001 704824.67420415 19104.27369518
0.13900001 696760.74157788 17558.37151578
0.14000001 688762.15522885 20394.24837813
0.14100001 680829.67476868 14501.67275651
0.14200001 672963.77984819 17322.08851029
0.14300001 665166.30073672 17241.11132832
0.14400001 657434.11284196 14299.19262880
0.14500001 649771.65552080 15652.99991988
0.14600001 642176.82945476 15575.99973321
0.14700001 634652.63167119 15498.21799656
0.14800001 627194.36986873 19624.91275907
0.14900001 619806.42795732 16734.77434441
0.15000001 612487.28154762 15260.12133978
0.15100001 605237.87554866 16559.30905636
0.15200001 598058.31905372 15097.98297694
0.15300001 590949.64139724 16381.12483254
0.15400001 583907.87451877 17648.61634019
0.15500001 576937.78771554 21600.55179146
0.15600001 570035.25426858 14766.76395874
0.15700001 563205.78101155 17352.37093194
0.15800001 556442.30725919 14598.26461996
0.15900001 549750.76862346 17152.22479065
0.16000001 543126.49469571 18363.10765245
0.16100001 536574.51642582 14342.63750110
0.16200001 530090.54336194 15552.85727643
0.16300001 523675.21515961 19323.61635162
0.16400001 517329.29113113 12803.90055996
0.16500001 511051.13391478 12725.17383525
0.16600001 504842.60673075 15175.56947481
0.16700001 498700.57498955 18850.88262464
0.16800001 492626.09338063 17483.30087958
0.16900001 486620.93429992 17372.36817480
0.17000001 480681.50433972 12329.48116851
0.17100001 474808.65382499 17150.08938601
0.17200001 469002.90796210 17038.87645089
0.17300001 463263.12423217 13300.28492480
0.17400001 457589.34466178 14414.06503757
0.17500001 451980.09177544 13125.50248504
0.17600001 446434.27826418 15408.67984203
0.17700001 440954.89946835 17660.24455781
0.17800001 435537.66439919 14033.02420975
0.17900001 430184.53464471 11614.98298402
0.18000001 424893.94181417 14996.63238470
0.18100001 419667.54690226 16039.69440026
0.18200001 414500.16626294 13653.63612167
0.18300001 409395.37633321 18078.90067291
0.18400001 404350.63785276 11220.73073049
0.18500001 399367.98566608 12256.60405912
0.18600001 394442.99715188 16596.18988923
0.18700001 389577.04856338 16479.10993278
0.18800001 384769.27560344 13089.85137447
0.18900001 380021.70032356 10830.61897094
0.19000001 375326.90767795 11828.42805435
0.19100001 370693.86118833 11743.58207733
0.19200001 366113.37925294 15898.47424528
0.19300001 361590.58303300 13678.97240251
0.19400001 357120.96130947 11490.36747310
0.19500001 352706.30278483 11406.52237108
0.19600001 348345.00794604 11322.95501837
0.19700001 344036.52604024 11239.67383689
0.19800001 339780.76421576 16227.93006586
0.19900001 335577.10048410 11074.04483933
0.20000001 331423.17941835 10991.65026489
0.20100001 327321.10418240 12893.17890311
0.20200001 323267.46786079 11812.19383392
0.20300001 319264.32947541 13677.28452118
0.20400001 315309.33900321 9695.76263263
0.20500001 311401.80997426 12509.01129793
0.20600001 307541.87607172 10504.09327374
0.20700001 303728.97816773 14214.51685016
0.20800001 299960.62575051 11284.51927416
0.20900001 296240.64696660 10264.73890262
0.21000001 292562.73679110 11111.53326859
0.21100001 288930.05269012 12863.16655385
0.21200001 285340.67579409 18233.27004521
0.21300001 281793.26566463 11759.23353211
0.21400001 278289.32451809 9872.31425401
0.21500001 274828.22938047 8904.43505291
0.21600001 271406.76621484 11484.57785536
0.21700001 268026.35808813 11393.80102102
0.21800001 264686.01724729 12172.91050875
0.21900001 261384.28785165 10350.81828833
0.22000001 258121.03310547 10268.05518244
0.22100001 254897.66557979 10185.71119818
0.22200001 251711.86694016 12629.64352091
0.22300001 248562.18823775 13362.70387152
0.22400001 245448.29261201 11597.43237432
0.22500001 242373.12321926 9038.09419223
0.22600001 239331.24545024 13038.76686871
0.22700001 236326.68986940 12123.55976361
0.22800001 233354.78593889 8817.31100367
0.22900001 230416.40454444 8744.30296599
0.23000001 227513.00386302 10248.32374367
0.23100001 224642.92221973 8599.33146926
0.23200001 221803.54002615 11628.05113580
0.23300001 218997.12349015 8455.47933785
0.23400001 216222.77493573 7621.85317696
0.23500001 213477.58327871 7557.10680549
0.23600001 210765.14275805 8241.97129737
0.23700001 208081.86093880 7428.52278687
0.23800001 205428.70358714 10310.46712071
0.23900001 202804.44745401 8761.15254441
0.24000001 200209.06390181 7961.31380263
0.24100001 197643.38576845 8609.34629131
0.24200001 195105.18119500 7822.74261004
0.24300001 192594.59961664 7753.85894734
0.24400001 190111.22379798 8383.90536608
0.24500001 187654.83261525 11079.14184170
0.24600001 185225.21466832 10293.89179215
0.24700001 182822.00291880 8841.27247940
0.24800001 180444.82938434 7413.57616597
0.24900001 178092.25499469 10017.68981736
0.25000001 175765.87384393 8602.86110228
0.25100001 173463.00736498 7212.59218746
0.25200001 171186.74504333 11693.76710714
0.25300001 168934.19217140 9010.95023673
0.25400001 166705.25880151 6376.47645084
0.25500001 164499.50583244 6948.45945511
0.25600001 162317.85330681 6883.08889513
0.25700001 160158.98105577 9297.22929017
0.25800001 158023.21189310 9822.72331603
0.25900001 155910.13591460 7296.59470604
0.26000001 153819.35872845 6624.23099707
0.26100001 151749.78023799 8349.27330375
0.26200001 149703.21579894 7086.95057125
0.26300001 147677.08913051 8772.01950942
0.26400001 145673.11065890 7527.65834949
0.26500001 143690.61037669 9746.53456305
0.26600001 141727.95487929 6243.82534766
0.26700001 139786.99738617 7305.26882909
0.26800001 137866.95276269 8344.39771083
0.26900001 135965.83718190 7158.60166638
0.27000001 134085.92198132 5450.59298647
0.27100001 132225.53424419 5934.28225771
0.27200001 130386.29623485 6941.11480854
0.27300001 128565.65147402 5284.04852565
0.27400001 126762.65365039 7320.54359475
0.27500001 124981.68506479 5691.66620721
0.27600001 123217.36210352 5631.64980146
0.27700001 121474.15000404 5572.01952439
0.27800001 119748.48697217 6013.76930036
0.27900001 118042.28723685 5949.33155831
0.28000001 116353.50371308 5394.73045498
0.28100001 114683.89558473 7276.69351925
0.28200001 113032.95030046 6237.72365756
0.28300001 111399.62622189 5694.74916200
0.28400001 109784.16978438 7039.91022063
0.28500001 108186.97818011 6033.58805868
0.28600001 106607.31646022 5966.27874809
0.28700001 105045.23679841 4991.74988893
0.28800001 103499.93811379 5832.73928848
0.28900001 101974.16526762 5323.05167893
0.29000001 100463.67893768 4385.23979320
0.29100001 98971.66493504  4768.45504228
0.29200001 97496.28314510  5998.94658588
0.29300001 96038.27114090  4235.28795779
0.29400001 94596.41806988  4185.89169774
0.29500001 93172.39593880  5791.59640571
0.29600001 91764.26787852  6132.14749126
0.29700001 90373.02655451  4039.67447822
0.29800001 88997.85389244  4390.70932963
0.29900001 87640.33695428  5126.95995453
0.30000001 86297.86394628  3896.34874163
0.30100001 84972.97597094  5004.05879182
0.30200001 83662.85519333  4562.97233826
0.30300001 82369.91648470  4507.28204342
0.30400001 81092.80252573  4080.99548031
0.30500001 79831.35354073  3664.25930099
0.30600001 78585.09979368  4342.61282019
0.30700001 77355.75023376  3931.21941300
0.30800001 76141.69900742  3529.16791608
0.30900001 74942.97071103  3484.84830305
0.31000001 73760.43591330  4473.20184774
0.31100001 72592.22573403  4416.51122276
0.31200001 71439.99481190  3689.51870674
0.31300001 70302.82973591  3973.51612480
0.31400001 69181.88373285  4576.38182560
0.31500001 68074.61433992  3226.73687249
0.31600002 66982.99023331  4777.56200460
0.31700002 65906.21123758  3458.09906737
0.31800002 64844.43011544  3723.36735352
0.31900002 63797.68288012  3674.74670789
0.32000002 62765.61890052  3324.38116247
0.32100002 61747.35257571  2982.39727062
0.32200002 60745.18440095  4414.65648537
0.32300002 59755.23611047  3484.92553498
0.32400002 58780.80851410  4011.79037105
0.32500002 57820.52118958  2827.42362005
0.32600002 56874.67094178  4463.52438687
0.32700002 55942.27692706  4128.54023271
0.32800002 55024.64859614  3258.55984417
0.32900002 54120.20870481  2678.95045775
0.33000002 53230.56039460  2642.89744874
0.33100002 52352.51092903  3650.01723482
0.33200002 51490.49602341  3086.34047780
0.33300002 50640.88640397  2790.81938188
0.33400002 49805.19754594  3754.06694280
0.33500002 48981.76296459  2468.68097032
0.33600002 48172.67399055  3165.66742120
0.33700002 47375.63602682  3122.52831840
0.33800002 46592.97618100  2606.17824611
0.33900002 45821.80237527  2570.60323499
0.34000002 45064.32487373  2535.54435910
0.34100002 44319.09823789  2500.92683200
0.34200002 43587.33436973  2691.08215143
0.34300002 42866.69606733  2211.92162183
0.34400002 42160.22032195  2181.79150499
0.34500002 41464.64018316  2152.01492743
0.34600002 40782.31870912  2547.26374721
0.34700002 40110.69557690  2303.15624911
0.34800002 39452.50843574  2271.87280587
0.34900002 38805.28041567  2444.73278197
0.35000002 38170.26631325  3014.49692486
0.35100002 37547.10308349  2577.23327771
0.35200002 36934.48643684  2933.52172419
0.35300002 36333.58321801  2315.17603231
0.35400002 35744.32260379  2474.40084944
0.35500002 35166.51721436  2629.04895147
0.35600002 34598.71745384  2408.58982963
0.35700002 34042.14885164  1828.06347992
0.35800002 33497.01758228  1984.19593047
0.35900002 32962.57488420  2135.97495367
0.36000002 32438.97631579  1932.22771577
0.36100002 31924.74212887  2253.56765362
0.36200002 31422.39493994  2737.51917683
0.36300002 30929.06509304  2533.09055111
0.36400002 30445.92903243  2000.29763218
0.36500002 29972.65601834  1974.59867202
0.36600002 29509.68939398  1624.50847809
0.36700002 29055.98009186  2887.00231868
0.36800002 28613.28997488  2058.86937767
0.36900002 28179.13117087  1876.73022488
0.37000002 27753.83072345  1544.50075292
0.37100002 27337.93624185  1525.45691456
0.37200002 26932.00051983  1808.21460056
0.37300002 26534.29400016  1786.28875671
0.37400002 26145.85228532  1617.77468679
0.37500002 25766.29190448  1743.86271870
0.37600002 25395.69641519  2010.57738043
0.37700002 25032.99769422  1561.30814015
0.37800002 24678.81464885  1823.88788302
0.37900002 24333.61399546  1664.41927614
0.38000002 23996.21009137  1508.52181886
0.38100002 23665.98927651  1762.87962472
0.38200002 23344.65421442  1475.26549297
0.38300002 23030.52436592  1459.21409295
0.38400002 22725.06260735  1574.84691330
0.38500002 22425.77816131  1298.45261705
0.38600002 22135.54313352  1798.95567569
0.38700002 21851.24377412  1653.26518227
0.38800002 21574.83153317  1510.66977552
0.38900002 21304.81981086  1370.96521978
0.39000002 21043.09394138  1357.59526995
0.39100002 20786.98711367  1833.41235029
0.39200002 20538.29530993  1816.09884882
0.39300002 20295.60802211  1199.47049093
0.39400002 20061.12164842  1426.34581678
0.39500002 19831.68827805  1649.20327534
0.39600002 19608.68140573  1401.23643964
0.39700002 19391.86089997  1157.69415058
0.39800002 19181.28349160  1492.39983277
0.39900002 18976.30378750  1480.15176555
0.40000002 18777.26880660  1355.34332667
0.40100002 18584.23269428  1456.81806993
0.40200002 18396.93989301  1334.51408307
0.40300002 18214.67210292  1545.33285443
0.40400002 18038.17850736  1424.56521511
0.40500002 17867.13597344  1088.10863234
0.40600002 17701.01872178  1296.77669300
0.40700002 17540.33317965  1395.50897389
0.40800002 17384.42015820  1813.10818631
0.40900002 17233.44220248  1059.85674567
0.41000002 17087.81160829  1053.46363557
0.41100002 16946.16249652  1047.27289191
0.41200002 16809.16408327  1145.46054073
0.41300002 16677.46518747  1346.37182838
0.41400002 16549.43772185  1133.22280170
0.41500002 16426.17222576  1127.49251500
0.41600002 16306.39374965  1121.96147511
0.41700002 16191.36846264  1015.19885071
0.41800002 16081.02694674  1313.90036894
0.41900002 15972.97008636  1106.92687944
0.42000002 15870.10779200  1403.07629638
0.42100002 15771.00019271  998.30435950
0.42200002 15675.58307557  1094.07737260
0.42300002 15583.24096520  1090.20358958
0.42400002 15494.55323383  1284.11116010
0.42500002 15409.53648324  984.66942794
0.42600002 15327.10527284  1668.89193672
0.42700002 15249.09318172  1272.68937725
0.42800002 15173.79639746  1171.72061334
0.42900002 15102.28513954  974.09743766
0.43000002 15033.29874959  1166.28337226
0.43100002 14966.58132274  1163.80141881
0.43200002 14903.78707952  1839.20193170
0.43300002 14843.41334187  1062.93687978
0.43400002 14786.01793608  1157.74525926
0.43500002 14731.02017704  1059.74964176
0.43600002 14679.13309907  1154.66066429
0.43700002 14629.03361991  1057.24030981
0.43800002 14581.30796177  1344.25084470
0.43900002 14536.96000552  1055.38334642
0.44000002 14494.30678524  1342.31781499
0.44100002 14454.30162799  1341.64834069
0.44200002 14416.25794667  1149.55246314
0.44300002 14380.44644974  1340.83289052
0.44400002 14347.16535373  1244.97533257
0.44500002 14314.53273223  1244.93497072
0.44600002 14284.28295359  1340.86570440
0.44700002 14257.22571187  1245.51129722
0.44800002 14230.29447378  958.41037823
0.44900002 14206.87807735  1246.65361037
0.45000002 14184.51179888  1151.49872240
0.45100002 14163.56136513  1056.31845667
0.45200002 14144.56696032  1057.23570755
0.45300002 14126.55036723  1058.21993816
0.45400002 14110.65137811  1348.27280308
0.45500002 14096.20747502  1349.85289178
0.45600002 14083.05131907  965.39321368
0.45700002 14071.43027782  1256.71949767
0.45800002 14060.64964785  1161.69092896
0.45900002 14051.11419256  1260.38500281
0.46000002 14043.70213256  1068.23425334
0.46100002 14036.26648311  1459.06997007
0.46200002 14031.06397558  1071.90318322
0.46300002 14026.85598070  1073.89614478
0.46400002 14022.96463599  1564.96292755
0.46500002 14020.75907630  1078.05621647
0.46600002 14019.13802285  1080.24473155
0.46700002 14018.05056302  1082.47391578
0.46800002 14019.10073960  1380.74129728
0.46900002 14019.89382511  1186.08307382
0.47000002 14021.96565017  1188.78230417
0.47100002 14024.58036729  1092.23437077
0.47200002 14028.39523096  1592.50350210
0.47300002 14033.00651719  997.74681066
0.47400002 14037.44932235  1400.23563627
0.47500002 14043.00280882  1303.47158250
0.47600002 14049.79818708  1105.78941873
