# SAXS profile: number of points = 501, q_min = 0, q_max = 0.5, delta_q = 0.001
#    q    intensity    error
0.00000000 1682732.95097187 328.13292544
0.00100000 1682645.45269344 555.27301258
0.00200000 1682382.93320079 984.19404709
0.00300000 1681945.60035608 1110.08413578
0.00400000 1681333.34995011 1387.10006642
0.00500000 1680546.80866738 2117.48906273
0.00600000 1679585.85324560 1939.92173948
0.00700000 1678451.22419682 2014.14155274
0.00800000 1677142.68844262 2943.38554249
0.00900000 1675661.69455604 2513.49264928
0.01000000 1674007.60281143 2762.11266391
0.01100000 1672182.07557325 4815.88458733
0.01200000 1670184.89929525 3256.86069642
0.01300000 1668017.52917622 4203.40435891
0.01400000 1665680.07409981 4497.33639944
0.01500000 1663174.26540564 5588.26578060
0.01600000 1660499.47524025 4657.70123626
0.01700000 1657658.22195627 4923.24514006
0.01800000 1654650.82160705 6130.48156991
0.01900000 1651478.29443572 6440.76563892
0.02000000 1648141.61750153 5710.81096298
0.02100000 1644643.15089295 5970.05490841
0.02200000 1640981.93953075 7925.94312803
0.02300000 1637160.93078099 10019.42535245
0.02400000 1633180.74077166 8574.19928001
0.02500000 1629043.83209627 8894.57972947
0.02600000 1624750.55891777 8554.31208396
0.02700000 1620302.87057630 9527.38131535
0.02800000 1615701.28975331 7731.13102602
0.02900000 1610949.20590133 9424.05328722
0.03000000 1606047.16186220 8961.74357512
0.03100000 1600996.96995496 10758.70013314
0.03200000 1595799.73881944 13428.65542066
0.03300000 1590459.83715503 8111.34554343
0.03400000 1584975.52220795 8321.12187553
0.03500000 1579351.16162072 10234.19599990
0.03600000 1573587.01543049 9606.74917317
0.03700000 1567686.62913511 9829.39561926
0.03800000 1561651.21643066 10962.79204670
0.03900000 1555483.43721031 14932.64168875
0.04000000 1549183.39373819 13338.46963818
0.04100000 1542755.32603451 12635.16670607
0.04200000 1536200.72695695 10899.34466341
0.04300000 1529521.19513257 11104.32439210
0.04400000 1522720.01568864 11306.19664157
0.04500000 1515799.19398099 13596.71940178
0.04600000 1508759.50379016 12764.10599543
0.04700000 1501605.12341937 12973.86886973
0.04800000 1494337.61322092 14278.39655867
0.04900000 1486959.69495950 16728.29734695
0.05000000 1479473.00100727 12449.76588321
0.05100000 1471881.64563086 12628.74510781
0.05200000 1464184.60176741 15132.34856445
0.05300000 1456388.00574603 16515.44075507
0.05400000 1448492.27358458 13145.06799579
0.05500000 1440501.10436418 15730.27279346
0.05600000 1432415.52966834 13471.86868518
0.05700000 1424240.49897007 13629.98221137
0.05800000 1415975.36377959 15037.65906548
0.05900000 1407624.34362579 17736.06755806
0.06000000 1399190.79514055 12802.59637366
0.06100000 1390676.17217574 16813.27570731
0.06200000 1382083.70134592 15672.82990587
0.06300000 1373416.44491698 14503.27833643
0.06400000 1364673.75921358 14636.12675205
0.06500000 1355862.24348893 14765.34052228
0.06600000 1346983.24515267 21659.49159547
0.06700000 1338037.77086744 21836.77744249
0.06800000 1329030.14815349 17882.10148045
0.06900000 1319964.09021508 16631.54831538
0.07000000 1310839.05567599 13960.43659670
0.07100000 1301659.48270859 18275.29999320
0.07200000 1292427.81350834 22643.33635343
0.07300000 1283147.16516230 17091.52104080
0.07400000 1273820.16108468 17196.57298055
0.07500000 1264448.00379223 14414.70791888
0.07600000 1255033.42567150 17394.76409528
0.07700000 1245580.77053623 24774.60268761
0.07800000 1236091.16013874 16112.44902802
0.07900000 1226566.24058608 16190.67513514
0.08000000 1217011.88114990 20701.37306948
0.08100000 1207428.24043626 25247.32569208
0.08200000 1197817.15493575 19386.67156236
0.08300000 1188181.84290686 16468.20111557
0.08400000 1178525.71881786 22539.30543036
0.08500000 1168850.25385094 22617.25347379
0.08600000 1159158.48425498 16639.72082274
0.08700000 1149451.84069023 24276.42401534
0.08800000 1139732.91610785 19780.06568800
0.08900000 1130005.07446887 21357.09691060
0.09000000 1120270.19854539 18350.02671418
0.09100000 1110529.99455496 15325.31464486
0.09200000 1100786.89195090 19962.77122351
0.09300000 1091044.75709005 18460.47815746
0.09400000 1081302.50016990 18490.27362190
0.09500000 1071564.66234036 24688.85098076
0.09600000 1061832.65388413 16994.63242430
0.09700000 1052111.10770850 20105.84421354
0.09800000 1042399.39711058 15479.63177491
0.09900000 1032700.83913839 23235.76997322
0.10000000 1023015.36363940 18598.42018560
0.10100000 1013346.99803501 18605.05175895
0.10200000 1003697.31800486 20159.26158034
0.10300000 994067.99633717 27913.43065022
0.10400000 984461.77010183 21707.38305197
0.10500000 974881.21672444 17050.67328273
0.10600001 965323.43953319 17042.78612688
0.10700001 955796.62280384 27871.03083251
0.10800001 946297.73375325 20113.55927750
0.10900001 936831.42304906 18549.26304940
0.11000001 927398.38464996 18529.42059748
0.11100001 917999.66906112 23133.59274932
0.11200001 908637.86902261 18481.69512598
0.11300001 899313.67746164 18453.91753034
0.11400001 890029.29471153 15353.00605666
0.11500001 880786.74132121 16858.25902271
0.11600001 871586.49497804 16825.97807791
0.11700001 862430.49545051 16791.52253722
0.11800001 853318.97513448 18278.09330825
0.11900001 844253.91014669 22794.85664764
0.12000001 835236.66309436 18191.45537910
0.12100001 826270.38410111 16632.82361550
0.12200001 817353.72423870 18096.21230718
0.12300001 808489.14097232 19549.26834976
0.12400001 799677.05121432 16493.33995842
0.12500001 790918.20486834 17938.02573166
0.12600001 782215.91981068 16391.33537205
0.12700001 773569.24326362 19308.28922179
0.12800001 764979.09962030 16282.58090280
0.12900001 756447.20412102 14750.72117559
0.13000001 747974.41909578 14697.69802801
0.13100001 739560.50953296 16107.62865690
0.13200001 731207.35730972 17505.10495919
0.13300001 722916.53643653 21795.93460109
0.13400001 714686.67207424 17366.88695018
0.13500001 706520.64487141 23060.83493588
0.13600001 698417.26455200 17222.97055593
0.13700001 690378.77370061 15719.92541841
0.13800001 682403.69020927 19919.36465652
0.13900001 674494.97962101 18413.71381201
0.14000001 666651.97492882 19739.56590857
0.14100001 658874.94731683 15437.44074371
0.14200001 651164.38386357 16760.97203118
0.14300001 643522.19349779 13900.08003519
0.14400001 635945.16491954 15214.98878839
0.14500001 628437.66431642 16515.34259730
0.14600001 620997.68235171 13692.99954181
0.14700001 613628.28172948 16347.05819647
0.14800001 606324.35352785 20327.02491102
0.14900001 599090.56413537 18871.35366063
0.15000001 591925.63204056 14747.82781814
0.15100001 584830.20511926 18667.78102825
0.15200001 577804.15417402 17238.78775323
0.15300001 570848.84106727 18461.25239128
0.15400001 563960.20604179 15734.49049109
0.15500001 557142.79888182 13037.14210910
0.15600001 550392.69507444 16850.27315495
0.15700001 543715.37811579 19329.08260429
0.15800001 537103.59650969 17933.88993392
0.15900001 530563.60229129 17826.93787843
0.16000001 524090.40730105 21516.53268738
0.16100001 517689.46688927 16353.81103100
0.16200001 511355.68583591 17503.70595244
0.16300001 505090.40990001 18637.83700516
0.16400001 498893.91476456 12347.62497335
0.16500001 492764.96481910 13496.83302360
0.16600001 486705.03059974 14630.35391057
0.16700001 480711.15699652 14536.70607392
0.16800001 474784.29457761 16850.09541016
0.16900001 468926.64002888 11957.62988535
0.17000001 463133.80882258 14255.25930869
0.17100001 457407.42930271 11801.11223327
0.17200001 451747.45754483 14067.41649225
0.17300001 446153.06841170 12809.05519900
0.17400001 440623.66223289 13879.64601582
0.17500001 435158.79129805 13785.83115939
0.17600001 429756.88654518 17115.06881499
0.17700001 424420.52347300 16998.04276792
0.17800001 419145.53415199 12379.46393589
0.17900001 413934.42443010 13411.47598501
0.18000001 408785.23669698 14428.07561073
0.18100001 403699.58910258 15429.39902433
0.18200001 398672.35985691 13132.26815403
0.18300001 393706.96677516 11952.94407594
0.18400001 388801.32704619 11868.16106875
0.18500001 383956.70173837 11783.63173303
0.18600001 379169.29045030 11699.26900956
0.18700001 374440.35732263 11615.14043290
0.18800001 369768.94990169 11531.24524749
0.18900001 365156.82833349 13529.06112897
0.19000001 360597.17441084 11364.22048850
0.19100001 356098.19042077 12306.75404244
0.19200001 351651.26949172 16288.48757251
0.19300001 347261.52705568 11115.84200630
0.19400001 342923.81573054 13039.67870933
0.19500001 338640.83311199 9956.04096397
0.19600001 334410.24733339 11858.18793082
0.19700001 330231.71225089 11769.45878082
0.19800001 326105.33693197 11681.09372094
0.19900001 322030.00464475 10626.99065551
0.20000001 318003.96440783 14381.72997004
0.20100001 314028.85580440 10466.58225864
0.20200001 310101.51772506 11331.10999322
0.20300001 306223.86652756 10307.49583450
0.20400001 302393.60085818 11158.32439907
0.20500001 298610.16070457 11995.17072248
0.20600001 294873.42028908 11902.56617258
0.20700001 291182.85602015 11810.37719844
0.20800001 287536.43419912 9915.69440207
0.20900001 283937.14426947 13416.03070093
0.21000001 280379.54678770 12423.61830546
0.21100001 276866.08379419 9684.77606895
0.21200001 273395.35232467 13102.47287957
0.21300001 269965.53601383 9532.48352730
0.21400001 266578.60323813 11176.30846914
0.21500001 263233.47489046 10234.51798760
0.21600001 259927.40687768 10998.82874204
0.21700001 256661.75249113 9232.12367360
0.21800001 253434.97861835 9990.40732949
0.21900001 250246.03983402 9909.74364598
0.22000001 247095.03803681 16382.40179644
0.22100001 243982.89107183 8937.09372254
0.22200001 240907.68484456 8058.36243909
0.22300001 237867.43557692 8791.58083464
0.22400001 234862.74020810 8719.27964253
0.22500001 231895.34630657 11005.75365614
0.22600001 228960.58567162 9355.32997294
0.22700001 226062.38031610 8504.46714966
0.22800001 223196.24158976 9966.82863952
0.22900001 220362.62880107 10643.51547443
0.23000001 217563.04305431 10553.98371768
0.23100001 214796.01536964 9717.37219488
0.23200001 212059.01935115 9634.90199989
0.23300001 209353.93512932 8083.15581763
0.23400001 206680.39301624 8014.03261823
0.23500001 204035.17357256 10834.26822912
0.23600001 201421.60625395 10024.75381740
0.23700001 198836.73188237 9937.86032952
0.23800001 196280.80121618 7036.66705643
0.23900001 193753.29659098 7672.63090791
0.24000001 191253.67089253 8296.58463575
0.24100001 188782.96829154 8908.66869507
0.24200001 186338.94149551 7471.26021267
0.24300001 183921.97154004 8077.85337214
0.24400001 181531.06578008 8005.52037959
0.24500001 179166.51168577 7933.49351273
0.24600001 176827.97534614 6551.47679649
0.24700001 174514.99485577 7141.15392732
0.24800001 172227.12454551 6432.68340608
0.24900001 169963.21262111 7010.98285229
0.25000001 167724.57001059 6946.31339561
0.25100001 165508.72457167 8133.09911022
0.25200001 163318.96202698 7437.54588258
0.25300001 161151.84029271 6753.87394620
0.25400001 159007.71178791 6082.04526364
0.25500001 156886.12730483 9036.64136030
0.25600001 154787.61574152 8353.88801681
0.25700001 152711.05174203 7091.90157844
0.25800001 150657.04270048 6438.32902443
0.25900001 148624.85503389 9274.19139292
0.26000001 146614.19550677 8035.92443595
0.26100001 144624.14050542 6820.47478895
0.26200001 142656.33476276 9004.46827629
0.26300001 140708.37299353 7243.66738446
0.26400001 138781.52442875 5516.56585708
0.26500001 136875.55147770 6007.46823862
0.26600001 134988.59149748 7028.18134889
0.26700001 133122.81165986 5886.69101016
0.26800001 131277.04336868 5297.02895059
0.26900001 129449.76451680 5766.98728213
0.27000001 127642.72283186 5188.67692865
0.27100001 125854.59151316 5648.35433441
0.27200001 124086.92848983 5589.49595834
0.27300001 122336.99984352 8044.88149043
0.27400001 120604.22912399 7959.87949888
0.27500001 118892.78557626 5906.59386696
0.27600001 117197.26784865 7304.32006435
0.27700001 115522.22440151 7707.64317685
0.27800001 113864.08617395 6194.77590148
0.27900001 112224.77341510 5184.78477716
0.28000001 110602.21608982 5594.26035459
0.28100001 108998.03593747 5071.67885221
0.28200001 107412.01093479 6839.46011998
0.28300001 105842.88786721 6312.47013117
0.28400001 104291.12473128 4904.29037261
0.28500001 102756.83051704 4849.09506161
0.28600001 101239.60830417 5230.03841254
0.28700001 99739.23217190  4308.73503377
0.28800001 98255.21760211  4259.36388466
0.28900001 96789.78682167  5052.42711124
0.29000001 95339.38991326  4161.56456670
0.29100001 93906.66431279  4113.11209159
0.29200001 92490.10194172  5284.42222458
0.29300001 91090.26075504  5222.20489628
0.29400001 89705.90372447  3969.48642771
0.29500001 88338.93723782  4314.47389893
0.29600001 86987.21829987  3875.28075871
0.29700001 85651.89947723  4594.36810545
0.29800001 84332.29662375  7186.37699699
0.29900001 83029.41475361  5230.85337710
0.30000001 81741.35037698  4797.80878750
0.30100001 80470.03058452  4009.82181385
0.30200001 79212.97508899  4320.27586588
0.30300001 77972.72869167  4977.77923533
0.30400001 76747.83716218  3862.33508804
0.30500001 75538.16215970  5200.80271091
0.30600001 74342.91188361  5135.23688148
0.30700001 73164.19624222  3718.20462906
0.30800001 72000.14582255  4338.36899193
0.30900001 70851.11760017  4612.40797414
0.31000001 69717.55280045  3577.55639133
0.31100001 68598.06980198  4815.58472809
0.31200001 67494.07141752  4119.50084401
0.31300001 66404.45277357  3753.17984846
0.31400001 65330.79463121  4012.94425022
0.31500001 64270.30106953  5178.90110539
0.31600002 63225.05351215  3006.35143685
0.31700002 62194.13376666  3263.32635325
0.31800002 61177.78579058  3220.09290755
0.31900002 60175.84526972  2888.44070971
0.32000002 59188.39200614  3419.90545205
0.32100002 58214.17154636  2811.74461883
0.32200002 57255.72180753  3051.44383822
0.32300002 56309.09329730  3010.28427021
0.32400002 55377.56507454  3509.55335278
0.32500002 54459.66864858  3462.00129992
0.32600002 53555.79035250  2889.60280530
0.32700002 52665.10405824  3109.34789083
0.32800002 51788.77853869  3578.08687867
0.32900002 50925.19456947  3024.95670067
0.33000002 50076.04732182  2734.90345399
0.33100002 49237.86869399  3187.65977020
0.33200002 48415.74631901  3869.38662905
0.33300002 47605.50028387  2623.53924488
0.33400002 46808.72638106  2587.35247324
0.33500002 46023.91399969  2319.60537543
0.33600002 45253.03722815  3202.55759630
0.33700002 44494.00641009  2481.43085500
0.33800002 43748.72043654  3559.39606328
0.33900002 43014.79745749  2632.50572907
0.34000002 42294.15509570  2596.01536272
0.34100002 41585.49306344  2773.33666374
0.34200002 40889.85978604  2734.91840131
0.34300002 40205.19788887  2696.96480211
0.34400002 39534.14985053  2250.48158682
0.34500002 38873.81412113  2824.57146781
0.34600002 38226.49404232  2586.59584188
0.34700002 37589.35870825  1962.16461750
0.34800002 36965.49249194  2322.17234832
0.34900002 36352.25597322  1908.49352898
0.35000002 35750.79104818  3011.64678054
0.35100002 35161.07794718  2784.75750531
0.35200002 34581.48885788  2197.30790610
0.35300002 34013.43100022  2167.33592599
0.35400002 33456.71485592  1959.72716551
0.35500002 32910.97347314  1757.44606671
0.35600002 32375.13238114  2080.42610535
0.35700002 31850.30153208  2052.43352794
0.35800002 31336.62753309  2024.97296710
0.35900002 30833.12038489  2663.98172744
0.36000002 30340.34095157  1971.51544842
0.36100002 29856.76072005  2269.71105745
0.36200002 29384.65021350  2399.99141987
0.36300002 28921.32350605  1894.92520587
0.36400002 28468.00987283  1870.34833724
0.36500002 28024.24324384  1692.38412966
0.36600002 27590.59260587  1822.63463388
0.36700002 27165.92495050  1649.51504113
0.36800002 26751.98981239  1480.72270626
0.36900002 26346.25061567  1754.66037412
0.37000002 25949.32254100  1732.89584137
0.37100002 25561.57352901  2139.50380573
0.37200002 25183.36482013  1549.91026127
0.37300002 24813.32697107  1531.23047992
0.37400002 24452.10688063  1925.60350807
0.37500002 24099.75823737  1631.07171477
0.37600002 23755.94449878  1746.41834256
0.37700002 23419.92550993  1859.07377505
0.37800002 23092.22143430  1575.35142088
0.37900002 22773.09594303  1557.67983629
0.38000002 22461.74730971  1412.05781152
0.38100002 22157.26557745  1523.53365328
0.38200002 21861.50601101  1632.72665378
0.38300002 21572.71493519  1366.84728305
0.38400002 21292.35559628  1352.59695333
0.38500002 21017.98443567  1216.94135648
0.38600002 20752.35875169  1204.67448261
0.38700002 20492.71373396  1669.74639415
0.38800002 20240.47502287  1535.34130560
0.38900002 19994.56847317  1169.68231109
0.39000002 19756.66443316  1853.96547824
0.39100002 19524.14788273  1836.83191983
0.39200002 19298.91990983  1478.97279736
0.39300002 19079.61395667  1353.12628591
0.39400002 18868.12620096  1565.11114252
0.39500002 18661.50575095  1441.04154236
0.39600002 18461.13846668  1649.04127166
0.39700002 18266.79495651  1090.52771057
0.39800002 18078.38289284  1081.99126740
0.39900002 17895.54352019  1288.47919450
0.40000002 17718.37640650  1705.21662615
0.40100002 17547.07308308  1481.32397986
0.40200002 17381.21552590  1260.83343399
0.40300002 17220.20486496  1252.25335711
0.40400002 17064.86688274  1244.02885469
0.40500002 16914.66760924  1236.12396745
0.40600002 16769.44836711  1126.15235845
0.40700002 16629.14733958  1119.47425194
0.40800002 16493.63861870  2023.76955440
0.40900002 16362.75388196  1106.94035256
0.41000002 16237.00446523  1101.11250998
0.41100002 16115.22631115  1294.69734318
0.41200002 15997.83544447  1486.59892912
0.41300002 15885.46466235  986.48740227
0.41400002 15776.75015905  1080.31301833
0.41500002 15672.48369493  1271.35193757
0.41600002 15571.65999645  1363.61033050
0.41700002 15475.20580070  1358.41362955
0.41800002 15383.45632906  1256.90535892
0.41900002 15293.65518171  1348.90045094
0.42000002 15208.88948277  1440.66212452
0.42100002 15127.68989200  1532.13250486
0.42200002 15050.10274660  954.92906452
0.42300002 14975.43485910  1047.68147239
0.42400002 14904.00762983  1235.16969085
0.42500002 14836.32097812  1422.06143314
0.42600002 14770.94801641  1040.68719181
0.42700002 14709.89725745  1038.81299355
0.42800002 14651.04559215  942.79482853
0.42900002 14596.13962040  1035.59615514
0.43000002 14543.53316316  1222.31130262
0.43100002 14492.92775864  1126.97011592
0.43200002 14446.09363350  1032.10120855
0.43300002 14401.54515863  1125.04876111
0.43400002 14359.75514881  1218.06628822
0.43500002 14320.10747833  1030.18858081
0.43600002 14283.49118535  1029.91118073
0.43700002 14248.48064129  1216.96278924
0.43800002 14215.75652491  1123.32913383
0.43900002 14186.07267231  1029.90892482
0.44000002 14157.93126994  1030.20191768
0.44100002 14132.29557122  1030.66836485
0.44200002 14108.47708604  1031.25918148
0.44300002 14086.68662013  1219.62538537
0.44400002 14067.28784463  1220.68896057
0.44500002 14048.33475764  1409.75045974
0.44600002 14031.60962968  1034.90141728
0.44700002 14017.82384690  1224.59714930
0.44800002 14004.07915507  1131.80973095
0.44900002 13993.50425432  1322.38621470
0.45000002 13983.97818197  1040.61778573
0.45100002 13975.61993594  1137.05649188
0.45200002 13968.95789092  1044.10980704
0.45300002 13963.34920996  1426.35618940
0.45400002 13959.53025062  1048.01178323
0.45500002 13956.97983435  1622.91769205
0.45600002 13955.53050586  1339.31232612
0.45700002 13955.41315184  1917.47385794
0.45800002 13955.94214215  1345.21332684
0.45900002 13957.77054540  1252.01207726
0.46000002 13961.37210668  1255.05760501
0.46100002 13964.80906678  1064.53744561
0.46200002 13970.32888666  1067.26332588
0.46300002 13976.59458708  1264.60233818
0.46400002 13983.03256827  1462.97485179
0.46500002 13990.95739048  977.96796795
0.46600002 13999.37394531  1372.91866789
0.46700002 14008.25822563  1081.71775145
0.46800002 14018.91460517  1282.09989598
0.46900002 14029.15529041  1087.96104434
0.47000002 14040.51339080  1190.35478169
0.47100002 14052.35524816  1392.86951822
0.47200002 14065.12811862  1397.08924224
0.47300002 14078.54131098  1601.57493545
0.47400002 14091.61435980  1204.83308487
0.47500002 14105.65003296  1410.00084413
0.47600002 14120.73401154  1111.37242306
0.47700002 14135.20178604  1621.59042575
