# SAXS profile: number of points = 501, q_min = 0, q_max = 0.5, delta_q = 0.001
#    q    intensity    error
0.00000000 1682732.95097187 277.65093691
0.00100000 1682645.43306523 605.75237029
0.00200000 1682382.86380902 832.77954396
0.00300000 1681945.43529145 1110.08402684
0.00400000 1681333.06476386 1891.49976973
0.00500000 1680546.36609350 2117.48850509
0.00600000 1679585.21620736 1763.56454882
0.00700000 1678450.34772245 3424.03885166
0.00800000 1677141.55894103 2943.38356021
0.00900000 1675660.26599795 2764.83955709
0.01000000 1674005.82814396 4143.16460356
0.01100000 1672179.92033315 3310.91638641
0.01200000 1670182.36090144 4559.59804517
0.01300000 1668014.54847849 4203.39684756
0.01400000 1665676.63606264 7120.76793484
0.01500000 1663170.29102855 7584.05686480
0.01600000 1660494.96252909 4657.68857811
0.01700000 1657653.11136154 6265.92904203
0.01800000 1654645.10225558 6130.46037971
0.01900000 1651471.93613033 4954.41603195
0.02000000 1648134.54751661 6749.11127738
0.02100000 1644635.40225493 5970.02678086
0.02200000 1640973.44679788 7359.76624326
0.02300000 1637151.62837057 6483.12074345
0.02400000 1633170.62962752 7349.26816843
0.02500000 1629032.89697414 6353.22858836
0.02600000 1624738.70346822 7896.23046002
0.02700000 1620290.12655178 8166.26261184
0.02800000 1615687.54582947 8433.88937600
0.02900000 1610934.52534401 7249.20569689
0.03000000 1606031.48821204 10455.26546884
0.03100000 1600980.24072880 10758.58771273
0.03200000 1595781.91801112 8689.03294377
0.03300000 1590440.91920481 11355.74868663
0.03400000 1584955.44587164 10817.32141719
0.03500000 1579329.93255846 11086.89663853
0.03600000 1573564.59152504 13973.25421850
0.03700000 1567663.04720365 12509.95169524
0.03800000 1561626.31171400 10049.06578095
0.03900000 1555457.27021816 13065.84167491
0.04000000 1549155.94150530 17149.15706714
0.04100000 1542726.50021664 14578.76610301
0.04200000 1536170.50515529 10899.13023972
0.04300000 1529489.55596806 15141.94730694
0.04400000 1522687.06973012 11305.95201782
0.04500000 1515764.73755411 16734.04348014
0.04600000 1508723.47421170 10636.50098765
0.04700000 1501567.52993864 11892.41539021
0.04800000 1494298.55042567 10983.09485665
0.04900000 1486919.11145068 14497.46201146
0.05000000 1479430.77799428 14712.93977228
0.05100000 1471837.71736419 13776.40167629
0.05200000 1464139.12460011 17459.85987451
0.05300000 1456340.77974315 14155.63303901
0.05400000 1448443.36991153 16729.52170264
0.05500000 1440450.52759110 16939.69899470
0.05600000 1432363.25033398 15920.71827039
0.05700000 1424186.46841949 13629.46513898
0.05800000 1415919.47776405 12530.88796331
0.05900000 1407566.58973605 12668.09989930
0.06000000 1399131.22399867 15362.46155722
0.06100000 1390614.81761262 18105.80577143
0.06200000 1382020.47686481 15672.11294022
0.06300000 1373351.36995683 19776.26065202
0.06400000 1364606.81794224 19957.37564575
0.06500000 1355793.21154963 14764.58876443
0.06600000 1346912.25368059 17597.40941769
0.06700000 1337964.79119569 19106.13811242
0.06800000 1328955.32517188 15130.15708531
0.06900000 1319887.21953283 16630.57974474
0.07000000 1310760.09843583 18147.47441266
0.07100000 1301578.48454282 16868.45794976
0.07200000 1292344.73600438 21226.76328328
0.07300000 1283061.92596357 22787.18087282
0.07400000 1273732.85128185 14329.49524846
0.07500000 1264358.59154634 15855.05748116
0.07600000 1254942.00173735 20292.41311941
0.07700000 1245487.23041639 20401.08179080
0.07800000 1235995.40233563 19040.51006591
0.07900000 1226468.28479367 20604.66815097
0.08000000 1216911.84961975 17742.57559978
0.08100000 1207326.01504488 14850.11068179
0.08200000 1197712.57151519 20876.13110113
0.08300000 1188075.22089637 22454.62272878
0.08400000 1178416.68667264 18029.77615238
0.08500000 1168738.97046045 16584.40676939
0.08600000 1159044.86312437 19663.19702612
0.08700000 1149336.10845514 16688.36107842
0.08800000 1139614.84930570 19778.01663855
0.08900000 1129884.84168701 18304.13529507
0.09000000 1120147.54308473 18348.01761764
0.09100000 1110405.17280086 18388.31052549
0.09200000 1100659.67368349 24566.72507093
0.09300000 1090915.25675160 19996.47759593
0.09400000 1081170.79303830 20028.68988233
0.09500000 1071430.58255075 21600.04155948
0.09600000 1061696.11644254 21626.75090856
0.09700000 1051972.40202481 18556.79404412
0.09800000 1042258.21130817 17025.28868221
0.09900000 1032557.50102566 20134.87221679
0.10000000 1022869.52004922 18595.76874900
0.10100000 1013198.87574263 27903.49835030
0.10200000 1003546.85776706 17055.27964997
0.10300000 993915.09100087 20156.59899368
0.10400000 984306.50263649 20153.67658961
0.10500000 974723.78669990 17047.91983147
0.10600001 965163.62917651 20138.14007034
0.10700001 955634.33422135 21673.78772006
0.10800001 946133.13868879 18563.13305469
0.10900001 936664.55451580 20091.45563998
0.11000001 927229.14421814 24701.38556465
0.11100001 917828.09455923 18503.41525733
0.11200001 908463.96368691 15398.46490941
0.11300001 899137.44630138 19987.82637232
0.11400001 889850.64192162 16884.91672548
0.11500001 880605.78294134 16854.79547916
0.11600001 871403.20630219 18351.75238894
0.11700001 862244.81879233 15261.73401137
0.11800001 853131.08960255 16751.22973330
0.11900001 844063.63695739 16712.46079894
0.12000001 835044.12538893 18187.26190768
0.12100001 826075.56438151 15117.18354032
0.12200001 817156.55320956 15076.53911699
0.12300001 808289.77108171 16537.60949549
0.12400001 799475.48205636 16489.18259434
0.12500001 790714.32246222 16438.95153860
0.12600001 782009.71997126 14897.28586746
0.12700001 773360.78595009 26727.35002200
0.12800001 764768.29101037 20717.57397987
0.12900001 756234.19666799 23594.50804810
0.13000001 747759.30515886 17632.16524674
0.13100001 739343.17679422 16102.89514963
0.13200001 730987.87869816 17499.85064098
0.13300001 722694.82265248 15978.78328213
0.13400001 714462.89442333 18808.23658242
0.13500001 706294.63354715 17290.09344443
0.13600001 698189.19411628 18652.12520028
0.13700001 690148.38589101 17143.28671389
0.13800001 682171.20652227 17067.92439204
0.13900001 674260.51303653 15575.41858565
0.14000001 666415.34939243 16913.62236524
0.14100001 658636.28663230 14028.95356691
0.14200001 650923.63008077 18151.00628090
0.14300001 643279.45701347 19452.77169763
0.14400001 635700.45704481 15209.13415221
0.14500001 628190.96249707 15133.12100042
0.14600001 620749.02403188 16425.01995072
0.14700001 613377.55331014 13616.98232589
0.14800001 606071.66363792 20318.55348206
0.14900001 598836.18234346 14821.19621228
0.15000001 591669.10293395 20101.95872065
0.15100001 584571.88092087 15993.88741667
0.15200001 577543.88005947 14580.09594009
0.15300001 570586.60038937 14498.60620007
0.15400001 563696.14696163 14416.52963887
0.15500001 556877.04683401 15637.10821306
0.15600001 550125.15950463 16842.08255310
0.15700001 543446.13242572 15455.60873564
0.15800001 536832.63252553 14083.80477904
0.15900001 530290.88909410 15272.37832678
0.16000001 523815.90671704 18975.23211650
0.16100001 517413.18623599 13830.45512094
0.16200001 511077.85341258 13745.43951640
0.16300001 504810.95399312 16143.85507082
0.16400001 498612.83610958 19745.06924210
0.16500001 492482.21487733 14715.36927527
0.16600001 486420.78819970 13403.32545165
0.16700001 480425.35836187 14528.06352280
0.16800001 474496.93663653 13231.34770285
0.16900001 468637.81786906 16730.37088790
0.17000001 462843.60425034 14246.32681153
0.17100001 457115.67878881 15331.66059056
0.17200001 451454.39784085 12886.76639492
0.17300001 445858.40915366 13964.28603415
0.17400001 440327.66506229 13870.32210450
0.17500001 434861.47993699 14924.44669628
0.17600001 429458.18564907 13682.53844099
0.17700001 424120.49783139 15853.62495771
0.17800001 418844.37655345 15744.36085828
0.17900001 413632.03999285 15635.29185024
0.18000001 408481.61736481 13308.33172236
0.18100001 403394.70986402 11012.67609949
0.18200001 398366.34325476 16402.73495835
0.18300001 393399.74592897 14115.18355072
0.18400001 388492.99373730 14014.88541115
0.18500001 383647.34610363 13914.88990055
0.18600001 378858.87177233 11689.69104080
0.18700001 374128.80824742 11605.47618013
0.18800001 369456.37560883 11521.49761771
0.18900001 364843.33914523 14557.24991969
0.19000001 360282.69002882 14450.93937985
0.19100001 355782.88122841 13320.51170259
0.19200001 351335.15267301 12205.38378058
0.19300001 346944.41194253 18172.94915627
0.19400001 342605.98278797 10021.22547009
0.19500001 338322.05032149 9946.66874948
0.19600001 334090.71582728 12834.09545500
0.19700001 329911.38926970 10778.20559679
0.19800001 325784.25460751 10697.12650557
0.19900001 321708.35037147 12546.62625744
0.20000001 317681.52202219 12451.52784413
0.20100001 313705.88281200 9505.28869845
0.20200001 309777.86476641 10376.01007076
0.20300001 305899.69659651 11232.63738993
0.20400001 302068.84606906 12075.20269235
0.20500001 298284.90385938 13825.50594737
0.20600001 294547.58989635 12803.98433801
0.20700001 290856.60174610 9982.19904378
0.20800001 287209.61518509 10804.82623401
0.20900001 283609.94995106 10720.45661492
0.21000001 280052.02081108 14181.83500428
0.21100001 276538.13370286 13190.86960120
0.21200001 273067.07760363 9596.94289607
0.21300001 269636.99621931 9520.88278661
0.21400001 266249.75383659 12879.83245076
0.21500001 262904.42819034 8518.10387608
0.21600001 259598.10020418 10984.89412949
0.21700001 256332.19501259 13411.30107714
0.21800001 253105.25192436 8314.50791883
0.21900001 249916.24226547 9896.68366164
0.22000001 246765.11261108 11452.36941778
0.22100001 243652.92477337 12170.46416789
0.22200001 240577.54747496 13680.44288404
0.22300001 237537.41608103 11971.88633658
0.22400001 234532.64565131 10290.12031453
0.22500001 231565.34259464 10205.08513072
0.22600001 228630.58298653 10898.82040635
0.22700001 225732.47727477 9264.06130545
0.22800001 222866.41607511 9186.55410505
0.22900001 220032.94570433 8350.25068437
0.23000001 217233.52238776 7527.14190671
0.23100001 214466.77332866 10448.82169073
0.23200001 211730.01214497 8139.96070188
0.23300001 209025.13102867 9537.81717992
0.23400001 206351.81458707 10183.46253150
0.23500001 203706.91140308 7932.34750521
0.23600001 201093.71028939 9293.54626058
0.23700001 198509.13805456 8504.13187648
0.23800001 195953.67638680 7727.43359381
0.23900001 193426.53477019 6963.35558109
0.24000001 190927.37952108 8972.63262500
0.24100001 188457.08267303 8893.29015200
0.24200001 186013.61732563 6780.19667224
0.24300001 183596.99968233 8735.54565810
0.24400001 181206.64066286 7325.27879531
0.24500001 178842.68858164 7259.22507292
0.24600001 176504.59243170 8501.34409663
0.24700001 174192.25124733 8423.93766882
0.24800001 171905.05210534 7062.71939986
0.24900001 169641.79958670 8270.03812109
0.25000001 167403.88747420 7563.30799389
0.25100001 165188.79148386 8117.37759754
0.25200001 162999.60972920 6185.83548187
0.25300001 160833.33330553 10417.17549104
0.25400001 158689.88639283 7890.85497421
0.25500001 156569.06948387 8417.15357368
0.25600001 154471.41825769 7741.33549225
0.25700001 152395.68587474 5897.71332239
0.25800001 150342.51342496 5840.80692291
0.25900001 148311.22024769 6940.96543600
0.26000001 146301.58130895 5727.70717925
0.26100001 144312.30773554 6238.62135860
0.26200001 142345.50113791 7300.18937128
0.26300001 140398.46770458 7227.71345943
0.26400001 138472.56973166 7155.57037947
0.26500001 136567.60824421 5993.95260947
0.26600001 134681.71510113 7012.20382855
0.26700001 132816.99615422 7474.94089728
0.26800001 130972.33235324 5284.73386053
0.26900001 129146.02671434 5753.45576239
0.27000001 127340.17232613 6211.65390002
0.27100001 125553.12089500 9220.62163487
0.27200001 123786.56359446 7096.68402671
0.27300001 122037.87115675 7523.63511286
0.27400001 120306.25850248 6947.68675732
0.27500001 118596.09742236 6382.84226534
0.27600001 116901.78395704 5828.72322395
0.27700001 115227.95694435 5766.00723838
0.27800001 113571.00833909 5703.53630872
0.27900001 111933.04660240 5641.42581576
0.28000001 110311.74351187 4649.64020909
0.28100001 108708.92417902 5518.06525249
0.28200001 107124.16517936 6366.38943793
0.28300001 105556.45024589 6295.38699063
0.28400001 104005.97006952 5335.50651710
0.28500001 102473.14574676 4396.09816061
0.28600001 100957.25283845 6519.31491061
0.28700001 99458.31369359  4726.25929043
0.28800001 97975.64050612  6795.59074716
0.28900001 96511.73536221  5457.73889307
0.29000001 95062.77887432  6224.23574142
0.29100001 93631.49960169  5741.48382735
0.29200001 92216.45674922  4458.20481257
0.29300001 90818.07749175  5206.60062906
0.29400001 89435.18902132  5540.51022214
0.29500001 88069.76947006  4692.35753949
0.29600001 86719.64824352  6567.71287062
0.29700001 85385.77295372  4580.09307805
0.29800001 84067.77372727  4524.52779619
0.29900001 82766.46892143  4096.94040556
0.30000001 81479.93942750  4782.46527110
0.30100001 80210.26745308  5086.93540269
0.30200001 78954.77494242  3947.34416012
0.30300001 77716.22947938  3898.24625523
0.30400001 76492.90891913  3499.55074873
0.30500001 75284.84344768  3455.57447784
0.30600001 74091.24407733  4094.28234155
0.30700001 72914.23091306  3705.50139043
0.30800001 71751.79122418  4655.97395297
0.30900001 70604.50380996  4268.04245738
0.31000001 69472.74658324  4213.17491601
0.31100001 68354.91023018  4158.71293530
0.31200001 67252.63530141  4420.51592765
0.31300001 66164.77892866  3427.99735860
0.31400001 65092.69733315  3383.19310407
0.31500001 64034.06335402  3642.25769603
0.31600002 62990.51868230  3893.75909671
0.31700002 61961.40627719  3546.67106323
0.31800002 60946.79048407  3499.56487529
0.31900002 59946.73327308  3740.67633336
0.32000002 58960.95929626  4542.35251926
0.32100002 57988.58442844  3921.18826472
0.32200002 57031.90417707  3592.15465468
0.32300002 56087.13414597  3816.16878799
0.32400002 55157.36213594  4033.38229718
0.32500002 54241.29895887  3182.87957362
0.32600002 53339.25600100  4447.69407225
0.32700002 52450.35855253  2838.61353928
0.32800002 51575.90899256  3308.85259810
0.32900002 50714.21166021  2761.38895566
0.33000002 49866.82171850  3218.65416024
0.33100002 49030.53673354  2685.89292945
0.33200002 48210.28713003  2889.72474742
0.33300002 47401.93680429  4037.22314881
0.33400002 46606.96463779  2576.20009235
0.33500002 45824.13296327  2309.53641072
0.33600002 45055.06426957  2960.79368869
0.33700002 44297.92736331  2695.08602841
0.33800002 43554.56922901  2657.69994022
0.33900002 42822.52221717  2620.73848380
0.34000002 42103.80360018  2584.33158737
0.34100002 41397.04752669  2336.03550256
0.34200002 40703.28740164  2722.43950679
0.34300002 40020.56472794  2478.07348531
0.34400002 39351.38871346  2240.07790860
0.34500002 38692.99571697  2409.79988738
0.34600002 38047.57463304  1980.37635344
0.34700002 37412.41676285  1952.92824751
0.34800002 36790.39482024  1925.97726006
0.34900002 36179.09430712  3228.98431984
0.35000002 35579.59039736  2247.91862777
0.35100002 34991.86164488  2032.32742059
0.35200002 34414.14485468  1822.22905636
0.35300002 33848.04727107  2516.26395331
0.35400002 33293.21083670  2482.00898543
0.35500002 32749.43774934  1923.70206451
0.35600002 32215.47725093  1725.13888850
0.35700002 31692.66926272  1872.08606202
0.35800002 31180.84306663  1846.99732654
0.35900002 30679.35772316  2982.03371194
0.36000002 30188.54133882  1634.70959093
0.36100002 29706.90924587  1935.70229815
0.36200002 29236.67622345  2228.71193408
0.36300002 28775.30339069  2199.58429537
0.36400002 28323.95855065  2171.03152574
0.36500002 27882.18663614  1836.87854260
0.36600002 27450.47021670  1813.37814841
0.36700002 27027.74660954  2536.28386198
0.36800002 26615.69886235  1620.49690200
0.36900002 26212.00447833  1745.71958095
0.37000002 25816.98436253  1724.05829740
0.37100002 25431.15197459  1702.87001688
0.37200002 25054.83296072  1822.36336172
0.37300002 24686.74333568  1661.91164008
0.37400002 24327.49806532  1642.10619720
0.37500002 23977.03486997  1352.30483073
0.37600002 23635.24451819  1470.23045490
0.37700002 23301.15958423  1585.41097321
0.37800002 22975.30404818  1697.98992612
0.37900002 22658.12345118  1420.66440769
0.38000002 22348.73507172  1532.67632383
0.38100002 22046.20207311  1263.24743863
0.38200002 21752.34299659  1749.54103010
0.38300002 21465.48745468  1360.05334956
0.38400002 21186.99420190  1468.25876775
0.38500002 20914.66285239  1574.24674748
0.38600002 20650.86770630  1558.41780529
0.38700002 20393.10651223  1661.63039734
0.38800002 20142.84593051  1175.33511573
0.38900002 19898.76912414  1513.30146358
0.39000002 19662.79545506  1383.86760969
0.39100002 19432.27284037  1256.87946686
0.39200002 19208.91787416  1245.60233856
0.39300002 18991.52329711  1795.83852806
0.39400002 18781.86814720  1224.10831449
0.39500002 18577.19227747  1324.18232827
0.39600002 18378.72888165  1532.23469946
0.39700002 18186.25938783  1737.15157903
0.39800002 17999.81355521  1292.74667078
0.39900002 17818.83096478  1389.86888110
0.40000002 17643.49012027  1379.63277532
0.40100002 17474.08049013  1475.16194487
0.40200002 17310.08285020  1569.59183681
0.40300002 17150.94816575  1351.15176052
0.40400002 16997.41867138  1135.85255653
0.40500002 16849.14070960  1333.94653318
0.40600002 16705.72406749  1121.87295291
0.40700002 16567.33414221  1318.09716681
0.40800002 16433.58402670  1008.20042781
0.40900002 16304.60115131  1002.73301832
0.41000002 16180.74737945  1097.29743553
0.41100002 16060.77509080  1191.06713717
0.41200002 15945.21270349  1481.70896068
0.41300002 15834.76055037  1376.67414748
0.41400002 15727.77491596  979.05403491
0.41500002 15625.33369686  1462.53130333
0.41600002 15526.35439501  1165.40821611
0.41700002 15431.72801357  1161.08327076
0.41800002 15341.79153069  1157.07797207
0.41900002 15253.78005373  1153.18582670
0.42000002 15170.72739167  1149.63777622
0.42100002 15091.42163296  1241.87314502
0.42200002 15015.59878289  1143.28774550
0.42300002 14942.67414223  1045.38953253
0.42400002 14873.08728267  1517.05497472
0.42500002 14807.16352834  1230.03113259
0.42600002 14743.57258321  1133.19104244
0.42700002 14684.27420629  1131.27653846
0.42800002 14627.24473525  1035.38956765
0.42900002 14574.10543765  1128.03581433
0.43000002 14523.22899069  1126.71215849
0.43100002 14474.36070159  1031.73247970
0.43200002 14429.25166025  1499.48790359
0.43300002 14386.49710922  1123.87320743
0.43400002 14346.41000603  1404.15494588
0.43500002 14308.55445955  1216.51335780
0.43600002 14273.62661230  1684.14528380
0.43700002 14240.34647302  1029.14988838
0.43800002 14209.33317424  1122.82156064
0.43900002 14181.34889567  1497.55051435
0.44000002 14154.93095524  936.34872706
0.44100002 14130.97754876  1217.94901265
0.44200002 14108.82039489  1687.55608741
0.44300002 14088.77783075  1313.63770719
0.44400002 14071.03097808  1033.16549853
0.44500002 14053.68651177  1128.23000663
0.44600002 14038.74743782  1223.68747841
0.44700002 14026.55025452  1413.87633266
0.44800002 14014.50874745  1038.26492976
0.44900002 14005.65627176  1039.92002746
0.45000002 13997.70611370  1325.72280886
0.45100002 13991.01531756  1328.02723688
0.45200002 13986.01548734  950.34979740
0.45300002 13982.02205851  1047.39332204
0.45400002 13979.88418473  1526.60342532
0.45500002 13978.93217489  1434.23850912
0.45600002 13979.13225391  1341.57738599
0.45700002 13980.61140429  1344.65526859
0.45800002 13982.78334471  1347.80055047
0.45900002 13986.20152035  1158.05754077
0.46000002 13991.39175510  1257.75622143
0.46100002 13996.48945062  1357.93947086
0.46200002 14003.49540490  1167.05136236
0.46300002 14011.39687042  1365.27057576
0.46400002 14019.39130747  1075.63784905
0.46500002 14028.94426538  1078.68557569
0.46600002 14038.87594121  1475.13495944
0.46700002 14049.30173885  1183.51323457
0.46800002 14061.51362488  989.22753040
0.46900002 14073.31850979  992.16900197
0.47000002 14086.20746746  1293.74778617
0.47100002 14099.59426418  1098.07645334
0.47200002 14113.88710996  1201.65640550
0.47300002 14128.81565681  1205.47060897
0.47400002 14143.41141582  1410.80535560
0.47500002 14158.99637475  1516.42858361
0.47600002 14175.50744862  1318.53488783
0.47700002 14191.54414300  1322.79389227
