# SAXS profile: number of points = 501, q_min = 0, q_max = 0.5, delta_q = 0.001
#    q    intensity    error
0.00000000 1682732.95097188 252.40994265
0.00100000 1682645.32294666 757.19041331
0.00200000 1682382.40696311 832.77931782
0.00300000 1681944.41813908 1311.91669288
0.00400000 1681331.23867382 1513.19817230
0.00500000 1680543.51719655 1663.73814788
0.00600000 1679581.12603582 1939.91627955
0.00700000 1678444.78185170 2215.54720412
0.00800000 1677134.26365674 3622.61016244
0.00900000 1675651.06709864 2764.82437890
0.01000000 1673994.50865844 3038.30016441
0.01100000 1672166.21128431 3611.87917363
0.01200000 1670166.04397715 3582.50632140
0.01300000 1667995.41612159 4203.34863401
0.01400000 1665654.49987447 3747.72279086
0.01500000 1663144.83350700 5987.32166723
0.01600000 1660466.07676209 4657.60755353
0.01700000 1657620.55776151 6713.36356009
0.01800000 1654608.60862002 5658.76169611
0.01900000 1651431.34385491 6440.58253165
0.02000000 1648089.58215220 8306.37186979
0.02100000 1644585.93525784 5969.84721565
0.02200000 1640919.14623721 6227.28844289
0.02300000 1637092.44579979 6482.88638046
0.02400000 1633106.28773363 6736.56374407
0.02500000 1628963.14081318 7623.54784718
0.02600000 1624663.44184363 10527.81958467
0.02700000 1620209.03472513 10887.80521203
0.02800000 1615600.52662569 9839.00765836
0.02900000 1610841.35295067 7248.78642110
0.03000000 1605932.01403450 8961.10105021
0.03100000 1600874.23540229 9221.03602021
0.03200000 1595669.20275060 7898.56291741
0.03300000 1590321.24073021 8110.63870163
0.03400000 1584828.68616918 14976.63177533
0.03500000 1579195.82842890 11938.72101423
0.03600000 1573423.08120031 10478.99820507
0.03700000 1567513.86799066 8934.82946076
0.03800000 1561469.38977555 10048.05598823
0.03900000 1555292.34598763 15863.98266374
0.04000000 1548982.84216073 11431.49390487
0.04100000 1542545.15440469 12633.44540034
0.04200000 1535980.72190099 12879.19895064
0.04300000 1529291.11341054 11102.65399872
0.04400000 1522479.81377035 13359.76098629
0.04500000 1515548.63276745 12548.74326239
0.04600000 1508498.33188261 10634.91373416
0.04700000 1501333.32286374 14052.48055556
0.04800000 1494054.87788313 10981.30386338
0.04900000 1486665.89784242 13379.99370339
0.05000000 1479167.98767721 16973.45344898
0.05100000 1471565.37595609 12626.03151387
0.05200000 1463856.84540054 12801.42870959
0.05300000 1456048.49597353 11793.99336720
0.05400000 1448140.95068490 14336.59608035
0.05500000 1440137.85696053 12097.15856279
0.05600000 1432040.20627271 13468.33876848
0.05700000 1423853.07547213 13626.27456832
0.05800000 1415575.49658724 16286.19684868
0.05900000 1407212.01096723 13931.39955925
0.06000000 1398765.91974994 16638.32139275
0.06100000 1390238.71638388 15515.06479988
0.06200000 1381633.44122069 20890.29860774
0.06300000 1372953.14600527 13180.35081790
0.06400000 1364197.57882620 15961.11241872
0.06500000 1355372.96753966 14760.01230695
0.06600000 1346480.64110583 18944.98350677
0.06700000 1337522.00902462 16371.27015662
0.06800000 1328501.06549763 17874.98267298
0.06900000 1319421.57540794 20780.89078561
0.07000000 1310282.97918420 18140.86869631
0.07100000 1301090.00416342 23888.01359530
0.07200000 1291844.56016077 21218.54789466
0.07300000 1282550.15439407 17083.56885699
0.07400000 1273209.42552935 15755.96737932
0.07500000 1263823.27185335 17289.10316934
0.07600000 1254394.98299312 15937.08900607
0.07700000 1244928.44848270 17478.79623625
0.07800000 1235424.87589469 14639.78546590
0.07900000 1225886.12292144 22065.95124756
0.08000000 1216317.67194227 16256.08644810
0.08100000 1206720.08223302 19295.45502021
0.08200000 1197094.84802906 19374.98102453
0.08300000 1187445.48192240 17954.17652929
0.08400000 1177775.17285161 16518.29757459
0.08500000 1168085.73978192 21095.62945080
0.08600000 1158379.75732767 18140.22785146
0.08700000 1148659.13565817 19710.99169348
0.08800000 1138926.16988142 16725.13159018
0.08900000 1129184.20137595 21341.58240841
0.09000000 1119435.24728645 32088.61287084
0.09100000 1109681.10277416 18376.31992528
0.09200000 1099923.90226918 15343.93915762
0.09300000 1090167.87062916 16908.50446803
0.09400000 1080411.52018721 18475.03786348
0.09500000 1070659.80213454 20042.75243802
0.09600000 1060913.96001129 24698.07815006
0.09700000 1051178.57898997 16997.55842137
0.09800000 1041453.01423767 18558.69358630
0.09900000 1031740.79491329 20118.94644685
0.10000000 1022041.74099341 21677.50634590
0.10100000 1012359.67331006 15489.10373012
0.10200000 1002696.41626743 18589.99243200
0.10300000 993053.61993748 18589.96463972
0.10400000 983433.73762010 20135.80672506
0.10500000 973839.94335009 21677.67815889
0.10600001 964269.10699263 15476.51989546
0.10700001 954729.06399784 18559.93387751
0.10800001 945217.11163305 20090.59065326
0.10900001 935737.88189761 20071.57851139
0.11000001 926291.83180118 18507.31167052
0.11100001 916880.33067194 16943.94930843
0.11200001 907506.02770864 18458.67347257
0.11300001 898168.92848448 21502.16516026
0.11400001 888872.08818621 18399.65309179
0.11500001 879617.19229468 18366.40783995
0.11600001 870404.58878485 15275.60125252
0.11700001 861236.54241580 22865.83127800
0.11800001 852113.09773782 16731.24146210
0.11900001 843036.00667119 19727.04348528
0.12000001 834007.04262198 15137.22853663
0.12100001 825028.92986550 22647.04519167
0.12200001 816100.60914145 18068.46833762
0.12300001 807224.87548929 15014.38339149
0.12400001 798401.43481665 25449.04693388
0.12500001 789631.55647457 14924.03712060
0.12600001 780918.31772142 16364.14411899
0.12700001 772260.67899704 16310.14630906
0.12800001 763659.87566132 19209.86507761
0.12900001 755117.59479887 17669.75255111
0.13000001 746634.40519790 16138.50342904
0.13100001 738210.30709497 16078.22124642
0.13200001 729846.94981047 21840.67100265
0.13300001 721546.28620549 21754.62155467
0.13400001 713306.60411166 15888.90535568
0.13500001 705131.08066276 21577.01208560
0.13600001 697018.16192147 15756.09629315
0.13700001 688970.30509512 18540.19178434
0.13800001 680986.05055577 14198.55982363
0.13900001 673068.66049627 15547.88679067
0.14000001 665216.67607999 16883.20003513
0.14100001 657431.27710535 15403.61554906
0.14200001 649712.13069847 20904.48879119
0.14300001 642061.78971453 19415.94943677
0.14400001 634476.49141600 17939.82364101
0.14500001 626961.13441480 19222.62928793
0.14600001 619513.58519302 23222.46783646
0.14700001 612136.36620263 20384.14195620
0.14800001 604825.06984955 13517.84094889
0.14900001 597584.26974380 18823.90538506
0.15000001 590412.26956867 14710.12239037
0.15100001 583309.91944358 17289.30682810
0.15200001 576277.36479904 14548.12276083
0.15300001 569315.41820017 14466.30545912
0.15400001 562420.55638658 14383.90640838
0.15500001 555597.11214214 13000.97303768
0.15600001 548840.95623828 18095.28718118
0.15700001 542157.91092913 21843.54326228
0.15800001 535540.73485026 21713.50011935
0.15900001 528995.42629751 12695.89083039
0.16000001 522516.94752278 15142.54185397
0.16100001 516110.69071324 15049.78845161
0.16200001 509772.10981378 13710.32154065
0.16300001 503502.20077898 16102.00114105
0.16400001 497301.18605336 17231.48691024
0.16500001 491168.14853422 13453.09622349
0.16600001 485104.01539586 17012.59862315
0.16700001 479106.18400906 14488.17168849
0.16800001 473175.45999167 13194.49832486
0.16900001 467314.20437599 13108.16405169
0.17000001 461518.09304840 14205.52757481
0.17100001 455788.45431308 12935.27694423
0.17200001 450125.43695184 14016.90676860
0.17300001 444528.10277580 12762.40243339
0.17400001 438996.03811136 11523.64654464
0.17500001 433528.70002697 17167.73733186
0.17600001 428124.24257674 15913.37884815
0.17700001 422785.69716870 11288.37864756
0.17800001 417508.92456183 15694.16121555
0.17900001 412295.87741201 12245.18813752
0.18000001 407145.21579999 12159.39244422
0.18100001 402057.81472619 16464.26829075
0.18200001 397029.35458168 14167.99318751
0.18300001 392062.76683323 16231.39931366
0.18400001 387155.99807862 11817.93739964
0.18500001 382310.51524489 13866.40304301
0.18600001 377522.50515296 14825.30947776
0.18700001 372793.00117610 16820.42100774
0.18800001 368121.32065388 12523.48792033
0.18900001 363508.89142640 12432.00467416
0.19000001 358949.13470970 15425.83979300
0.19100001 354450.22586435 11228.98368595
0.19200001 350003.55643658 12159.12412514
0.19300001 345614.23956867 16091.79975470
0.19400001 341277.11986427 10980.59185051
0.19500001 336994.68732088 9907.64427542
0.19600001 332764.95148201 11799.84573717
0.19700001 328587.37471433 9759.04549020
0.19800001 324462.01241573 12590.74898682
0.19900001 320388.08141143 9611.64289659
0.20000001 316363.26546777 15261.36464743
0.20100001 312389.71688367 12305.03152961
0.20200001 308463.92620797 9392.72699697
0.20300001 304588.15489285 9320.39798025
0.20400001 300759.74811675 12947.70776841
0.20500001 296978.28077029 11011.95517146
0.20600001 293243.61316524 11836.77900492
0.20700001 289555.30188190 10840.95101490
0.20800001 285911.19390107 10755.97962300
0.20900001 282314.23890478 10671.47873506
0.21000001 278759.32463879 11469.55295446
0.21100001 275248.60780364 12254.06859871
0.21200001 271780.50802036 9551.72640593
0.21300001 268353.86218910 12921.23907526
0.21400001 264969.94781413 9399.80934310
0.21500001 261627.82688517 9324.41619102
0.21600001 258325.05937741 11771.87351239
0.21700001 255062.50973875 9174.59890907
0.21800001 251839.29193485 9927.50535745
0.21900001 248653.90197573 10667.25289912
0.22000001 245506.39320203 12207.80597919
0.22100001 242397.92719952 8879.03649315
0.22200001 239326.47388096 8806.01802284
0.22300001 236290.10322633 10321.15219697
0.22400001 233289.14638367 13384.96540669
0.22500001 230326.03403405 11712.07938446
0.22600001 227395.40617694 9291.37673576
0.22700001 224501.25974975 11516.91516979
0.22800001 221639.35996060 11419.96856202
0.22900001 218810.06858345 11323.42158469
0.23000001 216014.73866057 8981.89325828
0.23100001 213252.14539408 7421.17501068
0.23200001 210519.77230939 9564.96630724
0.23300001 207819.34525649 8023.90529984
0.23400001 205150.35550807 8677.86044841
0.23500001 202509.91818505 8602.62173137
0.23600001 199901.06899624 9238.42834061
0.23700001 197320.93098905 10566.53635424
0.23800001 194769.99844113 7680.75525182
0.23900001 192247.31287119 13149.71682236
0.24000001 189752.66854654 10289.33893863
0.24100001 187286.93837193 10877.62589517
0.24200001 184847.93325439 6737.70748583
0.24300001 182436.05748935 7344.87602195
0.24400001 180050.33750322 11248.64536762
0.24500001 177690.90470723 8523.83310202
0.24600001 175357.54808403 7796.39695663
0.24700001 173049.94371896 6437.45821088
0.24800001 170767.29728008 7015.97474065
0.24900001 168508.55606781 7582.88538178
0.25000001 166275.37672846 6886.29505299
0.25100001 164065.11957470 6201.66181332
0.25200001 161880.40117192 6143.36151511
0.25300001 159718.90065113 12779.10984568
0.25400001 157580.17279029 6630.18608383
0.25500001 155464.04563245 5969.81963473
0.25600001 153371.11595651 8868.68519979
0.25700001 151299.97933591 9368.49516373
0.25800001 149251.51989830 6378.26400464
0.25900001 147224.90571206 8038.48023222
0.26000001 145219.87724731 7390.96600221
0.26100001 143235.46703391 7880.81576910
0.26200001 141273.21760240 6687.87443775
0.26300001 139330.90087134 6069.25432914
0.26400001 137409.65539423 6554.44087245
0.26500001 135509.29293737 6488.18525286
0.26600001 133628.01404696 5886.98243741
0.26700001 131768.00029738 5297.07386261
0.26800001 129928.02502417 7863.89408671
0.26900001 128106.11898904 6225.95767749
0.27000001 126304.93083250 7701.44352196
0.27100001 124522.35068192 6096.61457790
0.27200001 122760.39345860 5529.74218503
0.27300001 121016.30454385 5471.14738734
0.27400001 119289.25737644 5904.81851958
0.27500001 117583.54082164 5354.75470243
0.27600001 115893.86140980 6741.54623726
0.27700001 114224.35895600 5239.47159328
0.27800001 112571.85905207 5182.24577672
0.27900001 110938.48291878 6057.24145404
0.28000001 109321.55368571 5068.69407653
0.28100001 107723.20470998 4556.69177490
0.28200001 106142.84990929 4956.34061110
0.28300001 104579.54878348 5346.10678684
0.28400001 103033.39372477 4404.67779021
0.28500001 101504.92573404 4790.01767211
0.28600001 99993.37672867  5165.65808630
0.28700001 98498.82526951  5531.69428896
0.28800001 97020.41177427  4626.41855444
0.28900001 95560.80833171  4572.58489511
0.29000001 94116.16692026  4929.80505663
0.29100001 92689.03294459  6901.62571974
0.29200001 91278.26318264  6418.68777083
0.29300001 89884.05466127  4756.66439784
0.29400001 88505.44123149  5482.91234383
0.29500001 87144.12646904  5803.79909757
0.29600001 85798.23759272  4204.54283226
0.29700001 84468.53597042  4530.89248394
0.29800001 83154.66051443  4102.43537068
0.29900001 81857.39665229  3683.58302373
0.30000001 80575.04565451  5456.94522528
0.30100001 79309.57468380  4311.26868391
0.30200001 78058.17055088  5321.61602924
0.30300001 76823.61737804  5254.73567742
0.30400001 75604.52034075  3804.79766627
0.30500001 74400.48372572  4097.97883762
0.30600001 73210.93111271  3371.36353735
0.30700001 72037.91307146  4326.59726391
0.30800001 70879.57615227  4599.37591427
0.30900001 69736.25978785  3891.28348039
0.31000001 68608.49363513  3520.64501757
0.31100001 67494.60031783  3790.49693331
0.31200001 66396.35514883  3740.77082619
0.31300001 65312.43786367  4306.70235664
0.31400001 64244.36645701  4553.31968822
0.31500001 63189.75245392  3893.75273057
0.31600002 62150.25017023  2955.24453552
0.31700002 61125.13143334  3498.80268891
0.31800002 60114.43967363  4602.36171933
0.31900002 59118.25616350  3121.44407323
0.32000002 58136.48661143  3359.12635546
0.32100002 57168.19522916  3589.59114841
0.32200002 56215.35564847  3268.36093216
0.32300002 55274.71630850  4029.52700969
0.32400002 54348.83135207  3709.30791542
0.32500002 53436.73116179  3396.97316081
0.32600002 52538.73413282  2834.72753437
0.32700002 51653.86798154  3303.78155254
0.32800002 50783.36264561  3007.39087828
0.32900002 49925.64572487  3459.84741257
0.33000002 49082.32737533  2680.63143654
0.33100002 48250.03781307  6007.12999219
0.33200002 47433.91124452  2369.32397886
0.33300002 46629.52366237  2336.13924611
0.33400002 45838.66830893  2303.39319160
0.33500002 45059.87630350  2725.22144789
0.33600002 44294.95103727  2463.02086907
0.33700002 43541.81354256  3311.35507673
0.33800002 42802.47808348  2394.15672498
0.33900002 42074.67120570  4077.03583291
0.34000002 41360.03745884  2750.23582107
0.34100002 40657.43303659  3962.88018575
0.34200002 39967.81130386  3290.15038235
0.34300002 39289.27698285  2432.79214599
0.34400002 38624.26277359  2198.68626252
0.34500002 37970.12876680  1970.64977633
0.34600002 37329.03990556  1942.97661910
0.34700002 36698.05755558  2873.45804269
0.34800002 36080.42068826  2077.69112374
0.34900002 35473.43820193  2048.59115319
0.35000002 34878.16239205  2203.60240430
0.35100002 34294.83353682  3259.38113371
0.35200002 33721.47217700  2678.32805451
0.35300002 33159.74440943  2465.09551615
0.35400002 32609.44820602  1910.09851914
0.35500002 32070.00671847  1883.79228387
0.35600002 31540.54165335  2026.79530264
0.35700002 31022.15707558  1665.88991386
0.35800002 30514.92750633  1807.55181645
0.35900002 30017.99108536  2107.26307400
0.36000002 29531.65556532  1918.96706953
0.36100002 29054.71228727  2050.97223751
0.36200002 28589.11437472  2023.68055687
0.36300002 28132.45657625  1689.63542200
0.36400002 27685.72195595  1515.79334889
0.36500002 27248.67933213  2094.33359267
0.36600002 26821.65643445  1771.83870799
0.36700002 26403.59756307  2331.96584723
0.36800002 25996.48977953  1870.57751069
0.36900002 25597.53125062  1704.79566205
0.37000002 25207.44928738  1823.63300508
0.37100002 24826.38911287  1800.90635156
0.37200002 24455.17828087  2052.40093444
0.37300002 24092.00954710  2027.34269942
0.37400002 23737.67720546  1468.76884666
0.37500002 23392.23928557  1715.11906566
0.37600002 23055.48635750  1825.30294139
0.37700002 22726.46273686  1417.44954805
0.37800002 22405.62651318  1273.75992762
0.37900002 22093.60240941  1385.26893669
0.38000002 21789.28058274  1494.30893315
0.38100002 21491.94961247  1477.78652536
0.38200002 21203.38229926  1461.76124496
0.38300002 20921.80300967  1325.60550149
0.38400002 20648.49317848  1430.94064506
0.38500002 20381.36173856  1652.11326080
0.38600002 20122.77330579  1752.19056861
0.38700002 19870.48790992  1387.75494137
0.38800002 19625.55181185  1488.69630322
0.38900002 19386.94820632  1587.79113332
0.39000002 19156.32744485  1797.62985259
0.39100002 18931.18049813  1335.78415923
0.39200002 18713.30652114  1434.09431319
0.39300002 18501.39579184  1202.77579741
0.39400002 18297.31348521  1192.52746290
0.39500002 18098.07001892  1290.03049207
0.39600002 17905.13444575  1492.75112947
0.39700002 17718.18830670  1586.66383804
0.39800002 17537.27230524  1049.60579720
0.39900002 17362.00296029  1458.40831776
0.40000002 17192.22125502  1137.52337323
0.40100002 17028.42391812  1437.53961528
0.40200002 16870.08347916  1019.79659463
0.40300002 16716.64151228  1114.33137601
0.40400002 16568.81564595  1207.86671782
0.40500002 16426.18092906  1400.49625237
0.40600002 16288.45219232  1093.85105880
0.40700002 16155.74751351  1483.09769201
0.40800002 16027.88141918  1179.97268599
0.40900002 15904.52720712  1075.94131654
0.41000002 15786.31667170  1070.54911582
0.41100002 15672.26654314  1065.40073008
0.41200002 15562.37543930  964.08920415
0.41300002 15457.62658273  1343.88611878
0.41400002 15356.40742573  1338.31097057
0.41500002 15259.71194747  952.20607064
0.41600002 15166.47728510  1517.86111861
0.41700002 15077.58468374  1039.90106491
0.41800002 14993.48431398  1225.04269392
0.41900002 14911.26395657  1033.35064115
0.42000002 14833.95135489  1124.11688694
0.42100002 14760.41911130  1121.20148882
0.42200002 14690.38855858  1118.52623785
0.42300002 14623.24284528  1302.05360464
0.42400002 14559.38211277  1113.79278440
0.42500002 14499.20046255  1204.44863950
0.42600002 14441.28516413  1109.95723031
0.42700002 14387.72278838  1293.16858550
0.42800002 14336.29098762  1476.06459003
0.42900002 14288.87669286  1013.79584940
0.43000002 14243.68442114  920.85424146
0.43100002 14200.41015922  1196.24260850
0.43200002 14160.95069717  1195.67992878
0.43300002 14123.81207167  1379.19031416
0.43400002 14089.29248162  1195.12429139
0.43500002 14057.02851607  1195.12862107
0.43600002 14027.61218206  1195.36302874
0.43700002 13999.89218839  1195.73084847
0.43800002 13974.38986990  1196.27770150
0.43900002 13951.82746127  920.82065608
0.44000002 13930.92212847  921.53054247
0.44100002 13912.34290651  1014.62721625
0.44200002 13895.62858752  1108.03747608
0.44300002 13880.92133580  1109.36328573
0.44400002 13868.45013085  1110.86290813
0.44500002 13856.51053100  1019.70065830
0.44600002 13846.76516238  928.42564814
0.44700002 13839.81279803  1023.03901051
0.44800002 13832.81453660  1211.13213415
0.44900002 13829.17971607  1026.81664258
0.45000002 13826.32684184  1215.95637173
0.45100002 13824.72422021  1124.77961586
0.45200002 13824.71138150  1033.32810118
0.45300002 13825.68103628  941.52892319
0.45400002 13828.44814347  1038.17079357
0.45500002 13832.40820586  1040.75044273
0.45600002 13837.36715831  1043.40672002
0.45700002 13843.64679090  1141.27029553
0.45800002 13850.55416215  953.61069926
0.45900002 13858.65131095  956.24698578
0.46000002 13868.56967114  1054.91280203
0.46100002 13878.20671188  1057.93574779
0.46200002 13889.74355245  1061.10700898
0.46300002 13902.18785668  967.59232068
0.46400002 13914.58025476  1455.81302815
0.46500002 13928.43218930  973.59745618
0.46600002 13942.69637298  1465.02889083
0.46700002 13957.39759016  1371.73310018
0.46800002 13973.83185007  983.05911725
0.46900002 13989.79062276  986.28028565
0.47000002 14006.70949354  1286.44629441
0.47100002 14024.15993678  1588.65691294
0.47200002 14042.34293156  1394.82598950
0.47300002 14061.11773971  1099.72007055
0.47400002 14079.55800798  1404.43597786
0.47500002 14098.86925159  1711.32083087
0.47600002 14119.13045773  1313.29098177
0.47700002 14138.74531675  1520.62213089
