# SAXS profile: number of points = 501, q_min = 0, q_max = 0.5, delta_q = 0.001
#    q    intensity    error
0.00000000 1700912.83420643 306.16431016
0.00100000 1700824.66971853 510.24741303
0.00200000 1700560.14500632 918.30250738
0.00300000 1700119.47480279 1530.10758183
0.00400000 1699502.54344829 1402.08965162
0.00500000 1698710.00689057 1681.72297339
0.00600000 1697741.70802586 1960.89175260
0.00700000 1696598.41387423 2035.91818126
0.00800000 1695279.87221347 3204.07909376
0.00900000 1693787.55249269 2794.74958108
0.01000000 1692120.83146134 3908.79928946
0.01100000 1690281.34194232 3651.00785756
0.01200000 1688268.88695884 3621.33692130
0.01300000 1686084.91725292 4603.01202712
0.01400000 1683729.61225076 4167.23097506
0.01500000 1681204.49666350 4438.38006883
0.01600000 1678509.21742287 4708.21856534
0.01700000 1675646.17080276 4524.24486412
0.01800000 1672615.67390095 6673.73683917
0.01900000 1669418.75992725 5509.08215634
0.02000000 1666056.33995639 5248.07770826
0.02100000 1662530.99510235 5486.35253258
0.02200000 1658841.50010808 7439.90446600
0.02300000 1654991.05898670 7149.56170026
0.02400000 1650980.15191397 8048.52860757
0.02500000 1646811.22044920 10918.35889023
0.02600000 1642484.74394881 7317.26986897
0.02700000 1638002.50730293 10319.41626865
0.02800000 1633365.25187095 7815.65308863
0.02900000 1628576.28308421 10260.03105451
0.03000000 1623636.14462608 12834.84431323
0.03100000 1618546.67214979 10099.73169894
0.03200000 1613308.91098410 10381.64332034
0.03300000 1607927.22166071 8200.42920851
0.03400000 1602400.11999077 10095.12122173
0.03500000 1596731.56129661 9484.58591208
0.03600000 1590922.26506774 10595.54277501
0.03700000 1584975.51457122 12648.10519122
0.03800000 1578892.67102798 10160.17480827
0.03900000 1572676.24248658 11323.26947028
0.04000000 1566326.48690570 17339.23501353
0.04100000 1559847.49649434 14740.55952534
0.04200000 1553241.06213347 10018.40531554
0.04300000 1546508.54538586 13269.04393533
0.04400000 1539653.20942254 15588.98946939
0.04500000 1532677.26335336 11633.02096938
0.04600000 1525581.42409133 16133.02430974
0.04700000 1518369.83274195 12025.48963460
0.04800000 1511043.97434798 11106.17372821
0.04900000 1503606.80713521 14660.16705196
0.05000000 1496059.81628634 13733.82975304
0.05100000 1488407.36342452 12770.53577309
0.05200000 1480648.12522747 17656.72971616
0.05300000 1472788.34729207 13122.54478612
0.05400000 1464828.43265812 15710.28567289
0.05500000 1456772.30748835 14684.26554449
0.05600000 1448620.58453236 13624.27723329
0.05700000 1440378.86095845 12531.29667528
0.05800000 1432045.94995441 13940.96797374
0.05900000 1423626.20978716 16656.42743246
0.06000000 1415123.10457527 14243.21471298
0.06100000 1406538.34452671 14388.88793692
0.06200000 1397874.65910589 18493.88260444
0.06300000 1389135.25889057 13335.69910886
0.06400000 1380319.96038226 17495.55631605
0.06500000 1371434.77116204 17650.36633050
0.06600000 1362481.37720551 20539.40772238
0.06700000 1353460.90036845 17946.89237878
0.06800000 1344377.36482512 15305.73701498
0.06900000 1335234.85935978 18225.95668358
0.07000000 1326032.48846542 15534.47132983
0.07100000 1316774.95569879 17065.40422516
0.07200000 1307464.65534402 18611.76024072
0.07300000 1298104.58955622 15849.85778114
0.07400000 1288697.60363620 18847.20333644
0.07500000 1279244.68388721 17500.06809585
0.07600000 1269748.95281752 17598.72131109
0.07700000 1260214.47639550 17693.41207821
0.07800000 1250642.55624912 16302.12648522
0.07900000 1241034.69536197 17870.90045142
0.08000000 1231396.65869774 17953.76412604
0.08100000 1221729.07821853 19535.44887728
0.08200000 1212033.35955282 16598.79763798
0.08300000 1202312.90115839 19693.88624525
0.08400000 1192571.12106166 21287.39551015
0.08500000 1182809.73816860 18309.89560641
0.08600000 1173031.32184945 21431.28325642
0.08700000 1163237.90608770 23032.11162207
0.08800000 1153431.48553546 18477.97326607
0.08900000 1143615.79489734 20070.45814315
0.09000000 1133792.70209724 21666.77955489
0.09100000 1123964.14750900 21714.98835007
0.09200000 1114131.95258907 21758.99805645
0.09300000 1104300.74675182 15570.64126090
0.09400000 1094468.70601477 15596.17979369
0.09500000 1084641.01407551 21866.36387154
0.09600000 1074818.93586192 15638.61625193
0.09700000 1065006.93614359 28180.08485518
0.09800000 1055204.32560530 20370.72046359
0.09900000 1045414.88812517 21953.71368295
0.10000000 1035638.20755254 15689.91958227
0.10100000 1025878.33021648 25113.50270483
0.10200000 1016137.13585674 17269.25143617
0.10300000 1006416.04822638 23550.13663631
0.10400000 996717.46405758 17268.13087718
0.10500000 987044.82902179 15694.01351984
0.10600001 977395.02386132 17255.90995822
0.10700001 967775.91087812 17245.76754339
0.10800001 958184.34202949 18799.57767536
0.10900001 948625.54657423 15652.32225516
0.11000001 939099.75855621 15636.01171594
0.11100001 929608.21914647 17179.16069851
0.11200001 920153.87580199 28073.89607236
0.11300001 910736.53923596 18688.31466498
0.11400001 901359.47425481 15548.45166299
0.11500001 892023.98025900 17073.33978611
0.11600001 882730.91053086 18590.31385123
0.11700001 873482.21564697 17006.69953958
0.11800001 864277.92428234 21598.30634506
0.11900001 855120.16907180 20009.81289877
0.12000001 846010.29557864 15355.08758805
0.12100001 836951.11776633 16847.82679431
0.12200001 827941.89937320 22913.29314463
0.12300001 818985.15669091 18279.74955858
0.12400001 810080.58585664 18226.81404058
0.12500001 801229.69109382 16657.56606275
0.12600001 792435.55223654 21134.25717407
0.12700001 783696.83569556 19561.07394080
0.12800001 775015.01409676 17995.84947546
0.12900001 766391.81084447 20922.49742217
0.13000001 757827.67518359 16380.44597118
0.13100001 749322.72762136 20771.22698877
0.13200001 740878.50413689 14780.52685429
0.13300001 732497.02066942 16195.50989051
0.13400001 724176.66204393 14664.57809776
0.13500001 715920.72277478 23367.65349311
0.13600001 707727.13521420 20361.31064016
0.13700001 699599.10522740 15929.87237717
0.13800001 691534.53128750 14418.49565726
0.13900001 683536.99762313 15789.70538971
0.14000001 675605.10158016 15717.95342953
0.14100001 667739.70575199 17067.42768397
0.14200001 659940.93777934 15571.30716133
0.14300001 652211.09067011 18314.08828985
0.14400001 644546.32261118 15420.77149587
0.14500001 636951.79113772 16739.09386072
0.14600001 629425.21852739 19430.35741255
0.14700001 621969.37984743 15188.49297241
0.14800001 614579.40538887 16483.02043018
0.14900001 607260.12586432 13663.35347660
0.15000001 600009.96776879 16308.27169343
0.15100001 592829.62282596 16219.81924585
0.15200001 585719.41221417 16130.71337354
0.15300001 578680.09986492 17377.76421898
0.15400001 571707.92831728 17279.87294884
0.15500001 564807.48553140 17181.44452071
0.15600001 557974.51912158 15768.36065456
0.15700001 551215.14911122 16982.93954566
0.15800001 544521.72895582 18181.58138798
0.15900001 537900.40103375 12909.61023415
0.16000001 531346.36350215 17964.82139799
0.16100001 524864.81023895 16580.48013812
0.16200001 518451.23059361 17746.58646097
0.16300001 512106.41867257 15117.38219287
0.16400001 505831.04844895 22534.77427226
0.16500001 499623.76994154 13684.69570477
0.16600001 493485.97206885 17306.55385755
0.16700001 487414.59602707 14739.41807978
0.16800001 481410.84714831 13424.14210657
0.16900001 475476.68813981 16974.51856810
0.17000001 469608.19500431 16863.63107890
0.17100001 463806.37744978 13162.82561359
0.17200001 458071.52376413 13075.65226332
0.17300001 452402.90251741 17711.57446998
0.17400001 446799.84114033 14074.19566059
0.17500001 441261.77417559 12814.24252724
0.17600001 435786.98930118 18512.23217983
0.17700001 430378.54903723 14938.44014263
0.17800001 425032.11969208 15976.95813385
0.17900001 419749.90875318 18133.19691463
0.18000001 414530.36267365 12379.94986602
0.18100001 409374.67503579 12293.52207203
0.18200001 404278.04519740 17755.89258382
0.18300001 399243.97365695 11019.13419347
0.18400001 394269.88192190 12035.08871421
0.18500001 389357.56138046 13035.69177085
0.18600001 384503.13237738 10785.31337272
0.18700001 379707.58617834 12849.30532334
0.18800001 374970.35093309 11693.45094632
0.18900001 370292.61408518 10553.34000005
0.19000001 365668.13967711 10476.39269675
0.19100001 361104.89472333 13519.76789725
0.19200001 356594.15636179 12388.08157736
0.19300001 352141.38099685 10247.31467122
0.19400001 347741.03836232 17291.42394965
0.19500001 343395.92049574 12115.00864759
0.19600001 339103.87997150 13026.67616470
0.19700001 334864.50840078 10940.02400645
0.19800001 330677.74794649 9870.73124268
0.19900001 326542.77436737 13714.79717159
0.20000001 322457.38702846 14583.13601758
0.20100001 318423.76473533 14472.36079122
0.20200001 314438.22941150 10532.10899192
0.20300001 310503.20221797 12351.81796803
0.20400001 306615.86698422 10371.28219095
0.20500001 302776.03255741 14033.66977236
0.20600001 298983.54842087 12068.47150246
0.20700001 295237.68618309 12895.98274206
0.20800001 291536.45238742 11881.56867869
0.20900001 287882.75048605 12695.62989657
0.21000001 284271.64572320 10796.63761495
0.21100001 280705.23468997 11604.35495066
0.21200001 277181.70670804 14169.52951677
0.21300001 273700.20751771 8785.77707667
0.21400001 270261.81545493 11330.72714863
0.21500001 266865.74790531 12969.67596137
0.21600001 263509.32873127 12008.12067801
0.21700001 260193.52628131 10209.99445400
0.21800001 256917.72078336 10971.67178480
0.21900001 253679.95022944 10045.72650406
0.22000001 250480.49551550 10794.45746463
0.22100001 247320.65882836 10706.51182692
0.22200001 244198.25375605 9802.11836926
0.22300001 241111.29116772 11341.87567283
0.22400001 238059.99585195 11248.33533590
0.22500001 235047.27813579 12748.96496895
0.22600001 232067.45062425 11062.65589439
0.22700001 229124.44420828 8619.66199873
0.22800001 226214.00918498 7770.45158297
0.22900001 223336.66052791 8475.62666785
0.23000001 220493.79159217 9168.13228798
0.23100001 217684.03616573 11363.10722524
0.23200001 214904.76377223 8262.01403396
0.23300001 212158.12877207 10425.45094093
0.23400001 209443.25792477 11074.31278654
0.23500001 206757.14232957 9514.96414003
0.23600001 204103.23612927 9432.63150385
0.23700001 201478.34964549 10789.16613382
0.23800001 198883.12627246 7842.95645552
0.23900001 196316.50386411 7067.39447339
0.24000001 193778.36453495 9106.61467207
0.24100001 191269.66497307 7637.39808363
0.24200001 188787.78778306 11010.10430431
0.24300001 186333.69987835 8865.75785959
0.24400001 183906.14159846 8110.26122814
0.24500001 181505.04233284 7367.29001679
0.24600001 179130.73201916 7300.47332879
0.24700001 176782.32467858 8549.19362588
0.24800001 174459.25892117 7167.65899185
0.24900001 172160.52484219 9684.02998050
0.25000001 169887.79964556 7675.53115110
0.25100001 167638.28094867 6970.40005161
0.25200001 165414.71950671 8788.48446317
0.25300001 163214.70020009 8084.02448337
0.25400001 161037.90203071 6775.67004851
0.25500001 158883.98416825 6101.14528072
0.25600001 156753.67598824 6042.85449525
0.25700001 154645.48515147 6583.25861437
0.25800001 152560.51248424 6519.67380949
0.25900001 150497.52081415 5869.40358946
0.26000001 148456.39454273 8136.89536989
0.26100001 146436.50859283 5754.95506000
0.26200001 144438.86632720 7977.35896472
0.26300001 142461.67760971 5641.48270029
0.26400001 140505.87557202 10053.19587288
0.26500001 138571.23774115 5528.99264750
0.26600001 136656.06221492 6567.69066083
0.26700001 134762.43412473 7042.68514062
0.26800001 132889.12106975 5898.28391779
0.26900001 131034.40345332 7960.34038648
0.27000001 129200.50207914 9978.80125030
0.27100001 127385.66827308 5197.33551149
0.27200001 125591.74533540 5657.28043636
0.27300001 123815.97314285 5597.72041070
0.27400001 122057.51225915 6545.33440465
0.27500001 120320.70069053 4981.27724433
0.27600001 118600.37371715 5420.63033728
0.27700001 116900.35978005 5362.21975689
0.27800001 115217.70939992 5786.23363991
0.27900001 113554.48605299 5723.14636793
0.28000001 111907.99495182 5660.30665256
0.28100001 110280.31273898 4664.85744964
0.28200001 108671.04915749 4613.08625507
0.28300001 107079.00580083 5473.87903562
0.28400001 105504.51726706 5412.38199197
0.28500001 103947.81322667 6243.10595789
0.28600001 102408.42435737 4408.68287726
0.28700001 100886.31680433 5665.77581991
0.28800001 99380.61018677  5169.77958662
0.28900001 97893.87723948  5535.89901993
0.29000001 96422.39650636  6734.14049076
0.29100001 94968.80700977  4991.56073271
0.29200001 93531.74078362  5755.00828283
0.29300001 92111.44368566  6093.17228823
0.29400001 90707.09154973  5217.92568840
0.29500001 89320.32314124  5155.56929576
0.29600001 87949.14308534  4309.94796092
0.29700001 86594.39063043  5806.15416662
0.29800001 85255.60317190  5353.19957658
0.29900001 83933.88876769  4154.72769068
0.30000001 82627.25484455  4103.68280612
0.30100001 81337.62445700  4053.05401856
0.30200001 80062.46566714  4002.72316052
0.30300001 78804.24107564  5030.86298844
0.30400001 77561.66372334  4258.13554000
0.30500001 76334.42032293  4204.50007044
0.30600001 75122.02429689  4843.11713571
0.30700001 73926.18903379  4098.46811407
0.30800001 72745.35471521  5057.62102602
0.30900001 71579.76390747  3994.15101514
0.31000001 70429.81285152  3942.66111009
0.31100001 69294.06446199  3567.25860740
0.31200001 68174.03111836  4481.07927757
0.31300001 67068.61613339  3474.82516639
0.31400001 65979.40018179  3429.27948681
0.31500001 64903.59592015  3076.43059228
0.31600002 63843.18171556  3035.74343431
0.31700002 62797.34865836  4193.60714196
0.31800002 61766.14414056  2955.51013706
0.31900002 60749.56148444  4665.56654291
0.32000002 59747.76534287  4027.59705247
0.32100002 58759.49172245  3121.89194303
0.32200002 57786.84261296  3919.68172004
0.32300002 56826.56278351  3314.12529846
0.32400002 55881.25489910  2996.63243586
0.32500002 54949.79240491  3761.86296617
0.32600002 54032.81426856  3445.40256498
0.32700002 53129.04741057  3136.73910765
0.32800002 52239.69630232  3093.63496152
0.32900002 51363.41377110  4067.98256330
0.33000002 50501.79101881  3259.63825567
0.33100002 49651.27151731  2472.63343865
0.33200002 48816.98451009  2926.09019010
0.33300002 47994.63058225  3366.34354845
0.33400002 47186.10079964  2608.21184521
0.33500002 46389.60024303  3039.44675186
0.33600002 45607.29030979  3458.17295151
0.33700002 44836.80402193  2500.54867872
0.33800002 44080.38249571  2465.63631166
0.33900002 43335.49816676  3094.15471564
0.34000002 42603.99494436  3268.79166691
0.34100002 41884.69494753  2578.42194308
0.34200002 41178.53010011  2754.22611618
0.34300002 40483.43776083  3551.20732856
0.34400002 39802.18026201  2471.71551133
0.34500002 39131.90753878  2843.32453643
0.34600002 38474.81590954  2002.61426294
0.34700002 37827.92150188  2369.54111510
0.34800002 37194.52419222  2141.84677705
0.34900002 36571.91998477  2304.03106816
0.35000002 35961.13724137  2461.36015506
0.35100002 35362.44357705  2240.56453116
0.35200002 34773.85838709  1841.27588880
0.35300002 34196.97672928  2542.20337046
0.35400002 33631.70517265  2686.33257790
0.35500002 33077.51466818  1942.97330364
0.35600002 32533.26424246  2090.58765924
0.35700002 32000.19896335  1890.25184230
0.35800002 31478.58603362  2542.68290730
0.35900002 30967.24326115  1839.45433684
0.36000002 30466.59573835  2144.69610859
0.36100002 29975.48148327  1953.20246597
0.36200002 29495.94089617  1766.65946366
0.36300002 29025.24639321  2377.16779220
0.36400002 28564.79194813  2033.09916321
0.36500002 28113.99469306  1697.80421993
0.36600002 27673.41668906  2132.79032525
0.36700002 27241.87428864  1954.87699155
0.36800002 26821.44759808  1484.56719488
0.36900002 26409.17099792  2198.56358972
0.37000002 26005.93453034  1736.67639020
0.37100002 25611.78659909  2143.70663989
0.37200002 25227.66051334  1834.93397436
0.37300002 24851.62659704  1394.17631814
0.37400002 24484.59592440  1790.43616179
0.37500002 24126.49970201  1496.80811242
0.37600002 23777.17728404  1479.05938302
0.37700002 23435.68676782  1594.56420322
0.37800002 23102.56097263  1970.07098027
0.37900002 22778.30721803  1428.19993023
0.38000002 22461.84273444  1540.43324770
0.38100002 22152.43163712  1650.13471082
0.38200002 21851.99046392  1883.09536744
0.38300002 21558.38749549  1490.11581428
0.38400002 21273.47660950  1842.81499860
0.38500002 20994.51937351  1215.58272931
0.38600002 20724.48999604  1443.66804152
0.38700002 20460.64274240  1428.97135683
0.38800002 20204.26100062  1178.91868524
0.38900002 19954.36372682  1867.72853331
0.39000002 19712.55383347  1387.36960453
0.39100002 19476.24837582  1374.24415050
0.39200002 19247.31848381  1588.48126973
0.39300002 19024.42413025  1574.08092711
0.39400002 18809.46585422  1448.79917606
0.39500002 18599.45731624  1215.28859862
0.39600002 18395.77373776  1205.01521578
0.39700002 18198.24609337  1195.07887757
0.39800002 18006.77447812  1293.24660429
0.39900002 17821.00486347  1390.03844521
0.40000002 17640.84896989  1379.42625056
0.40100002 17466.68370030  1158.56518473
0.40200002 17298.28946999  1045.68164800
0.40300002 17134.63786058  1453.70274497
0.40400002 16976.76136093  1443.87362216
0.40500002 16824.17986703  1127.05186269
0.40600002 16676.51362713  1425.34168724
0.40700002 16533.97839902  1113.06747856
0.40800002 16396.42807378  1307.69718298
0.40900002 16263.44358108  1100.22201039
0.41000002 16135.62982281  1193.71395085
0.41100002 16012.02383492  1286.40605585
0.41200002 15892.75373441  1083.01175455
0.41300002 15778.56906970  1469.77377848
0.41400002 15668.14056623  1267.94433540
0.41500002 15562.31040794  1262.41468011
0.41600002 15459.86669023  1450.52206094
0.41700002 15361.95920095  1155.83386505
0.41800002 15268.82540180  1151.57486637
0.41900002 15177.68316990  1051.81349351
0.42000002 15091.62015238  1048.33944356
0.42100002 15009.26691326  1425.12996094
0.42200002 14930.58872193  1042.08048923
0.42300002 14854.78512055  1133.71725412
0.42400002 14782.40380007  1319.32960167
0.42500002 14713.69913450  1128.24650310
0.42600002 14647.41497456  1125.80036829
0.42700002 14585.47319451  1404.58113519
0.42800002 14525.80968916  934.73589779
0.42900002 14470.16730781  1026.65841914
0.43000002 14416.82904650  1118.45765043
0.43100002 14365.49912290  930.88438728
0.43200002 14318.08526151  1115.95161816
0.43300002 14273.00737867  1022.09010682
0.43400002 14230.66186410  928.55073063
0.43500002 14190.63319439  1484.90792783
0.43600002 14153.47985215  1113.31277793
0.43700002 14118.13466457  1205.82993884
0.43800002 14084.99271857  1391.24522171
0.43900002 14054.98226384  1020.39176071
0.44000002 14026.57500072  1391.78697040
0.44100002 14000.63535403  1299.53903515
0.44200002 13976.66792181  1393.12444113
0.44300002 13954.64910451  929.37967440
0.44400002 13935.00841915  1023.17804167
0.44500002 13915.96907413  1024.07621270
0.44600002 13899.12037492  931.93606530
0.44700002 13885.23757346  1026.39681007
0.44800002 13871.27356165  1681.61457357
0.44900002 13860.77264410  1309.84307694
0.45000002 13851.16436964  1030.73444542
0.45100002 13842.76471575  1220.10133987
0.45200002 13836.11730001  1316.22990113
0.45300002 13830.48322997  1130.22714312
0.45400002 13826.66533584  1415.50493084
0.45500002 13824.17494451  1323.80305543
0.45600002 13822.72085353  947.54755942
0.45700002 13822.67151840  1044.57933615
0.45800002 13823.30747820  951.73476498
0.45900002 13825.15396052  1049.32923534
0.46000002 13828.95674934  1147.52688545
0.46100002 13832.42829491  1054.44605890
0.46200002 13838.02680250  1249.36630908
0.46300002 13844.42131787  1156.28612327
0.46400002 13850.94122189  1062.71351562
0.46500002 13858.90835994  968.73774027
0.46600002 13867.46986803  1942.83262059
0.46700002 13876.37791717  1363.77048634
0.46800002 13887.16479573  1172.35450762
0.46900002 13897.53600262  1175.73160155
0.47000002 13908.90587845  1080.93067158
0.47100002 13920.89360111  1182.71917641
0.47200002 13933.69120244  1285.17406897
0.47300002 13947.09725574  1090.80252807
0.47400002 13960.25378827  1094.13494251
0.47500002 13974.31820282  997.76636697
0.47600002 13989.46411868  1401.32468719
0.47700002 14003.94249507  1204.89926939
