# SAXS profile: number of points = 501, q_min = 0, q_max = 0.5, delta_q = 0.001
#    q    intensity    error
0.00000000 1719190.39626458 361.02998322
0.00100000 1719101.84198028 618.87667781
0.00200000 1718836.14925295 1160.21443748
0.00300000 1718393.52783054 1443.45061480
0.00400000 1717773.87668030 2318.99482164
0.00500000 1716977.83784241 2317.92017283
0.00600000 1716005.25959054 2702.70839389
0.00700000 1714856.91333041 2880.95973413
0.00800000 1713532.53284887 3932.55732892
0.00900000 1712033.63012909 3081.66066597
0.01000000 1710359.50518882 2822.09330542
0.01100000 1708511.86065010 3382.85363137
0.01200000 1706490.48875481 3660.42225887
0.01300000 1704296.82625210 4652.73054088
0.01400000 1701931.01087525 5744.01741634
0.01500000 1699394.69113558 4486.40218437
0.01600000 1696687.40314394 4759.20837857
0.01700000 1693811.55503508 4573.29140375
0.01800000 1690767.53234195 5300.55645240
0.01900000 1687556.32459815 6075.20304268
0.02000000 1684178.81986086 5835.67987480
0.02100000 1680637.71919925 7209.93614225
0.02200000 1676931.64111830 6942.49730964
0.02300000 1673063.86904614 6625.33322300
0.02400000 1669034.85643121 6258.88099701
0.02500000 1664847.13977635 7142.19455583
0.02600000 1660501.01217728 6725.02940691
0.02700000 1655998.49714344 9041.75220853
0.02800000 1651340.13564669 12929.99385508
0.02900000 1646529.38787604 10373.13561989
0.03000000 1641566.71176700 10686.59978482
0.03100000 1636453.91972073 10211.47292892
0.03200000 1631192.15429431 8074.40153565
0.03300000 1625785.80210504 8291.50797298
0.03400000 1620233.25510632 11058.09247633
0.03500000 1614538.45441224 13949.61289029
0.03600000 1608702.27985594 11606.78748555
0.03700000 1602727.91176290 11876.21437541
0.03800000 1596616.73956157 10274.22919457
0.03900000 1590371.33328058 13359.11981822
0.04000000 1583991.86112435 11689.86047679
0.04100000 1577482.31093595 10931.95292166
0.04200000 1570844.77629713 11145.14420488
0.04300000 1564080.44435298 10322.93141190
0.04400000 1557192.61660674 13664.36584532
0.04500000 1550183.43876278 14974.77271425
0.04600000 1543053.73138080 11966.38224314
0.04700000 1535807.50033886 12163.59596839
0.04800000 1528446.48796264 12357.49043015
0.04900000 1520973.41270328 12548.03123888
0.05000000 1513389.82206360 11577.43267790
0.05100000 1505700.02869147 19965.58331053
0.05200000 1497903.02754250 15480.82851108
0.05300000 1490004.68765628 14482.84623918
0.05400000 1482005.60448604 13449.20148790
0.05500000 1473909.72327702 13618.92647839
0.05600000 1465717.59279797 16291.45180418
0.05700000 1457434.80622641 15215.62008725
0.05800000 1449060.20698248 15389.02011670
0.05900000 1440598.08125887 16854.99833796
0.06000000 1432052.00502698 18344.58704143
0.06100000 1423423.77000506 13237.84167967
0.06200000 1414715.94164965 21390.50603761
0.06300000 1405931.87997225 17546.03068242
0.06400000 1397071.30329141 13621.44584412
0.06500000 1388140.00997973 15116.84541581
0.06600000 1379140.03919116 15246.39384661
0.06700000 1370072.56381350 18167.16304637
0.06800000 1360941.47204171 15494.31938447
0.06900000 1351750.83401211 17032.06130598
0.07000000 1342499.53968533 17157.14492062
0.07100000 1333192.54477479 17278.17618955
0.07200000 1323832.39817031 14495.96543905
0.07300000 1314421.94305273 17508.10110181
0.07400000 1304964.04721954 16148.93084115
0.07500000 1295459.67049446 20675.53731021
0.07600000 1285911.94835348 14852.28369977
0.07700000 1276324.96762614 16426.30310355
0.07800000 1266699.86806983 18012.47296867
0.07900000 1257038.60925741 21118.24962605
0.08000000 1247346.44836302 18186.31207027
0.08100000 1237624.42463316 19789.61547838
0.08200000 1227873.64242885 18344.43307870
0.08300000 1218097.76646868 23022.04886673
0.08400000 1208299.77317106 20027.56968038
0.08500000 1198482.02786394 17006.46077376
0.08600000 1188646.68133969 27921.31185562
0.08700000 1178795.94132967 21784.15001871
0.08800000 1168931.82270486 20286.81273579
0.08900000 1159057.91042949 17212.01077832
0.09000000 1149176.01077488 20392.12926913
0.09100000 1139288.53152967 22011.05546326
0.09200000 1129396.57890252 26783.64112715
0.09300000 1119505.53586991 15785.02879754
0.09400000 1109613.12432473 15811.98776475
0.09500000 1099724.69510506 19003.24362462
0.09600000 1089841.39845458 17442.91240222
0.09700000 1079967.93160379 15875.52934093
0.09800000 1070103.32426656 20658.34564627
0.09900000 1060251.78544577 15903.77752952
0.10000000 1050412.32013119 22279.24635771
0.10100000 1040589.51286829 23881.53044352
0.10200000 1030785.13930415 17518.19426647
0.10300000 1021000.07748444 20705.88254540
0.10400000 1011237.53297459 20705.08946173
0.10500000 1001500.53457956 17516.24517392
0.10600001 991786.01037032 19101.79945854
0.10700001 982101.85601563 15910.05081614
0.10800001 972445.01734644 22259.26749462
0.10900001 962820.59888138 19063.84875510
0.11000001 953228.90538762 19045.51442611
0.11100001 943671.13450301 17439.04338653
0.11200001 934150.27151883 19000.61741719
0.11300001 924666.14943393 15811.79189975
0.11400001 915221.92763781 17366.33689461
0.11500001 905819.33842384 22065.76012304
0.11600001 896458.53434805 18879.41762243
0.11700001 887142.05565632 20413.13966201
0.11800001 877869.64777927 25071.95832142
0.11900001 868643.64469817 21889.82087744
0.12000001 859465.31928089 18719.15553570
0.12100001 850337.40712811 18673.41034020
0.12200001 841259.08380204 17073.35391011
0.12300001 832233.31294335 17027.49438506
0.12400001 823259.41979155 16979.72633324
0.12500001 814338.91121999 18469.20737675
0.12600001 805474.91590378 23016.44680657
0.12700001 796666.40628886 16825.59529375
0.12800001 787914.28922017 19819.98487943
0.12900001 779220.99076459 16714.29103968
0.13000001 770586.48598162 16656.22767958
0.13100001 762010.99134884 18105.38200789
0.13200001 753495.97619593 18038.69452048
0.13300001 745043.69252029 16472.91681821
0.13400001 736652.26116244 20884.09258855
0.13500001 728325.29747024 19315.18779959
0.13600001 720060.43572980 17756.69118234
0.13700001 711861.02205375 22103.28577701
0.13800001 703724.85668387 19074.46313989
0.13900001 695655.92330053 20452.28510953
0.14000001 687652.45871179 15998.23520642
0.14100001 679715.37127060 17373.52570906
0.14200001 671844.83824492 18734.39419807
0.14300001 664042.97269503 14343.32888675
0.14400001 656306.52838054 15702.13443217
0.14500001 648639.83556761 15625.73437592
0.14600001 641041.16270704 15548.45413495
0.14700001 633513.22112857 15470.39358980
0.14800001 626051.19827849 18189.91842416
0.14900001 618659.78399532 19487.78411530
0.15000001 611337.21914207 16616.14640028
0.15100001 604084.72105930 15150.44551904
0.15200001 596902.23124805 15068.79753891
0.15300001 589790.62061442 16348.99677492
0.15400001 582746.18572668 14903.73440328
0.15500001 575773.68479692 16167.72583210
0.15600001 568868.42690700 14736.53729452
0.15700001 562036.80719195 17316.35484686
0.15800001 555271.19549171 17216.18422880
0.15900001 548577.68427292 19748.79756598
0.16000001 541951.52654248 14396.94298217
0.16100001 535397.75542798 14311.18267814
0.16200001 528912.25756056 18104.66743095
0.16300001 522495.39397745 15424.06475835
0.16400001 516148.08922267 19161.99871702
0.16500001 509868.76128869 19043.59913321
0.16600001 503659.12969609 17663.32651238
0.16700001 497516.14403062 17552.37039013
0.16800001 491440.72303773 23670.24354274
0.16900001 485434.91554056 18567.88639617
0.17000001 479494.93384713 14758.85476072
0.17100001 473621.71702736 17107.21722685
0.17200001 467815.42166392 13353.79184200
0.17300001 462075.51146988 16884.23998646
0.17400001 456401.60472651 15574.70549682
0.17500001 450792.40311309 14281.10400508
0.17600001 445246.65144726 14185.55898508
0.17700001 439767.47160676 16438.50886506
0.17800001 434350.46203370 16327.23463902
0.17900001 428997.81454800 13899.52984788
0.18000001 423707.71412907 13804.39797838
0.18100001 418481.84344514 13709.46583885
0.18200001 413315.12863017 15883.70114357
0.18300001 408211.19453815 13519.95540178
0.18400001 403167.32641633 14544.26198755
0.18500001 398185.52718403 12220.31440659
0.18600001 393261.61290610 13237.18651579
0.18700001 388396.73684795 15333.90389520
0.18800001 383590.34420125 11962.26544909
0.18900001 378843.88407888 12956.46144766
0.19000001 374150.57175841 12863.29726483
0.19100001 369518.81538727 13834.78510179
0.19200001 364939.79728347 13734.50991974
0.19300001 360418.70568532 11537.00331414
0.19400001 355950.52514373 11452.70868768
0.19500001 351537.56461401 12402.24586565
0.19600001 347177.98197353 15388.66477819
0.19700001 342871.34458044 12219.93529833
0.19800001 338617.36799401 10107.72891230
0.19900001 334415.56728417 10032.46749266
0.20000001 330263.45678178 9957.44369257
0.20100001 326163.44177317 12847.57857865
0.20200001 322111.58905823 12750.78785552
0.20300001 318110.59870172 11681.02173643
0.20400001 314157.55526024 13524.48339320
0.20500001 310252.28257715 11504.15518173
0.20600001 306394.39451806 15221.67423916
0.20700001 302583.62287834 14160.91422008
0.20800001 298817.38594522 13115.09568909
0.20900001 295099.40286262 11154.75795551
0.21000001 291423.90204244 10145.92362923
0.21100001 287793.51541429 11897.38448966
0.21200001 284206.13313085 9080.38638280
0.21300001 280661.19492050 14414.75965258
0.21400001 277159.55534260 10726.07529885
0.21500001 273700.64548732 15962.22239948
0.21600001 270281.45909923 9677.42810058
0.21700001 266903.19728532 13091.60244581
0.21800001 263565.26577215 11255.55520697
0.21900001 260265.70237065 13742.02973491
0.22000001 257004.68773865 10223.64696164
0.22100001 253783.60431646 14366.69051966
0.22200001 250600.12664200 10059.08955905
0.22300001 247452.57466044 9145.84759192
0.22400001 244340.81638901 9071.15323738
0.22500001 241267.98443038 8996.88356485
0.22600001 238228.25943961 8922.83987926
0.22700001 235225.87457856 8849.19782012
0.22800001 232256.15132667 9573.59901042
0.22900001 229319.85338293 9493.84237903
0.23000001 226418.44800685 10199.01947280
0.23100001 223550.46163766 9335.46771949
0.23200001 220713.03812049 10028.09736127
0.23300001 217908.75146988 9943.17679983
0.23400001 215136.49316243 8341.91791691
0.23500001 212393.30824748 11278.08520135
0.23600001 209682.70614861 7454.22055615
0.23700001 207001.28832056 8867.93561109
0.23800001 204350.01173351 10988.92240073
0.23900001 201727.59009170 7988.41294548
0.24000001 199133.95204540 7918.56197764
0.24100001 196570.10601092 7849.04470429
0.24200001 194033.44030939 8487.02308059
0.24300001 191524.69280673 7710.78449714
0.24400001 189043.01243005 8336.79724253
0.24500001 186588.11519671 8262.12213174
0.24600001 184160.06304586 7505.44372448
0.24700001 181758.46094284 10142.12260039
0.24800001 179382.62788093 9379.91805563
0.24900001 177031.39202210 6638.67751489
0.25000001 174706.52035565 7893.24096308
0.25100001 172405.05561886 8471.98483391
0.25200001 170129.94797942 8393.36138065
0.25300001 167878.73493994 6396.18010382
0.25400001 165651.02139551 6969.76705496
0.25500001 163446.45279847 9414.51612661
0.25600001 161265.88899965 8081.84040959
0.25700001 159107.98774479 7388.97530047
0.25800001 156973.39534437 6098.41669767
0.25900001 154861.17658290 6643.54478974
0.26000001 152771.27223437 6579.09515007
0.26100001 150702.78121535 6514.88154020
0.26200001 148656.94861850 7623.87197064
0.26300001 146631.82505509 6387.28260163
0.26400001 144628.58515206 6898.78383819
0.26500001 142646.79670298 6260.76820355
0.26600001 140684.81557985 6197.86984365
0.26700001 138744.55263236 6135.28440773
0.26800001 136825.15285302 7177.16373253
0.26900001 134924.53184679 5464.44379838
0.27000001 133045.17517650 5949.11528954
0.27100001 131185.24048546 10169.48032368
0.27200001 129346.50303517 5826.41350495
0.27300001 127526.31700616 10482.66375399
0.27400001 125723.66544770 5186.10144515
0.27500001 123943.09127373 6670.61748804
0.27600001 122179.28124619 8122.47900165
0.27700001 120436.22934253 8537.72470215
0.27800001 118710.81487017 5961.65740493
0.27900001 117005.03092294 6388.47499074
0.28000001 115316.43298656 6804.82303260
0.28100001 113647.03984191 7691.63202054
0.28200001 111996.35717076 5229.67014561
0.28300001 110363.18141666 6111.91327613
0.28400001 108747.88735193 4648.97240433
0.28500001 107150.83950086 5516.12547859
0.28600001 105571.34246360 6817.26976226
0.28700001 104009.45412841 6290.49208343
0.28800001 102464.20356336 6218.55280860
0.28900001 100938.51646787 4829.90824160
0.29000001 99428.23330009  4340.04258898
0.29100001 97936.20458170  5147.52715647
0.29200001 96461.02463620  5935.24712681
0.29300001 95002.96386742  4608.59399536
0.29400001 93561.19050456  5796.11602612
0.29500001 92137.33777581  4499.98778999
0.29600001 90729.35178370  4446.19209463
0.29700001 89338.15432782  3993.41568749
0.29800001 87963.10022347  7890.29046356
0.29900001 86605.65903720  4676.70580940
0.30000001 85263.47557363  6159.43376702
0.30100001 83938.67935067  7224.60247373
0.30200001 82628.74041640  4131.02407268
0.30300001 81336.00518977  4079.81421346
0.30400001 80059.13743510  5127.78799548
0.30500001 78797.93924996  3616.82558280
0.30600001 77551.99866295  3928.39667825
0.30700001 76322.89568006  5289.17692104
0.30800001 75109.17412183  5918.22765512
0.30900001 73910.90695991  4124.22880362
0.31000001 72728.68759911  5428.46949941
0.31100001 71560.92579305  5358.48237708
0.31200001 70409.17255744  4627.99513132
0.31300001 69272.40972663  3589.00371786
0.31400001 68152.08643727  4186.24210761
0.31500001 67045.49998203  3813.54821954
0.31600002 65954.61237307  4076.98455688
0.31700002 64878.55098018  3404.17773111
0.31800002 63817.51004857  3969.76840053
0.31900002 62771.44239587  3615.63525320
0.32000002 61740.32961796  2972.79701187
0.32100002 60723.06034434  3226.21634886
0.32200002 59721.77901480  3182.87236330
0.32300002 58733.00689844  3139.86669747
0.32400002 57759.67101258  2815.78409519
0.32500002 56800.48727376  3333.05275105
0.32600002 55855.96549603  3013.70876104
0.32700002 54924.96495501  2972.53924412
0.32800002 54008.70996368  3997.99494438
0.32900002 53105.77847402  3417.35700663
0.33000002 52217.75386298  4148.17856331
0.33100002 51341.27401899  3323.83423739
0.33200002 50481.15961830  2521.53404234
0.33300002 49633.21945373  3729.93661858
0.33400002 48799.50691005  3187.82793986
0.33500002 47978.06889555  2659.90426553
0.33600002 47171.06156252  3576.74591236
0.33700002 46376.14775437  3056.65204324
0.33800002 45595.77787719  2550.39995634
0.33900002 44826.91653066  2743.40742160
0.34000002 44071.92710312  2705.13501370
0.34100002 43329.22900868  3556.46328546
0.34200002 42600.05092898  3287.65908614
0.34300002 41882.16869800  3025.56801003
0.34400002 41178.46871189  2344.08444244
0.34500002 40485.87610765  2731.58219035
0.34600002 39806.72930792  2693.52246619
0.34700002 39138.14879841  2043.01146404
0.34800002 38483.22450547  2820.43565759
0.34900002 37839.35751704  2185.22300011
0.35000002 37207.69833980  2742.57957452
0.35100002 36588.19927440  2125.04271450
0.35200002 35979.20851026  2095.60909893
0.35300002 35382.13840028  2066.67080184
0.35400002 34796.79936187  2223.51558454
0.35500002 34222.95891100  2558.50852937
0.35600002 33659.22903975  2883.92288072
0.35700002 33106.83754274  1777.83726025
0.35800002 32566.16046212  2630.53173592
0.35900002 32036.12801804  1729.95099491
0.36000002 31516.97786989  1877.30887574
0.36100002 31007.53869738  1852.08037412
0.36200002 30509.92719026  2159.64529846
0.36300002 30021.41641815  1803.08635548
0.36400002 29543.34242686  1779.24788194
0.36500002 29075.19058620  1596.22803879
0.36600002 28617.47638133  2048.00979424
0.36700002 28169.02136888  1710.42305854
0.36800002 27731.87863697  1841.95146632
0.36900002 27303.15682491  1666.85780312
0.37000002 26883.66617809  1795.29131242
0.37100002 26473.46858284  1920.38550197
0.37200002 26073.51146075  1896.45694593
0.37300002 25681.81127355  1728.89961683
0.37400002 25299.41947678  2134.63861947
0.37500002 24926.10750440  1546.41578283
0.37600002 24561.84143586  1666.76663879
0.37700002 24205.56634675  1509.70124456
0.37800002 23857.87201754  1763.21611498
0.37900002 23519.30976630  1474.66079221
0.38000002 23188.70703963  1457.75813710
0.38100002 22865.27938740  1572.21668516
0.38200002 22551.05653388  1425.11408517
0.38300002 22243.89090034  1281.24817656
0.38400002 21945.57677567  1774.29996637
0.38500002 21653.51428642  1880.60780487
0.38600002 21370.56870607  1860.84235824
0.38700002 21093.78661607  1595.95597098
0.38800002 20824.91251470  1579.67381364
0.38900002 20562.49975480  1684.06880970
0.39000002 20308.51834019  1429.31358850
0.39100002 20060.18652466  1769.30853530
0.39200002 19819.37622214  1635.69319711
0.39300002 19584.71189709  1157.45652795
0.39400002 19358.30178357  1261.67737852
0.39500002 19136.95764261  1364.08240539
0.39600002 18922.16927394  1690.22285047
0.39700002 18713.62742102  1675.80541495
0.39800002 18511.37779080  1440.27781725
0.39900002 18314.91366228  1428.56333334
0.40000002 18124.34130077  1308.21501707
0.40100002 17939.86043435  1189.95099899
0.40200002 17761.30811823  1503.13957726
0.40300002 17587.65002714  1172.39280636
0.40400002 17419.96320678  1375.74165944
0.40500002 17257.75314467  1050.99721631
0.40600002 17100.51145279  1252.78352839
0.40700002 16948.71103718  1140.98728108
0.40800002 16801.88103368  1236.95454031
0.40900002 16659.91293854  1229.50163312
0.41000002 16523.29472265  1731.72398546
0.41100002 16390.88030204  1722.02596613
0.41200002 16263.05383082  1309.74510232
0.41300002 16140.47817834  1202.78849084
0.41400002 16021.74238314  1595.76561697
0.41500002 15907.74188363  1191.17176869
0.41600002 15797.25699767  1284.55401363
0.41700002 15691.53897863  1180.63144870
0.41800002 15590.60715949  1175.84364769
0.41900002 15491.90927288  1171.18839653
0.42000002 15398.41130158  1264.13263570
0.42100002 15308.75490470  1356.66192394
0.42200002 15222.87944758  2124.96184278
0.42300002 15139.94196695  962.90035473
0.42400002 15060.71411272  1344.16879825
0.42500002 14985.15499791  1053.30659472
0.42600002 14912.20048700  1337.17708103
0.42700002 14843.66220985  1143.55579084
0.42800002 14777.71807905  1236.23006448
0.42900002 14715.73672529  1138.99807651
0.43000002 14656.16550164  1421.28171687
0.43100002 14598.80499692  1135.20313035
0.43200002 14545.43928128  944.72632609
0.43300002 14494.51759301  1415.38971003
0.43400002 14446.46575128  1131.15832193
0.43500002 14400.88042985  1318.54467464
0.43600002 14358.24525761  941.18302124
0.43700002 14317.49834662  1410.98952893
0.43800002 14279.04935407  1034.30298898
0.43900002 14243.91437264  1128.11807177
0.44000002 14210.44143993  940.02074580
0.44100002 14179.55780468  1128.12567240
0.44200002 14150.69918681  1034.34540608
0.44300002 14123.94313436  1505.04745172
0.44400002 14099.62797509  1129.38025433
0.44500002 14075.99617505  1224.18944536
0.44600002 14054.70233531  1225.07818712
0.44700002 14036.45593493  1131.89986024
0.44800002 14018.24899552  1321.78076043
0.44900002 14003.61551681  1039.76850140
0.45000002 13989.91995400  946.41812974
0.45100002 13977.57515325  1516.28742449
0.45200002 13967.06257116  949.06194669
0.45300002 13957.51886581  1330.70991173
0.45400002 13949.99825364  1332.92239631
0.45500002 13943.86380359  1335.26446111
0.45600002 13938.90812000  1051.06341660
0.45700002 13935.42188741  1148.83623485
0.45800002 13932.67849738  1438.89744001
0.45900002 13931.14407104  1249.62368240
0.46000002 13931.70815747  1059.71543122
0.46100002 13932.01917446  1351.68456437
0.46200002 13934.54822590  967.75442016
0.46300002 13937.95279804  1067.08971679
0.46400002 13941.56784570  1166.90928399
0.46500002 13946.71271761  1559.80042426
0.46600002 13952.42215253  1172.84066173
0.46700002 13958.58515032  1273.86054119
0.46800002 13966.75064298  1473.84143145
0.46900002 13974.57344963  1674.85270732
0.47000002 13983.45312658  1284.31031328
0.47100002 13992.96312605  1188.84220354
0.47200002 14003.39201780  1092.89478183
0.47300002 14014.53153117  1295.36321082
0.47400002 14025.45251622  1299.10760089
0.47500002 14037.30735997  1202.71655161
0.47600002 14050.33945738  1105.83201941
