# SAXS profile: number of points = 501, q_min = 0, q_max = 0.5, delta_q = 0.001
#    q    intensity    error
0.00000000 1719190.39626458 412.60569510
0.00100000 1719101.85145376 618.87668122
0.00200000 1718836.18980308 773.47630990
0.00300000 1718393.61768292 1237.24344881
0.00400000 1717774.04373858 1803.66281446
0.00500000 1716978.08317727 2163.39247043
0.00600000 1716005.62865581 2882.88957351
0.00700000 1714857.40330326 2263.61186644
0.00800000 1713533.17841834 2775.92386624
0.00900000 1712034.44503736 3595.27248827
0.01000000 1710360.50254229 2822.09495105
0.01100000 1708513.05838509 3997.92073069
0.01200000 1706491.92203419 3327.65939386
0.01300000 1704298.51788224 3579.02704540
0.01400000 1701932.94338241 4212.28422161
0.01500000 1699396.89441725 5302.11854668
0.01600000 1696689.92766618 4759.21545986
0.01700000 1693814.37885598 7317.27844490
0.01800000 1690770.65236790 6746.17520651
0.01900000 1687559.84401339 5568.94773653
0.02000000 1684182.68116124 5835.69325421
0.02100000 1680641.95989397 6100.73059101
0.02200000 1676936.25622803 6942.51641620
0.02300000 1673068.85832624 7227.65779696
0.02400000 1669040.30182875 9388.35212587
0.02500000 1664852.94333418 8440.80480820
0.02600000 1660507.31539846 9415.07690894
0.02700000 1656005.27136466 10432.83368743
0.02800000 1651347.30774441 10056.70556536
0.02900000 1646537.10592758 8891.30078025
0.03000000 1641574.88844844 8396.65594037
0.03100000 1636462.58702131 10997.02909079
0.03200000 1631201.25877310 10496.78058367
0.03300000 1625795.42392674 9120.71274870
0.03400000 1620243.29426976 10207.53322488
0.03500000 1614549.11225662 8718.56560879
0.03600000 1608713.47791867 16071.04838711
0.03700000 1602739.56263709 9135.61592953
0.03800000 1596628.88655254 12142.36324418
0.03900000 1590384.05617576 10496.53525685
0.04000000 1584005.05063247 13638.28411793
0.04100000 1577496.14705229 11925.87142468
0.04200000 1570858.97543326 12158.44903392
0.04300000 1564095.20665607 11355.33172741
0.04400000 1557207.94632080 11562.26953841
0.04500000 1550199.29265716 13905.28830124
0.04600000 1543069.98009951 14142.23702504
0.04700000 1535824.34357657 12163.72936684
0.04800000 1528463.74721059 15727.89269059
0.04900000 1520991.18609951 13688.92131208
0.05000000 1513408.10965142 15050.84435134
0.05100000 1505718.72874225 19965.83127321
0.05200000 1497922.25207097 13099.33070481
0.05300000 1490024.28318080 14483.03670769
0.05400000 1482025.61325545 14672.05425544
0.05500000 1473930.03383688 16095.31672033
0.05600000 1465738.58453934 13785.27203087
0.05700000 1457456.08958668 16483.82914267
0.05800000 1449081.73612064 12824.37396347
0.05900000 1440620.01186579 14262.13878360
0.06000000 1432074.35704044 20965.56956656
0.06100000 1423446.26889228 13238.05091933
0.06200000 1414738.79927924 13369.28227812
0.06300000 1405955.09090824 16196.60340454
0.06400000 1397094.60437358 19070.34224156
0.06500000 1388163.64054062 13742.82068421
0.06600000 1379163.85307185 18018.77658346
0.06700000 1370096.41122841 20962.47607282
0.06800000 1360965.64662231 16903.19412227
0.06900000 1351774.97671489 21290.45688006
0.07000000 1342523.68294897 18587.24126084
0.07100000 1333216.96846354 23037.99029410
0.07200000 1323856.81531679 21744.34921023
0.07300000 1314446.34479161 16049.39062191
0.07400000 1304988.50321991 17617.34561909
0.07500000 1295483.85547263 14768.51664463
0.07600000 1285936.21181625 20793.58951988
0.07700000 1276349.08403276 14933.28498338
0.07800000 1266723.67197357 18012.81146020
0.07900000 1257062.36730800 22627.12367284
0.08000000 1247370.01447434 15155.54638683
0.08100000 1237647.68070425 22834.60078035
0.08200000 1227896.44467144 15287.31145352
0.08300000 1218120.27902786 19952.81110690
0.08400000 1208321.96019271 18487.32685872
0.08500000 1198503.72251602 21644.97824477
0.08600000 1188667.93214214 17063.32896705
0.08700000 1178816.65983602 20228.49483267
0.08800000 1168951.96636870 15605.50948392
0.08900000 1159077.51128392 15647.54713729
0.09000000 1149194.99429976 18823.81489089
0.09100000 1139306.77843796 18866.92113732
0.09200000 1129414.35628145 20481.93031354
0.09300000 1119522.43284855 17363.79374944
0.09400000 1109629.34808143 17393.44084862
0.09500000 1099739.99782122 17419.88238427
0.09600000 1089855.72521857 17443.14170209
0.09700000 1079981.38194437 20638.44517923
0.09800000 1070115.76807408 27015.07383522
0.09900000 1060263.35294785 15903.95104206
0.10000000 1050422.80172459 17505.29681397
0.10100000 1040598.73431828 20697.50979903
0.10200000 1030793.08262634 25481.20620107
0.10300000 1021006.93368349 19113.25069766
0.10400000 1011243.13523803 22297.91218101
0.10500000 1001504.97860325 31847.85981800
0.10600001 991789.12010674 15918.21612672
0.10700001 982103.59414769 15910.07897388
0.10800001 972445.39420656 23849.22441530
0.10900001 962819.36937998 17475.17237673
0.11000001 953226.26776398 17458.33991585
0.11100001 943666.96873438 15853.60582102
0.11200001 934144.45810512 22167.24903440
0.11300001 924658.77908808 18973.99904020
0.11400001 915212.83918925 18944.90666323
0.11500001 905808.47822497 17337.17508960
0.11600001 896445.93522873 29891.99111786
0.11700001 887127.76416700 25123.45946440
0.11800001 877853.51475591 20370.59176933
0.11900001 868625.62711458 20325.84063186
0.12000001 859445.31088025 15598.93312726
0.12100001 850315.43844374 17116.85058222
0.12200001 841235.21817251 18624.94860778
0.12300001 832207.48430519 27862.30788725
0.12400001 823231.46598075 16979.14978587
0.12500001 814308.86080142 18468.52583322
0.12600001 805442.59001969 24549.89130068
0.12700001 796632.06230096 21413.47084379
0.12800001 787877.81422196 16769.98006607
0.12900001 779182.20015960 16713.45898116
0.13000001 770545.48057028 16655.34134757
0.13100001 761967.57533074 25647.82979461
0.13200001 753450.23954621 15031.33298753
0.13300001 744995.60523064 20964.17731950
0.13400001 736601.92173784 14916.18961842
0.13500001 728272.50695239 16342.43582653
0.13600001 720005.20354310 20714.55068264
0.13700001 711803.24858760 20628.05911675
0.13800001 703664.57850921 17605.68858451
0.13900001 695593.21102246 16068.20393237
0.14000001 687587.16684111 20359.45697033
0.14100001 679647.52429480 17371.79154028
0.14200001 671774.46233913 20173.38805553
0.14300001 663969.94380469 14341.75146265
0.14400001 656230.78653147 15700.32230835
0.14500001 648561.74834045 19884.90414213
0.14600001 640960.36179704 15546.49430878
0.14700001 633429.73088891 19686.99696479
0.14800001 625965.10990726 13990.32086647
0.14900001 618571.13753863 13917.85125127
0.15000001 611245.91729154 16613.66481587
0.15100001 603990.69995162 13770.98860868
0.15200001 596805.50327701 16436.02433582
0.15300001 589691.26901382 14984.05585272
0.15400001 582644.12732642 17610.41957949
0.15500001 575668.78060228 18858.91014254
0.15600001 568760.98278745 16073.18613215
0.15700001 561926.59380524 13317.66090174
0.15800001 555158.38804583 14564.58099781
0.15900001 548462.16980724 17112.02050568
0.16000001 541833.34943287 14393.80360711
0.16100001 535276.95746236 18210.12295246
0.16200001 528788.74741317 18100.43967840
0.16300001 522369.28010988 12850.28489734
0.16400001 516019.34440150 12771.47937687
0.16500001 509737.41390433 15230.95464653
0.16600001 503525.28900577 13874.63999362
0.16700001 497379.64982019 12533.96776726
0.16800001 491301.78264375 17436.30108931
0.16900001 485293.37645485 21037.46886267
0.17000001 479350.91000906 12295.35142232
0.17100001 473475.19650072 19545.05703449
0.17200001 467666.54085366 15776.73150072
0.17300001 461924.15784441 14467.46530691
0.17400001 456247.84440354 16767.10907367
0.17500001 450636.33071763 14276.15963136
0.17600001 445088.17748121 11817.09167024
0.17700001 439606.79515681 12911.25218356
0.17800001 434187.56774002 15155.31776778
0.17900001 428832.57405790 13894.17605575
0.18000001 423540.43624983 16098.77274228
0.18100001 418312.39096670 14845.90745668
0.18200001 413143.61742135 13608.95140072
0.18300001 408037.62525998 13514.20678701
0.18400001 402991.69921597 14537.92623600
0.18500001 398007.92122503 14435.74798481
0.18600001 393082.15404682 13231.14593030
0.18700001 388215.48614960 14231.98039463
0.18800001 383407.21013011 16304.39238110
0.18900001 378658.97108126 12950.13742284
0.19000001 373963.83913294 13928.28384660
0.19100001 369330.51783874 14891.40718288
0.19200001 364749.89651531 13727.36300399
0.19300001 360227.27880518 12579.13717027
0.19400001 355757.64409367 11446.50273961
0.19500001 351343.27134086 15494.23899831
0.19600001 346982.32198584 12303.99371906
0.19700001 342674.32288914 11195.17065784
0.19800001 338419.13777025 12122.17408781
0.19900001 334216.23771999 10026.48760545
0.20000001 330063.02232167 9951.40059331
0.20100001 325961.89980111 11851.97523692
0.20200001 321909.22658277 10782.35005400
0.20300001 317907.30639618 11673.55684261
0.20400001 313953.47172480 14481.10456777
0.20500001 310047.32346095 16286.78667123
0.20600001 306188.85692929 9507.16445704
0.20700001 302377.46592996 17924.93702762
0.20800001 298610.75740163 11233.73722447
0.20900001 294892.29212001 12075.83993315
0.21000001 291216.33770713 11060.39702897
0.21100001 287585.68012193 10974.27007224
0.21200001 283998.18199688 9981.11657813
0.21300001 280452.97653285 10803.04916676
0.21400001 276951.24762409 8931.67815814
0.21500001 273492.30062956 8861.15095933
0.21600001 270073.24551239 14065.41529128
0.21700001 266695.21242569 9593.02724451
0.21800001 263357.47591451 8651.29349283
0.21900001 260058.27282311 11156.50043161
0.22000001 256797.68863771 10215.41253702
0.22100001 253577.09934482 11821.76493043
0.22200001 250394.12919273 10050.82082104
0.22300001 247247.21253576 9138.25740743
0.22400001 244136.19378455 12359.39539477
0.22500001 241064.20650943 9806.49238453
0.22600001 238025.47830022 12967.62867101
0.22700001 235024.00202773 10449.16762428
0.22800001 232055.27636396 11159.53876808
0.22900001 229120.15751844 9485.57496985
0.23000001 226220.03904227 8622.37719586
0.23100001 223353.26534572 8549.96340179
0.23200001 220517.32474048 8477.78895059
0.23300001 217714.51681860 9170.13588210
0.23400001 214943.85580190 9092.12553044
0.23500001 212202.18994736 8263.15366737
0.23600001 209493.36545134 8936.98739285
0.23700001 206813.79190608 8859.90326431
0.23800001 204164.37774078 12442.79858994
0.23900001 201543.88783721 10883.37045799
0.24000001 198952.31971303 15103.46606541
0.24100001 196390.50757847 7841.87333854
0.24200001 193856.08925904 7772.66026650
0.24300001 191349.65503388 12606.11586994
0.24400001 188870.27171543 9023.27765804
0.24500001 186417.83722300 6878.81851893
0.24600001 183992.42225660 8180.30348050
0.24700001 181593.29381472 11483.96044410
0.24800001 179220.13590455 8702.03411051
0.24900001 176871.61710497 6632.68595521
0.25000001 174549.48028706 8543.32471682
0.25100001 172250.90571150 6511.08454393
0.25200001 169978.71722594 8385.90041108
0.25300001 167730.51404700 8946.74604254
0.25400001 165505.87370429 6963.65996557
0.25500001 163304.45577867 7525.06967831
0.25600001 161127.17634107 6832.59823601
0.25700001 158972.46290598 7382.68152665
0.25800001 156841.18548840 7921.26444788
0.25900001 154732.46538500 6034.56643554
0.26000001 152646.02285065 5976.09207736
0.26100001 150581.00535306 7101.40054846
0.26200001 148538.79417546 7031.82684899
0.26300001 146517.20517301 6382.28975933
0.26400001 144517.68758609 6319.03618871
0.26500001 142539.60353814 7393.52958538
0.26600001 140581.39525204 9008.45623403
0.26700001 138645.05601658 8360.29727341
0.26800001 136729.58773558 6620.44695144
0.26900001 134832.91171646 6552.87981951
0.27000001 132957.49223028 6485.66677791
0.27100001 131101.59771480 8023.41815984
0.27200001 129266.95837015 5293.48219576
0.27300001 127450.81855760 6809.69755780
0.27400001 125652.38779431 5183.16124181
0.27500001 123876.02418543 6154.16117278
0.27600001 122116.32227194 6596.11345969
0.27700001 120377.59093955 5019.74577975
0.27800001 118656.46502523 6952.08261485
0.27900001 116955.03348896 5894.53396682
0.28000001 115270.78190310 5344.53005589
0.28100001 113605.80955784 5286.07856891
0.28200001 111959.38643120 5227.94379684
0.28300001 110330.74589734 5170.09899745
0.28400001 108719.85019807 5112.55119755
0.28500001 107127.29650856 5974.48960906
0.28600001 105552.23817351 6816.03610267
0.28700001 103994.85729301 5840.35146201
0.28800001 102454.09875142 4885.52393021
0.28900001 100932.94464929 4390.58330007
0.29000001 99427.15620389  6075.99380322
0.29100001 97939.68841658  6005.66197798
0.29200001 96468.97926347  5511.75539112
0.29300001 95015.55110570  5028.22320253
0.29400001 93578.31928027  4140.84082416
0.29500001 92158.92695370  4501.04220548
0.29600001 90755.50630812  4447.47379716
0.29700001 89368.79540825  3994.78534385
0.29800001 87998.35040919  5130.74406349
0.29900001 86645.38431589  4288.94672667
0.30000001 85307.66723684  3851.64135808
0.30100001 83987.39795389  4565.55516891
0.30200001 82681.95583812  3757.89507074
0.30300001 81393.62773759  5938.47936087
0.30400001 80121.23733070  4032.10145955
0.30500001 78864.43691835  3981.86560852
0.30600001 77622.87678362  3931.98700963
0.30700001 76398.13118249  4588.47197605
0.30800001 75188.78754780  3485.00046783
0.30900001 73994.77901057  4472.98460296
0.31000001 72816.91938642  4076.29134024
0.31100001 71653.33627378  4694.72681493
0.31200001 70505.86709545  4634.35086360
0.31300001 69373.34218106  3594.23302857
0.31400001 68257.07798235  5160.23533979
0.31500001 67154.57686771  4138.06522251
0.31600002 66067.68570619  4712.27790611
0.31700002 64995.65792239  3720.35163563
0.31800002 63938.63148829  3671.35639389
0.31900002 62896.48485483  3019.03141598
0.32000002 61869.29999864  3872.70901679
0.32100002 60855.85321831  3821.13920451
0.32200002 59858.38635975  3480.16674774
0.32300002 58873.29470353  3147.36648388
0.32400002 57903.55885165  3387.35835322
0.32500002 56948.03106499  3620.18650622
0.32600002 56007.13008563  2747.14986078
0.32700002 55079.58643963  3251.89893738
0.32800002 54166.69924395  2940.43940770
0.32900002 53267.17611493  2900.39787680
0.33000002 52382.46982623  3120.94770004
0.33100002 51509.24533840  3078.19264719
0.33200002 50652.21010597  3036.09361753
0.33300002 49807.46752563  2994.42508944
0.33400002 48976.76267638  3199.40717334
0.33500002 48158.25202159  4368.91683029
0.33600002 47354.23113689  2633.13214706
0.33700002 46562.08410267  2596.76755338
0.33800002 45784.39343258  3259.39112282
0.33900002 45018.28502566  2755.11917405
0.34000002 44265.80203029  3396.29382162
0.34100002 43525.63699765  2232.86528372
0.34200002 42798.92041656  3303.00683958
0.34300002 42083.35980814  2171.50146894
0.34400002 41381.96315536  3854.73005048
0.34500002 40691.52448747  2323.07924301
0.34600002 40014.48690005  2499.30497015
0.34700002 39347.93895413  2875.54751496
0.34800002 38695.00086765  2025.68339136
0.34900002 38052.96758367  2996.67133914
0.35000002 37423.14312990  2364.39429493
0.35100002 36805.29266876  2137.65149945
0.35200002 36197.93499930  2683.35304859
0.35300002 35602.34753499  2268.58169238
0.35400002 35018.47278100  2424.15389308
0.35500002 34445.93350147  2023.35422971
0.35600002 33883.50221277  2358.80011827
0.35700002 33332.25719646  1968.93652585
0.35800002 32792.64517336  2472.23763672
0.35900002 32263.55821937  2264.90189428
0.36000002 31745.40802228  2062.81671100
0.36100002 31236.70997015  1696.15343172
0.36200002 30739.86380256  1673.78566333
0.36300002 30251.99835778  1982.11102629
0.36400002 29774.42559947  1630.14987879
0.36500002 29306.73143230  1930.72755821
0.36600002 28849.37492545  1588.15816487
0.36700002 28401.16866916  2038.06796024
0.36800002 27964.18911246  2166.94511697
0.36900002 27535.62116238  1528.22704690
0.37000002 27116.06297268  1961.71166868
0.37100002 26705.80379485  1937.23909904
0.37200002 26305.69553204  1471.80373474
0.37300002 25913.74231357  1889.88931645
0.37400002 25530.98807797  1436.11814742
0.37500002 25157.24740487  1560.75570293
0.37600002 24792.43847828  2243.21993978
0.37700002 24435.58291589  1524.04737866
0.37800002 24087.18958945  1917.09951024
0.37900002 23747.86054229  1488.99092654
0.38000002 23416.31330697  1338.24236889
0.38100002 23091.98030062  1455.48758730
0.38200002 22776.68490672  1308.52060988
0.38300002 22468.46410315  1682.43867175
0.38400002 22168.91132291  1536.30562746
0.38500002 21875.55887591  1393.25441081
0.38600002 21591.22367906  1253.37059395
0.38700002 21313.03197720  1860.62777976
0.38800002 21042.62352562  1350.62085498
0.38900002 20778.66461774  1944.88310036
0.39000002 20522.96085328  1324.03888218
0.39100002 20272.86174457  1430.45319247
0.39200002 20030.23182095  1416.93866614
0.39300002 19793.66143614  1871.68871408
0.39400002 19565.27382388  1391.09103478
0.39500002 19341.95053732  1608.47668289
0.39600002 19124.99915493  1366.67250436
0.39700002 18914.27303241  1242.10036889
0.39800002 18709.79822922  1231.75962478
0.39900002 18510.99625021  1554.92375869
0.40000002 18318.02036037  1652.74346532
0.40100002 18131.09241105  1421.29640144
0.40200002 17950.02067206  1302.09456124
0.40300002 17773.82691840  1184.80335852
0.40400002 17603.50426235  1176.35422807
0.40500002 17438.59556598  1274.41262434
0.40600002 17278.60788211  1054.85906118
0.40700002 17124.00003571  1047.98885184
0.40800002 16974.34385777  1145.51364952
0.40900002 16829.43929053  1449.01479157
0.41000002 16689.84980871  1234.71514735
0.41100002 16554.43551429  1227.67699591
0.41200002 16423.49692783  1526.15352433
0.41300002 16297.84591777  1214.51553534
0.41400002 16175.94410202  1510.42885209
0.41500002 16058.75343243  1102.27288783
0.41600002 15945.03944326  1196.83471732
0.41700002 15836.03105913  1886.54646947
0.41800002 15731.81483500  1087.61907015
0.41900002 15629.74759900  1083.14155993
0.42000002 15532.85579797  1177.07986815
0.42100002 15439.76824250  1466.00606409
0.42200002 15350.43305770  1266.18053076
0.42300002 15264.00938397  970.79104282
0.42400002 15181.26688879  1161.36697202
0.42500002 15102.16291173  965.02825579
0.42600002 15025.63112041  1347.34840641
0.42700002 14953.50162999  1056.01633515
0.42800002 14883.93150173  1245.11534878
0.42900002 14818.29402498  1051.35801089
0.43000002 14755.09711261  1526.26731765
0.43100002 14694.08952656  1428.26556966
0.43200002 14636.98726863  1045.73960496
0.43300002 14582.37173111  1139.17493362
0.43400002 14530.62529585  1232.56034913
0.43500002 14481.25678315  1231.19651005
0.43600002 14434.89693005  1419.31130791
0.43700002 14390.39717381  1039.99405304
0.43800002 14348.20296707  1133.79505219
0.43900002 14309.28581803  1227.73678137
0.44000002 14272.11087871  944.10017937
0.44100002 14237.48175829  1321.52311943
0.44200002 14204.82864294  1321.47527128
0.44300002 14174.31231280  1132.81109372
0.44400002 14146.27862156  1038.69055701
0.44500002 14118.91607089  1039.01108290
0.44600002 14093.88655627  1039.49465222
0.44700002 14071.90809491  945.63226879
0.44800002 14049.96186751  1230.14446961
0.44900002 14031.60835690  1136.56033077
0.45000002 14014.22774232  1042.86880687
0.45100002 13998.18208030  1328.70750603
0.45200002 13984.03584879  1045.23680905
0.45300002 13970.87513409  1236.84163424
0.45400002 13959.68768820  1238.57334884
0.45500002 13949.98827850  954.17924347
0.45600002 13941.42685947  1051.25334216
0.45700002 13934.40230621  957.29348381
0.45800002 13928.11745275  1054.84602528
0.45900002 13923.08621855  1248.90089299
0.46000002 13920.18462378  1443.87121853
0.46100002 13917.06579958  1253.78851731
0.46200002 13916.12441703  1546.35981851
0.46300002 13916.15425923  1259.13369705
0.46400002 13916.42491308  1358.93895717
0.46500002 13918.24918476  1070.17423054
0.46600002 13920.69308695  1657.74581483
0.46700002 13923.60165936  1270.66794766
0.46800002 13928.58925606  1077.86393067
0.46900002 13933.18554805  1080.51859046
0.47000002 13938.96005833  1083.26633228
0.47100002 13945.35023805  1382.26318111
0.47200002 13952.75450930  1385.92717110
0.47300002 13960.86728862  1191.14125352
0.47400002 13968.78436033  1194.33111942
0.47500002 13977.76610126  1197.61505632
0.47600002 13987.92905854  1201.00364589
0.47700002 13997.55394872  1405.07453197
