# SAXS profile: number of points = 501, q_min = 0, q_max = 0.5, delta_q = 0.001
#    q    intensity    error
0.00000000 1719190.39626458 283.66641538
0.00100000 1719101.96051026 567.30366044
0.00200000 1718836.62462043 928.17180669
0.00300000 1718394.59657487 1340.34783308
0.00400000 1717775.79074665 1288.33189201
0.00500000 1716980.80959540 1699.81106878
0.00600000 1716009.55321501 3243.25818762
0.00700000 1714862.74597332 2263.61891876
0.00800000 1713540.14704155 3932.57480349
0.00900000 1712043.28548312 2824.87154180
0.01000000 1710371.40223822 3386.53552266
0.01100000 1708526.23589915 4305.48630192
0.01200000 1706507.59843225 3660.45895913
0.01300000 1704316.88894775 5368.59843697
0.01400000 1701954.22304796 4978.21632310
0.01500000 1699421.35325780 4078.61142943
0.01600000 1696717.71273220 6057.28250524
0.01700000 1693845.71284326 5945.39871878
0.01800000 1690805.75860212 6264.43561751
0.01900000 1687598.92152286 5569.07669232
0.02000000 1684225.96258427 6366.37442656
0.02100000 1680689.64139194 6655.53128166
0.02200000 1676988.55077100 6364.17183932
0.02300000 1673125.96826251 7227.90451190
0.02400000 1669102.34425297 7510.96089162
0.02500000 1664920.31859189 6493.18953906
0.02600000 1660580.00084719 8070.41917324
0.02700000 1656083.62177467 9737.77214204
0.02800000 1651431.45323254 9338.84529631
0.02900000 1646627.22369794 8150.80513154
0.03000000 1641671.22728814 9160.52586933
0.03100000 1636565.24642664 10997.71896203
0.03200000 1631310.58060802 8882.48652052
0.03300000 1625911.59517493 9121.36446943
0.03400000 1620366.45438155 9357.61670582
0.03500000 1614679.36190252 9591.19585260
0.03600000 1608851.06438327 12500.77334797
0.03700000 1602884.70650778 12791.02054948
0.03800000 1596781.71146014 11209.40813322
0.03900000 1590544.78930239 9543.26917776
0.04000000 1584173.84671468 11691.20353051
0.04100000 1577673.12931942 12921.14352823
0.04200000 1571044.38867801 10133.23677708
0.04300000 1564289.15580195 15486.46336129
0.04400000 1557410.70648991 16820.03641125
0.04500000 1550410.95475564 12837.40330187
0.04600000 1543290.74306280 11968.22026882
0.04700000 1536054.26376271 13271.50945614
0.04800000 1528703.20940977 15730.35675673
0.04900000 1521240.10254629 18254.88208027
0.05000000 1513666.76881682 15053.41671686
0.05100000 1505987.19637850 18794.72108634
0.05200000 1498200.76603156 14292.83597401
0.05300000 1490312.91465472 12071.53517145
0.05400000 1482324.64929480 13452.09681967
0.05500000 1474239.51391374 13621.97374402
0.05600000 1466058.69462553 13788.28266637
0.05700000 1457786.87176621 15219.29565165
0.05800000 1449423.44646931 14110.13791022
0.05900000 1440972.69827192 14265.63037918
0.06000000 1432438.14333926 15728.17154867
0.06100000 1423821.34454179 18538.15477225
0.06200000 1415125.23971637 18722.10779658
0.06300000 1406353.06383323 18901.38606166
0.06400000 1397504.23190537 16350.80027797
0.06500000 1388584.92711201 16496.38970576
0.06600000 1379596.90895711 23570.41429236
0.06700000 1370541.50160579 16775.42876473
0.06800000 1361422.78053766 16908.87172577
0.06900000 1352244.32713638 22717.70575951
0.07000000 1343005.26867947 20024.20949371
0.07100000 1333710.80129482 14404.07732864
0.07200000 1324363.08210497 23202.84228546
0.07300000 1314965.24736291 16055.72642260
0.07400000 1305519.94539993 17624.52008886
0.07500000 1296028.20476986 19207.13889498
0.07600000 1286493.18581685 23774.39518845
0.07700000 1276918.98209247 16433.94807009
0.07800000 1267306.42239094 21024.61453344
0.07900000 1257658.21415259 16601.08920547
0.08000000 1247978.93538314 18195.53373146
0.08100000 1238269.73046465 22846.07759897
0.08200000 1228531.82854687 19883.78857808
0.08300000 1218768.85587250 18427.78596565
0.08400000 1208983.77192966 27746.17886815
0.08500000 1199178.94779337 17016.35006802
0.08600000 1189356.65148142 18625.32603669
0.08700000 1179518.75002274 20240.54270084
0.08800000 1169667.64518719 17176.57017625
0.08900000 1159806.77843417 21920.34914200
0.09000000 1149937.73321885 20405.64603453
0.09100000 1140063.19517633 22026.02196562
0.09200000 1130184.32115632 20495.89362720
0.09300000 1120306.06376430 20535.21111379
0.09400000 1110426.66016560 22153.01291144
0.09500000 1100551.05473082 30111.07827274
0.09600000 1090680.53952109 19043.28311522
0.09700000 1080819.83231242 17476.85751013
0.09800000 1070968.10492433 17494.26481648
0.09900000 1061129.35844391 17508.63523762
0.10000000 1051302.49890638 19112.68032893
0.10100000 1041492.27042267 19121.79898429
0.10200000 1031700.49446120 19127.72806701
0.10300000 1021927.83975415 22318.90507013
0.10400000 1012178.02872968 17535.98517272
0.10500000 1002453.40123189 20720.71277836
0.10600001 992751.21603012 19120.38932042
0.10700001 983079.28013841 15925.88508768
0.10800001 973434.77457981 17507.22524474
0.10900001 963822.47212849 15903.07153861
0.11000001 954242.96222252 15888.14606885
0.11100001 944697.15721380 30154.73467775
0.11200001 935188.05706069 25362.30130147
0.11300001 925715.87135778 18995.69057459
0.11400001 916283.31744292 20547.65436113
0.11500001 906892.53133249 25247.88926117
0.11600001 897543.14101569 17327.07115327
0.11700001 888238.19908056 17293.99855056
0.11800001 878977.09638031 21965.63867309
0.11900001 869762.34350321 17221.29521251
0.12000001 860595.17094921 20305.74401505
0.12100001 851478.47182830 24931.29082960
0.12200001 842411.04394824 21759.47829030
0.12300001 833396.19888688 18601.40403555
0.12400001 824433.07699276 15458.12092196
0.12500001 815523.07840705 16954.72559900
0.12600001 806669.37423467 16903.75753365
0.12700001 797871.48123437 21446.78642629
0.12800001 789129.65973561 16796.62559908
0.12900001 780446.28277073 18262.44387758
0.13000001 771821.87786254 21232.82086080
0.13100001 763256.19533236 16623.72071794
0.13200001 754750.97236911 16563.01086943
0.13300001 746308.33026980 15000.79814561
0.13400001 737926.46663309 22414.51748073
0.13500001 729608.76235802 17860.82334463
0.13600001 721353.13303027 14823.80758273
0.13700001 713162.60655895 14762.46665187
0.13800001 705035.42464202 17639.98715637
0.13900001 696975.32832993 20491.07561922
0.14000001 688980.55903686 16029.13346194
0.14100001 681051.95924624 23210.25186578
0.14200001 673189.78909004 15883.91382275
0.14300001 665396.01530635 15809.81006939
0.14400001 657667.78695164 17165.13004911
0.14500001 650009.06191860 18505.75886578
0.14600001 642418.10875901 18414.91595629
0.14700001 634897.60074347 16913.67288173
0.14800001 627443.22761145 15425.69247859
0.14900001 620059.09179868 18136.72929082
0.15000001 612743.67473180 15266.50937626
0.15100001 605498.18952689 13805.35937262
0.15200001 598322.48426095 21970.40265878
0.15300001 591217.53866636 17754.26352396
0.15400001 584179.59906339 20373.26447877
0.15500001 577213.34007516 18909.50991326
0.15600001 570314.53935316 16117.08964277
0.15700001 563488.81003650 17361.09105661
0.15800001 556729.03075808 15933.58561234
0.15900001 550041.32324152 14521.09161898
0.16000001 543420.75320318 15748.33417119
0.16100001 536872.40624546 14350.60009635
0.16200001 530392.18984178 14264.89861918
0.16300001 523980.49288417 16756.89695349
0.16400001 517638.04663898 19217.31338871
0.16500001 511363.53482705 17826.13366567
0.16600001 505158.54266787 12654.22209127
0.16700001 499020.03106441 15090.36645188
0.16800001 492949.03868214 12496.25872062
0.16900001 486947.40030987 13658.87522364
0.17000001 481011.33345408 18506.91192854
0.17100001 475141.92906161 18387.99352299
0.17200001 469339.40143702 13397.29384668
0.17300001 463602.96464362 12100.03794862
0.17400001 457932.43626044 18031.09052929
0.17500001 452326.42716899 13135.56006535
0.17600001 446783.68955453 16606.95052507
0.17700001 441307.42407632 14139.49053522
0.17800001 435893.20219862 12874.10633501
0.17900001 430543.11961842 12787.13125665
0.18000001 425255.47054460 12700.25522771
0.18100001 420031.92539774 11466.87210501
0.18200001 414867.32189069 12526.91937623
0.18300001 409765.36767583 14702.38208674
0.18400001 404723.28109627 12354.17873908
0.18500001 399743.28910556 11152.83829293
0.18600001 394820.79339103 12182.19615561
0.18700001 389957.45554560 13196.16091911
0.18800001 385152.13845756 13102.87636939
0.18900001 380406.88133391 11925.75629328
0.19000001 375714.37329564 12917.06076422
0.19100001 371083.50613057 11755.92602968
0.19200001 366505.14204741 12732.38923635
0.19300001 361984.46844002 11587.12338229
0.19400001 357516.83712504 15686.05197009
0.19500001 353104.08412266 12457.51267653
0.19600001 348744.61477767 11335.94423904
0.19700001 344437.85299013 12275.76566069
0.19800001 340183.76628840 11169.93449396
0.19900001 335981.57726820 14111.22691216
0.20000001 331829.15861002 16007.43936788
0.20100001 327728.45338802 10923.18986768
0.20200001 323676.11600733 9855.93819825
0.20300001 319674.10153630 11738.43356323
0.20400001 315720.22676035 10679.23717493
0.20500001 311813.79617523 10598.55143296
0.20600001 307954.69420307 9561.99370698
0.20700001 304142.63870337 14233.87616414
0.20800001 300374.92814558 12241.78077524
0.20900001 296655.55534908 11213.58052228
0.21000001 292978.24739906 11127.31436223
0.21100001 289345.98573599 11961.56361579
0.21200001 285756.86374563 10042.92545111
0.21300001 282209.70699016 14494.29123624
0.21400001 278705.83689073 10785.91639759
0.21500001 275244.72774347 10701.51552061
0.21600001 271823.16133089 11502.19761552
0.21700001 268442.50028522 10533.68420922
0.21800001 265101.84581275 9579.45565137
0.21900001 261799.65239382 10367.26672498
0.22000001 258535.85654052 11141.60326442
0.22100001 255311.82243016 14453.20295117
0.22200001 252125.27513873 10963.66810782
0.22300001 248974.67108579 9202.10427846
0.22400001 245859.81958321 10787.10009430
0.22500001 242783.54753386 9053.39891565
0.22600001 239740.35571452 13877.37114677
0.22700001 236734.47470365 9715.58330128
0.22800001 233761.17617245 14453.45420625
0.22900001 230821.17276744 11944.99625561
0.23000001 227916.11737210 7897.29384042
0.23100001 225044.20132652 9397.84629185
0.23200001 222202.89925009 10095.78920489
0.23300001 219394.46847211 10010.97006985
0.23400001 216618.00025774 8399.36335724
0.23500001 213870.50732259 10599.42284422
0.23600001 211155.76131320 7506.58766972
0.23700001 208469.95014066 9675.09084364
0.23800001 205814.13637346 11805.49942077
0.23900001 203187.19826215 10240.63527679
0.24000001 200589.00571598 7976.42218958
0.24100001 198020.38224533 10782.21032327
0.24200001 195479.03720592 7125.21124319
0.24300001 192965.35652362 7768.78562113
0.24400001 190478.71125288 7700.10226664
0.24500001 188018.94469680 7631.68932626
0.24600001 185585.74825495 10313.92844717
0.24700001 183178.96683839 10221.38683311
0.24800001 180798.09008799 8778.65167951
0.24900001 178441.63008524 7360.71758923
0.25000001 176111.30745592 7956.70924728
0.25100001 173804.37770844 6569.80578819
0.25200001 171523.92862869 7160.26673935
0.25300001 169267.15390743 7738.89464278
0.25400001 167033.81393176 7027.94805368
0.25500001 164823.61401915 6962.14978556
0.25600001 162637.37886011 8150.57262720
0.25700001 160473.76442077 8073.43546999
0.25800001 158333.27103708 11687.37095458
0.25900001 156215.26319177 6092.39555274
0.26000001 154119.49281960 7240.53411525
0.26100001 152044.92105774 5975.36568030
0.26200001 149993.14779515 8284.12194470
0.26300001 147961.80691935 8788.93174688
0.26400001 145952.48278614 8122.25605138
0.26500001 143964.51120353 5744.18426883
0.26600001 141996.32593469 6824.34374735
0.26700001 140049.74869051 5630.00016377
0.26800001 138124.00730980 6130.63435455
0.26900001 136217.08156551 7723.50889025
0.27000001 134331.33193192 6006.62579158
0.27100001 132465.01594874 7566.40206906
0.27200001 130619.76640808 5883.76765629
0.27300001 128793.00773679 7410.75001588
0.27400001 126983.86877474 5238.08483485
0.27500001 125196.64181701 5183.14121652
0.27600001 123425.96777864 6666.85396508
0.27700001 121676.39197202 5581.29636390
0.27800001 119944.30168558 6023.60311573
0.27900001 118231.62128376 5462.30116183
0.28000001 116536.20625565 6385.60172400
0.28100001 114859.98886518 4858.57775895
0.28200001 113202.35127751 6247.07205092
0.28300001 111562.25223853 5703.06260436
0.28400001 109940.00467531 5639.92250679
0.28500001 108335.97979993 4647.61375339
0.28600001 106749.47111703 5055.12144402
0.28700001 105180.48373253 4998.17682355
0.28800001 103628.13253344 5839.96368535
0.28900001 102095.36464640 5329.37828680
0.29000001 100577.86014149 4829.24618328
0.29100001 99078.73136811  4773.61350327
0.29200001 97596.24840067  4718.29085227
0.29300001 96131.08646241  5087.25733640
0.29400001 94682.02333960  6284.51959665
0.29500001 93250.80476439  6210.50389129
0.29600001 91835.44484561  4909.52311385
0.29700001 90436.95219349  5255.29154074
0.29800001 89054.54442299  5192.32545838
0.29900001 87689.71933576  5129.84882398
0.30000001 86339.96292107  5457.54931460
0.30100001 85007.80558770  5391.19528559
0.30200001 83690.34779501  6085.96237977
0.30300001 82390.07344139  4884.08378482
0.30400001 81105.64207384  4452.69996065
0.30500001 79836.91980633  4030.96627186
0.30600001 78583.33599854  4704.39163227
0.30700001 77346.67889964  5360.12510151
0.30800001 76125.34949823  4939.77416281
0.30900001 74919.41356999  4180.50347513
0.31000001 73729.55608153  4471.32914026
0.31100001 72554.11424254  4414.19251951
0.31200001 71394.65075906  3687.17691302
0.31300001 70250.29130048  3308.78887691
0.31400001 69122.18108649  4572.43249536
0.31500001 68007.73750641  4512.99367460
0.31600002 66909.04947659  3817.83054390
0.31700002 65825.16690591  4709.79091512
0.31800002 64756.32870713  3098.59047535
0.31900002 63702.57105778  3057.72355555
0.32000002 62663.56411370  3922.42598142
0.32100002 61638.36241048  2977.13304539
0.32200002 60629.31336928  3818.73748338
0.32300002 59632.54327677  4637.02678477
0.32400002 58651.33563904  3431.10329735
0.32500002 57684.31251064  3102.83931687
0.32600002 56731.80133838  3060.96448616
0.32700002 55792.86058287  2745.00887066
0.32800002 54868.64536678  3790.87488790
0.32900002 53957.74414490  3205.09015398
0.33000002 53061.69518030  2897.96461950
0.33100002 52177.30088908  2858.27267806
0.33200002 51309.01649402  3075.46259429
0.33300002 50453.22446076  2527.70666518
0.33400002 49611.40843380  4736.64944452
0.33500002 48781.92822083  2458.60929876
0.33600002 47966.88937600  3637.08955918
0.33700002 47163.95107512  3347.69740585
0.33800002 46375.51065647  2829.83379427
0.33900002 45598.62570848  2790.63602552
0.34000002 44835.52561532  3210.67214136
0.34100002 44084.74361298  2487.70219989
0.34200002 43347.56054847  2676.27851501
0.34300002 42621.54434680  2419.19897170
0.34400002 41909.86440344  3036.36981983
0.34500002 41209.09416393  3422.00334144
0.34600002 40521.74739542  2530.98846219
0.34700002 39845.16672729  2287.90958184
0.34800002 39182.16178805  2666.54214678
0.34900002 38530.13100144  2225.11517072
0.35000002 37890.52354612  2992.40423878
0.35100002 37262.81823820  2557.71996501
0.35200002 36645.82397905  1940.39647159
0.35300002 36040.65595313  2296.51070610
0.35400002 35447.14823445  2076.31680617
0.35500002 34865.24785121  2047.98475578
0.35600002 34293.49420963  2570.98338267
0.35700002 33733.07443210  1811.46618280
0.35800002 33184.19981055  2144.36309333
0.35900002 32646.11640842  2468.04651738
0.36000002 32119.03848914  2608.86902485
0.36100002 31601.46070027  2059.15127676
0.36200002 31095.86737064  1862.48706438
0.36300002 30599.38066763  2004.87151631
0.36400002 30113.21748315  2143.30835589
0.36500002 29637.07853335  1952.49082626
0.36600002 29171.35683953  1766.47159709
0.36700002 28714.99277201  2219.09474654
0.36800002 28269.76222438  1721.20455456
0.36900002 27833.24281837  2008.16856447
0.37000002 27405.67146743  1525.12568941
0.37100002 26987.69435359  1656.50475789
0.37200002 26579.72570654  1635.84929610
0.37300002 26180.17903450  2203.06217011
0.37400002 25789.95464996  2176.02752667
0.37500002 25408.81010843  2149.58543700
0.37600002 25036.65125698  1415.82269565
0.37700002 24672.63779450  1538.83249214
0.37800002 24317.22814569  1520.67793413
0.37900002 23970.93252931  1366.34321890
0.38000002 23632.52277988  1620.71848902
0.38100002 23301.44203456  2536.82811448
0.38200002 22979.42158916  1716.21818269
0.38300002 22664.70708118  1697.13334664
0.38400002 22358.76578106  1549.46254203
0.38500002 22059.17113563  1788.11649696
0.38600002 21768.66896790  1516.40555214
0.38700002 21484.28405555  1750.53954778
0.38800002 21207.94527294  1608.72876489
0.38900002 20938.08164771  1469.85340130
0.39000002 20676.64636780  1697.75951369
0.39100002 20420.96560318  1921.20453497
0.39200002 20172.76814392  1308.10321227
0.39300002 19930.75371940  1177.90760062
0.39400002 19697.05501640  1283.75562151
0.39500002 19468.53944434  1156.43129778
0.39600002 19246.53233701  1260.74416047
0.39700002 19030.84352802  1363.36969494
0.39800002 18821.51064481  1126.46746546
0.39900002 18617.88458000  1117.07312773
0.40000002 18420.32162915  1107.98239849
0.40100002 18228.90995626  1319.04398693
0.40200002 18043.36909863  1199.79388506
0.40300002 17862.86572943  1082.48971449
0.40400002 17688.30878029  1182.02129025
0.40500002 17519.28498744  1066.92450629
0.40600002 17355.31739611  1059.54217723
0.40700002 17196.88042661  1157.69404517
0.40800002 17043.32971417  1254.72999301
0.40900002 16894.77619911  1350.73742112
0.41000002 16751.68482764  1239.28970227
0.41100002 16612.72916597  1334.66672443
0.41200002 16478.45168366  1225.00815621
0.41300002 16349.63412449  1116.84355996
0.41400002 16224.55933326  1615.96618616
0.41500002 16104.29555339  1406.87132621
0.41600002 15987.63075653  1300.03425657
0.41700002 15875.77327886  1094.95213493
0.41800002 15768.75138178  1189.27928557
0.41900002 15664.09559742  1282.88949022
0.42000002 15564.69082663  1277.78335396
0.42100002 15469.08326872  1272.95092250
0.42200002 15377.34936588  1073.26214985
0.42300002 15288.65767275  1166.83040888
0.42400002 15203.76708602  1453.86029649
0.42500002 15122.57993927  1352.86606547
0.42600002 15044.06103986  1059.92937079
0.42700002 14970.03040842  961.07599776
0.42800002 14898.77292771  1246.35690833
0.42900002 14831.37984817  1052.28645009
0.43000002 14766.54586086  1241.05440569
0.43100002 14704.06360406  1333.95271337
0.43200002 14645.52810372  1331.71793358
0.43300002 14589.50213974  1329.68728803
0.43400002 14536.48706698  1043.35640868
0.43500002 14485.95124404  1231.59563313
0.43600002 14438.56175378  1419.67165172
0.43700002 14393.00760275  1229.30683761
0.43800002 14349.86578291  944.93870658
0.43900002 14310.12265505  944.46813999
0.44000002 14272.13484474  1321.74247061
0.44100002 14236.81012370  1038.29061153
0.44200002 14203.48202553  1226.96785292
0.44300002 14172.44458119  1038.27333922
0.44400002 14143.96407064  944.10964646
0.44500002 14116.12851920  1133.24285123
0.44600002 14090.76704778  1322.70036546
0.44700002 14068.57026242  1134.48955973
0.44800002 14046.49690666  1419.04741725
0.44900002 14027.97420172  1041.57713384
0.45000002 14010.56069607  1042.59592361
0.45100002 13994.55508131  1233.48014332
0.45200002 13980.50850017  1329.96583665
0.45300002 13967.47296556  1236.54044024
0.45400002 13956.50949430  952.53181813
0.45500002 13947.04785568  1144.77374225
0.45600002 13938.87320166  1624.36666554
0.45700002 13932.24349585  2105.71938176
0.45800002 13926.39480090  1438.24849123
0.45900002 13921.85708675  1152.72982142
0.46000002 13919.42848170  1443.79278769
0.46100002 13916.94205878  1253.77736950
0.46200002 13916.67934738  966.51342648
0.46300002 13917.41224612  1259.24751971
0.46400002 13918.45806491  1164.97499525
0.46500002 13921.12079685  973.08638982
0.46600002 13924.39995199  1268.02554173
0.46700002 13928.19956621  1173.31158707
0.46800002 13934.08881209  1078.28951383
0.46900002 13939.72789502  1081.02594950
0.47000002 13946.58019941  1083.85853157
0.47100002 13954.00303264  1383.12084615
0.47200002 13962.55597433  1386.90075066
0.47300002 13971.87748987  1291.42069760
0.47400002 13980.99614050  1195.37522667
0.47500002 13991.19799515  1298.66305946
0.47600002 14002.62217296  1402.64272955
0.47700002 14013.57397051  1105.25063144
