# SAXS profile: number of points = 501, q_min = 0, q_max = 0.5, delta_q = 0.001
#    q    intensity    error
0.00000000 1700912.83420643 306.16431016
0.00100000 1700824.84258738 663.32170436
0.00200000 1700560.83649756 1224.40384105
0.00300000 1700121.03126645 1224.08718612
0.00400000 1699505.31649624 1529.55484297
0.00500000 1698714.32625236 1834.61154497
0.00600000 1697747.94239164 2495.68957692
0.00700000 1696606.89015303 2443.11402336
0.00800000 1695290.93285983 2746.37142718
0.00900000 1693801.55980843 3811.05367248
0.01000000 1692138.09612497 3071.23077708
0.01100000 1690302.23061463 4259.56180661
0.01200000 1688293.72466834 4279.82477968
0.01300000 1686114.06440014 4957.17556797
0.01400000 1683763.30596804 6061.54817020
0.01500000 1681243.21707909 4841.98068080
0.01600000 1678553.22682843 4280.31091976
0.01700000 1675695.76164913 6334.13026317
0.01800000 1672671.22770060 5243.82453480
0.01900000 1669480.57164994 8514.35129960
0.02000000 1666124.76927763 7347.61056489
0.02100000 1662606.39567657 6035.26148994
0.02200000 1658924.13182766 6867.94621779
0.02300000 1655081.21734085 7745.78044973
0.02400000 1651078.15126739 8668.16068940
0.02500000 1646917.43524221 7707.57394894
0.02600000 1642599.38626958 10644.04450987
0.02700000 1638126.00584089 7568.14249361
0.02800000 1633497.80253038 8526.85892025
0.02900000 1628718.23838434 9528.00213202
0.03000000 1623787.80114829 11325.92043361
0.03100000 1618708.21027350 13208.65960360
0.03200000 1613480.73215253 9584.07599041
0.03300000 1608109.68729763 11481.90369663
0.03400000 1602593.34224403 10096.33852199
0.03500000 1596935.91796136 11210.49066177
0.03600000 1591137.98882612 9713.89787070
0.03700000 1585202.87533595 9939.22248802
0.03800000 1579131.91597615 12009.29877678
0.03900000 1572927.73439485 9437.56684342
0.04000000 1566590.36033401 13488.34362751
0.04100000 1560124.02067103 14743.17267893
0.04200000 1553530.43392281 13026.35329277
0.04300000 1546811.07962708 18376.11647895
0.04400000 1539969.14389912 11434.27142448
0.04500000 1533006.81085726 13751.07173233
0.04600000 1525924.76459904 10757.77009052
0.04700000 1518727.28913006 15308.77178641
0.04800000 1511415.79610008 12219.79728003
0.04900000 1503993.02205545 19175.91192380
0.05000000 1496460.73764358 14882.30272888
0.05100000 1488823.07459997 13935.38462742
0.05200000 1481079.00472082 15306.95222711
0.05300000 1473234.51880614 15513.16020622
0.05400000 1465290.05685144 15715.23659259
0.05500000 1457249.53699856 14689.07601818
0.05600000 1449113.80549094 16106.90069965
0.05700000 1440887.99228019 18803.58917698
0.05800000 1432571.23724008 12678.25604155
0.05900000 1424167.81863721 16662.76425630
0.06000000 1415681.18079680 16839.52843230
0.06100000 1407112.95078129 14394.76615918
0.06200000 1398466.01215921 14537.05487591
0.06300000 1389743.70873807 16009.84827321
0.06400000 1380945.27277698 17503.48215103
0.06500000 1372077.18734002 13583.56479008
0.06600000 1363140.93413720 17809.43713778
0.06700000 1354137.82203386 17955.86836048
0.06800000 1345071.82955773 15313.64349633
0.06900000 1335946.83238942 23846.65207463
0.07000000 1326762.05813477 14130.01658082
0.07100000 1317522.19584908 17075.08845796
0.07200000 1308229.66107735 18622.65009785
0.07300000 1298887.53402335 17301.18276385
0.07400000 1289498.53026346 18858.91688891
0.07500000 1280063.67304788 17511.27186809
0.07600000 1270586.02098487 17610.32307643
0.07700000 1261069.65427380 20656.32190555
0.07800000 1251515.62647795 14830.46086926
0.07900000 1241926.09659852 17883.73662983
0.08000000 1232306.31243973 22458.78359778
0.08100000 1222656.84252129 21054.15181604
0.08200000 1212979.41202999 18121.91326610
0.08300000 1203277.28842480 16677.42400027
0.08400000 1193553.53168770 18261.36989199
0.08500000 1183810.43821895 18325.38644392
0.08600000 1174050.29541610 21449.89990436
0.08700000 1164275.00905735 16905.27392535
0.08800000 1154486.90933553 15412.40096345
0.08900000 1144689.53556569 18543.97134717
0.09000000 1134884.42227556 18589.40771012
0.09100000 1125074.05241220 17078.62491799
0.09200000 1115259.79794364 20225.23738603
0.09300000 1105446.57003906 21821.51631801
0.09400000 1095632.51916958 20296.59337151
0.09500000 1085822.76517386 17199.43340877
0.09600000 1076018.38992528 15656.06830937
0.09700000 1066224.14103985 25077.59297622
0.09800000 1056439.20372504 20394.55978682
0.09900000 1046667.46245110 18840.01521002
0.10000000 1036908.21105426 21992.82419072
0.10100000 1027165.76324998 17287.20060855
0.10200000 1017441.84752930 17291.42501209
0.10300000 1007737.72198036 18864.85104289
0.10400000 998056.50229715 18863.26878084
0.10500000 988400.84364747 15715.57415340
0.10600001 978767.66742574 15709.22180136
0.10700001 969165.21491079 17270.52494242
0.10800001 959590.32693344 20396.09335884
0.10900001 950047.91164912 18810.94953600
0.11000001 940538.44163992 17225.96236945
0.11100001 931062.90435809 15641.85752953
0.11200001 921624.52307652 18745.84368188
0.11300001 912223.05812699 26518.32554826
0.11400001 902861.50263066 15574.36165369
0.11500001 893541.66485714 17102.38827068
0.11600001 884263.78751836 27933.89436315
0.11700001 875030.13612184 15488.03413876
0.11800001 865840.73014649 21637.36086544
0.11900001 856697.68951524 18504.67096513
0.12000001 847602.35700333 18460.78020513
0.12100001 838557.64161177 24552.96890304
0.12200001 829562.53380547 18366.51536372
0.12300001 820619.73087963 16789.88048484
0.12400001 811729.04739150 19785.89646243
0.12500001 802891.58643798 22761.97754807
0.12600001 794110.48113706 21178.92752995
0.12700001 785385.06515543 16587.33335778
0.12800001 776715.92679629 19538.29005939
0.12900001 768105.44072744 23964.89088021
0.13000001 759553.71902428 19402.80066702
0.13100001 751060.93780993 14871.00726962
0.13200001 742628.62346247 17778.53008378
0.13300001 734258.91724798 16234.46542569
0.13400001 725949.93606556 19110.63296791
0.13500001 717705.06958368 16105.30252079
0.13600001 709522.61119343 16038.75938227
0.13700001 701405.12164408 17422.90404319
0.13800001 693350.93919263 14456.36776387
0.13900001 685363.61897468 15831.90034492
0.14000001 677441.69951459 18626.26040658
0.14100001 669585.97509942 17114.61833072
0.14200001 661796.60216053 15615.09156447
0.14300001 654075.64820220 18366.44506782
0.14400001 646420.09158950 15465.60142079
0.14500001 638833.92133429 15389.50989090
0.14600001 631315.59927092 18096.66250680
0.14700001 623867.81598074 19389.81263543
0.14800001 616485.61321666 22045.52656871
0.14900001 609173.83320068 13706.41189369
0.15000001 601930.69360324 13633.73085339
0.15100001 594757.35941896 24408.84318228
0.15200001 587653.63543010 17532.64704037
0.15300001 580620.55674759 21459.73679005
0.15400001 573654.52418490 14671.21514838
0.15500001 566759.95197803 17240.83855282
0.15600001 559932.51985456 15823.69375789
0.15700001 553178.20508797 17043.42130316
0.15800001 546489.64715407 13033.77869980
0.15900001 539873.00369515 16844.03851034
0.16000001 533323.31311411 12879.75861966
0.16100001 526845.85441530 15362.82583994
0.16200001 520436.06274728 15269.59480182
0.16300001 514094.80220964 24028.79218963
0.16400001 507822.51356332 17596.05092567
0.16500001 501618.04250593 18735.43477212
0.16600001 495482.74361513 14894.21197627
0.16700001 489413.86716117 17266.52204868
0.16800001 483412.15283170 13479.94851819
0.16900001 477479.72037467 13393.30678892
0.17000001 471612.57583883 14516.23576977
0.17100001 465811.98430405 15623.33469131
0.17200001 460077.99152583 13132.92688828
0.17300001 454409.82810387 17790.14561040
0.17400001 448807.25056012 16493.66723701
0.17500001 443269.05734247 12872.53403316
0.17600001 437794.06235757 22084.52251866
0.17700001 432385.10615208 16162.55603133
0.17800001 427037.75421260 12612.56066639
0.17900001 421754.62363378 12526.11291358
0.18000001 416533.44442748 12439.77190542
0.18100001 411376.15813499 12353.62661234
0.18200001 406277.59029294 15613.24853249
0.18300001 401241.27270111 17718.81543951
0.18400001 396264.82441110 12095.98433657
0.18500001 391349.81453342 10918.66034130
0.18600001 386492.26862046 10841.10864698
0.18700001 381693.48058428 10763.75666101
0.18800001 376952.60922911 12823.92837186
0.18900001 372271.27828436 11670.70512563
0.19000001 367642.63457723 11586.25817614
0.19100001 363075.09055831 12547.87572258
0.19200001 358559.80428737 12456.36818952
0.19300001 354102.12615065 12365.24682947
0.19400001 349696.78882696 14320.08417914
0.19500001 345346.38788977 12183.82114050
0.19600001 341048.79498882 11085.79160499
0.19700001 336803.63635263 13003.98901411
0.19800001 332610.78755112 9928.43247761
0.19900001 328469.54186550 10839.49539384
0.20000001 324377.68190134 19559.97514308
0.20100001 320337.34439022 10676.84419314
0.20200001 316344.81383415 13485.78005113
0.20300001 312402.55231590 16251.18153958
0.20400001 308507.96346191 13281.26845478
0.20500001 304660.55409301 11296.81387973
0.20600001 300860.09968884 13078.38915166
0.20700001 297106.25783633 9269.71568266
0.20800001 293396.68518618 9197.98651538
0.20900001 289734.81000470 10039.31164123
0.21000001 286114.98694805 9961.09374148
0.21100001 282539.67014566 13477.14290306
0.21200001 279007.13748281 11588.56200319
0.21300001 275516.32692286 8844.07451233
0.21400001 272068.46920573 10529.05025604
0.21500001 268662.93345867 8704.67945560
0.21600001 265296.66000803 10362.48802984
0.21700001 261971.01540766 9423.09786973
0.21800001 258684.92197215 9347.58009742
0.21900001 255436.92978266 12644.12862208
0.22000001 252227.15882599 10033.59685251
0.22100001 249056.65560368 11611.02183325
0.22200001 245923.45594854 12339.20998567
0.22300001 242825.62826950 8974.83564522
0.22400001 239763.44227837 10519.62152740
0.22500001 236739.31591896 8828.00950807
0.22600001 233748.03244876 10346.85714563
0.22700001 230793.65033493 8682.45753619
0.22800001 227871.57828338 9392.86690103
0.22900001 224982.47342618 10090.46441035
0.23000001 222127.73203076 8466.39890674
0.23100001 219306.01868399 8395.03479225
0.23200001 216514.51341996 8323.90086210
0.23300001 213755.58833702 9003.38580657
0.23400001 211028.41819813 8182.62730263
0.23500001 208329.83674891 8112.36422669
0.23600001 205663.43955671 9504.73630866
0.23700001 203025.86744470 8697.62857271
0.23800001 200417.82667964 8621.97531157
0.23900001 197838.49989073 9258.84223283
0.24000001 195287.41969272 7765.60461140
0.24100001 192765.61224236 7697.13126092
0.24200001 190270.75049128 8322.44302016
0.24300001 187803.37695653 7560.96431392
0.24400001 185362.58879350 11580.52828267
0.24500001 182948.26670405 8100.94963287
0.24600001 180560.42345861 8696.69320728
0.24700001 178198.57955892 7954.78496782
0.24800001 175862.12865978 7882.14097941
0.24900001 173549.90060240 7809.74589657
0.25000001 171263.53845654 8382.49428632
0.25100001 169000.28822477 7027.03231683
0.25200001 166763.22177882 12024.46267524
0.25300001 164549.42983337 7523.20028791
0.25400001 162358.85221664 6210.22639110
0.25500001 160191.13727263 6766.47395853
0.25600001 158046.95939695 6701.98163032
0.25700001 155925.03514114 7241.15897456
0.25800001 153826.11484508 8366.60278228
0.25900001 151749.19917511 6510.04095263
0.26000001 149694.34795185 7032.64079953
0.26100001 147660.44290554 5803.05568077
0.26200001 145648.97168865 6895.02264599
0.26300001 143657.79265820 7395.50351598
0.26400001 141688.13834014 7884.94527173
0.26500001 139739.68488180 6133.17505968
0.26600001 137810.58039238 6623.17680706
0.26700001 135902.95966012 7102.28900792
0.26800001 134015.78642642 5948.29096202
0.26900001 132147.27855146 6422.35804152
0.27000001 130299.53852785 6885.67943935
0.27100001 128470.93109041 6289.93708384
0.27200001 126663.25257829 6224.23252625
0.27300001 124873.73647174 6672.00405543
0.27400001 123101.52793131 5585.73209423
0.27500001 121351.07100243 5526.32803499
0.27600001 119616.94631764 4970.08435471
0.27700001 117903.52513140 5899.89267680
0.27800001 116207.36049280 5835.93392015
0.27900001 114530.41731363 7215.41663225
0.28000001 112870.51340095 7136.23854752
0.28100001 111229.47677833 5175.50779945
0.28200001 109606.77819367 7444.49272726
0.28300001 108001.41587500 5060.94658744
0.28400001 106413.64912411 5913.93882998
0.28500001 104843.82428679 5397.36032975
0.28600001 103291.34507064 5780.70040049
0.28700001 101756.12540157 5714.62427304
0.28800001 100237.34247293 4779.81790207
0.28900001 98737.78260893  4724.60312147
0.29000001 97253.47992965  4669.62605986
0.29100001 95787.14484211  5454.12028548
0.29200001 94337.34940212  4560.73937273
0.29300001 92904.46755256  6145.63081951
0.29400001 91487.58803598  4857.99115467
0.29500001 90088.40825196  5999.88827360
0.29600001 88704.81337671  5532.51947220
0.29700001 87337.82970655  3904.00117269
0.29800001 85986.86422789  5399.11546046
0.29900001 84653.09001391  4952.20600025
0.30000001 83334.40081641  5267.56772497
0.30100001 82032.82407137  4087.69581699
0.30200001 80745.93115637  4036.89301927
0.30300001 79476.01702966  4348.92785775
0.30400001 78221.72984484  4294.37317178
0.30500001 76983.07607563  5653.63737465
0.30600001 75759.19493546  3837.58220114
0.30700001 74552.10949665  5510.89219490
0.30800001 73360.10067258  5100.36124073
0.30900001 72183.37019001  4027.83224730
0.31000001 71022.45686250  3644.51754645
0.31100001 69875.80596997  4251.24423649
0.31200001 68745.04894085  3550.33822064
0.31300001 67629.03948228  3503.86070147
0.31400001 66529.22604055  3457.85668718
0.31500001 65443.01895029  3101.99924511
0.31600002 64372.27608570  3366.99206008
0.31700002 63316.16252373  4530.27164307
0.31800002 62274.93475556  2979.85576915
0.31900002 61248.47894391  3821.90526706
0.32000002 60236.79137604  3480.48197051
0.32100002 59238.69108641  4005.72048093
0.32200002 58256.51307753  3104.78101148
0.32300002 57286.60190542  3340.95478132
0.32400002 56332.04750774  3020.80619064
0.32500002 55391.42101972  3250.36873935
0.32600002 54465.22794717  4274.43129170
0.32700002 53552.42014749  3161.73503522
0.32800002 52654.25273033  2598.48749529
0.32900002 51769.16559992  2818.83120040
0.33000002 50898.87924955  3790.69421161
0.33100002 50039.89264145  4236.37751164
0.33200002 49197.12880949  3194.61571052
0.33300002 48366.53999298  3392.42927576
0.33400002 47549.81046362  2628.31589784
0.33500002 46745.32801212  2827.15757206
0.33600002 45955.08058934  2555.33237718
0.33700002 45176.82929194  2519.51188893
0.33800002 44412.87687046  2258.39489581
0.33900002 43660.31452936  4230.68467825
0.34000002 42921.47273984  2634.52012154
0.34100002 42194.81207491  2381.05335815
0.34200002 41481.58721609  2134.22776334
0.34300002 40779.47329946  2945.90929067
0.34400002 40091.36391962  2282.20099921
0.34500002 39414.22778335  2863.83792637
0.34600002 38750.38191426  2016.95747416
0.34700002 38097.00521368  2187.53014297
0.34800002 37457.19216263  2549.14933336
0.34900002 36828.25368480  2320.18009203
0.35000002 36211.37544952  2097.18190849
0.35100002 35606.52945373  3008.03975072
0.35200002 35012.06990519  2224.66702714
0.35300002 34429.44528761  2559.48508391
0.35400002 33858.39540378  2524.14349690
0.35500002 33298.69252443  2133.78031803
0.35600002 32749.01677525  2104.45191765
0.35700002 32210.58628496  1902.67942197
0.35800002 31683.64821557  2047.39744467
0.35900002 31167.24447457  2187.94066575
0.36000002 30661.69583164  2158.43018030
0.36100002 30165.67246050  1801.79570141
0.36200002 29681.36879619  2262.61085051
0.36300002 29206.04877948  2391.97550834
0.36400002 28741.02060564  1888.28514323
0.36500002 28285.83019855  2018.75979689
0.36600002 27840.99777235  1532.64699997
0.36700002 27405.33524759  2117.88440825
0.36800002 26980.72878731  1493.38340912
0.36900002 26564.54371114  2653.79804245
0.37000002 26157.44107819  1746.79399795
0.37100002 25759.63822476  1868.60424534
0.37200002 25371.79816578  1845.41782701
0.37300002 24992.18625549  1402.06171535
0.37400002 24621.73133497  1661.96694384
0.37500002 24260.34953228  1505.11215628
0.37600002 23907.77671084  1892.77877186
0.37700002 23563.15289205  1870.44316518
0.37800002 23227.07327290  1452.50509593
0.37900002 22899.92382385  1435.82529177
0.38000002 22580.63290543  1419.53155485
0.38100002 22268.46874837  1786.37664762
0.38200002 21965.30914734  1261.90707030
0.38300002 21669.25115320  1622.59360322
0.38400002 21381.87147267  1481.76376325
0.38500002 21100.68803762  1221.72989526
0.38600002 20828.47018557  1209.09275155
0.38700002 20562.34660045  1436.07435461
0.38800002 20304.00062832  1303.21234207
0.38900002 20052.07489178  1173.04643674
0.39000002 19808.38718510  1161.76196345
0.39100002 19570.35058703  1611.03133665
0.39200002 19339.67361231  1254.08119480
0.39300002 19115.12498770  1355.64472835
0.39400002 18898.65239727  1231.71972835
0.39500002 18687.23386016  1776.03479021
0.39600002 18482.23744811  1320.74075062
0.39700002 18283.42474706  1637.28076367
0.39800002 18090.72355003  1191.00284134
0.39900002 17903.80377454  1289.07393284
0.40000002 17722.70366805  1599.03101421
0.40100002 17547.59191023  1163.93182655
0.40200002 17378.22687106  1470.71940978
0.40300002 17213.76641544  1147.46972362
0.40400002 17055.16678910  1139.71157468
0.40500002 16901.88919802  1132.25761102
0.40600002 16753.65908585  1636.49749704
0.40700002 16610.59472315  1321.53897879
0.40800002 16472.53518578  1616.94413045
0.40900002 16339.17605051  1708.26093702
0.41000002 16211.11806305  1099.35702354
0.41100002 16087.17677985  994.18757210
0.41200002 15967.72997304  1384.88128618
0.41300002 15853.46970734  984.50051547
0.41400002 15742.98551208  1666.00152076
0.41500002 15637.08207030  1366.05555439
0.41600002 15534.73571575  1068.86754157
0.41700002 15436.95480275  1258.26624559
0.41800002 15343.93720052  1350.11309825
0.41900002 15253.02398197  1345.31677896
0.42000002 15167.28051919  957.81381017
0.42100002 15085.21302612  954.89402980
0.42200002 15006.94368646  1142.62874643
0.42300002 14931.51443697  1139.57323583
0.42400002 14859.66157095  1610.41589906
0.42500002 14791.47988027  1134.21073096
0.42600002 14725.78682712  1037.50536007
0.42700002 14664.43675384  1223.89394947
0.42800002 14605.54626453  1127.84033599
0.42900002 14550.58905021  1126.21564585
0.43000002 14497.99272949  1031.02480182
0.43100002 14447.50694381  1029.81834376
0.43200002 14400.94743452  1403.01237029
0.43300002 14356.74662790  1121.54909972
0.43400002 14315.32647212  934.07509657
0.43500002 14276.25906182  1213.76760295
0.43600002 14240.13451526  1213.47312022
0.43700002 14205.79821511  1026.65308566
0.43800002 14173.74162292  1026.67502311
0.43900002 14144.85859509  1306.98499612
0.44000002 14117.55513182  1027.26394785
0.44100002 14092.80871126  1214.65924039
0.44200002 14069.94480577  1121.93745198
0.44300002 14049.18451340  1309.94602611
0.44400002 14030.85469351  1123.87151421
0.44500002 14013.02389169  1124.96561134
0.44600002 13997.50651445  1220.09271315
0.44700002 13984.94051866  1315.70326635
0.44800002 13972.41909011  1035.14671735
0.44900002 13963.24545060  1508.03058013
0.45000002 13955.06007047  1321.68380191
0.45100002 13948.12023792  1513.09215512
0.45200002 13942.92934074  1326.39093105
0.45300002 13938.69858628  1139.07050245
0.45400002 13936.37306212  1236.50475854
0.45500002 13935.37365468  1048.49756347
0.45600002 13935.48946450  1337.38898729
0.45700002 13936.97650713  1340.45846398
0.45800002 13939.13297735  1055.68028607
0.45900002 13942.52638920  1058.23780309
0.46000002 13947.85081507  1253.84210845
0.46100002 13952.89907782  1257.01673750
0.46200002 13960.09791556  1163.43461542
0.46300002 13968.04283934  1166.61099323
0.46400002 13976.20911682  1462.26094815
0.46500002 13985.79877286  1270.88959472
0.46600002 13995.94694381  1372.58258183
0.46700002 14006.48206514  1376.55712261
0.46800002 14018.90171233  1380.72169509
0.46900002 14030.87978652  989.17707183
0.47000002 14043.90466454  992.20191158
0.47100002 14057.48406169  1393.37788624
0.47200002 14071.95668245  998.40537394
0.47300002 14087.02121867  1201.90470734
0.47400002 14101.82270519  1004.75491537
0.47500002 14117.50996249  1411.18636274
0.47600002 14134.31732603  1213.57254313
0.47700002 14150.42570133  1217.50268505
