# SAXS profile: number of points = 501, q_min = 0, q_max = 0.5, delta_q = 0.001
#    q    intensity    error
0.00000000 1700912.83420643 510.27385026
0.00100000 1700824.73412178 765.37114853
0.00200000 1700560.40503214 918.30264780
0.00300000 1700120.05976962 1020.07207220
0.00400000 1699503.58634797 1529.55328583
0.00500000 1698711.62270858 1987.49267724
0.00600000 1697744.05286731 2139.15759370
0.00700000 1696601.59289614 2646.69859492
0.00800000 1695284.02583044 3204.08694410
0.00900000 1693792.79156346 3302.89608474
0.01000000 1692127.29314972 3071.21116968
0.01100000 1690289.16706358 3346.77269650
0.01200000 1688278.18513991 4608.99964751
0.01300000 1686095.84825941 4248.96172501
0.01400000 1683742.21039521 7576.84028267
0.01500000 1681218.96883062 4034.92570486
0.01600000 1678525.68334913 5136.28882066
0.01700000 1675664.70228714 5429.15387896
0.01800000 1672636.42521536 9057.32665010
0.01900000 1669441.83231972 5509.15829524
0.02000000 1666081.86512392 6297.78973505
0.02100000 1662559.12803727 7132.37898265
0.02200000 1658872.29749728 8012.35356093
0.02300000 1655024.59571486 8341.32434209
0.02400000 1651016.64541932 6191.31270263
0.02500000 1646850.64154770 10918.62025212
0.02600000 1642527.33849280 7982.68323019
0.02700000 1638048.33562076 8255.76398965
0.02800000 1633414.39737694 9947.49413621
0.02900000 1628628.90622020 9527.47953883
0.03000000 1623692.31950869 9060.20355931
0.03100000 1618606.45070233 11653.96698129
0.03200000 1613372.36977590 10382.05167769
0.03300000 1607994.52759392 8200.77246879
0.03400000 1602471.26284211 9254.27196991
0.03500000 1596806.81858057 11209.58438407
0.03600000 1591001.63114267 11479.07729919
0.03700000 1585059.02263004 9034.83684683
0.03800000 1578980.43984409 10160.73960063
0.03900000 1572768.40537138 15098.57739078
0.04000000 1566423.07036696 11560.20279500
0.04100000 1559948.60731838 11793.21201814
0.04200000 1553346.67383257 11020.99516214
0.04300000 1546618.83980794 10207.68481655
0.04400000 1539768.19577178 11432.77938457
0.04500000 1532797.02918873 14806.81998996
0.04600000 1525705.97968352 12907.47318815
0.04700000 1518499.41126994 12026.51589659
0.04800000 1511178.47335778 15550.02721437
0.04900000 1503746.33229088 13533.71762058
0.05000000 1496204.39767450 12590.56059272
0.05100000 1488557.00786650 15093.96876290
0.05200000 1480802.99313523 14126.86121284
0.05300000 1472948.46103292 16703.23632678
0.05400000 1464993.71563697 19337.91794821
0.05500000 1456942.86200104 12238.32061172
0.05600000 1448796.60510485 13625.93270685
0.05700000 1440560.21163281 13786.16186884
0.05800000 1432232.61539179 16477.83700947
0.05900000 1423818.34521622 14095.80227600
0.06000000 1415320.70070495 14245.20351811
0.06100000 1406741.29389587 18315.77250245
0.06200000 1398083.09899354 17175.45167398
0.06300000 1389349.38472833 17339.08113210
0.06400000 1380539.39100173 16152.31163011
0.06500000 1371659.76284246 17653.26197356
0.06600000 1362711.86326836 15064.78035329
0.06700000 1353696.84155361 15188.47927304
0.06800000 1344618.91199107 13916.80639054
0.06900000 1335481.80461005 16827.07152591
0.07000000 1326284.93488473 19774.90930516
0.07100000 1317032.93809858 17068.74767722
0.07200000 1307728.11064731 20047.47287538
0.07300000 1298373.46100377 18735.52992015
0.07400000 1288972.06071321 17401.12363512
0.07500000 1279524.39318270 17503.89451919
0.07600000 1270034.27921937 20536.45525774
0.07700000 1260505.11278146 19172.28366437
0.07800000 1250938.36402430 20753.06843240
0.07900000 1241335.85227510 22344.04638897
0.08000000 1231703.14891439 19454.75214975
0.08100000 1222040.70345113 21043.54190075
0.08200000 1212350.05926100 15093.75894608
0.08300000 1202634.89794999 25760.44072308
0.08400000 1192898.02666441 19772.28572005
0.08500000 1183141.67765700 18315.03402993
0.08600000 1173368.18824158 21437.43780569
0.08700000 1163579.66445920 19967.02797973
0.08800000 1153778.09230768 15402.93825569
0.08900000 1143967.31389223 16987.91540922
0.09000000 1134148.87450316 15481.13286420
0.09100000 1124324.92882025 17067.25322133
0.09200000 1114497.35231611 21766.13431345
0.09300000 1104670.60258653 21806.19871978
0.09400000 1094843.04229489 20281.96831171
0.09500000 1085019.64659261 20311.56873891
0.09600000 1075201.70912044 21901.85984434
0.09700000 1065393.97816536 17227.42143684
0.09800000 1055595.30818763 18810.70927634
0.09900000 1045810.02310668 20393.29640952
0.10000000 1036037.27207394 21974.35157408
0.10100000 1026281.11651442 18842.52218540
0.10200000 1016543.53136242 20417.27778777
0.10300000 1006826.05362581 18847.78461049
0.10400000 997131.01017674 17275.29556403
0.10500000 987461.97312305 23550.96916704
0.10600001 977815.30613495 18832.72368231
0.10700001 968199.42567098 21958.76400755
0.10800001 958611.00435455 15673.29065881
0.10900001 949055.04607920 20357.23169653
0.11000001 939532.14150168 18771.85307079
0.11100001 930043.30632945 21874.61959458
0.11200001 920591.69106533 18724.83587778
0.11300001 911176.87214181 17139.23777192
0.11400001 901802.15814658 24889.74073676
0.11500001 892468.85672801 15528.95883829
0.11600001 883177.99451607 20149.70689376
0.11700001 873931.30472092 20109.16026867
0.11800001 864728.93199261 18522.49459566
0.11900001 855572.95905846 18480.37678612
0.12000001 846464.66212956 16899.66777547
0.12100001 837406.94858149 18389.45745714
0.12200001 828399.25898124 16812.36375308
0.12300001 819443.73748371 16765.81965883
0.12400001 810540.33910354 15197.63207427
0.12500001 801690.41328081 18182.33942997
0.12600001 792896.98239682 18125.62587173
0.12700001 784159.06301188 16561.44019129
0.12800001 775477.74706329 18006.59413545
0.12900001 766855.12596818 19439.77835953
0.13000001 758291.33665142 16390.46801428
0.13100001 749786.49191774 20784.08253567
0.13200001 741342.25971409 14789.77877849
0.13300001 732960.73175571 19152.26482367
0.13400001 724640.10022943 20543.54781004
0.13500001 716383.70542417 14614.22827969
0.13600001 708189.77793598 18919.29080962
0.13700001 700061.07296509 18838.64436179
0.13800001 691995.55206758 21642.16191147
0.13900001 683997.17661333 17236.72966351
0.14000001 676064.15900612 15728.63340105
0.14100001 668197.58925390 21348.91398354
0.14200001 660397.48189151 15582.07932016
0.14300001 652666.02245048 16917.10409986
0.14400001 644999.67966778 15431.61806396
0.14500001 637403.41465497 15355.04898337
0.14600001 629874.88262483 18055.36436219
0.14700001 622417.12075061 20726.49109880
0.14800001 615024.89644879 16494.96850097
0.14900001 607703.45767176 17775.32697555
0.15000001 600450.77777268 17680.27398572
0.15100001 593267.84754381 14879.15831847
0.15200001 586154.83720593 13452.25414865
0.15300001 579112.67621831 17390.75448749
0.15400001 572137.66449890 18623.08185828
0.15500001 565234.07110252 17194.42125439
0.15600001 558397.93476416 17095.35357962
0.15700001 551635.16970629 18303.25579471
0.15800001 544938.32124559 23394.20323525
0.15900001 538313.35836383 12919.52121054
0.16000001 531755.60143844 16694.46789518
0.16100001 525270.32212269 16593.29025913
0.16200001 518852.71973231 13954.54455594
0.16300001 512503.87599304 15129.11513353
0.16400001 506224.27962943 15034.86181478
0.16500001 500012.62066959 14940.37781096
0.16600001 493870.36230043 17320.03442361
0.16700001 487794.56089999 24584.84703013
0.16800001 481786.15973244 14655.93567106
0.16900001 475847.14303024 15774.33353629
0.17000001 469973.80674822 13260.31158355
0.17100001 464167.07449889 11975.51108757
0.17200001 458427.19522848 13085.80490575
0.17300001 452753.29395636 16543.60614243
0.17400001 447145.03997811 12911.31363912
0.17500001 441601.58619278 13989.93891130
0.17600001 436121.34377943 12736.92444663
0.17700001 430707.44117576 19549.81167832
0.17800001 425355.36678524 15989.10899266
0.17900001 420067.37423331 18146.91142402
0.18000001 414841.97043878 13515.55203530
0.18100001 409680.36189019 17894.83905265
0.18200001 404577.86780279 16658.49449369
0.18300001 399537.66528719 13232.68809941
0.18400001 394557.53147595 14233.66362040
0.18500001 389638.96381426 15219.29864558
0.18600001 384778.30100488 14030.94140901
0.18700001 379976.41526410 11786.86895836
0.18800001 375232.75360337 13829.20378743
0.18900001 370548.61504960 14784.89043903
0.19000001 365917.49112475 14676.95126248
0.19100001 361347.68763378 12488.17667469
0.19200001 356830.34169128 17561.40609614
0.19300001 352370.89149183 13330.19145502
0.19400001 347963.76844865 19338.08734533
0.19500001 343611.88031082 12122.62771022
0.19600001 339313.03450696 10026.70064351
0.19700001 335066.77391698 12936.92875230
0.19800001 330873.07998617 15802.49904695
0.19900001 326731.22814367 12742.51849981
0.20000001 322638.81287451 11673.07280148
0.20100001 318598.18313834 11584.23048641
0.20200001 314605.56220635 11495.68778635
0.20300001 310663.49065056 11407.56391586
0.20400001 306769.10642652 14149.72570272
0.20500001 302922.11491516 11232.35255197
0.20600001 299122.54508929 13002.85764965
0.20700001 295369.57103808 11058.63726240
0.20800001 291661.17909319 10972.29407615
0.20900001 288000.30036613 9979.21087942
0.21000001 284382.02616990 9900.76070914
0.21100001 280808.45813781 9822.68033001
0.21200001 277277.81555244 8859.02662571
0.21300001 273789.04633906 12304.08032416
0.21400001 270343.48892909 11334.15130919
0.21500001 266940.31784307 8648.86670701
0.21600001 263576.71185285 11153.24908936
0.21700001 260253.83194390 11063.39091901
0.21800001 256970.84356265 10129.79113218
0.21900001 253726.00967216 10884.84632959
0.22000001 250519.56095216 11626.61337353
0.22100001 247352.65336483 9884.21249582
0.22200001 244223.17190575 15521.60442440
0.22300001 241129.24594350 8101.94304681
0.22400001 238070.95476591 8838.38461362
0.22500001 235051.31358790 8765.06389817
0.22600001 232064.66734960 14223.24413445
0.22700001 229114.77774215 8619.29834626
0.22800001 226197.46000151 8546.87143034
0.22900001 223313.34709957 10015.60409106
0.23000001 220463.79553426 8402.97796418
0.23100001 217647.35251029 9846.36669323
0.23200001 214861.40914167 10513.16924651
0.23300001 212108.20942480 8189.49835321
0.23400001 209386.90127601 8118.97748097
0.23500001 206694.26543425 8780.37281092
0.23600001 204033.97232076 8704.08967088
0.23700001 201402.78253267 8628.09561179
0.23800001 198801.28851136 8552.43183628
0.23900001 196228.49005521 10596.33896418
0.24000001 193684.21494587 8402.02164177
0.24100001 191169.39072644 9715.22889626
0.24200001 188681.52694599 8940.67457725
0.24300001 186221.51680058 8860.42018849
0.24400001 183788.10470570 7429.63448418
0.24500001 181381.28407508 6692.96969898
0.24600001 179001.34284784 7958.40007949
0.24700001 176647.26975157 6571.27874562
0.24800001 174318.67799134 7161.88322408
0.24900001 172014.57217669 7095.60143796
0.25000001 169736.42764799 8946.80752458
0.25100001 167481.63416636 8230.04789229
0.25200001 165252.93469641 6898.48408527
0.25300001 163047.81003768 8075.75841323
0.25400001 160866.03133997 6768.43858885
0.25500001 158707.23417490 6094.35808065
0.25600001 156572.14920842 6035.85663756
0.25700001 154459.23489300 5977.57267318
0.25800001 152369.62042991 8287.38404729
0.25900001 150302.12936224 7620.31831922
0.26000001 148256.68414977 5804.24945909
0.26100001 146232.39543969 6896.32009524
0.26200001 144230.56599725 5689.89609782
0.26300001 142249.24622490 5633.07041705
0.26400001 140289.54429589 5576.50964963
0.26500001 138351.01925890 6624.24711557
0.26600001 136431.99429672 6556.92195617
0.26700001 134534.69509031 6489.95399826
0.26800001 132657.86916207 6423.29432878
0.26900001 130799.73871734 11654.25727121
0.27000001 128962.38882870 7863.48203095
0.27100001 127144.32105456 5187.48854451
0.27200001 125347.26934746 5646.26801496
0.27300001 123568.45601664 5586.53016089
0.27400001 121807.04620766 7536.81134078
0.27500001 120067.52246943 7953.27306477
0.27600001 118344.45004617 6884.09698498
0.27700001 116641.91973947 5350.36511166
0.27800001 114956.79734168 5292.03641608
0.27900001 113291.17728686 6185.69857262
0.28000001 111642.47306268 5176.30350854
0.28100001 110012.68002828 5584.24390253
0.28200001 108401.30914145 5061.79936993
0.28300001 106807.45414199 5004.99753798
0.28400001 105231.15450900 6298.08489546
0.28500001 103672.78789895 5781.83165479
0.28600001 102131.81656861 5715.80738480
0.28700001 100608.25866159 5215.53237588
0.28800001 99101.16257628  4725.63916113
0.28900001 97613.21324353  4670.79247479
0.29000001 96140.64065389  5875.15482845
0.29100001 94686.04898727  4561.97405615
0.29200001 93248.04862953  4508.07712439
0.29300001 91826.99886376  5669.39917821
0.29400001 90421.98700750  5201.52504883
0.29500001 89034.64088496  5139.07971515
0.29600001 87662.96505689  4295.92380597
0.29700001 86307.84241965  4629.55288654
0.29800001 84968.83723647  4573.02303655
0.29900001 83646.94008864  4516.93497861
0.30000001 82340.27916781  3717.66378042
0.30100001 81050.71104826  3671.59738430
0.30200001 79775.79593774  6163.87716493
0.30300001 78517.79533772  3580.41163690
0.30400001 77275.60625867  4949.50281519
0.30500001 76048.85186807  3490.64246600
0.30600001 74837.02901612  5169.36802402
0.30700001 73641.85106274  4763.15515224
0.30800001 72461.76947373  5037.90476117
0.30900001 71297.05108561  3646.84433569
0.31000001 70148.05721260  3926.88842868
0.31100001 69013.36139741  4521.75565284
0.31200001 67894.55985349  3825.17968325
0.31300001 66790.37254105  4089.57470431
0.31400001 65702.41578508  4035.77108068
0.31500001 64628.12688500  3982.38536721
0.31600002 63569.15262556  3022.71335046
0.31700002 62524.92541309  3578.92690010
0.31800002 61495.44211963  3825.32415818
0.31900002 60480.61007733  3483.68330540
0.32000002 59480.70675296  3436.79539892
0.32100002 58494.34425672  3955.38774593
0.32200002 57523.74158411  3065.72795289
0.32300002 56565.57238776  3848.72172750
0.32400002 55622.36541963  3796.22661965
0.32500002 54693.18045536  3476.84564618
0.32600002 53778.53779283  3429.18862474
0.32700002 52877.14958092  2601.55588257
0.32800002 51990.26035147  3078.86336381
0.32900002 51116.51229788  2783.29422642
0.33000002 50257.51514659  3243.87146875
0.33100002 49409.67688319  3936.96324048
0.33200002 48578.06391143  2911.76928874
0.33300002 47758.58833525  2871.24646668
0.33400002 46952.89182477  2595.32121852
0.33500002 46159.28458925  3024.35646951
0.33600002 45380.00201773  2982.14697382
0.33700002 44612.49778794  2714.22449396
0.33800002 43859.18917039  2676.28784992
0.33900002 43117.39726100  2418.88610089
0.34000002 42389.07204628  2385.02125163
0.34100002 41673.00984970  3206.73825980
0.34200002 40970.20930239  2318.70910528
0.34300002 40278.41934872  2494.03984419
0.34400002 39600.53309139  2254.26045299
0.34500002 38933.68547440  2626.85588337
0.34600002 38280.02995002  2390.97078392
0.34700002 37636.67178767  2357.56123244
0.34800002 37006.79784984  2324.76715103
0.34900002 36387.79716462  2483.46727411
0.35000002 35780.60627073  2072.23391031
0.35100002 35185.54834766  2786.69556112
0.35200002 34600.63339690  2564.94507520
0.35300002 34027.48309968  2168.23132581
0.35400002 33465.93822062  1960.26742412
0.35500002 32915.53641970  2109.22767368
0.35600002 32375.07099861  1907.05364750
0.35700002 31845.77836808  2223.15389317
0.35800002 31328.01175311  1855.71486409
0.35900002 30820.49423761  2330.02947473
0.36000002 30323.75893593  1970.43794899
0.36100002 29836.49956853  2430.18300497
0.36200002 29360.84044999  2238.17697352
0.36300002 28894.05436518  2050.90007599
0.36400002 28437.47699058  1868.34232678
0.36500002 27990.63855038  1536.68612921
0.36600002 27554.05167173  1820.22073965
0.36700002 27126.42325526  2096.33008847
0.36800002 26709.94525057  2069.75375551
0.36900002 26301.65589549  1897.66456275
0.37000002 25902.37539484  2162.20088851
0.37100002 25512.17197422  1708.29511632
0.37200002 25132.02829693  1827.97816477
0.37300002 24759.91193249  1805.74046278
0.37400002 24396.81340848  2195.71331078
0.37500002 24042.68311126  1762.80960922
0.37600002 23697.32532284  1742.10895363
0.37700002 23359.75534342  1589.39782886
0.37800002 23030.54232578  1963.92958987
0.37900002 22710.24970001  1812.27801191
0.38000002 22397.63681815  2048.04000767
0.38100002 22092.13710463  1645.64337088
0.38200002 21795.50399591  1627.79729305
0.38300002 21505.81406355  1362.60844362
0.38400002 21224.72345028  1716.01897225
0.38500002 20949.60093181  1576.87653684
0.38600002 20683.40292458  1801.00739498
0.38700002 20423.34687270  1426.36661316
0.38800002 20170.71395537  1530.04957957
0.38900002 19924.57998060  1282.14678249
0.39000002 19686.46341350  1385.53336068
0.39100002 19453.86859789  1715.83129162
0.39200002 19228.58264779  1360.23000095
0.39300002 19009.34458005  1572.83324507
0.39400002 18797.99655237  1225.15948335
0.39500002 18591.61108291  1104.34175065
0.39600002 18391.45583140  1314.25349598
0.39700002 18197.47204858  1412.30587260
0.39800002 18009.51328681  1293.44330554
0.39900002 17827.18571947  1176.59431323
0.40000002 17650.46364824  1380.17807037
0.40100002 17479.70186062  1686.44171541
0.40200002 17314.63566416  1360.67070814
0.40300002 17154.33035987  1143.50771597
0.40400002 16999.74597275  1445.82846349
0.40500002 16850.44335687  1026.19204906
0.40600002 16705.98345672  1325.87043986
0.40700002 16566.59958077  1115.26353662
0.40800002 16432.21615853  1108.92816000
0.40900002 16302.36282343  1503.89304172
0.41000002 16177.62110756  1097.08542739
0.41100002 16057.01043084  1190.78794997
0.41200002 15940.71988480  1086.28040802
0.41300002 15829.44980386  1081.30976734
0.41400002 15721.94069301  1076.55993996
0.41500002 15618.94442503  1656.85770311
0.41600002 15519.36350765  970.73623340
0.41700002 15424.21187790  1160.51775668
0.41800002 15333.82003798  1252.84982557
0.41900002 15245.29382075  1248.58962308
0.42000002 15161.90475451  1053.22176368
0.42100002 15082.13155928  1145.63876753
0.42200002 15006.03715065  1047.34641256
0.42300002 14932.71807238  1139.66509729
0.42400002 14862.78893740  1042.25312362
0.42500002 14796.47115816  1229.14291735
0.42600002 14732.54407988  1037.98144233
0.42700002 14672.91555287  1318.80171239
0.42800002 14615.52821073  1128.61114191
0.42900002 14562.12077856  939.25683473
0.43000002 14510.94394450  1313.38559865
0.43100002 14461.75002167  1030.83359039
0.43200002 14416.41811380  1217.25032112
0.43300002 14373.39594396  1309.99136841
0.43400002 14333.04343442  1028.75424126
0.43500002 14294.93094171  1215.35508626
0.43600002 14259.64872644  1215.13602381
0.43700002 14226.17482185  934.65973009
0.43800002 14194.82372701  1308.62086141
0.43900002 14166.57317388  1308.99142330
0.44000002 14139.85348455  1122.42162279
0.44100002 14115.60313735  1403.79679854
0.44200002 14093.20050255  936.49321778
0.44300002 14072.74168364  1218.41803271
0.44400002 14054.65229422  1125.77770212
0.44500002 14037.04029963  939.07804055
0.44600002 14021.62123585  1316.20964779
0.44700002 14009.12004685  1223.83678529
0.44800002 13996.51108563  1036.93157292
0.44900002 13987.27402755  944.14104160
0.45000002 13978.89686956  1229.37414346
0.45100002 13971.66410350  1231.46253244
0.45200002 13966.19534926  1233.70392465
0.45300002 13961.63439861  1140.94481713
0.45400002 13958.86431102  1143.23104125
0.45500002 13957.40790005  1432.03011841
0.45600002 13956.92100191  1148.09637603
0.45700002 13957.76335423  1054.78822667
0.45800002 13959.29658681  1057.20737711
0.45900002 13961.98251677  1348.72757504
0.46000002 13966.56691444  1448.68222186
0.46100002 13970.78022067  1258.62764973
0.46200002 13977.10108893  1358.99360329
0.46300002 13984.07813105  1265.27944927
0.46400002 13991.24544950  1171.06729963
0.46500002 13999.79616857  1076.44437842
0.46600002 14008.90751567  1471.98602697
0.46700002 14018.30135360  984.08480166
0.46800002 14029.57747596  1283.07506888
0.46900002 14040.30214163  989.84134790
0.47000002 14052.03709348  1092.05411448
0.47100002 14064.35900768  995.75666494
0.47200002 14077.45695012  1697.95255052
0.47300002 14091.11632797  1001.87841841
0.47400002 14104.46060773  1507.41429890
0.47500002 14118.72036675  1108.88435016
0.47600002 14134.01444275  1213.54653757
0.47700002 14148.59748908  1623.12718088
