# SAXS profile: number of points = 501, q_min = 0, q_max = 0.5, delta_q = 0.001
#    q    intensity    error
0.00000000 1682732.95097187 353.37391970
0.00100000 1682645.32984818 605.75233313
0.00200000 1682382.44447390 1211.31539838
0.00300000 1681944.49652769 1110.08340725
0.00400000 1681331.38481653 1513.19830383
0.00500000 1680543.74660670 1966.23626136
0.00600000 1679581.45315589 2998.05301594
0.00700000 1678445.22182314 2416.96121987
0.00800000 1677134.86291434 3169.78502474
0.00900000 1675651.78365358 2513.47778293
0.01000000 1673995.38653403 3866.92950987
0.01100000 1672167.30763273 3611.88154175
0.01200000 1670167.35620068 3582.50913612
0.01300000 1667996.96109233 3502.79377278
0.01400000 1665656.26100739 4497.27210409
0.01500000 1663146.86294885 3991.55264882
0.01600000 1660468.36928396 5081.03343715
0.01700000 1657623.11477251 6713.37391598
0.01800000 1654611.51963888 5187.20734748
0.01900000 1651434.54581125 6440.59501928
0.02000000 1648093.14472504 5710.64300480
0.02100000 1644589.86817593 5969.86149214
0.02200000 1640923.46081836 6227.30481673
0.02300000 1637097.10579214 7661.61480385
0.02400000 1633111.36766530 7961.41828039
0.02500000 1628968.64206434 10164.76479071
0.02600000 1624669.32564725 9211.87549776
0.02700000 1620215.39334998 7485.39546012
0.02800000 1615607.31834995 9839.04901997
0.02900000 1610848.63091041 8698.58300630
0.03000000 1605939.75998786 11948.19236351
0.03100000 1600882.49154764 9989.50720691
0.03200000 1595677.94712272 11847.90930308
0.03300000 1590330.52906288 8921.75467934
0.03400000 1584838.47465872 8320.40237586
0.03500000 1579206.21426613 9380.48534591
0.03600000 1573434.01148071 9605.81508401
0.03700000 1567525.38352846 11615.36362913
0.03800000 1561481.46372092 10961.60038262
0.03900000 1555305.04990977 11198.19687794
0.04000000 1548996.14886328 10478.95943264
0.04100000 1542559.02624563 10689.93454754
0.04200000 1535995.20180906 13870.03731581
0.04300000 1529306.30692572 11102.76430365
0.04400000 1522495.60382457 11304.53038340
0.04500000 1515565.02562430 12548.87899525
0.04600000 1508515.34202131 13825.54375233
0.04700000 1501350.98780553 10809.72761494
0.04800000 1494073.22601501 14275.87033880
0.04900000 1486684.92325403 13380.16493210
0.05000000 1479187.62743573 14710.52163986
0.05100000 1471585.61392769 14921.87882035
0.05200000 1463877.86935102 12801.61256405
0.05300000 1456070.27566379 12973.58676097
0.05400000 1448163.32527694 19115.75678510
0.05500000 1440160.98212816 13307.08809563
0.05600000 1432063.94106767 13468.56199424
0.05700000 1423877.52495101 14865.28205438
0.05800000 1415600.69241037 21297.71341176
0.05900000 1407237.85117992 17731.19775302
0.06000000 1398792.43968227 16638.63684736
0.06100000 1390265.95255380 15515.36875555
0.06200000 1381661.32168122 14362.37011022
0.06300000 1372981.91539539 15816.75240487
0.06400000 1364226.90705031 19951.81944869
0.06500000 1355402.93688973 16102.18764347
0.06600000 1346511.37788491 17592.17197518
0.06700000 1337553.38168561 17735.95867118
0.06800000 1328533.15137460 17875.41438848
0.06900000 1319454.30844462 18010.55215350
0.07000000 1310316.41470244 22327.79275211
0.07100000 1301124.03827482 21078.21040731
0.07200000 1291879.30769846 16975.29489840
0.07300000 1282585.51121124 15660.36982567
0.07400000 1273245.40905979 20053.61613249
0.07500000 1263860.01765215 17289.60585189
0.07600000 1254432.38665311 20284.17264311
0.07700000 1244966.49149611 17479.33036019
0.07800000 1235463.50030609 17568.29179824
0.07900000 1225925.23937259 17653.32427497
0.08000000 1216357.55481537 20690.24297801
0.08100000 1206760.47780720 14843.15457344
0.08200000 1197135.77548787 19375.64343548
0.08300000 1187487.14782828 16458.57264133
0.08400000 1177817.26669621 16518.88794079
0.08500000 1168128.27945694 19589.51216613
0.08600000 1158422.85426655 19652.64464535
0.08700000 1148702.82036597 19711.74132310
0.08800000 1138970.24134483 18246.30412326
0.08900000 1129228.98642026 16769.05123598
0.09000000 1119480.34473690 18337.08890818
0.09100000 1109726.77127808 19908.49921205
0.09200000 1099969.92261558 19947.95548392
0.09300000 1090214.33343720 19983.62967098
0.09400000 1080458.57165152 18475.84244356
0.09500000 1070707.24296893 16960.00352579
0.09600000 1060961.68317199 21611.79050214
0.09700000 1051226.83030964 16998.33864525
0.09800000 1041501.42070047 18559.55618951
0.09900000 1031789.76474923 15476.84719900
0.10000000 1022090.87819216 23227.01629922
0.10100000 1012409.16253740 15489.86091534
0.10200000 1002746.20284782 17041.67251898
0.10300000 993103.67911398 17041.65993525
0.10400000 983484.09478648 21685.82531025
0.10500000 973890.76606008 17033.35029980
0.10600001 964319.92132895 17025.06901215
0.10700001 954780.14919390 18560.92697376
0.10800001 945268.32691811 26273.73438318
0.10900001 935789.31315261 15440.52439374
0.11000001 926343.41079980 15423.61851580
0.11100001 916931.90608519 16944.90242211
0.11200001 907557.77835048 18459.72608068
0.11300001 898220.91320312 21503.40967448
0.11400001 888924.10129718 21467.51805711
0.11500001 879669.14375606 21428.74135093
0.11600001 870456.71110896 16804.16759929
0.11700001 861288.58965724 18293.77050586
0.11800001 852165.12239104 18253.37778132
0.11900001 843088.04433061 21245.81971784
0.12000001 834058.99580754 18165.80578439
0.12100001 825080.73902602 16608.87605901
0.12200001 816152.47679450 16563.81529689
0.12300001 807276.51476911 16516.87827036
0.12400001 798453.08914492 23953.59380298
0.12500001 789683.00986483 17910.01150766
0.12600001 780969.50038981 16365.21665185
0.12700001 772311.69022354 20759.73921154
0.12800001 763710.54398947 23644.47955626
0.12900001 755168.05178915 17670.93324473
0.13000001 746684.70247866 14672.35509529
0.13100001 738260.27851647 21926.33130549
0.13200001 729896.67613270 20386.01512539
0.13300001 721595.58362372 14504.07191460
0.13400001 713355.66819154 15889.99825811
0.13500001 705179.73575374 18701.36747392
0.13600001 697066.51078504 14324.71747205
0.13700001 689018.20158844 17115.21293450
0.13800001 681033.49348280 21299.32351306
0.13900001 673115.62650975 24030.22899962
0.14000001 665263.24370818 15477.35009479
0.14100001 657477.28917158 22406.82707174
0.14200001 649757.69161144 22299.68502788
0.14300001 642106.71726479 19417.30804596
0.14400001 634520.97241545 15180.91498112
0.14500001 627005.00276980 13731.41020840
0.14600001 619556.78071063 21857.96425461
0.14700001 612179.20503730 14949.41689227
0.14800001 604867.12488663 16222.53705482
0.14900001 597625.81467665 16135.89775757
0.15000001 590452.97560252 17385.88868693
0.15100001 583350.05012078 22610.64900956
0.15200001 576316.63437863 17194.40759804
0.15300001 569353.99062026 14467.28558436
0.15400001 562458.44306248 18308.02318566
0.15500001 555634.33027581 15602.21273046
0.15600001 548877.44096991 16803.88364835
0.15700001 542193.62288039 12849.98946874
0.15800001 535575.57542490 14050.82588445
0.15900001 529029.51632540 16505.72168843
0.16000001 522550.18858598 17667.42271004
0.16100001 516143.20699053 17559.19273069
0.16200001 509803.79454205 17450.58471095
0.16300001 503532.99962456 14864.29485063
0.16400001 497331.07693780 12308.94473531
0.16500001 491196.97313390 12230.80520847
0.16600001 485131.96005194 15798.32302498
0.16700001 479133.35170782 14488.99323974
0.16800001 473201.64122742 20392.62569156
0.16900001 467339.39920383 11917.15524240
0.17000001 461542.41874992 17757.84539992
0.17100001 455811.76351449 17639.91608099
0.17200001 450147.84178209 17522.00556881
0.17300001 444549.43786543 13923.28905147
0.17400001 439016.40077358 17286.27159682
0.17500001 433548.04337400 13734.80266275
0.17600001 428142.64523337 15914.06287493
0.17700001 422803.08331814 11288.84285777
0.17800001 417525.25238621 12331.60891167
0.17900001 412311.26149479 12245.64504480
0.18000001 407159.37671392 16581.56639991
0.18100001 402071.03713489 12074.19381550
0.18200001 397041.43371765 11988.66665742
0.18300001 392073.72501093 20560.34711083
0.18400001 387166.03477214 13967.01536422
0.18500001 382319.47968811 10666.71398722
0.18600001 377530.38718644 14825.61900522
0.18700001 372799.73307723 11564.24826641
0.18800001 368126.95707576 12523.67967141
0.18900001 363513.52635209 11396.14958958
0.19000001 358952.65083346 11312.39332551
0.19100001 354452.76405309 15312.36013060
0.19200001 350004.90658033 13172.43528157
0.19300001 345614.58226902 13074.60026505
0.19400001 341276.27993671 9982.33165985
0.19500001 336992.78090119 11889.10587202
0.19600001 332761.99175094 10816.42905301
0.19700001 328583.30274723 12686.60191861
0.19800001 324456.80720044 10653.53976790
0.19900001 320381.86657819 14417.18467737
0.20000001 316355.84050127 10491.94194609
0.20100001 312381.37394641 11358.18729351
0.20200001 308454.41253476 13149.41222784
0.20300001 304577.54434605 11184.08795700
0.20400001 300748.10407278 10172.80510109
0.20500001 296965.56333786 10093.85997496
0.20600001 293229.82133345 10015.26502105
0.20700001 289540.47225082 11743.76210961
0.20800001 285895.30687088 11651.66378230
0.20900001 282297.29833348 9781.60184964
0.21000001 278741.41502428 9704.38282282
0.21100001 275229.63653694 9627.53314119
0.21200001 271760.51748875 12155.84852193
0.21300001 268332.86466924 9474.83389940
0.21400001 264947.91457329 10253.48477874
0.21500001 261604.92847258 8476.00008324
0.21600001 258301.04366849 15974.62880094
0.21700001 255037.56274525 12509.59304410
0.21800001 251813.36483199 10753.69025359
0.21900001 248626.98508766 9845.62907499
0.22000001 245478.66715447 9765.14184113
0.22100001 242369.28820467 11299.25675037
0.22200001 239296.83460592 10405.82334487
0.22300001 236259.66561661 11113.65519612
0.22400001 233257.80308704 7872.45122645
0.22500001 230293.71715850 8587.65311893
0.22600001 227362.21580495 7741.68381425
0.22700001 224467.26290868 9212.13690541
0.22800001 221604.53303780 8373.32767681
0.22900001 218774.35649727 9057.25878731
0.23000001 215978.24038267 8232.01102149
0.23100001 213214.93950493 9645.84431938
0.23200001 210481.64867742 9563.23415994
0.23300001 207780.43408180 10939.64037179
0.23400001 205110.81482738 10122.21919046
0.23500001 202469.59880073 9317.65137750
0.23600001 199860.02695064 7105.02429414
0.23700001 197279.18631088 9860.01419818
0.23800001 194727.53762522 10471.47383108
0.23900001 192204.23632454 6919.35283497
0.24000001 189708.93770981 9601.16979163
0.24100001 187242.58817110 8835.97815375
0.24200001 184802.98849624 8083.28309918
0.24300001 182390.51225760 7343.04237084
0.24400001 180004.19771193 8599.70095248
0.24500001 177644.21927120 9177.10080167
0.24600001 175310.27891416 9093.34459744
0.24700001 173002.11493105 7722.81477586
0.24800001 170718.94236512 8289.25863868
0.24900001 168459.81857073 8844.14089336
0.25000001 166226.17280191 6884.25727227
0.25100001 164015.39967578 6819.76064115
0.25200001 161830.38694513 8598.04886517
0.25300001 159668.43382209 7908.37790136
0.25400001 157529.30680573 7833.14515151
0.25500001 155412.80198281 8354.99262989
0.25600001 153319.55014288 6501.51583141
0.25700001 151248.03495263 8779.94884441
0.25800001 149199.38631492 7535.31536236
0.25900001 147172.40040324 7461.64105349
0.26000001 145167.17651206 5683.29522936
0.26100001 143182.42632199 6752.48354485
0.26200001 141219.90459126 6685.35059968
0.26300001 139277.46924863 7170.00445619
0.26400001 137356.00887230 6005.89177213
0.26500001 135455.54116073 7026.07925247
0.26600001 133574.05818368 5884.60541174
0.26700001 131713.89064579 7412.85811632
0.26800001 129873.77765637 8384.65148226
0.26900001 128051.92283192 5704.71343212
0.27000001 126250.56834097 7184.92018429
0.27100001 124468.00364651 6093.95374692
0.27200001 122705.98287455 6029.77228381
0.27300001 120961.84472763 6462.99166965
0.27400001 119234.74700197 6393.96361057
0.27500001 117529.16584844 6325.42000532
0.27600001 115839.50418298 6257.07111457
0.27700001 114170.09295854 5236.98241186
0.27800001 112517.70277745 5179.75269250
0.27900001 110884.36235993 6054.28647139
0.28000001 109267.61051346 5987.31900146
0.28100001 107669.39591642 5920.74036167
0.28200001 106089.22801015 5854.53432483
0.28300001 104526.07054752 5788.65406090
0.28400001 102980.11839020 5723.12035041
0.28500001 101451.91922779 5222.74504905
0.28600001 99940.55247083  4732.68508626
0.28700001 98446.25818055  5103.45426564
0.28800001 96968.11352404  4203.56792023
0.28900001 95508.78151071  4985.55863084
0.29000001 94064.47704997  5748.28046461
0.29100001 92637.69039062  4869.03723741
0.29200001 91227.29402663  4811.32771471
0.29300001 89833.40070270  5546.31442192
0.29400001 88455.12460564  5088.38128381
0.29500001 87094.32417510  3866.98817643
0.29600001 85748.79621475  5730.16357830
0.29700001 84419.49932191  3773.55179832
0.29800001 83106.02257594  5218.22740457
0.29900001 81809.23247339  3681.41563558
0.30000001 80527.35386616  5090.13427885
0.30100001 79262.29543482  4308.69858381
0.30200001 78011.44801028  4254.74457590
0.30300001 76777.44305216  4201.26188271
0.30400001 75558.84351176  3456.81725431
0.30500001 74355.32649509  4436.78254201
0.30600001 73166.35331902  3369.31072985
0.30700001 71993.89324293  4656.56523541
0.30800001 70836.08372353  3283.25263603
0.30900001 69693.43275321  4537.04268704
0.31000001 68566.27688239  4158.20205840
0.31100001 67453.01577102  4103.84167381
0.31200001 66355.37809072  3426.92366375
0.31300001 65272.07290237  3381.74625718
0.31400001 64204.65044872  4247.13782827
0.31500001 63150.73223158  3292.67933445
0.31600002 62111.85977486  3544.10288656
0.31700002 61087.44423084  3788.03259611
0.31800002 60077.45313876  3737.11814944
0.31900002 59081.97815493  3686.71561143
0.32000002 58100.95131785  3636.82921994
0.32100002 57133.33729442  2759.54032198
0.32200002 56181.21576761  2994.17803611
0.32300002 55241.29280372  3758.61774034
0.32400002 54316.17808830  3177.49656862
0.32500002 53404.76436024  2872.64241096
0.32600002 52507.53342161  3090.59356354
0.32700002 51623.42358745  4571.77060939
0.32800002 50753.67366764  2755.16330551
0.32900002 49896.70990757  2963.86470886
0.33000002 49054.24061307  2679.09747795
0.33100002 48222.71686392  2881.78969625
0.33200002 47407.36559082  2604.79782574
0.33300002 46603.79145909  2334.85006267
0.33400002 45813.70737833  2762.56668574
0.33500002 45035.71323888  2723.76006567
0.33600002 44271.60253818  2461.72257571
0.33700002 43519.29447155  2647.71400104
0.33800002 42780.85225901  2828.02837251
0.33900002 42053.76411967  2573.69048601
0.34000002 41339.97345465  2960.35563928
0.34100002 40638.15356676  2084.73737671
0.34200002 39949.40453351  3083.09544089
0.34300002 39271.64872540  2634.34232126
0.34400002 38607.47064217  2197.73037039
0.34500002 37954.20024235  2560.77001163
0.34600002 37313.91051750  2136.40804786
0.34700002 36683.78076290  2489.36148047
0.34800002 36066.90870046  2265.72331187
0.34900002 35460.75362701  2047.85861895
0.35000002 34866.30548504  2019.28217780
0.35100002 34283.80479304  2896.29596609
0.35200002 33711.23152400  2320.51273186
0.35300002 33150.36445370  2112.34132304
0.35400002 32600.83091530  1735.99432846
0.35500002 32062.29863130  2225.76487641
0.35600002 31533.57759766  1857.48547637
0.35700002 31016.00591252  1998.67151567
0.35800002 30509.61765060  1971.53158596
0.35900002 30013.46401390  1944.87256022
0.36000002 29527.92843619  2398.40610083
0.36100002 29051.77917740  1577.51168405
0.36200002 28586.95361841  1556.55969825
0.36300002 28130.98875324  1843.14247042
0.36400002 27685.07411064  2576.78839490
0.36500002 27248.84739753  1645.55797228
0.36600002 26822.60707436  2067.21842514
0.36700002 26405.35546081  1894.84839762
0.36800002 25998.95246401  1582.94629575
0.36900002 25600.74887045  1847.09411850
0.37000002 25211.40513999  1543.31623875
0.37100002 24831.10309995  1524.13318047
0.37200002 24460.52180310  1915.99276360
0.37300002 24098.07840794  2027.85339409
0.37400002 23744.49293870  1469.19057018
0.37500002 23399.75777458  2111.59424161
0.37600002 23063.73448055  1304.25424666
0.37700002 22735.37185469  2062.55303236
0.37800002 22415.21588249  2038.88813326
0.37900002 22103.85160451  2015.87136183
0.38000002 21800.25116377  1993.41506085
0.38100002 21503.52731543  1971.44347767
0.38200002 21215.60253355  1950.13827727
0.38300002 20934.58423951  1205.83210932
0.38400002 20661.97622467  1431.87502020
0.38500002 20395.47272682  1417.07751219
0.38600002 20137.51188779  1519.67740661
0.38700002 19885.77612931  1273.08744811
0.38800002 19641.43776241  1260.68574251
0.38900002 19403.34011375  1816.15272069
0.39000002 19173.33672171  1349.41950240
0.39100002 18948.78197590  1448.44496286
0.39200002 18731.39633904  1325.05903980
0.39300002 18520.05111004  1532.34910144
0.39400002 18316.43439813  1302.29854741
0.39500002 18117.75345970  1399.05298844
0.39600002 17925.33034203  1280.94416693
0.39700002 17738.88783015  1482.61631509
0.39800002 17558.45795397  1050.87375833
0.39900002 17383.61751082  1043.01710007
0.40000002 17214.28356926  1035.43920575
0.40100002 17050.92374590  1336.62197577
0.40200002 16893.02732096  1123.30190493
0.40300002 16739.94009113  1217.32850110
0.40400002 16592.51507975  1108.79487274
0.40500002 16450.33567891  1202.19058838
0.40600002 16312.98941413  1095.49885601
0.40700002 16180.61175737  1485.38022971
0.40800002 16053.06741217  1280.31245212
0.40900002 15930.11070991  1469.55278262
0.41000002 15812.26878669  1072.30905858
0.41100002 15698.45067489  1067.18072744
0.41200002 15588.92275548  1255.45395360
0.41300002 15484.44834358  1442.37643155
0.41400002 15383.49365866  1053.38477819
0.41500002 15287.08042193  1144.69663623
0.41600002 15194.14010950  1235.51156155
0.41700002 15105.50044482  1231.24939960
0.41800002 15021.59361082  1510.57152508
0.41900002 14939.55399075  1129.43033522
0.42000002 14862.45277488  1032.42033093
0.42100002 14789.12596529  1497.84274874
0.42200002 14719.31748519  1027.33481256
0.42300002 14652.26450486  1211.44928667
0.42400002 14588.56840568  930.02127993
0.42500002 14528.50695278  1114.04596593
0.42600002 14470.75948608  1297.59306461
0.42700002 14417.30489612  1295.82742547
0.42800002 14366.00880790  1201.78852377
0.42900002 14318.67830403  923.55479437
0.43000002 14273.52532120  1199.61849247
0.43100002 14230.32006341  1198.76221895
0.43200002 14190.94194813  1198.21224017
0.43300002 14153.87325910  1013.55891211
0.43400002 14119.34114382  1566.18799060
0.43500002 14087.16574935  1289.82095713
0.43600002 14057.70467066  1197.92736028
0.43700002 14029.99024326  1106.12448320
0.43800002 14004.44706752  1106.63145972
0.43900002 13981.91961321  1199.64875966
0.44000002 13960.90735211  1292.91969115
0.44100002 13942.31130190  1479.00045300
0.44200002 13925.47572256  925.34790562
0.44300002 13910.72623979  1111.74529377
0.44400002 13898.18787152  1020.47449283
0.44500002 13886.09190581  1300.57142953
0.44600002 13876.29853954  1302.56820564
0.44700002 13869.19661369  932.01005661
0.44800002 13862.12850748  933.61439922
0.44900002 13858.35252055  1216.07049131
0.45000002 13855.32226227  937.31259546
0.45100002 13853.53581750  1314.97768212
0.45200002 13853.33453077  1035.46753858
0.45300002 13854.12387244  1320.85223260
0.45400002 13856.71237151  1134.86479701
0.45500002 13860.45256543  1042.86050045
0.45600002 13865.24792713  1235.60162759
0.45700002 13871.29094963  1048.25350674
0.45800002 13877.98052003  1146.59880491
0.45900002 13885.83210868  1053.93470700
0.46000002 13895.48628825  960.87292237
0.46100002 13904.88060604  1156.32992600
0.46200002 13916.15633563  2029.60191696
0.46300002 13928.25359105  1163.28779506
0.46400002 13940.40554768  1264.04633295
0.46500002 13953.94710041  1170.45713826
0.46600002 13967.96404404  978.45592766
0.46700002 13982.33490650  1079.71595265
0.46800002 13998.45640875  1083.27060053
0.46900002 14014.07481392  1284.39001757
0.47000002 14030.66313013  1288.64631626
0.47100002 14047.81782767  1193.50265921
0.47200002 14065.63721050  997.95700738
0.47300002 14084.05445504  1101.51395114
0.47400002 14102.14577376  1306.21131421
0.47500002 14121.09772379  1109.07106779
0.47600002 14140.96689257  1214.14347494
0.47700002 14160.22750153  1218.34603198
