# SAXS profile: number of points = 501, q_min = 0, q_max = 0.5, delta_q = 0.001
#    q    intensity    error
0.00000000 1664650.74656090 274.66737318
0.00100000 1664563.83576145 599.24299511
0.00200000 1664303.09223041 823.83005674
0.00300000 1663868.69929919 1597.31400823
0.00400000 1663260.56846157 1247.44547375
0.00500000 1662479.33931620 1795.47775753
0.00600000 1661524.86729849 2442.44165437
0.00700000 1660397.87313749 2191.72528363
0.00800000 1659098.18588572 2239.78264551
0.00900000 1657627.21847277 3232.37321420
0.01000000 1655984.29186772 3278.84903948
0.01100000 1654171.03781496 2977.50799771
0.01200000 1652187.40266880 4510.47180704
0.01300000 1650034.66668957 4158.08754345
0.01400000 1647713.07894163 4819.56096956
0.01500000 1645224.12706914 5133.09950503
0.01600000 1642567.48663627 4607.40200598
0.01700000 1639745.44330386 4427.31289552
0.01800000 1636758.37308648 5131.23773052
0.01900000 1633607.38335596 6861.15131969
0.02000000 1630293.23262022 8216.67826409
0.02100000 1626818.60742253 5905.35181268
0.02200000 1623182.23615136 6719.97476297
0.02300000 1619387.14019517 5829.79397007
0.02400000 1615434.02572204 7269.45344722
0.02500000 1611325.27142201 10683.08703743
0.02600000 1607061.15370924 8461.17736128
0.02700000 1602643.83050757 8750.43571535
0.02800000 1598073.50000056 6951.62004380
0.02900000 1593353.88836436 8604.11139222
0.03000000 1588485.42628172 8863.74908608
0.03100000 1583469.69257236 8360.72036149
0.03200000 1578308.05308868 10156.41278941
0.03300000 1573004.71019720 12033.48658776
0.03400000 1567557.92985204 10698.58336488
0.03500000 1561972.12093817 12651.97476384
0.03600000 1556247.64757206 10364.60981182
0.03700000 1550387.92571645 9720.93274381
0.03800000 1544393.93690161 12648.58692860
0.03900000 1538268.70228001 10152.57390521
0.04000000 1532012.10893794 13190.62486920
0.04100000 1525628.43986538 12494.89750184
0.04200000 1519119.02564419 13717.64543797
0.04300000 1512485.68312057 9982.40597196
0.04400000 1505731.90003753 13212.79803646
0.04500000 1498859.06388168 13444.76642773
0.04600000 1491868.17205530 12621.20532231
0.04700000 1484763.47664108 12828.35703480
0.04800000 1477546.69444336 15203.95619323
0.04900000 1470220.29550335 16539.97909431
0.05000000 1462785.85587887 13428.37478228
0.05100000 1455247.52950497 11350.93125891
0.05200000 1447604.65486027 13810.14905094
0.05300000 1439862.47637470 12829.17526257
0.05400000 1432022.29076513 14177.02133970
0.05500000 1424087.43169178 14354.80198109
0.05600000 1416059.03122411 23003.88003569
0.05700000 1407941.61387174 18373.63891868
0.05800000 1399734.85873130 18581.48111727
0.05900000 1391442.86743484 13775.28503099
0.06000000 1383069.18733270 16451.60875192
0.06100000 1374615.20421558 15340.70639594
0.06200000 1366084.02586812 18073.29250704
0.06300000 1357478.42156945 18244.51083892
0.06400000 1348798.45903639 13150.78559062
0.06500000 1340049.85862339 17246.44248723
0.06600000 1331234.48606223 14716.79793200
0.06700000 1322353.18657397 17534.40407456
0.06800000 1313410.75356344 17671.94251640
0.06900000 1304409.95877359 16435.56625004
0.07000000 1295350.83534619 15175.03574670
0.07100000 1286237.89384784 15280.50689462
0.07200000 1277072.99291246 15382.34492024
0.07300000 1267859.66983938 19702.54019248
0.07400000 1258600.67991121 15575.18414382
0.07500000 1249296.77676471 17090.38070721
0.07600000 1239951.27432653 15753.58167886
0.07700000 1230568.06514842 20156.70585225
0.07800000 1221147.97284078 18811.78540381
0.07900000 1211693.20118042 17448.38291539
0.08000000 1202209.44443207 17528.21452209
0.08100000 1192696.73420260 17604.20462279
0.08200000 1183156.57698496 20622.42010456
0.08300000 1173593.09043484 16266.00099682
0.08400000 1164008.59260113 16325.22127751
0.08500000 1154405.24297070 19359.37683345
0.08600000 1144785.89674388 20915.23931551
0.08700000 1135152.13332483 16482.40974985
0.08800000 1125506.30223537 19533.16279265
0.08900000 1115851.79821994 18076.79998022
0.09000000 1106190.19676674 18119.39627421
0.09100000 1096523.85544311 16645.23290764
0.09200000 1086854.50079824 21226.26939794
0.09300000 1077186.44116795 19744.82839446
0.09400000 1067518.68528172 19775.78457426
0.09500000 1057855.13053873 18279.73751491
0.09600000 1048197.41653489 21351.78237852
0.09700000 1038550.82890481 21373.37706368
0.09800000 1028913.70468166 19863.18000280
0.09900000 1019290.25097193 16818.28993187
0.10000000 1009679.61583938 16826.31158926
0.10100000 1000086.36201281 19891.71867598
0.10200000 990511.68948142 18364.08758676
0.10300000 980957.43785687 16833.23042547
0.10400000 971426.23385896 19889.95307399
0.10500000 961921.07457846 15294.54580540
0.10600001 952438.67243470 15286.64141187
0.10700001 942986.56088833 24442.21280842
0.10800001 933562.98287072 15263.75548827
0.10900001 924171.75263372 16773.71809977
0.11000001 914813.68716777 21324.30805161
0.11100001 905489.95119956 15212.23189624
0.11200001 896203.04204609 21266.89918894
0.11300001 886953.58373971 16683.59769562
0.11400001 877743.74266617 16655.18830129
0.11500001 868575.64328871 22669.82535731
0.11600001 859449.86049369 15083.34576196
0.11700001 850367.95345010 15051.51348492
0.11800001 841330.87897039 27031.96241448
0.11900001 832339.62097767 17978.53665994
0.12000001 823396.14852096 16439.10487958
0.12100001 814503.31817407 19377.03485218
0.12200001 805659.89941321 16350.86842890
0.12300001 796868.60629204 17786.10813042
0.12400001 788129.57549583 17732.91628419
0.12500001 779443.15313334 17677.77154605
0.12600001 770813.55661048 19089.19862901
0.12700001 762238.85558767 16098.48538867
0.12800001 753720.68556858 16042.94554842
0.12900001 745260.36762927 15985.83563909
0.13000001 736859.14749340 21718.92439609
0.13100001 728516.39262848 20194.47535558
0.13200001 720233.93842369 15805.53452379
0.13300001 712013.53263699 17173.76721683
0.13400001 703854.16432038 15678.35224940
0.13500001 695757.72228085 18451.49566484
0.13600001 687723.85706115 16959.27111477
0.13700001 679754.30457791 14070.91476825
0.13800001 671848.16429256 16809.64186327
0.13900001 664008.17218970 18127.42395564
0.14000001 656233.01841668 16655.19479288
0.14100001 648523.87396349 13813.55916691
0.14200001 640880.48712241 16496.26451658
0.14300001 633305.40071676 16415.27676085
0.14400001 625794.86533008 13611.03896296
0.14500001 618353.73294837 13541.94739037
0.14600001 610979.60173719 13472.10085384
0.14700001 603675.16722627 14741.74827913
0.14800001 596436.38134772 13330.35375203
0.14900001 589267.54240274 15910.22439553
0.15000001 582166.43328391 17141.89143685
0.15100001 575134.84213706 18358.30502725
0.15200001 568171.95993058 16951.41122442
0.15300001 561279.20724112 12965.55029910
0.15400001 554453.02593238 14180.13680740
0.15500001 547697.84230235 14097.74312618
0.15600001 541009.30019485 21659.30835551
0.15700001 534392.99807463 20264.18344340
0.15800001 527842.01412343 13847.93589413
0.15900001 521362.17483107 15015.23134386
0.16000001 514948.47216622 13679.60680881
0.16100001 508606.53532543 13595.05333099
0.16200001 502331.61272901 15966.61106431
0.16300001 496124.80539614 12204.67078890
0.16400001 489986.12522559 13339.87288904
0.16500001 483914.54912298 16869.26197885
0.16600001 477911.60275194 14366.02345699
0.16700001 471974.23055243 13083.12628863
0.16800001 466103.26346022 14178.86194393
0.16900001 460300.96909242 15258.97784591
0.17000001 454563.58697926 13991.46786789
0.17100001 448891.51595807 11581.40165861
0.17200001 443285.83693249 13803.92161394
0.17300001 437744.76544806 11425.13891774
0.17400001 432268.56022271 13616.46029007
0.17500001 426856.40481018 11269.00961920
0.17600001 421506.56596787 12310.09984049
0.17700001 416221.83100753 12224.43575406
0.17800001 410998.53570128 11035.31120480
0.17900001 405838.23693144 14244.92278913
0.18000001 400739.52230543 14144.10210787
0.18100001 395703.52792781 15123.78955180
0.18200001 390725.80992025 13943.05118564
0.18300001 385809.31856991 12778.00523466
0.18400001 380952.18759661 13742.85081677
0.18500001 376155.64321865 14692.64011823
0.18600001 371415.87610658 13543.68056208
0.18700001 366733.90290117 15512.84482562
0.18800001 362109.19928387 13345.53517013
0.18900001 357543.42913278 12227.98585408
0.19000001 353029.72399014 12137.16248425
0.19100001 348576.05977794 12046.78919514
0.19200001 344174.41846978 12953.00485116
0.19300001 339828.97550166 9889.02365438
0.19400001 335535.52517641 12758.73894773
0.19500001 331295.99882583 10714.11310832
0.19600001 327108.88608452 10632.67484464
0.19700001 322973.10301737 12469.99209680
0.19800001 318889.12251538 10470.72483263
0.19900001 314855.98896257 9445.68011528
0.20000001 310871.47100194 9372.77529368
0.20100001 306937.67700126 10230.23325796
0.20200001 303051.22874437 11996.28345683
0.20300001 299214.17596395 10071.54963897
0.20400001 295424.12882308 9084.29239069
0.20500001 291680.23229868 12618.08744566
0.20600001 287982.55072731 10730.23034730
0.20700001 284331.15686321 9758.24576481
0.20800001 280723.25301879 11440.87671759
0.20900001 277162.24618308 9603.67228422
0.21000001 273642.67147626 15589.42373095
0.21100001 270166.71655637 11168.69259042
0.21200001 266733.12875539 9374.33625327
0.21300001 263340.36249097 10143.87124271
0.21400001 259989.96144410 8384.67665297
0.21500001 256681.11439357 8316.46849953
0.21600001 253410.82129926 11547.93167258
0.21700001 250180.68856995 8998.99979333
0.21800001 246989.23951855 11359.03566252
0.21900001 243835.41429775 9655.88286274
0.22000001 240719.14085127 7979.83989653
0.22100001 237641.50851340 8704.80886844
0.22200001 234600.22544965 9416.85349482
0.22300001 231594.00675559 8559.71489444
0.22400001 228622.87568902 10030.82914518
0.22500001 225688.82055397 11476.27706785
0.22600001 222787.12223745 9861.67243218
0.22700001 219921.53075965 7521.31670766
0.22800001 217088.12544105 11931.16393847
0.22900001 214286.88525023 9610.76725797
0.23000001 211519.25247492 8794.97093384
0.23100001 208784.22641627 10898.53713435
0.23200001 206079.06959918 9363.20297006
0.23300001 203405.26573569 7139.52516498
0.23400001 200762.82544414 7784.57892477
0.23500001 198148.82339627 11223.14988798
0.23600001 195565.99580412 7647.60862763
0.23700001 193011.67579937 8268.62058233
0.23800001 190486.37881660 8194.72440429
0.23900001 187989.12474540 9474.65233532
0.24000001 185519.52560082 8718.49051800
0.24100001 183078.76786785 13956.09513471
0.24200001 180664.73962060 7243.75307773
0.24300001 178277.02571294 8482.42128466
0.24400001 175915.66648894 10343.84167885
0.24500001 173580.49639411 7045.63268193
0.24600001 171270.82972726 6980.14299573
0.24700001 168986.97956035 9429.47390554
0.24800001 166728.02495658 8095.47963474
0.24900001 164492.84826368 7402.17852204
0.25000001 162282.99405042 6720.95051655
0.25100001 160095.86389361 7867.11112392
0.25200001 157934.14437109 9589.76169990
0.25300001 155795.62111481 6529.39478983
0.25400001 153679.52044572 7053.89032219
0.25500001 151586.14306375 6402.99898595
0.25600001 149515.76760306 6916.59973656
0.25700001 147467.21263796 6277.67953902
0.25800001 145440.99583041 7910.53613750
0.25900001 143436.64426620 7831.64114749
0.26000001 141454.00124952 7199.30173423
0.26100001 139491.33679059 7674.81371336
0.26200001 137551.30444891 7054.31898245
0.26300001 135630.96047946 5370.98628913
0.26400001 133731.44758057 5847.40782215
0.26500001 131852.97488117 6839.21413071
0.26600001 129993.57154537 5726.86706542
0.26700001 128155.16323109 5667.02158624
0.26800001 126336.94465250 5097.69595796
0.26900001 124536.63971494 5043.73414713
0.27000001 122757.11352039 6487.09997097
0.27100001 120996.12132858 6911.29877735
0.27200001 119255.67122134 6348.57595790
0.27300001 117533.13743161 6279.79583016
0.27400001 115827.59008489 5733.46598054
0.27500001 114143.54817229 5198.09742977
0.27600001 112475.39799849 4673.35300801
0.27700001 110827.31504225 5083.64918158
0.27800001 109196.17611096 5483.83222383
0.27900001 107584.37398713 5422.25270557
0.28000001 105989.00107541 4914.18026744
0.28100001 104412.22380996 4858.30100382
0.28200001 102853.46074135 4802.74257663
0.28300001 101311.67545823 4747.46533667
0.28400001 99787.01533429  6398.84266117
0.28500001 98280.23487462  4637.84450325
0.28600001 96790.22075579  5416.86496099
0.28700001 95317.25967907  4941.24697564
0.28800001 93860.47026525  4068.85157859
0.28900001 92422.61975347  5226.49939445
0.29000001 90999.70553844  4369.35106825
0.29100001 89594.22765539  5493.91829988
0.29200001 88205.37706478  5039.61445715
0.29300001 86832.93604896  4595.19919323
0.29400001 85476.13113952  4160.55088016
0.29500001 84136.72406753  4482.80487052
0.29600001 82812.85394024  5533.96922652
0.29700001 81505.00881321  5829.23850627
0.29800001 80213.24355996  3957.32055836
0.29900001 78937.98972505  5328.31455868
0.30000001 77677.61148870  3507.14432474
0.30100001 76434.28650829  4154.96801129
0.30200001 75204.92662483  4443.48329999
0.30300001 73992.82139465  4048.88737839
0.30400001 72795.87887352  4662.57626258
0.30500001 71614.12127240  3944.50598643
0.30600001 70446.92190390  3568.48899798
0.30700001 69296.31660212  3521.63897645
0.30800001 68160.17996143  4106.99183802
0.30900001 67039.52490987  5922.94230620
0.31000001 65934.29459163  3691.00198599
0.31100001 64843.07313151  3338.12156285
0.31200001 63767.36352384  3293.26564511
0.31300001 62706.10922292  4134.84103793
0.31400001 61660.43704824  3787.49252501
0.31500001 60628.55955713  3735.93201680
0.31600002 59611.85613175  3401.45267193
0.31700002 58609.52657400  3634.37691493
0.31800002 57621.65010153  3032.91569670
0.31900002 56648.33544545  2719.12023013
0.32000002 55689.31602019  2681.44069334
0.32100002 54743.85641399  2908.54122899
0.32200002 53813.94124691  2868.01413456
0.32300002 52896.36106760  3084.91592354
0.32400002 51993.33294369  3295.07763133
0.32500002 51104.25349696  3248.69754863
0.32600002 50229.13972337  2956.48730411
0.32700002 49367.18856732  4371.95842655
0.32800002 48519.84200019  3591.68147414
0.32900002 47685.14896824  3068.53948141
0.33000002 46864.73407374  2792.20098834
0.33100002 46055.47418812  2293.56272318
0.33200002 45262.40530413  2260.85725200
0.33300002 44481.16552584  2451.35714821
0.33400002 43713.14712547  2635.90289649
0.33500002 42957.56750230  3680.60455790
0.33600002 42215.53817397  2560.79466690
0.33700002 41485.52383524  3785.96908450
0.33800002 40769.21450283  2280.42612121
0.33900002 40064.39854027  3269.25507571
0.34000002 39372.76385091  2819.48375289
0.34100002 38693.05426559  3175.92604453
0.34200002 38026.25845329  2543.38641710
0.34300002 37370.80682067  2314.00046793
0.34400002 36728.60472588  1900.70538458
0.34500002 36097.40503281  2622.83757390
0.34600002 35479.00480068  2031.35051607
0.34700002 34870.92605596  2730.39363950
0.34800002 34275.79321298  2512.07300355
0.34900002 33691.58900893  2830.09361079
0.35000002 33119.00712400  2615.57371150
0.35100002 32558.20061777  2578.60961106
0.35200002 32007.40829672  2372.70928941
0.35300002 31468.21278789  1838.05839600
0.35400002 30940.19103538  2141.83482587
0.35500002 30423.15201531  2761.81387076
0.35600002 29915.91365402  1762.19697726
0.35700002 29419.97388415  2211.79374137
0.35800002 28934.71695525  1558.13458184
0.35900002 28459.96541784  2151.57348750
0.36000002 27995.62170918  1667.55928609
0.36100002 27540.68220769  2243.18867207
0.36200002 27096.77312742  1622.96130334
0.36300002 26661.97536368  1455.74392381
0.36400002 26236.95106909  1723.76776689
0.36500002 25821.55016823  1842.88412280
0.36600002 25415.95619631  1539.06330037
0.36700002 25019.45748627  1519.18153053
0.36800002 24633.54663512  1499.81355792
0.36900002 24255.85163503  1750.05977837
0.37000002 23886.82956424  1728.09276668
0.37100002 23526.80538463  1312.79580265
0.37200002 23176.26669044  1556.05461931
0.37300002 22833.93980702  1793.37771740
0.37400002 22500.34334890  1771.90212266
0.37500002 22175.37444448  1625.89853129
0.37600002 21859.14970385  1606.97546660
0.37700002 21550.32572503  1588.47458444
0.37800002 21249.69909166  1328.84999565
0.37900002 20957.72511923  1314.04942723
0.38000002 20673.40039670  1299.63337751
0.38100002 20395.83265976  1285.54939344
0.38200002 20126.86462282  1387.54611283
0.38300002 19864.81214680  1258.63455725
0.38400002 19610.87867393  1359.03395649
0.38500002 19363.22136627  1121.13057022
0.38600002 19123.64284231  1554.17852742
0.38700002 18890.28300633  1429.23887997
0.38800002 18664.18973191  1197.96107470
0.38900002 18444.20396230  1618.47897437
0.39000002 18232.13469789  1283.17770083
0.39100002 18025.59564248  1377.87659619
0.39200002 17825.84939415  1155.91725873
0.39300002 17632.17695054  1042.06170715
0.39400002 17445.84568807  1550.49960899
0.39500002 17264.39824741  1230.60636538
0.39600002 17089.15394302  1322.95691518
0.39700002 16919.61688524  1010.10117591
0.39800002 16756.23344360  1103.14668102
0.39900002 16598.04250059  1493.82389583
0.40000002 16445.23590953  1088.09908551
0.40100002 16298.34327699  1179.34817540
0.40200002 16156.63742310  1074.33565635
0.40300002 16019.68528106  1262.03086624
0.40400002 15888.12252381  1061.72383796
0.40500002 15761.84302310  1151.87554270
0.40600002 15640.12316209  1145.79547714
0.40700002 15523.35944644  1045.03260745
0.40800002 15411.00624339  1229.10486118
0.40900002 15303.29827893  1035.26817762
0.41000002 15200.58317984  1030.82759718
0.41100002 15101.61617173  1306.59189309
0.41200002 15006.84215269  1208.57609003
0.41300002 14916.99749041  926.34558805
0.41400002 14830.44415179  1292.47326907
0.41500002 14748.27085352  920.29214487
0.41600002 14669.47207566  1009.33307399
0.41700002 14594.74811372  1281.12705013
0.41800002 14524.75533726  1460.60946592
0.41900002 14456.38491354  1366.12843906
0.42000002 14392.63227517  1090.67372549
0.42100002 14332.83120758  997.99508427
0.42200002 14276.06113576  1086.97934638
0.42300002 14222.10030740  1356.78843362
0.42400002 14171.33887066  993.76518540
0.42500002 14124.09244190  1173.28841475
0.42600002 14078.83667151  901.74953154
0.42700002 14037.91312587  1351.85109808
0.42800002 13999.00021887  1351.25356016
0.42900002 13963.77128629  990.72961971
0.43000002 13930.69969921  1170.80571170
0.43100002 13899.38979524  900.68050141
0.43200002 13871.69411124  991.06323274
0.43300002 13846.21682096  991.52763354
0.43400002 13823.01655724  1082.34224772
0.43500002 13802.13931003  1083.19194438
0.43600002 13783.88926682  1174.59417953
0.43700002 13767.20053028  994.95562947
0.43800002 13752.50171453  1267.84319314
0.43900002 13740.66726416  906.88408241
0.44000002 13730.27701615  1544.03837502
0.44100002 13722.09267057  1455.63965948
0.44200002 13715.58113775  1002.54045077
0.44300002 13711.09653179  1095.79088675
0.44400002 13708.46794305  1006.54430642
0.44500002 13706.26791737  916.94936713
0.44600002 13706.37903164  1010.91403339
0.44700002 13708.83560651  1013.35717606
0.44800002 13711.39412786  923.46243828
0.44900002 13717.08856005  1203.67457819
0.45000002 13723.24446175  1206.89079139
0.45100002 13730.61574471  1303.31010825
0.45200002 13739.49554083  1307.03827274
0.45300002 13749.23433651  1310.85206377
0.45400002 13760.70445606  1314.83537309
0.45500002 13773.09773571  942.07992977
0.45600002 13786.49777663  1039.57091412
0.45700002 13800.92906786  1422.18580785
0.45800002 13816.05269734  1236.60585528
0.45900002 13832.08608592  1336.17957923
0.46000002 13849.86075740  1340.80508347
0.46100002 13867.36492519  1057.10927835
0.46200002 13886.46310477  1350.18087167
0.46300002 13906.47809997  1161.46910596
0.46400002 13926.26607424  1457.03565707
0.46500002 13947.50160582  1072.42344930
0.46600002 13968.92676411  1076.37570282
0.46700002 13990.74116944  1080.36508431
0.46800002 14014.15644297  1183.07514299
0.46900002 14037.00680411  1385.45263723
0.47000002 14060.69975784  1291.40503047
0.47100002 14084.84420934  1695.25192939
0.47200002 14109.66277323  1401.51286969
0.47300002 14134.99865624  1004.99845209
0.47400002 14159.87776559  1109.78047248
0.47500002 14185.57863076  1215.42043469
0.47600002 14211.88330316  1118.54632839
0.47700002 14237.76847884  1122.93285315
