# SAXS profile: number of points = 501, q_min = 0, q_max = 0.5, delta_q = 0.001
#    q    intensity    error
0.00000000 1682732.95097188 454.33789676
0.00100000 1682645.67106430 555.27308464
0.00200000 1682383.81098786 908.48728670
0.00300000 1681947.56712159 1009.16857622
0.00400000 1681336.84717872 1261.00268330
0.00500000 1680552.28081365 2571.24509142
0.00600000 1679593.73367603 1763.57349216
0.00700000 1678461.93712881 2618.40073074
0.00800000 1677156.66808771 2716.99391701
0.00900000 1675679.43519405 4272.98274241
0.01000000 1674029.47268126 4971.86774855
0.01100000 1672208.46758505 3912.96798452
0.01200000 1670216.30986559 4885.38292055
0.01300000 1668054.34020334 4203.49712271
0.01400000 1665722.73738654 4872.23922285
0.01500000 1663223.13851406 4790.08285222
0.01600000 1660555.05268427 5081.29868837
0.01700000 1657720.83257387 5371.01573848
0.01800000 1654720.88438229 5659.14567924
0.01900000 1651556.27083312 5450.13593967
0.02000000 1648227.75655444 6230.30120161
0.02100000 1644738.10055170 5427.63597790
0.02200000 1641085.95053778 7360.27082256
0.02300000 1637274.35045113 7662.44430889
0.02400000 1633303.96806238 9187.33523927
0.02500000 1629177.32274535 7624.55021867
0.02600000 1624894.55219749 6580.82323740
0.02700000 1620457.85119770 8167.10794410
0.02800000 1615867.47428875 9840.63336971
0.02900000 1611127.07883506 7975.07940640
0.03000000 1606237.12412476 8215.90326754
0.03100000 1601199.15515109 9991.48318788
0.03200000 1596014.66545980 7900.27295790
0.03300000 1590687.80259043 12980.01306752
0.03400000 1585216.81063377 10819.10523177
0.03500000 1579605.97098154 11088.83442835
0.03600000 1573855.85493307 17469.80079710
0.03700000 1567969.74454569 9831.17075297
0.03800000 1561948.82446200 9137.40104598
0.03900000 1555795.92468009 10268.25357841
0.04000000 1549511.00874755 9529.49314538
0.04100000 1543098.22513921 10693.67119604
0.04200000 1536559.18657917 16848.37226248
0.04300000 1529895.45814054 17165.42783712
0.04400000 1523110.61356568 12337.19654285
0.04500000 1516206.13603334 12554.18738969
0.04600000 1509183.02057185 14895.63710550
0.04700000 1502045.32436701 12977.67220610
0.04800000 1494794.93293399 12085.41759508
0.04900000 1487434.22886320 18964.78730077
0.05000000 1479964.93728770 12453.90552721
0.05100000 1472391.09490679 14930.04639786
0.05200000 1464712.02308006 12808.90723875
0.05300000 1456933.12018478 12981.27470601
0.05400000 1449055.55866948 13150.17980817
0.05500000 1441082.70878210 16947.13344585
0.05600000 1433015.72203917 13477.51349470
0.05700000 1424859.10749838 13635.90229526
0.05800000 1416612.55312058 18805.53252075
0.05900000 1408280.19597858 13941.97459136
0.06000000 1399865.40417556 15370.52285594
0.06100000 1391369.86582467 15527.68842823
0.06200000 1382796.55598861 16987.65648438
0.06300000 1374148.22011222 18468.55294181
0.06400000 1365425.00376614 18638.05217305
0.06500000 1356632.44068378 16116.79414923
0.06600000 1347772.58528314 20317.67267378
0.06700000 1338846.33176201 21849.97315691
0.06800000 1329858.35089465 17893.24494885
0.06900000 1320811.56351053 16642.22647940
0.07000000 1311705.73948331 23748.43352545
0.07100000 1302545.49364155 22507.98718435
0.07200000 1293332.97008665 14161.99668589
0.07300000 1284071.51653709 18529.15285182
0.07400000 1274763.87610664 17209.31313394
0.07500000 1265410.67400458 17310.81883178
0.07600000 1256015.37341749 15957.67606737
0.07700000 1246581.89417160 21877.51326852
0.07800000 1237110.96184252 20523.67181945
0.07900000 1227605.12177634 26516.27187408
0.08000000 1218069.48211781 14799.54490199
0.08100000 1208504.63419380 17837.52923761
0.08200000 1198911.86511565 23882.32547379
0.08300000 1189295.20246695 16483.63227980
0.08400000 1179657.01023652 16544.69034515
0.08500000 1169999.73290901 16602.29698938
0.08600000 1160325.87958712 16656.47878352
0.08700000 1150637.14616436 18226.09325110
0.08800000 1140935.97323205 19800.94474537
0.08900000 1131225.53685125 16798.70001127
0.09000000 1121507.72555961 16839.43929032
0.09100000 1111784.81054046 19945.42043816
0.09200000 1102058.27825360 15373.71370400
0.09300000 1092332.84409717 24643.03012086
0.09400000 1082607.00195419 18512.58060346
0.09500000 1072885.27870094 16994.50361341
0.09600000 1063168.97562600 17016.02025478
0.09700000 1053463.21293119 17034.50095394
0.09800000 1043766.80654568 21699.91292836
0.09900000 1034083.51487733 21715.75483355
0.10000000 1024412.76572846 17071.83954371
0.10100000 1014759.00960777 21736.13900809
0.10200000 1005123.62161697 23293.74102662
0.10300000 995508.00141759 18635.91066318
0.10400000 985915.36417264 21739.43480274
0.10500000 976348.18941490 17076.33063630
0.10600001 966803.71067779 17068.92031517
0.10700001 957289.12758302 18609.70151594
0.10800001 947802.75924074 18595.89101146
0.10900001 938348.35669646 18579.29833704
0.11000001 928926.97617818 20106.62534579
0.11100001 919539.46038040 18537.91639391
0.11200001 910188.61148555 15427.69769097
0.11300001 900874.80679860 23107.43988230
0.11400001 891600.43881852 19994.14078192
0.11500001 882367.74144770 16888.51936656
0.11600001 873176.74793458 16856.67791268
0.11700001 864029.57668368 15293.32422754
0.11800001 854926.82008400 22890.66668586
0.11900001 845869.83843116 16748.22358981
0.12000001 836860.38596764 15189.01672079
0.12100001 827901.39190276 19695.77504120
0.12200001 818991.36881961 15110.39146659
0.12300001 810133.46794170 16575.33153502
0.12400001 801327.49575495 16527.38037867
0.12500001 792573.98253942 16477.61387343
0.12600001 783877.01876443 17919.42949338
0.12700001 775234.96070693 23815.21911524
0.12800001 766649.07173868 16318.12626102
0.12900001 758120.97018893 16261.69557700
0.13000001 749651.75820816 14730.65774312
0.13100001 741240.83197114 17611.88299782
0.13200001 732890.05988757 20469.62033760
0.13300001 724601.26401916 18933.83192142
0.13400001 716373.05188216 17407.86598144
0.13500001 708207.99224886 15892.18809535
0.13600001 700105.21537763 15825.87913981
0.13700001 692066.73155717 17190.93842249
0.13800001 684091.35886963 17115.96660603
0.13900001 676182.16499868 14199.82613461
0.14000001 668337.74277051 19789.48149672
0.14100001 660559.18501430 16883.89356526
0.14200001 652846.21238363 16804.26229933
0.14300001 645201.51968069 20904.53022367
0.14400001 637621.38387594 16641.91890416
0.14500001 630110.31943803 16559.29997597
0.14600001 622666.39966348 19221.71266438
0.14700001 615292.03651937 15025.43224065
0.14800001 607983.33460993 14947.27098658
0.14900001 600744.30708929 18923.44656614
0.15000001 593573.25062677 20166.65214157
0.15100001 586471.53400132 13371.55160617
0.15200001 579438.59118475 14627.92792471
0.15300001 572475.68461229 18513.86451401
0.15400001 565579.29376089 13149.71920049
0.15500001 558753.82067227 18304.77602908
0.15600001 551995.08251242 14299.43328734
0.15700001 545308.58732519 14216.19554253
0.15800001 538687.36606229 14132.46371568
0.15900001 532137.16980683 14048.42194599
0.16000001 525653.42075015 15233.43685239
0.16100001 519241.23443147 16402.83136997
0.16200001 512896.29295901 16302.40944127
0.16300001 506619.23292930 18694.25057761
0.16400001 500410.50132392 14862.19259096
0.16500001 494268.88771721 17230.21423928
0.16600001 488195.86747119 18343.96058630
0.16700001 482188.51287915 17011.61153757
0.16800001 476247.77700604 13280.16988886
0.16900001 470375.64229568 13194.03738939
0.17000001 464568.29067358 14299.41266215
0.17100001 458826.56012390 13021.49839121
0.17200001 453151.04547085 17638.90527791
0.17300001 447540.60791256 15185.05354358
0.17400001 441995.02996936 11602.37008463
0.17500001 436513.37928535 16133.53526033
0.17600001 431094.12105861 12590.10440014
0.17700001 425740.33319232 20461.08137961
0.17800001 420447.79275338 11289.02376863
0.17900001 415218.60718282 19058.53496989
0.18000001 410050.89323352 17812.61164344
0.18100001 404946.21398124 12160.53538028
0.18200001 399899.80441633 13172.70017972
0.18300001 394914.88136827 10899.65124066
0.18400001 389989.33867949 11904.42512556
0.18500001 385124.57075793 10744.97603176
0.18600001 380316.63638556 12801.45858552
0.18700001 375566.78091222 10590.98372209
0.18800001 370874.31089169 11565.71593159
0.18900001 366240.84129401 13569.22381105
0.19000001 361659.53284885 15542.31915853
0.19100001 357138.56610540 10285.59118983
0.19200001 352669.81818600 11230.77089080
0.19300001 348257.21555382 15201.42817723
0.19400001 343897.03295000 12070.78642694
0.19500001 339590.77091027 15974.35061849
0.19600001 335337.18676531 13872.90007206
0.19700001 331135.14838964 13768.60012071
0.19800001 326985.05759784 9760.50443056
0.19900001 322886.01617454 11623.89713163
0.20000001 318835.74952451 12496.76779322
0.20100001 314836.42724926 12401.40745547
0.20200001 310884.59815225 12306.36739950
0.20300001 306982.47012440 10333.03043277
0.20400001 303127.33580720 10253.28261831
0.20500001 299318.96550269 10173.85211832
0.20600001 295556.82025710 11930.15161359
0.20700001 291841.11677282 10015.98760109
0.20800001 288169.11809789 9937.51250735
0.20900001 284544.41805345 10755.77951086
0.21000001 280961.13687117 14227.87264374
0.21100001 277421.83925255 13233.02235792
0.21200001 273925.14161627 9627.09955722
0.21300001 270469.46922952 11286.69148453
0.21400001 267056.38532683 10335.08260076
0.21500001 263685.14966699 11106.41902906
0.21600001 260352.77726118 11016.82829067
0.21700001 257060.66310000 11768.23771312
0.21800001 253807.64241378 9171.33959225
0.21900001 250592.34070966 9923.45716130
0.22000001 247414.91096900 11482.52656099
0.22100001 244276.39946854 10574.72583300
0.22200001 241174.46166923 9680.74334915
0.22300001 238107.86260489 11200.59438656
0.22400001 235076.56558643 8727.21791007
0.22500001 232082.82977081 9441.12996152
0.22600001 229121.50391057 8581.74633479
0.22700001 226196.77636475 10830.30216450
0.22800001 223304.23531223 7670.50084571
0.22900001 220444.22371858 10647.45650914
0.23000001 217618.27693735 9048.56838298
0.23100001 214825.02508832 8223.50234929
0.23200001 212061.88523885 9635.03221150
0.23300001 209330.57360004 8817.00417703
0.23400001 206630.84417096 9468.85888197
0.23500001 203959.61523488 7942.18779288
0.23600001 201320.16282523 10735.39819041
0.23700001 198709.38130575 7093.92524814
0.23800001 196127.84737426 7734.30202703
0.23900001 193574.71570302 6968.69009492
0.24000001 191049.56005862 6906.44192280
0.24100001 188553.52935259 8897.84147103
0.24200001 186084.49043838 9495.89199625
0.24300001 183642.06127677 8065.55971280
0.24400001 181226.38285019 8658.09085023
0.24500001 178837.08501728 6599.08874930
0.24600001 176473.70868094 7192.18633752
0.24700001 174136.33849416 9069.02093779
0.24800001 171824.33800123 10909.98685750
0.24900001 169536.26073959 8264.89310205
0.25000001 167273.91223938 7557.43571250
0.25100001 165034.43659860 6862.13219841
0.25200001 162820.88767782 6179.05297970
0.25300001 160630.71998324 7344.03686508
0.25400001 158463.36968858 6667.34659509
0.25500001 156318.92273042 7803.44099190
0.25600001 154197.86503901 5944.32797850
0.25700001 152098.99949376 7652.10102658
0.25800001 150022.72636525 6411.22151456
0.25900001 147968.62909492 9810.32057317
0.26000001 145936.52889551 8570.12306489
0.26100001 143924.89787499 6221.87362953
0.26200001 141936.07090900 7279.19174100
0.26300001 139967.14768767 9976.85875926
0.26400001 138019.61854666 7132.16412588
0.26500001 136093.34877412 7059.16233495
0.26600001 134186.41473262 10210.91571226
0.26700001 132300.77895409 6382.18987875
0.26800001 130435.68002293 6842.00391937
0.26900001 128588.89450596 6770.20561612
0.27000001 126763.11700950 6698.79723537
0.27100001 124956.30068124 5608.03903996
0.27200001 123170.29727199 5548.20630318
0.27300001 121402.50158647 7983.42888213
0.27400001 119652.05701211 5922.77710239
0.27500001 117923.36176800 7323.04111236
0.27600001 116210.77715529 6277.12542511
0.27700001 114518.91835010 5730.52694545
0.27800001 112844.19026559 5194.78254473
0.27900001 111188.92624044 6070.91566005
0.28000001 109550.60916889 5541.07007401
0.28100001 107931.12402679 5022.03543865
0.28200001 106329.95538703 4965.07750179
0.28300001 104746.10212283 8031.93149093
0.28400001 103179.80712021 5293.12435579
0.28500001 101631.55165818 5231.99252700
0.28600001 100100.50157543 4309.32679679
0.28700001 98586.82494951  5536.63635123
0.28800001 97089.57922293  4629.71680438
0.28900001 95611.62606590  4575.01652381
0.29000001 94148.78356386  5753.43243592
0.29100001 92703.96440342  4466.47721638
0.29200001 91275.83640773  4813.88784001
0.29300001 89864.58770841  3963.02850553
0.29400001 88469.24965308  4697.71737895
0.29500001 87091.63753840  7733.73777950
0.29600001 85729.82097456  4583.11644625
0.29700001 84384.40398419  4149.18134032
0.29800001 83055.36434166  6332.55655400
0.29900001 81743.20632973  4046.28890487
0.30000001 80446.16946048  4358.57366770
0.30100001 79166.42099120  3586.23904067
0.30200001 77901.18200321  4602.79155656
0.30300001 76653.27524427  4544.00637160
0.30400001 75420.82009289  4140.60321912
0.30500001 74203.98991227  4768.34861751
0.30600001 73002.03117402  4034.09243366
0.30700001 71816.92426213  4313.32467539
0.30800001 70646.68635384  3274.47406753
0.30900001 69492.09807674  3554.52098491
0.31000001 68353.32400579  4145.28753059
0.31100001 67228.79447856  5663.35391501
0.31200001 66120.01549147  3725.20184916
0.31300001 65026.21793545  5206.64951661
0.31400001 63948.31386809  4834.49275732
0.31500001 62884.24009947  2980.71312184
0.31600002 61835.73648602  3822.37623186
0.31700002 60801.90577927  3480.30125159
0.31800002 59782.91683569  3146.67397664
0.31900002 58778.77431154  2821.38130054
0.32000002 57789.12034118  2782.54627618
0.32100002 56813.32111834  4664.94201791
0.32200002 55853.46664942  2976.71064603
0.32300002 54906.02869171  3468.96305700
0.32400002 53973.66601785  2894.33797726
0.32500002 53055.49703300  4410.50367720
0.32600002 52151.59218605  3069.64286143
0.32700002 51261.05160571  4035.27017348
0.32800002 50385.39848040  2735.17148603
0.32900002 49522.69317380  3431.92279946
0.33000002 48674.51388668  3383.36562048
0.33100002 47837.94401181  3097.02864198
0.33200002 47017.61145269  3522.79470491
0.33300002 46209.48339146  3009.62379581
0.33400002 45414.92332110  2966.73000644
0.33500002 44632.97786902  2699.40262935
0.33600002 43864.91144409  3104.31992991
0.33700002 43109.06565336  2185.62973213
0.33800002 42367.38138389  2369.81958994
0.33900002 41637.23302727  3185.24847743
0.34000002 40920.67216672  2302.40172850
0.34100002 40216.22565421  2888.32946327
0.34200002 39525.03089311  2440.27552291
0.34300002 38845.34150506  2204.86168825
0.34400002 38179.30634547  3951.55839390
0.34500002 37524.42325974  2531.77295724
0.34600002 36882.51648078  1919.73507374
0.34700002 36251.35916147  2649.24945299
0.34800002 35633.38249979  2798.11149332
0.34900002 35026.50486360  2390.55907016
0.35000002 34431.58013240  2356.66961378
0.35100002 33848.58008751  2502.08715857
0.35200002 33276.02344272  2290.55518217
0.35300002 32715.18660883  1910.89414033
0.35400002 32165.73454112  2569.23816816
0.35500002 31627.66061002  1688.91715657
0.35600002 31099.56286820  1998.45800457
0.35700002 30582.87667527  1642.30055525
0.35800002 30077.18664694  2105.55355095
0.35900002 29582.34498447  2555.91472772
0.36000002 29098.10492871  2205.92743913
0.36100002 28623.41442746  1709.67662473
0.36200002 28160.14422293  1839.98391068
0.36300002 27706.11068118  1966.57982930
0.36400002 27262.11096041  1791.12077494
0.36500002 26827.82309057  1914.70182467
0.36600002 26403.79276982  1744.23463300
0.36700002 25989.01377862  1864.97171709
0.36800002 25585.03872310  1557.74515644
0.36900002 25189.48708515  1398.01659945
0.37000002 24802.82209005  1518.30482616
0.37100002 24425.41192379  1635.52565989
0.37200002 24057.72028843  1615.23541668
0.37300002 23698.38818390  1462.42760410
0.37400002 23348.03105207  1969.99021334
0.37500002 23006.52160558  1816.59503203
0.37600002 22673.90801091  2179.75624989
0.37700002 22348.96759282  2027.49843607
0.37800002 22032.49461813  1753.56632973
0.37900002 21724.86509511  1238.31736908
0.38000002 21425.00828948  1224.43928175
0.38100002 21132.15033180  1453.04672565
0.38200002 20848.07678788  1317.49427502
0.38300002 20571.08904357  1421.87374205
0.38400002 20302.51042577  1172.47003263
0.38500002 20040.30036030  1392.40013500
0.38600002 19786.62925655  1493.19804759
0.38700002 19539.01076655  1705.75572073
0.38800002 19299.09288147  1238.71233528
0.38900002 19065.38216064  1338.38989108
0.39000002 18839.81047773  1436.44141793
0.39100002 18619.89655394  1094.84996924
0.39200002 18406.97494473  1302.10946928
0.39300002 18200.26090218  1290.76256433
0.39400002 18001.22396831  1173.22982772
0.39500002 17807.20112264  1269.29735616
0.39600002 17619.52108988  1364.01528980
0.39700002 17437.78021181  1145.13908076
0.39800002 17262.26592722  1549.71999704
0.39900002 17092.15245547  1333.18795469
0.40000002 16927.69547754  1018.20093122
0.40100002 16769.25260503  1719.01616599
0.40200002 16616.17464282  1305.78214617
0.40300002 16468.04225797  1097.75974893
0.40400002 16325.44370804  991.77075225
0.40500002 16188.22498004  1281.62183239
0.40600002 16055.76012369  1078.22462219
0.40700002 15928.50831041  1267.27218122
0.40800002 15805.76984522  1066.65242854
0.40900002 15687.83158387  1061.28185693
0.41000002 15575.06054990  1152.24303408
0.41100002 15466.12491425  1146.96787799
0.41200002 15361.61837184  1237.14799420
0.41300002 15262.15955525  1042.55816862
0.41400002 15166.19761961  1416.14376983
0.41500002 15074.74307169  1034.73041347
0.41600002 14986.73423828  1218.64635233
0.41700002 14903.01487512  1027.86098464
0.41800002 14824.08201452  1211.20167839
0.41900002 14747.03392931  1021.96949973
0.42000002 14674.80353509  1297.39944201
0.42100002 14606.44546931  1201.96445462
0.42200002 14541.41250322  1014.91793375
0.42300002 14479.26228045  1197.14546208
0.42400002 14420.49366271  1103.16781747
0.42500002 14365.29236194  1193.32489305
0.42600002 14312.32196299  1191.71554472
0.42700002 14263.66793377  1190.44578216
0.42800002 14217.37306315  1097.86559996
0.42900002 14174.72930667  1005.69709197
0.43000002 14134.36154173  1462.05842716
0.43100002 14095.95122333  1004.75945081
0.43200002 14061.29338598  1369.92157305
0.43300002 14028.89055440  1004.60890021
0.43400002 13999.00739872  1278.80938647
0.43500002 13971.44432748  1096.47900278
0.43600002 13946.71140899  1279.88976665
0.43700002 13923.59807081  1189.21456758
0.43800002 13902.58769802  1830.97088660
0.43900002 13884.60077993  1008.02206439
0.44000002 13868.14198709  1009.11539951
0.44100002 13854.01132601  918.52099444
0.44200002 13841.65155015  1379.66668364
0.44300002 13831.39211336  1013.28783425
0.44400002 13823.18138955  1199.50662192
0.44500002 13815.45052532  1478.80589431
0.44600002 13810.06052827  1111.15752276
0.44700002 13807.26377834  1113.41780385
0.44800002 13804.59088699  1115.68708836
0.44900002 13805.11974368  1118.21475223
0.45000002 13806.34952448  1027.39954855
0.45100002 13808.80276590  1217.10793347
0.45200002 13812.87155443  1220.16006659
0.45300002 13817.83337162  1035.09394692
0.45400002 13824.65640981  1037.88612915
0.45500002 13832.49357947  1040.75686624
0.45600002 13841.46884700  1138.59928132
0.45700002 13851.56929124  1332.24399757
0.45800002 13862.40576293  1145.31201841
0.45900002 13874.24021122  957.32261995
0.46000002 13887.87089628  1344.48484519
0.46100002 13901.31128789  963.36091791
0.46200002 13916.54197247  1063.15427437
0.46300002 13932.65388874  1260.62658360
0.46400002 13948.69352479  1070.21356141
0.46500002 13966.23081254  1073.86353807
0.46600002 13984.04951266  1175.49925775
0.46700002 14002.26267283  1081.25477484
0.46800002 14022.20746698  1183.75481047
0.46900002 14041.68753280  1484.90852697
0.47000002 14062.07620953  993.48573129
0.47100002 14082.91565231  1096.77752299
0.47200002 14104.62950460  1401.01291510
0.47300002 14126.87494555  1406.18919873
0.47400002 14148.69081721  1512.14140276
0.47500002 14171.43267871  1011.84034122
0.47600002 14194.87464412  1523.46499339
0.47700002 14217.94114452  1427.19699973
