# SAXS profile: number of points = 501, q_min = 0, q_max = 0.5, delta_q = 0.001
#    q    intensity    error
0.00000000 1682732.95097188 353.37391970
0.00100000 1682645.56292546 555.27304895
0.00200000 1682383.37944849 757.07254472
0.00300000 1681946.59609400 1211.00159233
0.00400000 1681335.11401402 1513.20166011
0.00500000 1680549.57652177 1663.74414661
0.00600000 1679589.83916327 2116.28328350
0.00700000 1678456.64125493 2014.14805321
0.00800000 1677149.76414288 3622.64364350
0.00900000 1675670.67116827 3016.20733704
0.01000000 1674018.66176536 2762.13091118
0.01100000 1672195.39706447 3310.94703034
0.01200000 1670200.77477803 4233.95914970
0.01300000 1668036.12869861 4553.73883219
0.01400000 1665701.64179647 4497.39463222
0.01500000 1663198.88715937 4790.01300831
0.01600000 1660527.51036970 4657.77987481
0.01700000 1657689.76664308 5818.49134193
0.01800000 1654686.07721961 5187.44108551
0.01900000 1651517.52791738 5450.00808805
0.02000000 1648184.86481064 7787.67383851
0.02100000 1644690.83909435 9769.46402715
0.02200000 1641034.10661677 6227.72471755
0.02300000 1637217.72903278 6483.38250208
0.02400000 1633242.46007422 11024.38710819
0.02500000 1629110.53225926 8259.59077578
0.02600000 1624822.47371439 11844.95637515
0.02700000 1620380.17314003 8166.71644667
0.02800000 1615784.04247716 7028.66090711
0.02900000 1611037.72118867 7974.63708603
0.03000000 1606141.61607406 8215.41474384
0.03100000 1601097.38518717 9990.84814328
0.03200000 1595906.30457344 10269.65754293
0.03300000 1590572.64946055 10545.49715208
0.03400000 1585094.70751424 10818.27187794
0.03500000 1579476.84806208 14499.59813477
0.03600000 1573719.47984857 11354.38657184
0.03700000 1567825.85982435 12511.25094001
0.03800000 1561797.34409063 11877.46935149
0.03900000 1555636.58727957 13067.34793830
0.04000000 1549343.67555400 11434.15685544
0.04100000 1542922.76960738 9720.41389923
0.04200000 1536375.38133932 14864.43250406
0.04300000 1529703.21274050 11105.64584000
0.04400000 1522909.64583670 12335.56870417
0.04500000 1515996.32645853 11506.41265246
0.04600000 1508964.21549143 12765.83785650
0.04700000 1501817.44295108 12975.70331057
0.04800000 1494557.61189789 15378.99854199
0.04900000 1487187.52036810 12269.29761414
0.05000000 1479708.56839107 18111.63372050
0.05100000 1472124.98564745 14927.34804984
0.05200000 1464435.97883376 15134.94654655
0.05300000 1456647.07624167 11798.84186759
0.05400000 1448759.19895971 15537.94313344
0.05500000 1440776.01839625 14523.02294292
0.05600000 1432698.43583608 14699.48663762
0.05700000 1424531.25919371 13632.76478684
0.05800000 1416273.89807211 15040.82949982
0.05900000 1407930.67087394 20274.20260751
0.06000000 1399504.92305945 14086.01770868
0.06100000 1390998.16199831 19404.42526667
0.06200000 1382413.61608879 15676.57113923
0.06300000 1373753.86151326 14506.84145585
0.06400000 1365019.07804398 15970.72396001
0.06500000 1356214.99042223 14769.18193657
0.06600000 1347343.46852617 17603.04323991
0.06700000 1338405.34639826 15016.90868936
0.06800000 1329405.40101747 13759.34654459
0.06900000 1320346.49313177 19409.09435775
0.07000000 1311228.57616159 16757.50198807
0.07100000 1302056.17603442 28124.41471963
0.07200000 1292831.36165114 18403.45529525
0.07300000 1283557.38703149 15672.23642999
0.07400000 1274237.34634324 15768.68789998
0.07500000 1264871.37039728 15861.48772825
0.07600000 1255463.56109916 23200.96769679
0.07700000 1246017.27081887 16036.24302735
0.07800000 1236533.63746402 17583.50914934
0.07900000 1227014.82652904 20613.85005255
0.08000000 1217466.27851441 16271.43757566
0.08100000 1207888.44265163 20799.83995835
0.08200000 1198282.45073130 16410.47893283
0.08300000 1188652.73845877 22465.53781122
0.08400000 1179001.47131559 25554.85809028
0.08500000 1169330.87151970 16592.80584582
0.08600000 1159643.74133666 19673.35699547
0.08700000 1149941.72636924 15179.23150086
0.08800000 1140227.12230990 19788.64263704
0.08900000 1130503.27627997 18314.15393595
0.09000000 1120772.17664825 18358.24911589
0.09100000 1111035.68245119 15332.29313816
0.09200000 1101295.74012206 19971.99918553
0.09300000 1091556.79575933 16930.04669781
0.09400000 1081817.43854237 18499.07906848
0.09500000 1072082.14447222 21613.17704844
0.09600000 1062352.26626744 18548.67144096
0.09700000 1052632.99564176 20115.81749241
0.09800000 1042922.80646727 15487.40440422
0.09900000 1033226.05531499 15498.39155850
0.10000000 1023541.78157942 17057.32459218
0.10100000 1013874.34116008 21717.18940905
0.10200000 1004225.24213717 21721.39300912
0.10300000 994596.28449491 18618.84332159
0.10400000 984989.86745468 20167.66848492
0.10500000 975409.31664408 17059.90975076
0.10600001 965851.26715755 18602.29628076
0.10700001 956323.29617671 15492.43812710
0.10800001 946823.40832315 21672.78883648
0.10900001 937355.50136876 20106.27645067
0.11000001 927920.65839599 18539.85562741
0.11100001 918519.78865287 16974.24649334
0.11200001 909155.73887912 18492.22859936
0.11300001 899828.62864866 16925.77730176
0.11400001 890541.06665358 18434.20094769
0.11500001 881294.93240683 21468.34556433
0.11600001 872090.94967917 16835.71657638
0.11700001 862930.77360490 24438.20065941
0.11800001 853815.00669533 28957.13731590
0.11900001 844745.06721039 16725.95311859
0.12000001 835722.67227893 21235.71410291
0.12100001 826750.62858436 24207.25954531
0.12200001 817828.03249185 19615.60628343
0.12300001 808957.46424610 22569.91431583
0.12400001 800138.79277500 16502.86337856
0.12500001 791372.87173110 19444.03237465
0.12600001 782663.48372366 19382.66208779
0.12700001 774008.96974638 22291.45937921
0.12800001 765410.81411800 22216.04992680
0.12900001 756870.68048957 16234.87686168
0.13000001 748389.31425428 14705.85071826
0.13100001 739966.39833049 16116.46891533
0.13200001 731603.75443333 17514.59470678
0.13300001 723303.10405274 17446.07169221
0.13400001 715063.26298847 15928.03493401
0.13500001 706886.67695545 17304.58666775
0.13600001 698772.46674830 15795.75235563
0.13700001 690722.71274011 21446.94124187
0.13800001 682736.06855604 22776.07632105
0.13900001 674815.76427280 15588.24488981
0.14000001 666960.28451712 15516.83175107
0.14100001 659170.88902216 16848.40871803
0.14200001 651447.29695203 18165.60873229
0.14300001 643791.96121441 18077.67912358
0.14400001 636201.13781472 19372.32556025
0.14500001 628679.89247049 16521.70835349
0.14600001 621225.73981661 17807.43667190
0.14700001 613841.47266710 19078.19387054
0.14800001 606522.80988876 14911.36398461
0.14900001 599274.03211768 16180.39963058
0.15000001 592093.50246397 16093.10215629
0.15100001 584982.11690860 14671.35218433
0.15200001 577939.88812904 15916.46527012
0.15300001 570967.91255561 14508.29534267
0.15400001 564062.55544153 17048.79154277
0.15500001 557228.16775844 22166.53755954
0.15600001 550460.64995568 15556.01870191
0.15700001 543765.68139338 14175.97198299
0.15800001 537136.14272078 17934.97665195
0.15900001 530577.81180802 16554.02850977
0.16000001 524085.94437891 15188.01138501
0.16100001 517665.92318612 13837.21077994
0.16200001 511313.13147023 13751.76732006
0.16300001 505028.55039240 12423.70292615
0.16400001 498812.51661246 14814.73244279
0.16500001 492663.73577975 18400.99140011
0.16600001 486583.67259971 20721.16667597
0.16700001 480569.56659032 16954.49510981
0.16800001 474622.02042361 13234.83566441
0.16900001 468743.33338325 16734.13779194
0.17000001 462929.80454070 17811.22507074
0.17100001 457181.89039423 14154.35199499
0.17200001 451500.57445313 12888.08450638
0.17300001 445884.38346921 12801.34125394
0.17400001 440333.17569540 13870.49568945
0.17500001 434846.18999288 13775.92794958
0.17600001 429421.81452661 12541.26468556
0.17700001 424063.01131889 13586.97952438
0.17800001 418765.78659762 12368.24809134
0.17900001 413531.79594402 11165.35901787
0.18000001 408359.78741050 15521.75625264
0.18100001 403250.83207397 15412.24752989
0.18200001 398200.47358338 17488.96562592
0.18300001 393211.65836137 10852.64228345
0.18400001 388282.47722889 15084.77495296
0.18500001 383414.18634528 12836.70756527
0.18600001 378603.24783477 16991.71456557
0.18700001 373850.18324598 11596.83323218
0.18800001 369154.91190015 14651.75914556
0.18900001 364518.72667980 10388.78420122
0.19000001 359934.97600103 13405.77881456
0.19100001 355411.77542964 12283.03153922
0.19200001 350940.81824372 10159.73716822
0.19300001 346526.55812623 11092.31564976
0.19400001 342164.57058762 14011.63982767
0.19500001 337856.90100176 10926.29269472
0.19600001 333602.02248415 9857.94023026
0.19700001 329398.95421763 16631.35398441
0.19800001 325247.87143635 10679.51436331
0.19900001 321148.36377565 12524.78677917
0.20000001 317097.52771140 10516.54000357
0.20100001 313097.98931720 9486.86952468
0.20200001 309146.00379555 11296.19551259
0.20300001 305244.11145503 12142.61132760
0.20400001 301389.30800381 12974.81032283
0.20500001 297581.31963461 13792.89481701
0.20600001 293820.01510819 12772.35666048
0.20700001 290105.17004797 9051.28173334
0.20800001 286434.35915131 10775.66110064
0.20900001 282810.71632839 9799.39178401
0.21000001 279229.01577398 9721.35864372
0.21100001 275691.44671766 14903.88031411
0.21200001 272196.62370404 13045.02380771
0.21300001 268743.08855531 10351.98426055
0.21400001 265332.33473655 10268.36183976
0.21500001 261963.48630738 9336.37909340
0.21600001 258633.78972483 9260.38327892
0.21700001 255344.41354482 10019.71526123
0.21800001 252094.54091541 9109.43666668
0.21900001 248882.42348972 9855.74443619
0.22000001 245708.38920476 9774.28018472
0.22100001 242573.41963796 8885.46478147
0.22200001 239475.28974967 8811.49370299
0.22300001 236412.63237597 7943.46482344
0.22400001 233385.35546954 8664.43173152
0.22500001 230395.96635489 7810.42362876
0.22600001 227439.23956855 10067.59841558
0.22700001 224519.08770952 8446.40847906
0.22800001 221631.40249641 12180.86245724
0.22900001 218776.40361161 7547.78628154
0.23000001 215955.54087052 10476.00378306
0.23100001 213167.65351050 8901.88163159
0.23200001 210410.02242218 7353.83063144
0.23300001 207684.47970282 8018.69814057
0.23400001 204990.60013015 8671.10279561
0.23500001 202325.40274420 10743.47939384
0.23600001 199692.11442198 7808.96050381
0.23700001 197087.62021120 8443.23404919
0.23800001 194512.64817183 6973.27876679
0.23900001 191966.10811787 7601.85824103
0.24000001 189447.82537113 9587.95489555
0.24100001 186958.73823098 7465.26277068
0.24200001 184496.76325983 7397.39807281
0.24300001 182061.72805390 10661.53529916
0.24400001 179653.44609715 11223.84957585
0.24500001 177271.66007102 9157.85439248
0.24600001 174916.07385117 9720.96126413
0.24700001 172586.59770795 8988.31043383
0.24800001 170282.47953216 6996.05600254
0.24900001 168002.49957781 7560.11283865
0.25000001 165748.45202840 6864.47246550
0.25100001 163517.48616718 6180.96126953
0.25200001 161312.38176092 7958.34673068
0.25300001 159130.86871436 6669.17502334
0.25400001 156972.33524056 7205.03052842
0.25500001 154836.78363368 7134.87932740
0.25600001 152724.85773591 7065.05225313
0.25700001 150635.03566679 5829.57615612
0.25800001 148568.13265265 9234.99556263
0.25900001 146523.45587009 8000.18106903
0.26000001 144500.83793789 7920.09130212
0.26100001 142498.87523275 5600.20606163
0.26200001 140519.63262251 5543.49976926
0.26300001 138560.60756549 6035.70035115
0.26400001 136622.97424905 5430.76348337
0.26500001 134706.75928491 6449.75993976
0.26600001 132809.93258192 7446.65327224
0.26700001 130934.58650622 8948.07006526
0.26800001 129079.83532957 5729.20876221
0.26900001 127243.50056905 8760.71542875
0.27000001 125428.17611587 7138.11784055
0.27100001 123631.90372662 5548.60010183
0.27200001 121856.57033369 6487.03482870
0.27300001 120099.55322190 5429.70105812
0.27400001 118359.89659552 5858.81515874
0.27500001 116642.10594090 5311.88175594
0.27600001 114940.62324973 8118.83130748
0.27700001 113259.68044806 5195.22178802
0.27800001 111596.13212899 4670.29835063
0.27900001 109952.07179772 5079.78595747
0.28000001 108324.95787555 5479.07662866
0.28100001 106716.76791989 5416.94339599
0.28200001 105127.02904366 4908.90685353
0.28300001 103554.64044045 6175.99904818
0.28400001 101999.79497213 5232.58972973
0.28500001 100463.09668191 5171.84046197
0.28600001 98943.56622868  5963.32901886
0.28700001 97441.56614994  6314.21378538
0.28800001 95956.02713725  4575.66337062
0.28900001 94489.71898402  5343.39386147
0.29000001 93038.62905676  4467.24998561
0.29100001 91605.58663943  6018.48732709
0.29200001 90189.27797461  5549.34653646
0.29300001 88789.84734622  4698.75894398
0.29400001 87406.42476159  4254.50792666
0.29500001 86040.73828705  3820.20896078
0.29600001 84690.82349305  4527.57163826
0.29700001 83357.37654792  4098.68239888
0.29800001 82040.21073476  5151.30507589
0.29900001 80740.00052570  5086.62027392
0.30000001 79454.97344672  4304.87066513
0.30100001 78187.31712095  4604.45132323
0.30200001 76934.04889473  4195.98322536
0.30300001 75698.11305970  4832.56776651
0.30400001 74477.82588175  5451.77711264
0.30500001 73272.90172198  3363.22634826
0.30600001 72082.99573842  4315.24874418
0.30700001 70909.83368981  5241.65515451
0.30800001 69751.63769236  4849.48284015
0.30900001 68608.99784048  3828.38226075
0.31000001 67482.23123631  4092.46010708
0.31100001 66369.62704805  4348.53817007
0.31200001 65272.86413245  4290.38556256
0.31300001 64190.89467132  3325.73041038
0.31400001 63124.87150034  3579.18038353
0.31500001 62072.80990010  3530.70159429
0.31600002 61036.05986378  4063.17069751
0.31700002 60014.10511738  3148.94024461
0.31800002 59006.85837382  2823.47830687
0.31900002 58014.44846415  3341.63238976
0.32000002 57036.60820191  3020.94409645
0.32100002 56072.55600035  2979.13504136
0.32200002 55124.26996756  4006.15650959
0.32300002 54188.52806833  2896.91884770
0.32400002 53267.67007660  3375.83875096
0.32500002 52360.96178855  3072.54138324
0.32600002 51468.58126126  3029.44083649
0.32700002 50589.45620360  3235.70177200
0.32800002 49725.16820482  3435.51203395
0.32900002 48873.77932248  4838.50438205
0.33000002 48036.97234419  3339.05010576
0.33100002 47211.52934376  2586.24769992
0.33200002 46402.44440015  2781.36264906
0.33300002 45605.33282905  2970.27546781
0.33400002 44821.86828585  3153.21858323
0.33500002 44050.83758996  2442.17855164
0.33600002 43293.75330601  3282.74899989
0.33700002 42548.68797925  2588.66229925
0.33800002 41817.66431797  2551.71399753
0.33900002 41098.32053703  2305.61589132
0.34000002 40392.31510513  2892.49382166
0.34100002 39698.46599680  2647.49082271
0.34200002 39017.72832651  2810.44710446
0.34300002 38348.37943895  2176.65412004
0.34400002 37692.58738535  2535.76893644
0.34500002 37048.01276293  1922.79195346
0.34600002 36416.36741047  2464.11361753
0.34700002 35795.20313115  1868.50969194
0.34800002 35187.22657199  2763.07709743
0.34900002 34590.26405459  2360.78563354
0.35000002 34005.09952702  2864.58971983
0.35100002 33431.93329989  2647.80924276
0.35200002 32868.88087877  1914.44805746
0.35300002 32317.55956173  1887.66874341
0.35400002 31777.64423689  2199.80752649
0.35500002 31248.86304476  2169.29617531
0.35600002 30730.03080661  1645.59322764
0.35700002 30222.44678713  2596.71275094
0.35800002 29725.99455685  2401.11732406
0.35900002 29240.03638252  2368.44305917
0.36000002 28764.63553740  1869.12610575
0.36100002 28298.74302401  1536.62181899
0.36200002 27844.15396058  1819.33710596
0.36300002 27398.64954572  1645.56296966
0.36400002 26963.09109335  1623.85223801
0.36500002 26537.24291010  1748.27364573
0.36600002 26121.42045705  1725.58111713
0.36700002 25714.72045369  1987.23369079
0.36800002 25318.85356964  1681.67833375
0.36900002 24931.21721331  1522.05088297
0.37000002 24552.40170463  2049.51182938
0.37100002 24182.60427500  1619.26725896
0.37200002 23822.58461850  1866.02314156
0.37300002 23470.79154731  1580.05376181
0.37400002 23127.80117853  2211.59609246
0.37500002 22793.62518530  1542.67262562
0.37600002 22468.21644764  1397.63547033
0.37700002 22150.36482240  1255.92574493
0.37800002 21840.76113354  1489.97679511
0.37900002 21539.93370210  1350.55390710
0.38000002 21246.84386248  1578.53433954
0.38100002 20960.65606220  1681.46390897
0.38200002 20683.11001910  1307.06919958
0.38300002 20412.52128655  1528.48966635
0.38400002 20150.21562543  1280.04250825
0.38500002 19894.08778384  1958.17515333
0.38600002 19646.38674913  1140.47280482
0.38700002 19404.92363180  1919.92323509
0.38800002 19170.72076924  1118.61160988
0.38900002 18942.80825998  1108.15433571
0.39000002 18722.77728717  1317.70912790
0.39100002 18508.33408029  1414.77712412
0.39200002 18300.86087698  1402.48653975
0.39300002 18099.42013138  1497.54609262
0.39400002 17905.52708213  1166.99278287
0.39500002 17716.54202925  1368.07144031
0.39600002 17533.75436619  1148.54863417
0.39700002 17356.83367035  1554.30452882
0.39800002 17186.03018753  1645.73432873
0.39900002 17020.52346800  1327.60089340
0.40000002 16860.51186572  1419.82377148
0.40100002 16706.38525910  1208.87409462
0.40200002 16557.62273419  1501.36251256
0.40300002 16413.63779690  1392.53309667
0.40400002 16275.09515951  1581.93932446
0.40500002 16141.81603129  1081.34030717
0.40600002 16013.17070504  977.60411786
0.40700002 15889.54233188  1069.68404046
0.40800002 15770.52236857  1257.77807110
0.40900002 15656.03915600  1155.41574446
0.41000002 15546.58211155  1437.67024889
0.41100002 15441.01062094  1049.67995175
0.41200002 15339.62019070  1425.43427376
0.41300002 15243.22527447  1230.58563472
0.41400002 15150.22066015  943.10128078
0.41500002 15061.64615238  1033.83144089
0.41600002 14976.40707409  936.77430687
0.41700002 14895.34311893  1027.33186359
0.41800002 14818.98297524  931.37312413
0.41900002 14744.34282205  1393.34046271
0.42000002 14674.43499323  1019.35967511
0.42100002 14608.42051286  1294.59828719
0.42200002 14545.55256909  1199.78996051
0.42300002 14485.47413898  1013.40381878
0.42400002 14428.63677138  1287.75589287
0.42500002 14375.32894093  1194.15863171
0.42600002 14324.11788483  1009.20577340
0.42700002 14277.18314883  1099.91424191
0.42800002 14232.36411014  1007.43794128
0.42900002 14191.28392653  1189.93921363
0.43000002 14152.30959147  1097.93623013
0.43100002 14115.16196748  1371.99380825
0.43200002 14081.71881420  1371.91152049
0.43300002 14050.50399692  914.68785354
0.43400002 14021.67399530  1097.89712586
0.43500002 13995.08670837  1189.86232833
0.43600002 13971.17489565  1373.71583671
0.43700002 13948.87585391  916.44118703
0.43800002 13928.60544067  1100.63845408
0.43900002 13911.24274578  1193.58468415
0.44000002 13895.33265695  1011.09392870
0.44100002 13881.68756825  1472.56948702
0.44200002 13869.73330733  921.64382195
0.44300002 13859.78353557  1107.67395266
0.44400002 13851.80480841  1017.06881626
0.44500002 13844.31579301  1018.80324749
0.44600002 13838.97190510  1113.48373225
0.44700002 13836.22040264  1394.69108268
0.44800002 13833.44587124  1211.18741066
0.44900002 13833.91860173  1494.06327979
0.45000002 13834.92138783  1216.71221912
0.45100002 13837.08448362  1031.96980970
0.45200002 13840.84704662  1034.53416153
0.45300002 13845.40695653  942.87225842
0.45400002 13851.76450700  1039.92126965
0.45500002 13859.12855827  1137.55732598
0.45600002 13867.49329611  1140.74005260
0.45700002 13876.97711331  953.34837287
0.45800002 13887.12520263  1051.74147707
0.45900002 13898.21655985  958.97698808
0.46000002 13911.06700578  1058.14536194
0.46100002 13923.68636393  1061.40266183
0.46200002 13937.97422936  967.99235611
0.46300002 13953.13762739  1650.93532232
0.46400002 13968.17188199  1461.42005242
0.46500002 13984.61783010  977.52483265
0.46600002 14001.36457545  1765.43214299
0.46700002 14018.41998715  1279.32106866
0.46800002 14037.17914287  1086.26715946
0.46900002 14055.39807191  1089.99617214
0.47000002 14074.50535088  994.36385017
0.47100002 14094.07427988  1496.79075947
0.47200002 14114.32707341  1001.41155332
0.47300002 14135.12704904  1005.00758082
0.47400002 14155.48757633  1412.00995266
0.47500002 14176.71910069  1214.66135012
0.47600002 14198.68901867  1523.87437116
0.47700002 14220.15510441  1121.54368624
