# SAXS profile: number of points = 501, q_min = 0, q_max = 0.5, delta_q = 0.001
#    q    intensity    error
0.00000000 1700912.83420644 459.24646524
0.00100000 1700824.91209318 663.32173147
0.00200000 1700561.12802057 841.77778503
0.00300000 1700121.67641615 1326.09495484
0.00400000 1699506.46160289 1911.94484195
0.00500000 1698716.13278221 2293.26687003
0.00600000 1697750.52022955 2495.69336634
0.00700000 1696610.40173588 3053.89885005
0.00800000 1695295.54103639 2517.51398473
0.00900000 1693807.37279876 3048.85340137
0.01000000 1692145.25217150 4467.26365863
0.01100000 1690310.84547191 3346.81561975
0.01200000 1688303.99746650 6584.38587880
0.01300000 1686126.07804709 4249.03790408
0.01400000 1683777.26920113 4925.04873075
0.01500000 1681259.13893706 6456.03538100
0.01600000 1678571.33265335 4708.39279857
0.01700000 1675716.15188422 4976.87719435
0.01800000 1672693.99993186 5720.61373718
0.01900000 1669505.90652363 5008.51794557
0.02000000 1666152.68394210 5248.38119183
0.02100000 1662637.06748901 6584.04308577
0.02200000 1658957.73920798 7440.42579838
0.02300000 1655117.73834347 6554.26654218
0.02400000 1651117.84246291 7430.03062987
0.02500000 1646960.26182334 8350.08890880
0.02600000 1642645.55736835 9313.80073628
0.02700000 1638175.57599352 7568.37150773
0.02800000 1633550.83508863 7105.94645851
0.02900000 1628774.88004817 8795.38475609
0.03000000 1623848.12316540 11326.34117970
0.03100000 1618772.35969669 10101.13998929
0.03200000 1613548.69137808 8785.77302921
0.03300000 1608181.47760962 10662.24368809
0.03400000 1602669.17006950 12621.02029664
0.03500000 1597015.79911046 9486.27428477
0.03600000 1591222.04491436 11480.66758462
0.03700000 1585291.09626073 11747.00756656
0.03800000 1579224.40650551 10162.30952617
0.03900000 1573024.44449599 9438.14710406
0.04000000 1566691.48998308 13489.21435383
0.04100000 1560229.49316166 13761.22476775
0.04200000 1553640.31738177 12025.17661442
0.04300000 1546925.45129298 12251.65014294
0.04400000 1540088.02746297 13514.27306862
0.04500000 1533130.21533916 12694.31877285
0.04600000 1526052.77145830 15062.14155449
0.04700000 1518859.65404285 13122.94802125
0.04800000 1511552.68204407 16664.86909492
0.04900000 1504134.62472750 16921.51531584
0.05000000 1496606.83714938 11449.04283733
0.05100000 1488973.67661672 16259.59330609
0.05200000 1481234.19193467 15308.55608704
0.05300000 1473394.14712567 11934.49314808
0.05400000 1465454.12942166 15716.99627099
0.05500000 1457418.17647922 14690.77590422
0.05600000 1449286.80352767 14869.68329808
0.05700000 1441065.33237340 15044.72277224
0.05800000 1432752.92002785 12679.86393430
0.05900000 1424353.69126419 16664.93896614
0.06000000 1415871.29120394 15546.26750372
0.06100000 1407307.27238309 15705.54989374
0.06200000 1398664.53697499 15860.85659069
0.06300000 1389946.02073422 17346.52714981
0.06400000 1381151.81704639 14812.85393057
0.06500000 1372287.46617980 16302.77586082
0.06600000 1363355.17461883 15071.89216060
0.06700000 1354355.51637430 19340.19767893
0.06800000 1345293.25604401 15316.16443700
0.06900000 1336171.68119409 15432.78364034
0.07000000 1326990.37624003 14132.44816876
0.07100000 1317753.69352969 18501.26272371
0.07200000 1308464.37330153 22924.29689417
0.07300000 1299125.09607452 15862.31816631
0.07400000 1289739.11483491 15960.52229406
0.07500000 1280306.71985985 21893.24593579
0.07600000 1270831.80211601 16145.91880281
0.07700000 1261317.92338731 16233.16243514
0.07800000 1251766.27371859 17800.11724704
0.07900000 1242178.79506514 17887.37548792
0.08000000 1232560.94971929 17970.73948993
0.08100000 1222913.52985050 15041.83712290
0.08200000 1213237.42896240 21146.72937913
0.08300000 1203536.94811269 15164.56625792
0.08400000 1193814.56854196 16743.25010971
0.08500000 1184072.44327774 18329.44228242
0.08600000 1174313.17801811 19922.22400046
0.08700000 1164538.74403596 18446.29457173
0.08800000 1154751.13573993 16957.52122473
0.08900000 1144953.89689860 23185.31750120
0.09000000 1135149.08358142 15494.78571876
0.09100000 1125338.52197172 18635.60679937
0.09200000 1115524.06669746 24898.49833859
0.09300000 1105710.33637818 18708.61977068
0.09400000 1095895.68210798 15616.51420398
0.09500000 1086084.75309922 21895.46965163
0.09600000 1076279.06544703 18791.83336607
0.09700000 1066483.59152012 15677.30953238
0.09800000 1056696.70171880 18830.33610999
0.09900000 1046923.17540631 18844.61804343
0.10000000 1037161.66920762 17284.30003018
0.10100000 1027416.85640922 20435.32223509
0.10200000 1017690.25523602 17295.64670126
0.10300000 1007983.41073756 20441.90453136
0.10400000 998298.71282035 22012.48765327
0.10500000 988639.70557539 17291.30926406
0.10600001 979003.07269708 18855.60006737
0.10700001 969396.47722065 21985.91313797
0.10800001 959817.42621435 18831.61878857
0.10900001 950270.35569715 17247.40776766
0.11000001 940756.21001416 21929.02828762
0.11100001 931275.75678743 17209.97679556
0.11200001 921832.15578601 21875.07808662
0.11300001 912425.14824379 17162.71784650
0.11400001 903057.83510286 21808.84774459
0.11500001 893731.51670696 24881.48659674
0.11600001 884447.37796608 20178.66787854
0.11700001 875207.06719331 18589.39898265
0.11800001 866010.96220375 18549.95568408
0.11900001 856860.71127266 21592.89094113
0.12000001 847757.82594318 18464.16631880
0.12100001 838705.25094855 21487.62954154
0.12200001 829702.12128087 18369.60583057
0.12300001 820751.00261116 18319.16324138
0.12400001 811851.62333304 25877.77171304
0.12500001 803005.13544038 16694.47755246
0.12600001 794215.25320886 16642.78141526
0.12700001 785480.16768986 18097.46391644
0.12800001 776801.38115592 19540.43966390
0.12900001 768180.84518483 16477.47990583
0.13000001 759618.97473498 17911.81626852
0.13100001 751115.59387588 20820.92524369
0.13200001 742672.45782014 19261.21110155
0.13300001 734291.53188842 19187.03863278
0.13400001 725971.42215117 16171.01419081
0.13500001 717714.86879139 20497.93761912
0.13600001 709520.46762485 20412.90481605
0.13700001 701390.93598256 15970.67236539
0.13800001 693324.41225670 15901.39614495
0.13900001 685324.39342518 15830.99423468
0.14000001 677389.47951570 15759.46698416
0.14100001 669520.46627569 19965.10124595
0.14200001 661717.82271967 17032.61756015
0.14300001 653983.33934040 16951.24895525
0.14400001 646313.52846261 26708.90782357
0.14500001 638713.48936992 15386.60868474
0.14600001 631180.73289106 16701.04298016
0.14700001 623718.33754033 20769.82161994
0.14800001 616321.35455570 15152.26121662
0.14900001 608994.59739340 20553.56863176
0.15000001 601736.27761380 17718.12553033
0.15100001 594547.29996504 17622.38280248
0.15200001 587427.91453995 13481.47127484
0.15300001 580379.01567266 16088.10707363
0.15400001 573396.76404902 18664.06555057
0.15500001 566485.86557330 18558.07783199
0.15600001 559641.88624493 14497.52374738
0.15700001 552870.99013464 17033.95601000
0.15800001 546165.62757171 16933.86608212
0.15900001 539531.76893645 18128.26829193
0.16000001 532964.78570090 18019.54025511
0.16100001 526469.86661943 16631.18387157
0.16200001 520042.48892146 15258.04734523
0.16300001 513683.40730144 16427.59614101
0.16400001 507393.36989079 12557.98649765
0.16500001 501170.82577743 17470.81581142
0.16600001 495017.51495122 13640.20826848
0.16700001 488930.22770988 12321.04232002
0.16800001 482910.02889469 13465.94679154
0.16900001 476958.93403715 15811.18940991
0.17000001 471073.34427178 14499.63822135
0.17100001 465253.73863074 14404.25642820
0.17200001 459500.97660994 13116.45599673
0.17300001 453813.82541821 11844.54140277
0.17400001 448192.06966201 15294.55509952
0.17500001 442634.77913469 14022.67046524
0.17600001 437140.41258729 13927.29420280
0.17700001 431712.10721262 13832.05656839
0.17800001 426345.66623180 16026.33435061
0.17900001 421042.81900622 11368.15665013
0.18000001 415802.36276804 13546.84161887
0.18100001 410625.48871937 12331.08400872
0.18200001 405507.40086584 11131.17867958
0.18300001 400451.46837562 18789.18378377
0.18400001 395455.23601146 13168.65998128
0.18500001 390520.47275202 13074.62604541
0.18600001 385643.50300920 14062.49100159
0.18700001 380824.81252760 11813.18624272
0.18800001 376064.38185317 11727.56830217
0.18900001 371363.19791995 13759.00713301
0.19000001 366715.09390726 11557.02673054
0.19100001 362127.79822540 12515.13729801
0.19200001 357593.19284419 13458.02044860
0.19300001 353115.82574719 11303.23811628
0.19400001 348690.97154545 15298.81709949
0.19500001 344320.96776701 11135.34062379
0.19600001 340004.17059918 10047.12371600
0.19700001 335739.63596662 10968.61442538
0.19800001 331527.50911589 11875.31593774
0.19900001 327367.17135833 14731.52340734
0.20000001 323256.17437421 11695.40894160
0.20100001 319196.88205164 14507.49897491
0.20200001 315185.40595865 11516.87527806
0.20300001 311224.67237496 10475.82296728
0.20400001 307311.21003871 10394.80217088
0.20500001 303445.16823682 14064.68421257
0.20600001 299626.33810857 11164.07788563
0.20700001 295854.30509177 11999.85118174
0.20800001 292126.55688588 10073.98479041
0.20900001 288446.55183682 14537.70689979
0.21000001 284808.93293481 9014.20315351
0.21100001 281216.01935982 12519.73777375
0.21200001 277666.02008716 10645.71571341
0.21300001 274157.87057747 11440.60848006
0.21400001 270692.98515090 12221.78885737
0.21500001 267270.37245855 10391.47257247
0.21600001 263887.36252571 10307.44086758
0.21700001 260545.00598638 11075.76872814
0.21800001 257242.82280787 11830.59798029
0.21900001 253978.56390717 10895.68090678
0.22000001 250752.81592043 8312.45624080
0.22100001 247566.75165637 10717.16518595
0.22200001 244417.93424760 8175.78028717
0.22300001 241304.89412829 8918.62930870
0.22400001 238227.54778239 10452.23415320
0.22500001 235188.82783420 10364.77213277
0.22600001 232183.04835133 10277.58312128
0.22700001 229214.40151008 8623.04619259
0.22800001 226278.32105477 11658.99104370
0.22900001 223375.49793523 10018.39155617
0.23000001 220507.30303605 9932.75193500
0.23100001 217672.46040893 10605.00277266
0.23200001 214868.15820618 11264.46372670
0.23300001 212096.62186354 11166.88766925
0.23400001 209357.04196124 12545.72133288
0.23500001 206646.41343822 8778.34005804
0.23600001 203968.24830997 7976.17872741
0.23700001 201319.23873783 7905.80687916
0.23800001 198700.21169822 10685.10438946
0.23900001 196109.86556120 9177.94214238
0.24000001 193548.27684679 8396.12464675
0.24100001 191016.38370538 9014.06357343
0.24200001 188511.64314533 9619.74960474
0.24300001 186034.61828268 8170.64082147
0.24400001 183584.65734044 9445.43106697
0.24500001 181161.40042611 9358.79838872
0.24600001 178765.04716553 7285.56984188
0.24700001 176394.86903838 7874.26732637
0.24800001 174050.47695898 9101.09987073
0.24900001 171730.70612827 7727.88214136
0.25000001 169437.21485521 7655.17372931
0.25100001 167167.15153156 8214.59421488
0.25200001 164923.25908299 8136.48937179
0.25300001 162703.43627230 6818.90133678
0.25400001 160506.95863560 6139.39145827
0.25500001 158333.74134481 7904.02074189
0.25600001 156184.52053539 8429.27897211
0.25700001 154057.79774091 7154.44446559
0.25800001 151954.35769522 6493.76978335
0.25900001 149873.47475181 7598.58552944
0.26000001 147814.82479380 6944.34079739
0.26100001 145777.55334553 7447.77555282
0.26200001 143763.04099510 6238.59745917
0.26300001 141769.20436779 7298.27898619
0.26400001 139797.14218378 6668.32399770
0.26500001 137846.65399386 5500.08175461
0.26600001 135915.99651244 7076.46669328
0.26700001 134007.11077914 7541.92055154
0.26800001 132119.19039968 5864.11054338
0.26900001 130250.03753221 6330.15212362
0.27000001 128402.05150820 6785.40673305
0.27100001 126573.58127578 5164.20236044
0.27200001 124766.35721652 6131.01908376
0.27300001 122977.70070819 6065.26048596
0.27400001 121206.72713143 5499.75550386
0.27500001 119457.81919138 6429.22013315
0.27600001 117725.74117827 6848.10668843
0.27700001 116014.35370478 5321.57865629
0.27800001 114320.66029612 7176.47978973
0.27900001 112646.80331291 8042.98213720
0.28000001 110990.21068949 6081.70888257
0.28100001 109352.68102069 4625.61862610
0.28200001 107733.97320005 5945.29959243
0.28300001 106132.93998232 4973.38980296
0.28400001 104549.70105594 6257.29990436
0.28500001 102984.76696561 6627.07006791
0.28600001 101437.46508859 5676.94800238
0.28700001 99907.87536040  5179.22450383
0.28800001 98394.96069013  5118.50609738
0.28900001 96901.61633168  4215.22050995
0.29000001 95423.69148724  5414.81762975
0.29100001 93964.10412816  4938.75354675
0.29200001 92521.51701121  4472.95295164
0.29300001 91095.95354096  4419.06491545
0.29400001 89686.73240755  5159.22952596
0.29500001 88295.49446099  6272.51222343
0.29600001 86920.31064503  4646.76002705
0.29700001 85561.70384591  4207.06917726
0.29800001 84219.67978462  4532.70338058
0.29900001 82894.95445679  4476.32775257
0.30000001 81585.61368726  4420.30875883
0.30100001 80293.79161776  4001.03982572
0.30200001 79016.67127122  4309.56945515
0.30300001 77756.96194127  3900.28939562
0.30400001 76513.15421337  3850.52466808
0.30500001 75285.01485727  4837.81528376
0.30600001 74072.08184882  4093.22343675
0.30700001 72876.06736456  3703.56191881
0.30800001 71695.33281105  3987.69459974
0.30900001 70530.33782985  4263.55912367
0.31000001 69381.23482400  4531.28866089
0.31100001 68246.69540209  5110.31279366
0.31200001 67128.11588401  3151.66518997
0.31300001 66024.49746944  3731.70477365
0.31400001 64937.20139574  4295.59607571
0.31500001 63863.86158374  3632.57661888
0.31600002 62806.12924131  4479.64738024
0.31700002 61763.32613375  4713.77727372
0.31800002 60735.44053276  3196.81006381
0.31900002 59722.49089681  3153.34766866
0.32000002 58724.54462788  3110.34565349
0.32100002 57740.40703713  3067.74797114
0.32200002 56772.19889096  4125.91974976
0.32300002 55816.71308415  2712.69238434
0.32400002 54876.19130505  3745.30023391
0.32500002 53950.10151224  3429.60811553
0.32600002 53038.55343525  2861.69528611
0.32700002 52140.38684593  2565.30715429
0.32800002 51257.10559816  3794.30742158
0.32900002 50387.06936438  2743.57605681
0.33000002 49531.77193948  2459.25259325
0.33100002 48687.93947749  3636.98925120
0.33200002 47860.53699012  3107.82411662
0.33300002 47045.28331708  2592.66568638
0.33400002 46244.04268565  3020.89223150
0.33500002 45455.11007962  2520.03142215
0.33600002 44680.47491153  3162.03735923
0.33700002 43917.89518406  2449.30113041
0.33800002 43169.56010936  2195.17223552
0.33900002 42432.95503263  2380.48889007
0.34000002 41709.90641452  2560.15417697
0.34100002 40999.24068476  2944.56560543
0.34200002 40301.79218193  2280.88003656
0.34300002 39615.66741557  3475.08651027
0.34400002 38943.45856331  2418.38889132
0.34500002 38282.46079141  2185.54579009
0.34600002 37634.67233759  2350.66174553
0.34700002 36997.38315606  2510.64253988
0.34800002 36373.45879617  2284.98078980
0.34900002 35760.66221284  2440.66531162
0.35000002 35159.82679672  2406.51445908
0.35100002 34571.11580600  2555.49700141
0.35200002 33992.62062479  1799.90934733
0.35300002 33425.96816700  2307.39469185
0.35400002 32870.88018280  1925.41189790
0.35500002 32327.04493936  2071.51713783
0.35600002 31793.25096987  1702.52867008
0.35700002 31270.74645867  2015.08699724
0.35800002 30759.70988565  1656.41045580
0.35900002 30259.08818099  2287.58717484
0.36000002 29769.18938151  2740.40285832
0.36100002 29288.89916271  2385.58094980
0.36200002 28820.06800076  2196.95388776
0.36300002 28360.38077827  1548.47686384
0.36400002 27910.83222518  1528.11813671
0.36500002 27471.02117756  2413.05461454
0.36600002 27041.38971077  1488.62857409
0.36700002 26620.90244401  1910.31604987
0.36800002 26211.48167949  1740.96669562
0.36900002 25810.30801719  2291.95546049
0.37000002 25418.11389368  1838.87353674
0.37100002 25034.96641727  1955.73166916
0.37200002 24661.88280050  1793.78213047
0.37300002 24296.94327982  1771.97615734
0.37400002 23940.91754092  1481.34434302
0.37500002 23593.85584443  1862.97094573
0.37600002 23255.62250969  1315.10551522
0.37700002 22925.13037370  1559.82594452
0.37800002 22602.91346453  1798.96596786
0.37900002 22289.61137222  2032.81265345
0.38000002 21984.09873439  1884.58695328
0.38100002 21685.57154862  1366.84163946
0.38200002 21395.89191511  2212.54928776
0.38300002 21113.09163002  1337.72554905
0.38400002 20838.81310886  2286.53887669
0.38500002 20570.63057772  1310.14352356
0.38600002 20311.16293824  1296.96937087
0.38700002 20057.89637060  1400.84354889
0.38800002 19812.00215107  1502.83949437
0.38900002 19572.56043325  1488.49329147
0.39000002 19341.00858498  1247.78522797
0.39100002 19115.07680948  1348.75988358
0.39200002 18896.29331585  1448.11750687
0.39300002 18683.56434241  1545.87818693
0.39400002 18478.57759365  1532.79808401
0.39500002 18278.56691737  1085.74692633
0.39600002 18084.71271853  1292.33363209
0.39700002 17896.87867250  1282.13244884
0.39800002 17715.28144460  1272.31157363
0.39900002 17538.95763107  1157.57125849
0.40000002 17368.29688504  1253.64372856
0.40100002 17203.51925122  1659.79561600
0.40200002 17044.39950170  1648.53439791
0.40300002 16889.92514943  1228.23541506
0.40400002 16741.11795344  1322.12985302
0.40500002 16597.51492055  1111.86757721
0.40600002 16458.64592605  1004.80038139
0.40700002 16324.89236087  1398.71684375
0.40800002 16195.91497502  1092.98137388
0.40900002 16071.50201088  1284.91664665
0.41000002 15952.11257737  1180.13734439
0.41100002 15836.71012416  1468.06309807
0.41200002 15725.64384824  1266.46478733
0.41300002 15619.54063266  1454.96027887
0.41400002 15516.98269929  1062.52544068
0.41500002 15419.01041565  1058.36092508
0.41600002 15324.22918423  1150.23669707
0.41700002 15233.81357556  1050.67617209
0.41800002 15148.14781859  1047.26724906
0.41900002 15064.26285051  1518.47776728
0.42000002 14985.32772866  1135.58818909
0.42100002 14910.19436739  1226.95995263
0.42200002 14838.33523783  1129.79089854
0.42300002 14769.33558085  939.32978745
0.42400002 14703.68761885  1031.09614313
0.42500002 14641.54111610  935.59452165
0.42600002 14581.66995709  1307.53840701
0.42700002 14526.06191027  1119.08786260
0.42800002 14472.60406493  931.31211571
0.42900002 14423.07422021  1209.37483067
0.43000002 14375.64627393  1487.01692104
0.43100002 14330.09439925  1207.16720940
0.43200002 14288.36440658  1392.04396828
0.43300002 14248.91426117  1020.36479860
0.43400002 14212.00191916  927.33316917
0.43500002 14177.25917733  1298.06991179
0.43600002 14145.30741729  1019.94743966
0.43700002 14115.10394946  1391.04356014
0.43800002 14086.87583420  1484.19330823
0.43900002 14061.74135904  1113.68996841
0.44000002 14038.05908161  1021.47941748
0.44100002 14016.69758522  1486.89135030
0.44200002 13997.17883451  1116.13509316
0.44300002 13979.59950237  1024.14550808
0.44400002 13964.15468971  1025.31810668
0.44500002 13949.29449637  933.20784603
0.44600002 13936.53433190  1027.88913836
0.44700002 13926.55655283  1029.45110917
0.44800002 13916.41338425  1312.17868019
0.44900002 13909.71882642  1126.68727834
0.45000002 13903.65070200  1034.64021602
0.45100002 13898.77155039  942.33675578
0.45200002 13895.59270272  1038.62612579
0.45300002 13893.18537567  1135.35116271
0.45400002 13892.67856668  1137.81042854
0.45500002 13893.24634300  1045.32790439
0.45600002 13894.90054284  1142.99457282
0.45700002 13897.72720180  1145.72868482
0.45800002 13901.28842079  1052.81412845
0.45900002 13905.84109617  1343.30431355
0.46000002 13912.25412291  1250.64214365
0.46100002 13918.39727791  1157.45397249
0.46200002 13926.40639285  1450.78345474
0.46300002 13935.23633114  1066.88174408
0.46400002 13944.09907434  1167.12114784
0.46500002 13954.34498137  1072.94963647
0.46600002 13965.05154303  1076.07709765
0.46700002 13976.01443435  1373.56276371
0.46800002 13988.85015678  984.11565517
0.46900002 14001.17448217  1480.62427167
0.47000002 14014.42935025  990.11948052
0.47100002 14028.19185900  993.19603069
0.47200002 14042.78215765  1494.50316196
0.47300002 14057.89646792  999.51648624
0.47400002 14072.63206793  1102.94259060
0.47500002 14088.32190567  1911.22184031
0.47600002 14104.91886179  1614.73118783
0.47700002 14120.91738121  1113.71680664
