# SAXS profile: number of points = 501, q_min = 0, q_max = 0.5, delta_q = 0.001
#    q    intensity    error
0.00000000 1700912.83420644 357.19169518
0.00100000 1700825.02172570 561.27227050
0.00200000 1700561.56487257 1453.98018401
0.00300000 1700122.65925999 1428.10308465
0.00400000 1699508.21421666 1911.94681364
0.00500000 1698718.86824604 1987.50115452
0.00600000 1697754.45809458 1960.90647893
0.00700000 1696615.75916849 2443.12679474
0.00800000 1695302.52413486 2517.52435463
0.00900000 1693816.23850233 3302.94180627
0.01000000 1692156.18425726 3629.67517196
0.01100000 1690324.06448143 4868.13351766
0.01200000 1688319.71345645 5267.55773693
0.01300000 1686144.50350197 5311.35542029
0.01400000 1683798.61132177 4167.40174777
0.01500000 1681283.67235283 4438.58909266
0.01600000 1678599.19359383 4708.47094852
0.01700000 1675747.57408025 4976.97051828
0.01800000 1672729.21313281 5720.73416633
0.01900000 1669545.09811991 5509.49907240
0.02000000 1666196.08080983 6823.07325956
0.02100000 1662684.87308443 6584.23239593
0.02200000 1659010.17732621 6295.94390899
0.02300000 1655175.00907860 6554.49333430
0.02400000 1651180.07278576 8049.50322187
0.02500000 1647027.83259785 6423.40884049
0.02600000 1642718.47018972 7983.61213028
0.02700000 1638254.15118219 10321.00162516
0.02800000 1633635.22301547 9238.20760981
0.02900000 1628865.26998629 9528.86226693
0.03000000 1623944.73120810 12837.28369027
0.03100000 1618875.31440150 7770.60186668
0.03200000 1613658.31902475 8786.36995177
0.03300000 1608297.97461155 8202.32004865
0.03400000 1602792.68118565 8414.66196448
0.03500000 1597146.42922240 12074.42756250
0.03600000 1591360.01408653 9715.25333498
0.03700000 1585436.66020727 14459.18300979
0.03800000 1579377.65269386 9239.35969585
0.03900000 1573185.65151068 10383.02578081
0.04000000 1566860.76969630 15417.91068826
0.04100000 1560407.00967915 11796.67754015
0.04200000 1553826.27624337 13028.83393075
0.04300000 1547119.96110966 12253.19066076
0.04400000 1540291.35795929 11436.66386399
0.04500000 1533342.50004805 10580.06374193
0.04600000 1526274.16609016 10760.23337115
0.04700000 1519090.23502786 10937.45020088
0.04800000 1511792.80953085 12222.84543376
0.04900000 1504384.26644566 13539.45902824
0.05000000 1496866.23404795 14886.33539081
0.05100000 1489242.91827343 13939.31436439
0.05200000 1481513.49439901 12955.83611228
0.05300000 1473683.61252198 19098.94050864
0.05400000 1465754.02246170 16929.45974892
0.05500000 1457728.53827262 15918.39638052
0.05600000 1449607.85631227 14872.97729980
0.05700000 1441397.08943634 15048.18631614
0.05800000 1433095.62537165 15219.47625208
0.05900000 1424707.38848106 19233.55064281
0.06000000 1416236.08909773 19437.84123098
0.06100000 1407683.42828539 19637.18474225
0.06200000 1399052.05239217 14543.14676441
0.06300000 1390345.13568144 20020.97088990
0.06400000 1381562.61607141 18858.33059132
0.06500000 1372709.93636741 14948.81190631
0.06600000 1363789.47357880 17817.91030598
0.06700000 1354801.85108485 19346.57133889
0.06800000 1345751.71810618 16714.23712126
0.06900000 1336642.38393991 15438.22025731
0.07000000 1327473.31991237 16965.10982293
0.07100000 1318248.97323395 14237.08957776
0.07200000 1308972.09118709 15766.56957696
0.07300000 1299645.52423256 18753.88579340
0.07400000 1290272.08321151 24676.45474786
0.07500000 1280852.64533208 17522.06500945
0.07600000 1271390.40200942 20558.38376428
0.07700000 1261889.46567834 16240.51818477
0.07800000 1252350.72881158 20776.49956532
0.07900000 1242776.39448728 19387.31266334
0.08000000 1233171.61727608 20976.25019388
0.08100000 1223537.38912232 19564.36376999
0.08200000 1213874.64131557 18135.28799226
0.08300000 1204187.38911115 22759.14272233
0.08400000 1194478.31535017 16752.55915913
0.08500000 1184749.66231666 25981.56131431
0.08600000 1175003.84523725 26067.46153049
0.08700000 1165242.88580134 18457.44817781
0.08800000 1155468.91921288 16968.06187553
0.08900000 1145685.27528611 17013.42713711
0.09000000 1135893.93290609 17055.44820377
0.09100000 1126097.17246512 27972.25507820
0.09200000 1116296.23622982 15572.33322710
0.09300000 1106496.23163247 17161.75735909
0.09400000 1096695.27512039 17190.69924543
0.09500000 1086898.17251120 18781.60130378
0.09600000 1077106.22736106 18806.27561377
0.09700000 1067324.45411496 21965.53829835
0.09800000 1057551.56691749 23556.96226068
0.09900000 1047791.72778560 18860.25198700
0.10000000 1038043.93024377 26734.82268069
0.10100000 1028312.99585939 18879.82749193
0.10200000 1018600.28221365 26753.53767073
0.10300000 1008906.98739121 22034.52964114
0.10400000 999236.29116863 15737.97232630
0.10500000 989590.87062741 18881.39469993
0.10600001 979968.01051934 17301.33603981
0.10700001 970375.05147226 23580.11486040
0.10800001 960809.71505136 17280.16353843
0.10900001 951276.36477531 18835.27290905
0.11000001 941775.86134529 17248.62571242
0.11100001 932308.99367024 17229.07101406
0.11200001 922878.79005863 23464.19434187
0.11300001 913485.32823822 23430.89977246
0.11400001 904131.36256036 17155.89341236
0.11500001 894818.77325860 18683.81686542
0.11600001 885547.82128540 26420.32049222
0.11700001 876320.75313939 15510.87806105
0.11800001 867137.85291520 26313.29938602
0.11900001 858000.80178199 18532.81819142
0.12000001 848911.08823960 20030.05807053
0.12100001 839871.73148188 19980.54943320
0.12200001 830881.41921293 15329.76290668
0.12300001 821943.22386578 19874.58808945
0.12400001 813056.73439400 19818.25883464
0.12500001 804222.92323673 18239.77675848
0.12600001 795445.64830984 18183.88837725
0.12700001 786723.23217282 22657.63015435
0.12800001 778056.90107322 16560.94191985
0.12900001 769448.72614444 19505.52612710
0.13000001 760899.18853759 17942.00371141
0.13100001 752408.01379833 16387.44731299
0.13200001 743977.01175170 16326.57629253
0.13300001 735608.17359373 16264.29748490
0.13400001 727299.87784236 19146.17018686
0.13500001 719055.12467423 16135.59775845
0.13600001 710872.35356862 14608.42755463
0.13700001 702754.34280699 18911.12025666
0.13800001 694699.32032010 18829.82596521
0.13900001 686710.59772882 14420.92323237
0.14000001 678787.00724558 22970.15340848
0.14100001 670929.12125517 20007.10733942
0.14200001 663137.31330983 19914.01445794
0.14300001 655413.61057357 14156.93465614
0.14400001 647754.78989730 15497.53407931
0.14500001 640165.13049908 15421.57872119
0.14600001 632642.84365559 16739.73043281
0.14700001 625190.61418692 19430.92520561
0.14800001 617803.81592008 13807.91593725
0.14900001 610487.00202923 19230.34147122
0.15000001 603238.43677236 20495.02685636
0.15100001 596059.28708999 16308.18286428
0.15200001 588949.40617467 17571.30636236
0.15300001 581909.82677615 16130.54115942
0.15400001 574936.76051635 22724.37653180
0.15500001 568035.02986812 17279.62642407
0.15600001 561200.07213757 14537.88855484
0.15700001 554437.86787468 17082.23151545
0.15800001 547741.07404251 15676.35027900
0.15900001 541115.66097930 19480.16471473
0.16000001 534556.96584234 14200.50646790
0.16100001 528070.09485272 14115.31430172
0.16200001 521650.74918746 16580.66984563
0.16300001 515299.46529582 15211.64093364
0.16400001 509016.95014931 15117.80413314
0.16500001 502801.82311661 18779.64898002
0.16600001 496655.69346306 18661.83856296
0.16700001 490575.49901772 16071.25410662
0.16800001 484562.22701988 15968.74894543
0.16900001 478617.97161131 13425.23473761
0.17000001 472738.74804950 14550.89935205
0.17100001 466925.55392798 14456.01583224
0.17200001 461178.82406996 19148.14567962
0.17300001 455497.62533260 13077.33744087
0.17400001 449881.75717037 14171.27602012
0.17500001 444330.01265577 14076.37546573
0.17600001 438841.05141261 13981.47655834
0.17700001 433417.89137778 17358.38736953
0.17800001 428056.35470152 16090.63913322
0.17900001 422758.51571722 11414.48046351
0.18000001 417522.57199403 12469.31220159
0.18100001 412350.18152439 15760.02468231
0.18200001 407236.26099606 13414.36307088
0.18300001 402184.42683898 12210.31977564
0.18400001 397192.08935040 11022.08100016
0.18500001 392261.08691870 12038.49332626
0.18600001 387387.35350266 13039.45893493
0.18700001 382572.06471101 14025.09255492
0.18800001 377814.57384639 12853.25240952
0.18900001 373116.38463182 18077.48968953
0.19000001 368470.89148836 11612.36069393
0.19100001 363886.10269797 15719.88037932
0.19200001 359353.80388080 11443.62242531
0.19300001 354878.34165115 11359.65625303
0.19400001 350455.48412325 14351.15275299
0.19500001 346087.15393396 11192.45908713
0.19600001 341771.74434360 11109.29107487
0.19700001 337508.49750998 11026.40313473
0.19800001 333297.48278023 10943.82336428
0.19900001 329137.92441836 14811.20729880
0.20000001 325027.65191929 11759.50100221
0.20100001 320968.78492148 10697.89010704
0.20200001 316957.65486809 18337.58598909
0.20300001 312996.78831072 13408.78304499
0.20400001 309083.32357169 12355.60644378
0.20500001 305217.05516601 16033.05266570
0.20600001 301397.55886908 9358.39464524
0.20700001 297624.81681265 9285.89472349
0.20800001 293896.10752255 10135.00774700
0.20900001 290215.21641381 10055.95772410
0.21000001 286576.18400475 11791.17764827
0.21100001 282981.67556380 12598.34479167
0.21200001 279429.95452564 11606.12370990
0.21300001 275919.96244730 8857.03121328
0.21400001 272452.83687731 9665.26484516
0.21500001 269028.05815410 8716.50949629
0.21600001 265642.51750342 10375.99722425
0.21700001 262297.62498328 11150.27256522
0.21800001 258992.40796293 10209.48120461
0.21900001 255725.19975048 9282.82518985
0.22000001 252496.19467831 11718.34894909
0.22100001 249306.69955576 8301.91348775
0.22200001 246154.27644920 8233.86093656
0.22300001 243037.47961666 8982.66567138
0.22400001 239956.25709462 10528.08127786
0.22500001 236913.32451178 10440.77070495
0.22600001 233903.13249733 9557.28244579
0.22700001 230930.02224182 8687.58784757
0.22800001 227989.30931933 8614.57646001
0.22900001 225081.62425741 10871.44296575
0.23000001 222208.42696325 11549.28353760
0.23100001 219368.38084890 10687.62802041
0.23200001 216558.68948199 8325.59921088
0.23300001 213781.50274604 7503.73110127
0.23400001 211036.22618375 8182.93005729
0.23500001 208319.75497678 9586.87557745
0.23600001 205635.54943796 11696.55060524
0.23700001 202980.34382936 8695.67834094
0.23800001 200354.87158683 7900.99473473
0.23900001 197758.09486553 7831.22092709
0.24000001 195189.74945793 8467.33173199
0.24100001 192651.00854775 6993.23194107
0.24200001 190139.35045148 6930.57965179
0.24300001 187655.08812593 8928.62951538
0.24400001 185197.81341422 8847.82595440
0.24500001 182767.18838168 11464.98626953
0.24600001 180363.03357295 8018.94085199
0.24700001 177985.20484822 10593.67989371
0.24800001 175633.03633118 9183.85190422
0.24900001 173305.21033218 7798.73483389
0.25000001 171003.53213399 9013.59660520
0.25100001 168725.09839253 8928.93262935
0.25200001 166472.91716017 9476.47125767
0.25300001 164244.46240055 9386.57147027
0.25400001 162039.27113134 7437.60289681
0.25500001 159857.24236718 9207.77759599
0.25600001 157698.98631822 6687.22583121
0.25700001 155563.27837839 7826.38890551
0.25800001 153450.62543658 6557.71278830
0.25900001 151360.37595765 8264.27691831
0.26000001 149292.37442016 6429.27640861
0.26100001 147245.46730449 5786.74713887
0.26200001 145221.39308901 6874.78107413
0.26300001 143217.74215819 7372.84971517
0.26400001 141235.85181016 8982.60060017
0.26500001 139275.46378457 8335.63690194
0.26600001 137334.71831497 6050.28130166
0.26700001 135415.66888612 5988.08116150
0.26800001 133517.42096003 6464.91382881
0.26900001 131637.83787765 6397.59922360
0.27000001 129779.51069937 7385.75230341
0.27100001 127940.52351398 5741.97096703
0.27200001 126122.68924235 6197.66924266
0.27300001 124323.34632708 5620.65875344
0.27400001 122541.58307232 6571.29270324
0.27500001 120781.82904820 6000.44155109
0.27600001 119038.70245150 6429.87581722
0.27700001 117316.43182666 6848.93361418
0.27800001 115611.68012608 7741.35846762
0.27900001 113926.60018841 5741.90092125
0.28000001 112258.74115073 4731.70616345
0.28100001 110610.00399663 4678.80339050
0.28200001 108979.96440609 5088.81967879
0.28300001 107367.42447982 5488.62299919
0.28400001 105772.74924581 4973.96376871
0.28500001 104196.32847919 4470.02270333
0.28600001 102637.48615264 6627.81598201
0.28700001 101096.20867526 4804.09206364
0.28800001 99571.62152966  5179.71599714
0.28900001 98066.63153178  5545.66827562
0.29000001 96576.98423406  4637.14411749
0.29100001 95105.62883997  4582.18941441
0.29200001 93651.18093677  4527.56655670
0.29300001 92213.86404089  4473.29475637
0.29400001 90792.72799727  4419.33624446
0.29500001 89389.59498953  4762.67784649
0.29600001 88002.42625118  5488.71158511
0.29700001 86631.98025294  6583.16449106
0.29800001 85277.92397523  4207.18657848
0.29900001 83941.25325895  4155.09223302
0.30000001 82619.89009430  4849.37467865
0.30100001 81315.97094434  3683.61365816
0.30200001 80026.85139344  4000.94262482
0.30300001 78755.16283642  4668.60627396
0.30400001 77499.21373830  4609.26595530
0.30500001 76259.09123046  4200.35094383
0.30600001 75034.08431627  3455.31974635
0.30700001 73826.08173610  5457.22422030
0.30800001 72633.33134459  3703.21057393
0.30900001 71456.27949887  4984.07573101
0.31000001 70295.17881902  3607.19727188
0.31100001 69148.60959370  5177.84813152
0.31200001 68018.00970482  3512.79027752
0.31300001 66902.49675043  5041.77239382
0.31400001 65803.28646270  3420.12597583
0.31500001 64717.93936859  4601.44570697
0.31600002 63648.32969604  4842.36515255
0.31700002 62593.60138195  3881.42940547
0.31800002 61553.88401078  2945.35348937
0.31900002 60529.17381239  3486.48057667
0.32000002 59519.31769605  4012.19739587
0.32100002 58523.39932380  2826.68032118
0.32200002 57543.51917579  3345.58036330
0.32300002 56576.18658933  3574.48363797
0.32400002 55624.21376170  3525.18471407
0.32500002 54686.54626972  3476.42391098
0.32600002 53763.36782652  2637.09331676
0.32700002 52853.77167676  4940.77081030
0.32800002 51959.01072952  2820.59503102
0.32900002 51077.52475401  2528.33759505
0.33000002 50210.78562464  2492.96562432
0.33100002 49355.74946020  3195.29137136
0.33200002 48517.05335298  3392.79770164
0.33300002 47690.61617005  3106.08997825
0.33400002 46878.19291927  2591.19223632
0.33500002 46078.21018371  2786.81028388
0.33600002 45292.51020350  2518.49014913
0.33700002 44519.04559822  2257.11571872
0.33800002 43759.92675796  2670.23085723
0.33900002 43012.45242195  3071.08924837
0.34000002 42278.75484690  3460.09346053
0.34100002 41557.30018641  2558.26752063
0.34200002 40849.29018443  3152.54411928
0.34300002 40152.71241283  3522.19609966
0.34400002 39470.13338251  2451.09539914
0.34500002 38798.71708686  2416.38421461
0.34600002 38140.54560331  2382.25859121
0.34700002 37493.09197925  2544.28134221
0.34800002 36859.09620572  2701.40328886
0.34900002 36236.23162999  2092.64247574
0.35000002 35625.48981370  2438.38676579
0.35100002 35026.82992321  2034.35837829
0.35200002 34438.62745126  2370.58303289
0.35300002 33862.34366151  1798.09053359
0.35400002 33297.60724651  2127.71720383
0.35500002 32744.31196328  1923.40097582
0.35600002 32201.14635513  2586.55720349
0.35700002 31669.31559707  2721.02772498
0.35800002 31148.91228091  2180.57970751
0.35900002 30639.24297314  1985.42303870
0.36000002 30140.35294910  2448.15028425
0.36100002 29651.09489899  2415.08179392
0.36200002 29173.45842272  1906.19386363
0.36300002 28705.03650315  2507.67210770
0.36400002 28246.83022159  3247.67945856
0.36500002 27798.49342820  2136.59230610
0.36600002 27360.45463132  2259.28964820
0.36700002 26931.69950703  2229.94482481
0.36800002 26514.02166068  1907.81651897
0.36900002 26104.71695469  1593.69304558
0.37000002 25704.50527972  1859.59252255
0.37100002 25313.59493268  1836.24826340
0.37200002 24932.62297775  1813.47441819
0.37300002 24559.97561547  1377.81469730
0.37400002 24196.39846787  1497.15222612
0.37500002 23841.83944431  1748.08375087
0.37600002 23496.20742142  1461.58165189
0.37700002 23158.43428649  1575.69994350
0.37800002 22829.14944890  1557.40464918
0.37900002 22508.82533214  1539.60372565
0.38000002 22196.36937744  1775.93159802
0.38100002 21890.94802435  1254.35138122
0.38200002 21594.53791239  1736.84876657
0.38300002 21305.16691940  1227.17767269
0.38400002 21024.40744680  1214.15958757
0.38500002 20749.92279993  1681.98882185
0.38600002 20484.21013212  1308.01929995
0.38700002 20224.65127023  1530.19718760
0.38800002 19972.82428830  2097.74583438
0.38900002 19727.33723315  1500.26406766
0.39000002 19490.05980501  1143.09206172
0.39100002 19258.40791848  1245.63388318
0.39200002 19034.00078758  1234.25983955
0.39300002 18815.73985243  1445.61336135
0.39400002 18605.42415525  1433.08286345
0.39500002 18400.10998500  1639.44987734
0.39600002 18201.20447787  1192.26995581
0.39700002 18008.32217560  1290.11626178
0.39800002 17821.69423995  1386.61698603
0.39900002 17640.60560738  1270.12366391
0.40000002 17465.28472256  1260.64431100
0.40100002 17295.95184207  1042.94594549
0.40200002 17132.24600553  1035.64432010
0.40300002 16973.41781111  1234.30700170
0.40400002 16820.29841752  1021.83317728
0.40500002 16672.54331470  1523.03690396
0.40600002 16529.60603148  1009.13249604
0.40700002 16391.95921315  1304.14433679
0.40800002 16259.05057035  1097.24207973
0.40900002 16130.89683607  1388.87028339
0.41000002 16007.93508601  986.88924481
0.41100002 15888.97442835  981.93866620
0.41200002 15774.49316951  1172.67587779
0.41300002 15665.09157802  1167.36267971
0.41400002 15559.33994776  1162.28274917
0.41500002 15458.16867260  1061.04874796
0.41600002 15360.40699747  960.79350322
0.41700002 15267.13587057  1435.87419666
0.41800002 15178.59518533  1240.16717838
0.41900002 15092.07535372  1045.88087157
0.42000002 15010.54468639  1421.87391279
0.42100002 14932.81308161  1512.39538057
0.42200002 14858.56047239  1037.05327731
0.42300002 14787.21793400  1128.56052620
0.42400002 14719.34804361  1407.53772337
0.42500002 14655.05569662  1123.74972407
0.42600002 14593.16418594  934.69221040
0.42700002 14535.56942454  1119.82032153
0.42800002 14480.36971549  931.81183535
0.42900002 14429.01638609  1396.00740151
0.43000002 14379.90162070  1022.62675222
0.43100002 14332.82700252  1393.15085066
0.43200002 14289.59884213  1113.73138653
0.43300002 14248.68799964  1298.62548583
0.43400002 14210.44779090  1019.95493853
0.43500002 14174.51250125  1112.41579381
0.43600002 14141.43977051  1205.06284715
0.43700002 14110.08400756  1297.84558852
0.43800002 14080.90306056  927.22751048
0.43900002 14054.85812768  1855.24136077
0.44000002 14030.34388935  1020.91802149
0.44100002 14008.24801547  1114.49626493
0.44200002 13988.02234389  1951.95867048
0.44300002 13969.85171235  1023.43138495
0.44400002 13953.90734730  1210.85036744
0.44500002 13938.53349264  1305.48310879
0.44600002 13925.42547036  1120.43978644
0.44700002 13915.10214615  935.09490854
0.44800002 13904.79637486  1217.43450430
0.44900002 13897.89827307  1219.54063126
0.45000002 13891.76597121  1033.75581374
0.45100002 13886.91071248  1129.83910911
0.45200002 13883.75281085  1037.74115303
0.45300002 13881.43969084  1228.92391407
0.45400002 13881.09008245  1042.12288733
0.45500002 13881.86935059  1044.47189944
0.45600002 13883.82706003  1142.08366809
0.45700002 13887.03902763  1144.84755170
0.45800002 13890.95690635  1434.58864249
0.45900002 13895.95642957  1054.70314299
0.46000002 13902.88036550  1153.66106741
0.46100002 13909.55089154  1445.89788370
0.46200002 13918.20774183  1449.92936022
0.46300002 13927.73048906  969.37008798
0.46400002 13937.29736868  1069.33919129
0.46500002 13948.37078868  1364.98763007
0.46600002 13959.80726972  1564.61527295
0.46700002 13971.68083440  980.81204106
0.46800002 13985.42597367  1082.26224027
0.46900002 13998.71344609  1184.29121367
0.47000002 14012.97782604  1386.02370247
0.47100002 14027.76245746  1390.43188069
0.47200002 14043.43845064  1394.93480742
0.47300002 14059.71510770  1099.61037069
0.47400002 14075.65814537  1404.04696655
0.47500002 14092.52328453  1106.82683123
0.47600002 14110.33393448  1110.55388495
0.47700002 14127.63934630  1620.72286263
