# SAXS profile: number of points = 501, q_min = 0, q_max = 0.5, delta_q = 0.001
#    q    intensity    error
0.00000000 1682732.95097188 277.65093691
0.00100000 1682645.62398053 555.27306910
0.00200000 1682383.63223030 832.77992432
0.00300000 1681947.15793127 1110.08516378
0.00400000 1681336.13099384 1639.30279001
0.00500000 1680551.15835268 1966.24493310
0.00600000 1679592.11602783 2116.28615235
0.00700000 1678459.72824042 2416.98210912
0.00800000 1677153.81760355 3849.06817391
0.00900000 1675675.79263171 2764.86517603
0.01000000 1674024.97239643 3590.78372084
0.01100000 1672203.03320907 4213.95182716
0.01200000 1670209.87461928 4233.98221779
0.01300000 1668046.78854700 3502.89841044
0.01400000 1665713.99718116 5246.99932373
0.01500000 1663213.08407184 5189.22505337
0.01600000 1660543.61838909 5504.70234104
0.01700000 1657707.93453465 5818.55511123
0.01800000 1654706.44172310 5659.09628534
0.01900000 1651540.21987806 6441.00714816
0.02000000 1648210.00022452 6230.23408268
0.02100000 1644718.51739129 5970.32848882
0.02200000 1641064.48260122 7926.34181108
0.02300000 1637250.91228820 5894.10355253
0.02400000 1633278.50133736 7349.75359115
0.02500000 1629149.72700962 10165.89476082
0.02600000 1624864.70339424 8554.91305466
0.02700000 1620425.76527904 10889.26164142
0.02800000 1615832.94838597 9137.53574217
0.02900000 1611090.15115950 7974.89661440
0.03000000 1606197.61951982 11203.22891111
0.03100000 1601157.09678578 9222.66530185
0.03200000 1595969.89002013 10270.06671530
0.03300000 1590640.30060126 11357.17226986
0.03400000 1585166.45979354 9154.33672769
0.03500000 1579552.76824043 9382.54387662
0.03600000 1573799.69095509 10481.50642615
0.03700000 1567910.56519379 12511.92688889
0.03800000 1561886.46357711 13705.55435218
0.03900000 1555730.45184730 10267.82145770
0.04000000 1549442.23125936 11434.88419657
0.04100000 1543026.17744891 10693.17190553
0.04200000 1536483.70603154 11892.38443641
0.04300000 1529816.65270733 19183.90171543
0.04400000 1523028.28660020 17476.75040039
0.04500000 1516120.25933430 14645.72238568
0.04600000 1509093.40978859 17022.57445374
0.04700000 1501951.99820146 11895.46037899
0.04800000 1494697.89689396 13183.23606400
0.04900000 1487333.42457939 12270.50132394
0.05000000 1479860.28392103 14717.21120892
0.05100000 1472282.47596377 12632.18423223
0.05200000 1464599.55428161 12807.92369906
0.05300000 1456816.64220706 14160.25842237
0.05400000 1448934.94707834 15539.82803210
0.05500000 1440957.97885329 16945.66662182
0.05600000 1432886.93150114 17151.65737044
0.05700000 1424726.05585577 14874.14071744
0.05800000 1416475.31323944 15042.96852900
0.05900000 1408138.51641731 13940.57196364
0.06000000 1399719.53576685 15368.92122074
0.06100000 1391219.60896890 23289.01734247
0.06200000 1382641.82415621 14372.56243393
0.06300000 1373989.17624338 21104.47473384
0.06400000 1365261.40700296 14642.42927489
0.06500000 1356464.32969092 14771.89724133
0.06600000 1347600.01447454 13543.38077914
0.06700000 1338669.13025166 13654.42576758
0.06800000 1329676.61918249 15138.36901801
0.06900000 1320625.15472900 18026.53420603
0.07000000 1311514.63393733 15364.39465607
0.07100000 1302349.85355273 23911.14443117
0.07200000 1293132.64324027 25487.64559228
0.07300000 1283866.46302593 15676.01024806
0.07400000 1274553.93381119 15772.60567008
0.07500000 1265196.15019463 20192.53150358
0.07600000 1255796.03222435 17405.33382260
0.07700000 1246357.83182121 16040.62604766
0.07800000 1236882.12341183 20519.87538971
0.07900000 1227371.53244795 14728.45908020
0.08000000 1217831.19049439 17755.97959036
0.08100000 1208261.51536936 17833.94080359
0.08200000 1198663.88534067 14923.36607277
0.08300000 1189042.40810677 14981.93504528
0.08400000 1179399.52735864 19548.54808355
0.08500000 1169737.30693048 16598.57316457
0.08600000 1160058.69020771 19680.39660340
0.08700000 1150365.23940403 15184.82187318
0.08800000 1140659.19798755 18273.36120995
0.08900000 1130944.08874492 21374.84428125
0.09000000 1121221.46859126 16835.14114174
0.09100000 1111493.84530764 19940.20052163
0.09200000 1101762.74568849 19980.46833188
0.09300000 1092032.47796626 21556.72212805
0.09400000 1082302.19503815 15422.80700413
0.09500000 1072575.72670736 18534.10942866
0.09600000 1062854.71318843 17010.99048423
0.09700000 1053144.47547481 18577.46942075
0.09800000 1043443.33458887 20143.67452135
0.09900000 1033755.71242606 20158.23734020
0.10000000 1024080.17835430 17066.29697485
0.10100000 1014421.96572792 18624.78816672
0.10200000 1004782.07595749 29495.37922709
0.10300000 995162.21513867 18629.43754374
0.10400000 985565.14749285 20179.44734426
0.10500000 975993.77066490 17070.13185207
0.10600001 966444.84133103 17062.58447655
0.10700001 956926.14295944 20152.86551907
0.10800001 947435.51064768 20137.74272653
0.10900001 937977.04042813 21667.27065367
0.11000001 928551.54867454 17006.42241446
0.11100001 919159.97953452 20074.45489801
0.11200001 909805.01824361 21589.67409930
0.11300001 900487.41309011 23097.50323321
0.11400001 891209.16426014 23060.03821100
0.11500001 881972.50556659 18415.58678338
0.11600001 872777.83284039 15317.25168766
0.11700001 863627.04594394 21400.67920635
0.11800001 854520.64259538 21354.47186422
0.11900001 845460.11889632 19783.76771402
0.12000001 836447.14077998 16699.66795231
0.12100001 827484.65634103 15142.96992440
0.12200001 818571.34445249 16612.90621832
0.12300001 809710.13454342 22590.91381812
0.12400001 800900.95636812 16518.58300341
0.12500001 792144.30326760 19462.98644839
0.12600001 783444.22858490 17909.53590941
0.12700001 774799.31720583 16363.76235055
0.12800001 766210.49410713 17791.40851166
0.12900001 757679.49419009 22162.12624961
0.13000001 749207.63503147 16194.12379451
0.13100001 740793.97854633 16134.49361328
0.13200001 732440.61045442 21918.28630108
0.13300001 724149.31630833 21833.10291597
0.13400001 715918.91115660 17396.83036129
0.13500001 707751.58300108 21657.19946093
0.13600001 699646.49207799 15815.50969914
0.13700001 691605.87080314 18611.11486089
0.13800001 683628.51321127 14253.65517260
0.13900001 675717.36548447 17028.07841322
0.14000001 667871.17454574 18363.11881015
0.14100001 660090.71264450 16871.91941092
0.14200001 652376.31535616 18191.51441171
0.14300001 644730.00248263 16711.40245259
0.14400001 637148.39914592 16629.57400212
0.14500001 629636.16711070 19304.64579426
0.14600001 622190.95108349 15091.24223045
0.14700001 614815.59051772 16378.68810408
0.14800001 607505.81494422 16293.30672550
0.14900001 600266.01569651 20258.97898559
0.15000001 593094.00086619 17463.65367949
0.15100001 585991.56581727 17368.79083037
0.15200001 578958.02311141 14615.79598312
0.15300001 571994.76005655 21140.92732931
0.15400001 565097.93199266 13138.52753885
0.15500001 558272.25639761 14369.92855783
0.15600001 551513.43145613 16884.58450090
0.15700001 544826.86336076 15494.87672529
0.15800001 538205.66741119 20537.92923778
0.15900001 531655.83998741 16587.66299055
0.16000001 525172.33866779 19024.36886624
0.16100001 518760.67652809 15127.06204162
0.16200001 512416.13234536 18792.86254090
0.16300001 506139.71286291 12451.03752421
0.16400001 499931.73257867 13610.64206201
0.16500001 493790.98889176 14754.47544466
0.16600001 487719.08523124 15882.57276042
0.16700001 481712.83328685 14566.99676637
0.16800001 475773.29827194 15679.10978486
0.16900001 469902.55753762 15577.27051790
0.17000001 464096.77781287 14284.89949561
0.17100001 458356.59841674 13008.16087733
0.17200001 452682.92929044 15271.25934077
0.17300001 447074.19510595 16336.09186063
0.17400001 441530.56195589 15067.23113831
0.17500001 436051.00270014 11511.74701496
0.17600001 430633.94234758 13719.99805118
0.17700001 425282.41334459 11355.04097261
0.17800001 419992.39644599 14659.83529036
0.17900001 414765.64048949 14558.27466882
0.18000001 409600.63817575 13344.78942211
0.18100001 404498.78409004 12147.09906001
0.18200001 399455.17311877 19737.08103614
0.18300001 394473.29830787 13064.95625714
0.18400001 389550.74238792 10810.03361194
0.18500001 384689.28475838 12879.39786216
0.18600001 379884.71834537 13852.49690890
0.18700001 375138.32664218 11636.79144222
0.18800001 370449.28277056 16803.58026038
0.18900001 365819.58214830 15638.78787573
0.19000001 361242.04305564 10349.58502255
0.19100001 356725.03480818 10273.68148791
0.19200001 352260.14685184 11217.72490655
0.19300001 347851.74972231 11134.73503476
0.19400001 343495.72785054 13061.42566872
0.19500001 339193.86231176 11966.76002785
0.19600001 334944.71001253 10887.37831346
0.19700001 330747.13218038 10805.50931898
0.19800001 326601.67024009 14623.59047609
0.19900001 322507.34957819 10642.74303906
0.20000001 318461.98945203 12482.11826649
0.20100001 314467.56835926 10481.20454878
0.20200001 310520.91739244 10400.89861964
0.20300001 306623.79520553 10320.95743443
0.20400001 302774.04976711 13034.42345856
0.20500001 298970.78192410 12009.65687755
0.20600001 295214.12652488 13749.59859281
0.20700001 291504.05167604 10004.41952642
0.20800001 287837.55153517 12633.19073405
0.20900001 284218.60551748 10743.46379642
0.21000001 280641.04664580 11546.97641009
0.21100001 277107.61249687 9693.22474337
0.21200001 273616.89736969 9616.26631266
0.21300001 270167.26293161 9539.60650510
0.21400001 266760.22976262 11183.92316153
0.21500001 263395.22415528 11094.20736593
0.21600001 260069.08645292 12697.87374640
0.21700001 256783.34987211 8396.81593782
0.21800001 253536.67896333 9994.41635728
0.21900001 250327.93022600 9912.98650565
0.22000001 247157.02423966 10651.23246323
0.22100001 244025.17159253 13001.66175721
0.22200001 240929.87985511 8865.01534845
0.22300001 237870.10711813 8791.67957480
0.22400001 234845.58222283 9511.24652978
0.22500001 231858.68932873 14148.01789186
0.22600001 228904.32567909 13250.12751851
0.22700001 225986.56262591 7728.74080729
0.22800001 223101.04008660 8429.87319832
0.22900001 220248.11253963 8358.41626616
0.23000001 217429.35337545 10547.49843105
0.23100001 214643.29993133 7469.58719087
0.23200001 211887.43158048 9627.10590916
0.23300001 209163.35156994 9544.12418352
0.23400001 206470.93172842 8005.91075641
0.23500001 203807.08436317 8657.72535323
0.23600001 201174.99142290 7151.77128334
0.23700001 198571.69182808 9215.71265362
0.23800001 195997.63538511 9837.12178526
0.23900001 193451.96228882 7660.69806898
0.24000001 190934.32286884 8282.73131783
0.24100001 188445.86089419 8892.76059623
0.24200001 185984.36888744 9490.78279326
0.24300001 183549.57301699 6717.91469020
0.24400001 181141.44167475 9319.72761502
0.24500001 178759.80030227 7255.86063750
0.24600001 176404.06542294 9150.07930633
0.24700001 174074.31983392 7123.12150457
0.24800001 171769.97685865 6415.60893917
0.24900001 169489.58094476 7627.03150333
0.25000001 167234.81588147 6296.39111581
0.25100001 165003.05587306 6860.82738778
0.25200001 162797.15001894 6795.96734906
0.25300001 160614.67905826 7343.30347396
0.25400001 158454.93801989 6666.99183261
0.25500001 156318.14230524 7203.14033822
0.25600001 154204.74612101 8916.88986633
0.25700001 152113.49462101 6475.47177239
0.25800001 150044.80370531 6412.16498973
0.25900001 147998.38581094 6349.13105170
0.26000001 145973.79442636 5714.87432219
0.26100001 143969.68583181 9052.81427345
0.26200001 141988.34597645 6721.72861658
0.26300001 140026.94246590 8317.60077604
0.26400001 138086.88686437 7684.53561762
0.26500001 136167.97576495 8149.65373516
0.26600001 134268.48977310 6452.94392385
0.26700001 132390.21702845 6386.50437166
0.26800001 130532.41841264 9480.56999794
0.26900001 128692.90655775 5733.26925846
0.27000001 126874.34258815 6188.93072432
0.27100001 125074.74112172 7144.26955096
0.27200001 123295.85436674 8583.24130793
0.27300001 121535.16760555 5494.60518747
0.27400001 119791.70817503 4941.40819607
0.27500001 118070.01764147 6354.52865019
0.27600001 116364.35319175 5801.92692472
0.27700001 114679.33926088 5260.34154085
0.27800001 113011.39271614 5202.47970991
0.27900001 111362.87771677 5612.68930256
0.28000001 109731.22118432 6012.72254937
0.28100001 108118.34268524 4573.40611204
0.28200001 106523.73180985 5426.31915522
0.28300001 104946.34299635 5364.85730789
0.28400001 103386.35983597 5745.69721983
0.28500001 101844.45785575 6116.77842833
0.28600001 100319.62653687 4318.76012683
0.28700001 98811.99952207  4695.54643954
0.28800001 97320.84582810  4640.74475297
0.28900001 95848.90662047  7088.02698009
0.29000001 94391.97871997  5356.27308600
0.29100001 92952.93459767  5292.74034652
0.29200001 91530.54441172  4827.32114078
0.29300001 90124.95038085  4769.41259992
0.29400001 88735.12608202  5104.48836950
0.29500001 87362.95551082  5042.59003079
0.29600001 86006.49003103  4981.06610594
0.29700001 84666.30808859  4163.04256579
0.29800001 83342.33220574  5233.06528692
0.29900001 82035.29106575  4429.90592726
0.30000001 80743.16042496  4374.66463892
0.30100001 79468.29483379  3959.90531903
0.30200001 78207.77054733  4620.90634155
0.30300001 76964.46367076  3860.53768049
0.30400001 75736.57633332  4504.43309067
0.30500001 74524.12959408  6499.24964959
0.30600001 73326.45194106  4389.68825327
0.30700001 72145.55418461  4666.37466558
0.30800001 70979.40542829  4276.86427656
0.30900001 69828.81257323  3247.03993838
0.31000001 68693.84094971  3845.48139843
0.31100001 67573.04096736  3478.66031370
0.31200001 66467.94261670  4368.93807505
0.31300001 65377.61847756  3387.21457369
0.31400001 64303.05343732  3645.98330252
0.31500001 63242.22615088  4196.75432608
0.31600002 62196.87821159  4436.19254848
0.31700002 61166.07134183  3792.90826349
0.31800002 60149.96260402  3453.81101626
0.31900002 59148.58439056  3974.78505925
0.32000002 58161.62934828  3360.57910287
0.32100002 57188.38750453  3590.85902144
0.32200002 56230.95257585  2724.38978130
0.32300002 55285.75470382  3224.26536700
0.32400002 54355.51780575  3709.76426590
0.32500002 53439.32881428  3919.77495414
0.32600002 52537.35103985  3092.34862863
0.32700002 51648.58682928  2541.11059233
0.32800002 50774.52766050  2756.29536457
0.32900002 49913.36548238  4447.28107507
0.33000002 49066.64878798  2436.15922769
0.33100002 48231.33156504  2882.30451082
0.33200002 47412.06170932  2605.05585398
0.33300002 46604.98968168  3035.38312171
0.33400002 45811.32635601  3222.82696176
0.33500002 45030.08644637  3177.32305012
0.33600002 44262.65952060  2461.22529920
0.33700002 43507.35201118  2867.56970686
0.33800002 42766.00096510  2392.11637727
0.33900002 42036.11030425  3215.76259057
0.34000002 41319.69555613  2958.90353890
0.34100002 40615.21344941  2916.98476808
0.34200002 39923.92595821  2875.72052296
0.34300002 39243.91809787  2227.48489673
0.34400002 38577.52160818  2794.94157288
0.34500002 37922.12271231  2755.42156677
0.34600002 37279.61060656  2134.44420637
0.34700002 36647.69743366  2295.61187597
0.34800002 36028.83783096  1886.10974978
0.34900002 35420.94124612  1859.59950350
0.35000002 34824.94651542  2200.24022505
0.35100002 34240.73026506  2531.07490107
0.35200002 33666.79302972  2495.71948550
0.35300002 33104.44270519  2285.19978817
0.35400002 32553.42679932  2080.16407100
0.35500002 32013.64469478  2393.34019074
0.35600002 31483.71746750  2023.14378029
0.35700002 30965.13286824  2161.67602792
0.35800002 30457.37484839  1804.14268460
0.35900002 29960.31882873  1779.64302272
0.36000002 29473.81050125  2234.40967993
0.36100002 28996.71878266  2991.59161851
0.36200002 28530.95638244  1708.86171347
0.36300002 28074.27432287  2145.99763089
0.36400002 27627.58345212  1663.87129222
0.36500002 27190.53563824  1642.03652497
0.36600002 26763.49473637  1620.66350053
0.36700002 26345.67534208  1599.70948255
0.36800002 25938.54921305  1866.40839703
0.36900002 25539.81859735  1559.20599923
0.37000002 25149.77987459  2659.21210101
0.37100002 24768.95707551  1520.31865731
0.37200002 24397.71029075  1501.55715097
0.37300002 24034.72990843  2022.52261760
0.37400002 23680.71609272  1332.04034332
0.37500002 23335.41673550  1842.56459272
0.37600002 22998.89848382  2080.94043339
0.37700002 22670.01485269  1928.08485456
0.37800002 22349.45953842  1397.62351844
0.37900002 22037.64045155  1758.60379134
0.38000002 21733.58174141  1614.69653197
0.38100002 21436.38457447  1719.62685203
0.38200002 21147.92971510  2186.90751544
0.38300002 20866.48609830  1682.67351868
0.38400002 20593.36099526  1427.11998458
0.38500002 20326.50448392  1529.97606499
0.38600002 20068.08870085  1514.43838556
0.38700002 19815.73210751  1499.25836228
0.38800002 19570.98232151  1484.55693433
0.38900002 19332.33622532  1130.94172276
0.39000002 19101.79483589  1456.41641626
0.39100002 18876.86389004  1331.95157918
0.39200002 18658.84650220  1209.93295876
0.39300002 18446.97692880  1635.32458221
0.39400002 18242.70516925  1297.05639898
0.39500002 18043.47880865  1393.31749962
0.39600002 17850.50277226  1275.59698854
0.39700002 17663.32505433  1370.85072241
0.39800002 17482.46496696  1150.95813563
0.39900002 17306.85552835  1349.93479517
0.40000002 17136.86290782  1340.01705857
0.40100002 16972.83241409  1535.19276459
0.40200002 16814.19751805  1219.70194575
0.40300002 16660.41200277  1211.54521824
0.40400002 16512.18183233  1003.11509384
0.40500002 16369.27661323  1096.57789228
0.40600002 16231.08378279  990.90771189
0.40700002 16098.04113476  1182.24019695
0.40800002 15969.50281177  1273.64775710
0.40900002 15845.74295633  1071.96456179
0.41000002 15727.12308264  1066.53490238
0.41100002 15612.30338736  1543.74463209
0.41200002 15501.91294882  1152.41226322
0.41300002 15396.56991906  1147.35244473
0.41400002 15294.62326997  1047.29937804
0.41500002 15197.24599702  1137.96983418
0.41600002 15103.27597728  1417.06493571
0.41700002 15013.61830626  1223.76008613
0.41800002 14928.69567152  1501.22970786
0.41900002 14845.67344466  1122.33296560
0.42000002 14767.47124227  1212.33560908
0.42100002 14693.12007972  930.07454512
0.42200002 14622.08724804  1020.54862784
0.42300002 14553.94475355  1203.32020924
0.42400002 14489.19250222  923.68606579
0.42500002 14428.00915607  1106.33979451
0.42600002 14369.07607611  1012.37330291
0.42700002 14314.48058549  1102.78763656
0.42800002 14262.18346110  1284.88016890
0.42900002 14213.62901980  1100.13493826
0.43000002 14167.36276181  1282.28806434
0.43100002 14123.05014512  1098.20843133
0.43200002 14082.49531499  1097.58973686
0.43300002 14044.22182028  1188.56254897
0.43400002 14008.48311104  1188.26963620
0.43500002 13975.10283713  1188.16329952
0.43600002 13944.57217211  1005.47342412
0.43700002 13915.67511814  1188.53786816
0.43800002 13888.89784705  1097.50075988
0.43900002 13865.25611021  915.10694664
0.44000002 13843.10794056  915.72163366
0.44100002 13823.36700196  1191.43605836
0.44200002 13805.37978541  917.36753021
0.44300002 13789.54912170  1102.06081803
0.44400002 13775.82108631  1195.39693142
0.44500002 13762.62137688  1104.86329650
0.44600002 13751.81737859  1014.26533883
0.44700002 13743.59144170  923.56938865
0.44800002 13735.57864901  1480.14602536
0.44900002 13730.79203501  1204.87705817
0.45000002 13726.76655683  1207.20054205
0.45100002 13724.00308012  1023.53619822
0.45200002 13722.90449008  1398.70710644
0.45300002 13722.78870569  1121.42634618
0.45400002 13724.52029939  1030.36841031
0.45500002 13727.38263659  938.95301684
0.45600002 13731.43739168  1411.93511672
0.45700002 13736.65131160  1132.44958780
0.45800002 13742.68048597  1135.42031556
0.45900002 13749.72130418  1043.60389645
0.46000002 13758.67628692  1427.11876550
0.46100002 13767.48526875  1049.49545178
0.46200002 13778.12848111  1052.58017520
0.46300002 13789.71072746  1151.71669454
0.46400002 13801.33819325  1347.70073845
0.46500002 13814.48878696  1062.19609317
0.46600002 13828.01439545  1356.11343604
0.46700002 13842.00562950  1068.87972537
0.46800002 13857.78692269  1169.87442746
0.46900002 13873.17293671  978.05873839
0.47000002 13889.58143863  1373.81856521
0.47100002 13906.47928947  1083.03665840
0.47200002 13924.32440209  1284.31012210
0.47300002 13942.73642696  1387.86004972
0.47400002 13960.85332488  1193.65301585
0.47500002 13979.93226738  1197.80065344
0.47600002 13999.80873474  1202.02363494
0.47700002 14019.39027420  1105.70936333
