# SAXS profile: number of points = 501, q_min = 0, q_max = 0.5, delta_q = 0.001
#    q    intensity    error
0.00000000 1700912.83420644 331.67800267
0.00100000 1700825.13942698 816.39608631
0.00200000 1700562.03493416 841.77823395
0.00300000 1700123.71701045 1326.09654651
0.00400000 1699510.10933379 1274.63263043
0.00500000 1698721.81049604 2140.38956594
0.00600000 1697758.70762810 2139.17605870
0.00700000 1696621.53538953 3461.10807604
0.00800000 1695310.06416090 3433.00302487
0.00900000 1693825.79497233 3557.03432150
0.01000000 1692167.96675434 3350.49271885
0.01100000 1690338.29575453 3651.13087780
0.01200000 1688336.65036967 3621.48227382
0.01300000 1686164.36292955 4957.32344565
0.01400000 1683821.59139362 6819.47774746
0.01500000 1681310.07221339 4035.14435299
0.01600000 1678629.20258115 5136.60558952
0.01700000 1675781.38798444 5429.53194063
0.01800000 1672767.05657178 5720.86359090
0.01900000 1669587.26861259 6511.39064140
0.02000000 1666242.74057150 5773.53135725
0.02100000 1662736.27795021 7681.84195241
0.02200000 1659066.51457578 7440.91365593
0.02300000 1655236.50182999 7746.50718117
0.02400000 1651246.88400528 8669.04653632
0.02500000 1647100.27428934 8350.79877203
0.02600000 1642796.66400975 7318.65947291
0.02700000 1638338.41127183 7569.12380675
0.02800000 1633725.63079705 7106.70681988
0.02900000 1628962.11994562 9529.42883922
0.03000000 1624048.17500501 9062.18923307
0.03100000 1618985.49834049 10102.46997449
0.03200000 1613775.53739033 7988.18927800
0.03300000 1608422.48576935 11484.13707782
0.03400000 1602924.53517064 10098.42503752
0.03500000 1597285.90402672 10350.41313606
0.03600000 1591507.27913966 8832.86580742
0.03700000 1585591.85749077 15364.38580965
0.03800000 1579540.90070718 12012.40910581
0.03900000 1573357.34015216 11328.17337370
0.04000000 1567040.88979942 9637.30191885
0.04100000 1560595.83526588 10814.92963984
0.04200000 1554023.82672737 11025.79956215
0.04300000 1547326.52068028 11233.59106158
0.04400000 1540507.20572887 15597.63618239
0.04500000 1533567.63784082 16930.58750844
0.04600000 1526508.68485210 11838.07540134
0.04700000 1519334.38256559 16408.81209485
0.04800000 1512046.83087037 18893.02603078
0.04900000 1504648.14682574 11284.86162648
0.05000000 1497140.28400340 13743.74844714
0.05100000 1489527.06753106 16265.63633516
0.05200000 1481808.10019538 14136.44993464
0.05300000 1473988.58928939 16715.03138176
0.05400000 1466069.66769192 14514.09038700
0.05500000 1458054.83851297 14697.19345782
0.05600000 1449945.33033582 13636.73646816
0.05700000 1441745.40126909 15051.82269185
0.05800000 1433454.98892157 16491.90041759
0.05900000 1425077.97454306 14108.27260691
0.06000000 1416618.05544018 18146.87813799
0.06100000 1408076.71661735 14404.62548414
0.06200000 1399456.92759639 15869.84230076
0.06300000 1390761.74067185 17356.70733510
0.06400000 1381990.84380321 14821.85249296
0.06500000 1373149.95665728 20391.27781022
0.06600000 1364241.32985919 16452.75120790
0.06700000 1355265.65470431 17970.82342239
0.06800000 1346227.73765045 20900.18660534
0.06900000 1337130.43704328 16847.84429554
0.07000000 1327973.41569882 15557.20929343
0.07100000 1318761.49128543 17091.14972757
0.07200000 1309496.84205486 15772.89020146
0.07300000 1300182.73062475 20204.84058062
0.07400000 1290821.69835514 17426.09374445
0.07500000 1281414.78316272 16068.94213405
0.07600000 1271965.07474276 14691.19730201
0.07700000 1262476.74697850 16248.07649546
0.07800000 1252950.38581378 20786.44787546
0.07900000 1243388.92571464 19396.86815093
0.08000000 1233796.85555067 19487.82224762
0.08100000 1224175.24955772 19574.56315883
0.08200000 1214525.23567756 22681.25984060
0.08300000 1204850.72727534 21253.56782661
0.08400000 1195154.35820683 18285.86253888
0.08500000 1185438.41593000 18350.58754007
0.08600000 1175705.47450395 18411.54859518
0.08700000 1165957.22428814 21546.89051664
0.08800000 1156196.06053254 24696.34901281
0.08900000 1146425.26358797 23215.11267806
0.09000000 1136646.59917560 26375.88557289
0.09100000 1126862.59269091 15550.70450972
0.09200000 1117074.52850274 20258.14752626
0.09300000 1107287.10015945 20296.57349970
0.09400000 1097498.95734690 15639.36087720
0.09500000 1087714.54354435 15663.09016325
0.09600000 1077935.13246310 21957.53968045
0.09700000 1068165.91338929 15702.03966502
0.09800000 1058405.70481671 20432.52309218
0.09900000 1048658.48215885 17302.86576924
0.10000000 1038923.04791222 20461.59039088
0.10100000 1029204.52096784 28344.29384054
0.10200000 1019504.19808271 17326.47466139
0.10300000 1009823.14606030 15753.24181958
0.10400000 1000164.93055313 22053.63775621
0.10500000 990531.71330502 29923.96446685
0.10600001 980920.91913584 18892.53779152
0.10700001 971339.98650082 17309.27937398
0.10800001 961786.77432693 18870.25740036
0.10900001 952265.35155974 23568.56856037
0.11000001 942776.77246160 15697.23400035
0.11100001 933321.66891975 18815.76573114
0.11200001 923902.97150193 15660.15610419
0.11300001 914521.26173177 21893.64003663
0.11400001 905178.73371018 24982.93422671
0.11500001 895877.69680277 20264.75445591
0.11600001 886618.02178298 15560.14701504
0.11700001 877402.23841178 23295.03052691
0.11800001 868230.38092819 20147.28693834
0.11900001 859104.40027375 18556.65591996
0.12000001 850025.63492055 20056.35580070
0.12100001 840997.21675940 20007.32472921
0.12200001 832017.54408913 21491.01417629
0.12300001 823090.02432840 16840.42269119
0.12400001 814214.10902908 15266.51526361
0.12500001 805390.60855080 16744.07154076
0.12600001 796623.38040870 16693.24372311
0.12700001 787911.34437668 16640.68837745
0.12800001 779255.04357803 16586.44438427
0.12900001 770656.57249253 15027.80387190
0.13000001 762116.89923853 16473.15755350
0.13100001 753635.32970306 16414.17825466
0.13200001 745213.89300441 16353.71965290
0.13300001 736854.41967847 16291.85198714
0.13400001 728555.44065041 16228.57320559
0.13500001 720319.71338066 17633.42741494
0.13600001 712145.94672532 20488.43985333
0.13700001 704036.63819980 20402.98273710
0.13800001 695990.30496355 20315.95795990
0.13900001 688010.18127438 14448.21448811
0.14000001 680095.02205080 20137.61455263
0.14100001 672245.37755592 18614.47538244
0.14200001 664461.66224839 17103.24399295
0.14300001 656745.91827369 19859.99750534
0.14400001 649094.99538464 15529.59849711
0.14500001 641513.08072693 16858.96455678
0.14600001 633998.29626275 19571.52832891
0.14700001 626553.23853674 16691.37906206
0.14800001 619173.83063656 19373.95007466
0.14900001 611864.07119498 23403.80182742
0.15000001 604622.37718846 13694.69748947
0.15100001 597450.01797671 14984.04715788
0.15200001 590346.64184070 18967.83849738
0.15300001 583313.50071822 18864.35950342
0.15400001 576346.70153878 18760.08602039
0.15500001 569450.97046424 14657.66867149
0.15600001 562622.21125582 22524.58129067
0.15700001 555865.69448728 15808.82109734
0.15800001 549174.45528810 18336.93592755
0.15900001 542554.60371607 15625.57332456
0.16000001 536001.26131659 15533.31728617
0.16100001 529519.58881790 18014.25726193
0.16200001 523105.21574271 15347.90775441
0.16300001 516758.85375318 15254.72208294
0.16400001 510480.98898160 15161.28608851
0.16500001 504270.41539710 16323.23411705
0.16600001 498128.68878402 13725.93666749
0.16700001 492052.73732304 12399.72956599
0.16800001 486043.64120745 17249.68964092
0.16900001 480103.29561946 13466.89807801
0.17000001 474227.77660190 13380.33734864
0.17100001 468418.12772585 20544.82005221
0.17200001 462674.95096183 14407.69865332
0.17300001 456996.97205874 11927.62153401
0.17400001 451384.23434145 11848.83671104
0.17500001 445835.39894612 15301.07161446
0.17600001 440349.18271890 15198.65275936
0.17700001 434928.77900815 15096.37863238
0.17800001 429569.79287741 13840.73938024
0.17900001 424274.27478210 13746.48715224
0.18000001 419040.51210621 12514.64548518
0.18100001 413870.18381355 19207.71613809
0.18200001 408758.12539688 14586.53439383
0.18300001 403708.06447257 16713.51465870
0.18400001 398717.27970690 16596.60755184
0.18500001 393787.83230589 10986.68104037
0.18600001 388915.29850163 14181.79702986
0.18700001 384101.26383362 11914.82176703
0.18800001 379344.60264224 19357.95598742
0.18900001 374647.45418500 16016.17942313
0.19000001 370002.48293246 11660.62880057
0.19100001 365418.43850171 12628.86183133
0.19200001 360886.52454677 13581.96499308
0.19300001 356411.24013352 12445.88109356
0.19400001 351988.67840756 12354.80319592
0.19500001 347620.33796845 18396.06915460
0.19600001 343304.79926394 11159.12302741
0.19700001 339041.18782472 13090.38088053
0.19800001 334829.84928695 11993.60576826
0.19900001 330669.71818857 10912.10121593
0.20000001 326558.88330978 11814.90095653
0.20100001 322499.08641623 13680.41189234
0.20200001 318487.30051485 10667.73263494
0.20300001 314525.15118179 9624.47008106
0.20400001 310610.64474841 10506.40555521
0.20500001 306742.99154412 11374.03066407
0.20600001 302922.07365376 12227.45008100
0.20700001 299147.84397164 11200.09580772
0.20800001 295417.41461929 10187.47002471
0.20900001 291734.93308572 11946.54607459
0.21000001 288093.85631559 12765.43937680
0.21100001 284497.28273616 9047.01401869
0.21200001 280943.59239711 10771.37784172
0.21300001 277431.19331240 9796.09589898
0.21400001 273961.63024901 8835.26299323
0.21500001 270534.44463248 11394.91134664
0.21600001 267146.32280454 9565.17454024
0.21700001 263798.79045247 9488.84294120
0.21800001 260490.65860886 11124.25410185
0.21900001 257220.63305725 10185.93755067
0.22000001 253988.67340565 8419.72492150
0.22100001 250796.03686574 10021.81010702
0.22200001 247640.30329429 12425.35280532
0.22300001 244520.30144614 13145.41202733
0.22400001 241435.76618423 11407.84049164
0.22500001 238389.21326875 11313.95259674
0.22600001 235375.38010415 9617.43848585
0.22700001 232398.54575218 10332.43983275
0.22800001 229454.05871187 7881.74728948
0.22900001 226542.46082870 11723.57290230
0.23000001 223665.49273941 10075.01259691
0.23100001 220821.31539788 11526.87320891
0.23200001 218007.57252408 7619.36502006
0.23300001 215226.05806589 8309.87849494
0.23400001 212476.41955293 9736.73238652
0.23500001 209755.45647827 7425.34351052
0.23600001 207066.90439849 7361.22879953
0.23700001 204407.15049158 8756.80274124
0.23800001 201776.97753717 7957.07548554
0.23900001 199175.51438386 7887.35074267
0.24000001 196602.42975450 11371.48507488
0.24100001 194058.76852584 7748.76699376
0.24200001 191542.30812552 9076.23269985
0.24300001 189052.88856618 8995.13686347
0.24400001 186590.51834592 7542.92206094
0.24500001 184154.85762692 8833.90893825
0.24600001 181745.40863672 9427.13479194
0.24700001 179362.25346043 8006.73137324
0.24800001 177004.89644154 7272.24651433
0.24900001 174671.68253338 7860.22608585
0.25000001 172364.41315349 11032.18478580
0.25100001 170080.35878817 7714.84543961
0.25200001 167822.70679772 6368.87202428
0.25300001 165588.56412598 7570.70951001
0.25400001 163377.59861828 6874.11278709
0.25500001 161189.79111728 8046.59475327
0.25600001 159025.72463929 6743.48617238
0.25700001 156884.18223570 9714.26902365
0.25800001 154765.47196612 7215.16664444
0.25900001 152669.35527525 9526.56821992
0.26000001 150595.33343194 7664.54985767
0.26100001 148542.19922402 6421.47957629
0.26200001 146512.06123977 10403.82196091
0.26300001 144502.07094765 6866.73873635
0.26400001 142514.02208704 7364.41243982
0.26500001 140547.31369814 7290.18950649
0.26600001 138600.25018348 7216.22236727
0.26700001 136674.76373762 7692.05606714
0.26800001 134770.06150964 7613.16113494
0.26900001 132884.07445618 5919.98579717
0.27000001 131019.24882755 5858.52598856
0.27100001 129173.78910132 5797.31992921
0.27200001 127349.30808041 6779.44073649
0.27300001 125543.29379610 7223.76146689
0.27400001 123754.91711326 8167.82491602
0.27500001 121988.46754009 6060.38735420
0.27600001 120238.38130230 4995.90497955
0.27700001 118509.46199786 5436.02927911
0.27800001 116797.93856284 5865.59275223
0.27900001 115105.87559104 5801.33640435
0.28000001 113431.13481782 5259.23481474
0.28100001 111775.47147552 5673.72320063
0.28200001 110138.42507446 5142.91400226
0.28300001 108518.86599869 6009.77508345
0.28400001 106917.17516302 4570.70945455
0.28500001 105333.70392019 4970.69772326
0.28600001 103767.73957113 4467.20139998
0.28700001 102219.28953835 5299.04822049
0.28800001 100687.57740664 7420.17136820
0.28900001 99175.39881597  4745.54305797
0.29000001 97678.47392812  4263.66558878
0.29100001 96199.95197767  5477.62552489
0.29200001 94738.15262567  5829.23880699
0.29300001 93293.66149440  5759.95093332
0.29400001 91865.21588385  4878.04319434
0.29500001 90454.66665249  4819.42486738
0.29600001 89060.10484373  4761.15343033
0.29700001 87682.28189941  5879.09727966
0.29800001 86320.76268653  3871.48638976
0.29900001 84976.71046787  4971.13779770
0.30000001 83647.72257018  4532.03382340
0.30100001 82336.38198954  5967.74124912
0.30200001 81039.71063953  3683.25502293
0.30300001 79760.46203816  4000.78496524
0.30400001 78496.91487916  5027.72763603
0.30500001 77249.19709390  3545.73831447
0.30600001 76016.56729236  3850.61939849
0.30700001 74800.98435280  4492.54733292
0.30800001 73600.57115187  4093.66396128
0.30900001 72415.82136568  3704.06943822
0.31000001 71247.09482799  3988.41255730
0.31100001 70092.79560669  4592.48018558
0.31200001 68954.48206912  4208.63701235
0.31300001 67831.35070213  4153.31380014
0.31400001 66724.32121522  3467.99675936
0.31500001 65631.11386745  3422.00643907
0.31600002 64553.73178405  3990.38911917
0.31700002 63491.16096229  4845.64563407
0.31800002 62443.65497119  2987.92903185
0.31900002 61411.22536301  3832.06064410
0.32000002 60393.45299898  3198.73938955
0.32100002 59389.60253263  4015.92511341
0.32200002 58401.98090879  2829.57610901
0.32300002 57426.67818237  3907.31136854
0.32400002 56466.82049830  3853.86068149
0.32500002 55521.25086645  3800.98501430
0.32600002 54590.15374474  3213.17660157
0.32700002 53672.59024403  3168.82987806
0.32800002 52769.94081055  2864.61637255
0.32900002 51880.44960401  3081.69885241
0.33000002 51005.72853858  2532.43454186
0.33100002 50142.78601986  2497.11086204
0.33200002 49295.91991632  3693.49697464
0.33300002 48461.66277121  3884.68707170
0.33400002 47641.16396322  2393.96860252
0.33500002 46833.21583788  2360.39419001
0.33600002 46039.42879052  2560.02255913
0.33700002 45257.97882858  3671.32741644
0.33800002 44490.87315641  2941.06930929
0.33900002 43735.35830118  2676.60405479
0.34000002 42993.63366931  2199.12446633
0.34100002 42264.10994280  2168.14894275
0.34200002 41548.11571393  2351.41572019
0.34300002 40843.46862334  2529.02769693
0.34400002 40152.91336866  2493.49603829
0.34500002 39473.42500287  2868.13919654
0.34600002 38807.09673962  2221.90042906
0.34700002 38151.70135833  2190.67079575
0.34800002 37509.64003578  2749.08164842
0.34900002 36878.65564828  3291.42017250
0.35000002 36259.97741447  1909.08790129
0.35100002 35653.17684853  2823.73174014
0.35200002 35057.05981698  2041.89854575
0.35300002 34472.67425985  2196.59890788
0.35400002 33899.83432225  2346.71614211
0.35500002 33338.60437508  2670.42233693
0.35600002 32787.41228529  2282.49581435
0.35700002 32247.68797267  2424.38129662
0.35800002 31719.10548238  1708.07391113
0.35900002 31201.47567240  1853.36774273
0.36000002 30694.66606287  1662.11624603
0.36100002 30197.35383395  1967.65966902
0.36200002 29711.81790099  2264.93198587
0.36300002 29235.45057635  2554.00908333
0.36400002 28769.29593771  1890.14283264
0.36500002 28312.98852778  1865.25977256
0.36600002 27867.03748950  1534.08048646
0.36700002 27430.44935827  2422.65740208
0.36800002 27004.75659947  2092.59868802
0.36900002 26587.76237036  1475.62088145
0.37000002 26179.56519478  1893.96073373
0.37100002 25780.90131363  2157.86154217
0.37200002 25391.98299280  1704.81781889
0.37300002 25011.53427730  1403.14713942
0.37400002 24640.28882105  1801.82120539
0.37500002 24277.94667856  1506.20388329
0.37600002 23924.54100392  1352.93285786
0.37700002 23579.08140444  1336.93397896
0.37800002 23242.15219380  1321.31641481
0.37900002 22914.17585566  1828.55131990
0.38000002 22594.05348481  1549.50026139
0.38100002 22281.06106539  1404.37534548
0.38200002 21976.94563051  1262.57558629
0.38300002 21680.08698100  1623.40499004
0.38400002 21391.80263655  1358.91432686
0.38500002 21109.86740100  1588.93979455
0.38600002 20836.75993008  1209.57397124
0.38700002 20569.63539121  1436.58340378
0.38800002 20310.46683460  1540.65053473
0.38900002 20057.57027160  1642.71508307
0.39000002 19812.97782091  1278.23432467
0.39100002 19574.10487258  1266.05316314
0.39200002 19342.38962693  1596.32749154
0.39300002 19116.89574617  1468.75116976
0.39400002 18899.35730476  1231.76567070
0.39500002 18686.94939142  1443.00630037
0.39600002 18480.98139171  1430.70524222
0.39700002 18281.04390732  1418.79188487
0.39800002 18087.46902490  1190.78857967
0.39900002 17899.31820482  1073.95914317
0.40000002 17717.09234712  1385.38810172
0.40100002 17540.92934712  1057.71808975
0.40200002 17370.33353786  1365.04772575
0.40300002 17204.76534377  1459.65236092
0.40400002 17044.87713920  1242.57160232
0.40500002 16890.45290112  1131.49149346
0.40600002 16740.90166560  1328.64172364
0.40700002 16596.73485364  1320.43628752
0.40800002 16457.19496150  1211.57875047
0.40900002 16322.59190229  1405.37522938
0.41000002 16193.30483833  1597.30766494
0.41100002 16067.87430369  992.99467902
0.41200002 15947.08243999  1086.71398436
0.41300002 15831.52732564  1278.07926156
0.41400002 15719.54316753  1174.24993025
0.41500002 15612.23987360  1266.46495856
0.41600002 15508.42088392  1164.06212670
0.41700002 15409.14169097  1449.22984471
0.41800002 15314.61539718  1251.28071032
0.41900002 15222.27447506  1822.10634100
0.42000002 15134.94966115  1051.34932803
0.42100002 15051.37515148  952.75209223
0.42200002 14971.39683229  1234.91572623
0.42300002 14894.40984461  947.28451100
0.42400002 14820.98006472  1039.32127629
0.42500002 14751.19772117  1036.86173695
0.42600002 14683.83089351  1128.59929596
0.42700002 14620.87824635  1783.45481300
0.42800002 14560.51455686  1030.66607175
0.42900002 14503.85641416  1216.14841796
0.43000002 14449.60179414  1494.66688041
0.43100002 14397.55355016  1026.25766569
0.43200002 14349.30338330  1211.58348858
0.43300002 14303.39425011  1303.61141373
0.43400002 14260.30029142  1023.53310192
0.43500002 14219.57511950  1208.94833395
0.43600002 14181.86389367  1115.54546674
0.43700002 14145.80876378  929.37967982
0.43800002 14112.04432500  1208.06161169
0.43900002 14081.55880658  1208.19780286
0.44000002 14052.63099897  1022.53974310
0.44100002 14026.24364416  1022.93399745
0.44200002 14001.70259655  1395.61977245
0.44300002 13979.37326149  1303.43682467
0.44400002 13959.38166648  1677.21978671
0.44500002 13939.93454126  1305.61433101
0.44600002 13922.88486223  1120.23536910
0.44700002 13908.72457587  934.66633579
0.44800002 13894.75137641  1310.13616937
0.44900002 13884.08441998  1030.89331704
0.45000002 13874.37559071  1032.46170851
0.45100002 13865.97518726  940.11316225
0.45200002 13859.38874092  941.74550958
0.45300002 13853.74904777  1132.12842584
0.45400002 13850.06365011  1417.90033338
0.45500002 13847.66594777  1136.61647486
0.45600002 13846.54923755  949.18099522
0.45700002 13846.73229602  1141.52466459
0.45800002 13847.70493762  1239.43888918
0.45900002 13849.81012999  1337.89172197
0.46000002 13853.88659436  1053.79593374
0.46100002 13857.89268536  1152.42241033
0.46200002 13863.93098186  1347.99007325
0.46300002 13870.87598483  1061.95431573
0.46400002 13878.01496454  1355.18822552
0.46500002 13886.74215193  1456.02498364
0.46600002 13895.89839887  1265.43004767
0.46700002 13905.56221914  1171.40461686
0.46800002 13917.12372562  979.06970050
0.46900002 13928.39321677  1472.92765249
0.47000002 13940.76880248  1674.35611638
0.47100002 13953.62044010  1086.70801138
0.47200002 13967.55543196  1288.29753633
0.47300002 13982.16161688  1093.54491189
0.47400002 13996.47354655  1296.42342370
0.47500002 14011.81043183  1600.70929960
0.47600002 14028.12147463  1405.19699472
0.47700002 14044.09281678  1107.65765296
