# SAXS profile: number of points = 501, q_min = 0, q_max = 0.5, delta_q = 0.001
#    q    intensity    error
0.00000000 1646666.22097351 370.49989972
0.00100000 1646580.13216819 592.76886166
0.00200000 1646321.82855002 1037.18278483
0.00300000 1645891.53488371 1086.28845172
0.00400000 1645289.10081357 1480.76024700
0.00500000 1644515.22071985 1480.06375723
0.00600000 1643569.70635198 2070.89791431
0.00700000 1642453.30383661 2956.41606978
0.00800000 1641165.83957524 3323.36096545
0.00900000 1639708.67010523 2705.51942133
0.01000000 1638081.19269529 3513.68431005
0.01100000 1636285.01395347 4123.43841469
0.01200000 1634319.97325005 4143.00131383
0.01300000 1632187.52151504 5141.39091953
0.01400000 1629887.73934621 5134.14660654
0.01500000 1627422.20605998 3905.81346847
0.01600000 1624790.53276896 5386.18085691
0.01700000 1621995.06362306 5255.26424188
0.01800000 1619036.14160048 5075.67853231
0.01900000 1615914.79534094 4847.74460477
0.02000000 1612631.90153517 7111.70700747
0.02100000 1609189.95829998 7434.45794441
0.02200000 1605587.77369830 6647.13368511
0.02300000 1601828.52748153 8649.87444213
0.02400000 1597912.65145450 6591.38998780
0.02500000 1593842.59939825 6215.98642154
0.02600000 1589618.75844015 7081.75189276
0.02700000 1585243.07705873 7323.82335145
0.02800000 1580715.95348642 9626.56059820
0.02900000 1576040.85015084 7801.40256644
0.03000000 1571218.32912619 8767.39867952
0.03100000 1566250.05431246 7518.00060663
0.03200000 1561137.21202402 10045.91842207
0.03300000 1555883.85127963 8728.50880807
0.03400000 1550488.56084666 8954.07185203
0.03500000 1544955.65492526 12514.14138277
0.03600000 1539285.33085301 9397.33737914
0.03700000 1533481.05995696 9614.92669060
0.03800000 1527543.89922200 13404.19833601
0.03900000 1521476.65896315 13693.29056480
0.04000000 1515279.41228759 10250.86569914
0.04100000 1508956.27433384 11407.70996290
0.04200000 1502508.71043091 10660.29979507
0.04300000 1495938.33440620 14809.79019806
0.04400000 1489248.52539912 16083.88482128
0.04500000 1482441.04803707 17389.03430145
0.04600000 1475516.64943045 11442.63214827
0.04700000 1468479.68124837 13744.97045573
0.04800000 1461331.44280385 15037.10124610
0.04900000 1454074.78552076 16358.34209855
0.05000000 1446711.20410699 12174.07534946
0.05100000 1439244.83530453 12348.72126217
0.05200000 1431674.76348521 15934.54086016
0.05300000 1424006.54537867 13841.34426633
0.05400000 1416241.10983528 16357.58558141
0.05500000 1408382.06608212 14196.49188836
0.05600000 1400430.14124576 17960.51739959
0.05700000 1392390.58950138 18170.69804117
0.05800000 1384262.35084181 15925.93909006
0.05900000 1376049.79504597 19815.11797414
0.06000000 1367756.37891799 13766.46859696
0.06100000 1359383.41005532 13906.49293474
0.06200000 1350933.85416152 12766.32551857
0.06300000 1342410.93411599 16753.28924107
0.06400000 1333814.00780684 22107.96821332
0.06500000 1325149.81774071 15742.78057117
0.06600000 1316419.02328745 13230.01180305
0.06700000 1307623.27894797 22674.18871809
0.06800000 1298766.58049851 14786.45821112
0.06900000 1289852.72163110 20315.18131682
0.07000000 1280880.90669445 16369.65875412
0.07100000 1271855.87312802 20604.06610972
0.07200000 1262779.37021136 16592.92170190
0.07300000 1253654.96208797 13915.57073120
0.07400000 1244485.35825903 19600.64531115
0.07500000 1235271.44312129 16898.51413397
0.07600000 1226016.24211098 18408.63473830
0.07700000 1216723.75407875 17082.80230825
0.07800000 1207395.00519750 15738.39463082
0.07900000 1198031.72526909 20126.93392855
0.08000000 1188639.86458002 15886.17253535
0.08100000 1179219.40968436 17405.27930357
0.08200000 1169772.00135746 17476.39452036
0.08300000 1160301.10591868 23391.67139314
0.08400000 1150809.90176293 19074.67501706
0.08500000 1141300.09558651 20611.88069392
0.08600000 1131773.98583216 25108.40705456
0.08700000 1122234.06008407 14813.49028872
0.08800000 1112682.14877311 19310.59959886
0.08900000 1103121.59162128 14892.14218637
0.09000000 1093554.41297306 14927.01843829
0.09100000 1083982.04690929 16454.84824515
0.09200000 1074407.18591222 16486.77904248
0.09300000 1064833.53869651 24022.64576187
0.09400000 1055260.13402797 22556.18642493
0.09500000 1045691.03353369 18069.54190878
0.09600000 1036127.90539578 22613.49259827
0.09700000 1026575.56381775 16599.72764733
0.09800000 1017032.78003104 15102.93749357
0.09900000 1007503.36075503 15112.55112195
0.10000000 997987.00055851 16631.45414644
0.10100000 988487.61241250 21173.40565370
0.10200000 979006.86436875 21175.91947233
0.10300000 969546.30097998 16637.41530745
0.10400000 960108.53431073 19658.22316484
0.10500000 950696.63205997 18139.29259315
0.10600001 941307.23501271 16618.78001612
0.10700001 931948.10823370 16607.31607023
0.10800001 922616.72555635 16593.26259004
0.10900001 913317.99771622 15069.74767159
0.11000001 904051.84940148 18062.95680126
0.11100001 894819.59095791 18039.56380289
0.11200001 885624.17010459 18013.59646796
0.11300001 876465.58242305 20982.58703108
0.11400001 867346.30005010 16457.89681836
0.11500001 858268.34381493 17920.64386270
0.11600001 849232.31543099 17884.83340520
0.11700001 840239.83739351 19333.91956895
0.11800001 831291.48598267 14838.55372366
0.11900001 822388.77469084 14802.99864168
0.12000001 813533.11771617 20671.87749491
0.12100001 804727.86275036 26507.73704773
0.12200001 795971.45532875 19091.37625548
0.12300001 787266.61121528 20500.42352191
0.12400001 778613.49708494 18978.70488567
0.12500001 770012.70346387 17463.88893747
0.12600001 761467.75234771 17407.15363895
0.12700001 752977.29505363 15902.88122098
0.12800001 744542.91981494 15847.59679515
0.12900001 736165.79155440 18661.80369547
0.13000001 727846.86787810 17162.62995352
0.13100001 719586.12896621 17097.36723017
0.13200001 711385.00750429 19868.98419623
0.13300001 703245.27586409 15548.75378237
0.13400001 695165.79844398 15484.81889038
0.13500001 687148.78110606 18223.18653412
0.13600001 679193.70446995 19540.40379895
0.13700001 671302.19149193 18064.74282486
0.13800001 663473.40301347 19366.78954722
0.13900001 655709.85836946 15146.89844263
0.14000001 648010.68779485 16446.51203186
0.14100001 640376.82205028 19096.03773417
0.14200001 632808.03937929 20360.59962734
0.14300001 625306.82321365 22961.26763143
0.14400001 617869.36870461 17470.25722419
0.14500001 610500.53416303 17380.95102752
0.14600001 603198.06934044 19950.77708460
0.14700001 595964.76091594 14553.46014815
0.14800001 588795.95897995 17107.46739527
0.14900001 581696.48797274 15705.80591628
0.15000001 574664.23929437 24730.67670490
0.15100001 567700.57275149 15532.28840337
0.15200001 560805.00957729 16731.61825025
0.15300001 553978.64064005 12796.90720266
0.15400001 547218.28229236 16539.67336281
0.15500001 540527.99710108 20237.36916653
0.15600001 533903.45860169 15088.11245217
0.15700001 527350.58423537 16247.67226713
0.15800001 520862.30212317 17391.59308875
0.15900001 514444.38582158 14815.99901099
0.16000001 508091.94032164 15951.54721935
0.16100001 501810.54451949 17071.59553040
0.16200001 495595.16961234 19387.68395045
0.16300001 489447.29143022 12040.40393758
0.16400001 483366.63636095 14355.98977766
0.16500001 477352.48440030 20206.33161863
0.16600001 471406.20635723 16532.21643748
0.16700001 465524.59253892 15250.58637163
0.16800001 459708.69955018 11653.61608384
0.16900001 453961.01195917 16206.40889218
0.17000001 448277.02750934 13797.96755827
0.17100001 442658.12970670 13704.69634287
0.17200001 437104.61914869 12477.15194281
0.17300001 431615.02749511 15771.21384946
0.17400001 426189.56736830 14543.71967329
0.17500001 420827.51437359 12220.83159457
0.17600001 415527.16430789 14341.92075344
0.17700001 410291.05430960 18623.11183469
0.17800001 405115.63515904 13052.82638134
0.17900001 400002.52673143 14040.08935144
0.18000001 394950.44334189 11795.19554755
0.18100001 389960.45301269 13839.69713116
0.18200001 385027.93398937 13739.72247345
0.18300001 380155.94234653 11541.53495485
0.18400001 375342.73979325 15623.64228197
0.18500001 370589.53835333 10339.44860852
0.18600001 365892.21622954 15394.91572517
0.18700001 361252.41031453 15280.97767825
0.18800001 356669.15655477 11122.72817267
0.18900001 352144.07533954 11039.71728349
0.19000001 347670.64240236 10956.84081301
0.19100001 343256.59605802 10874.36947693
0.19200001 338893.51286637 14716.45149159
0.19300001 334586.72391542 9736.47412601
0.19400001 330331.04506604 14493.27528714
0.19500001 326128.90960026 14382.28559301
0.19600001 321978.28695824 10465.90471216
0.19700001 317878.77109564 11329.19993724
0.19800001 313830.43987837 10304.62298039
0.19900001 309832.34814739 10224.46797207
0.20000001 305882.40187358 15678.00324899
0.20100001 301982.77879852 10980.09435606
0.20200001 298129.81258146 11801.46918882
0.20300001 294326.01483575 9006.37647966
0.20400001 290568.41288474 10721.97494223
0.20500001 286856.76199957 8863.87436475
0.20600001 283190.92828445 10551.69448664
0.20700001 279570.66757339 9594.86576466
0.20800001 275993.71548134 8652.40338934
0.20900001 272462.92555111 8582.58256057
0.21000001 268973.37696645 11066.91011844
0.21100001 265527.21698471 9288.14248921
0.21200001 262122.67423440 10887.26578902
0.21300001 258758.83821513 11628.62273914
0.21400001 255436.96096389 8237.84238054
0.21500001 252156.10299048 13888.75880934
0.21600001 248913.73674503 9722.57101693
0.21700001 245710.98492971 10445.17446321
0.21800001 242546.65572109 8764.42381887
0.21900001 239419.50273613 7900.84396386
0.22000001 236329.61304319 9401.19245137
0.22100001 233278.17967253 8544.98012544
0.22200001 230262.91590593 7702.29490125
0.22300001 227282.07062441 8400.34572749
0.22400001 224336.41809981 7571.35446889
0.22500001 221427.47647980 7506.39180762
0.22600001 218550.44877201 8185.80744585
0.22700001 215709.49041792 8114.99141327
0.22800001 212900.47412767 10238.38428497
0.22900001 210123.30730034 9424.03077809
0.23000001 207379.54346250 12215.69258536
0.23100001 204668.12515652 7834.69620152
0.23200001 201986.45520079 8471.31233176
0.23300001 199336.01306542 7696.36382845
0.23400001 196716.83991026 11788.25718915
0.23500001 194125.84445387 6872.05521869
0.23600001 191565.82928628 6810.16555323
0.23700001 189034.24910124 10797.63681937
0.23800001 186531.43844173 7355.86762287
0.23900001 184056.61591933 7288.64233516
0.24000001 181609.38572992 7221.69756514
0.24100001 179190.72783665 8456.01084659
0.24200001 176798.64426583 6444.31088832
0.24300001 174433.31758167 9576.38958822
0.24400001 172093.70929767 8854.22176220
0.24500001 169780.18349883 7517.86688096
0.24600001 167492.50118207 7446.71695482
0.24700001 165230.42914551 7375.88670598
0.24800001 162992.91414633 6696.56419449
0.24900001 160779.18845396 6029.21985225
0.25000001 158590.74343564 7762.22430467
0.25100001 156425.13925775 9460.59286988
0.25200001 154284.91055529 7026.13515909
0.25300001 152167.63880666 7536.86350667
0.25400001 150073.03642098 9184.47026349
0.25500001 148000.97868978 9661.50434597
0.25600001 145951.86326140 6751.73351391
0.25700001 143924.43754025 7797.82639487
0.25800001 141919.69811697 6064.93858599
0.25900001 139936.64414659 6003.28231793
0.26000001 137975.09445509 5401.72520350
0.26100001 136033.97251395 6949.97598458
0.26200001 134115.24538339 6349.01601687
0.26300001 132216.19270562 5759.33762677
0.26400001 130338.09295729 7253.31521629
0.26500001 128480.92470144 8202.22262106
0.26600001 126642.86636729 5579.25174182
0.26700001 124825.97551814 5519.80489861
0.26800001 123029.14001026 7942.76165492
0.26900001 121250.52597606 5892.77584129
0.27000001 119492.51812468 5343.10820079
0.27100001 117753.08853655 5284.75886361
0.27200001 116034.17352601 5701.91955690
0.27300001 114333.32917674 5638.92006185
0.27400001 112649.46359005 6040.82777090
0.27500001 110987.14351350 5054.35475480
0.27600001 109340.80683104 6814.66610826
0.27700001 107714.59225642 6288.37819354
0.27800001 106105.49908575 4440.51534690
0.27900001 104515.66462746 4389.65812211
0.28000001 102942.28390719 4772.91921925
0.28100001 101387.42933973 4288.68846405
0.28200001 99850.86423022  5934.13714206
0.28300001 98331.25370946  5026.69392754
0.28400001 96828.84180117  4553.37650121
0.28500001 95344.34868138  4499.30002723
0.28600001 93876.75760745  4445.53406692
0.28700001 92426.14988432  4392.09085039
0.28800001 90991.92638962  5522.30027397
0.28900001 89576.45753426  4675.89130462
0.29000001 88176.12709659  5388.44338193
0.29100001 86793.29319283  4942.01034833
0.29200001 85427.04327459  5631.77809446
0.29300001 84077.37548629  3707.81243446
0.29400001 82743.26219910  5858.22324100
0.29500001 81426.72557338  5061.48550124
0.29600001 80125.53108141  6068.30738371
0.29700001 78840.78792625  3876.60172584
0.29800001 77571.84042332  4522.82636999
0.29900001 76319.56142313  3777.81846928
0.30000001 75082.31531206  4406.95670587
0.30100001 73861.95834894  6357.29905605
0.30200001 72655.61829934  3632.41780884
0.30300001 71466.48259279  3910.64611261
0.30400001 70292.82518328  4823.84535657
0.30500001 69134.28569771  3173.26386375
0.30600001 67990.11012318  3130.94471940
0.30700001 66862.67389999  3397.96124847
0.30800001 65749.86526051  3961.75831884
0.30900001 64652.33684053  3607.60056650
0.31000001 63570.18879864  3558.65933743
0.31100001 62502.10818812  2925.09880169
0.31200001 61449.77318245  3173.57368626
0.31300001 60411.51219415  2845.38235906
0.31400001 59389.16864810  3647.97985693
0.31500001 58380.49227889  3043.95901154
0.31600002 57387.01190001  3274.50305405
0.31700002 56407.83979822  3497.85031150
0.31800002 55443.01552750  3183.53810233
0.31900002 54492.72009698  4446.60617046
0.32000002 53556.84830947  2578.76236820
0.32100002 52634.50222137  3050.69589320
0.32200002 51727.50852672  2506.19790679
0.32300002 50832.77975181  3211.61517679
0.32400002 49952.79576480  3896.31825415
0.32500002 49086.50461833  3360.46226529
0.32600002 48234.25567856  3075.65745898
0.32700002 47395.10664700  3497.75903618
0.32800002 46570.44472327  3677.20248948
0.32900002 45758.36825785  2718.04720323
0.33000002 44960.62793772  2901.98386766
0.33100002 44173.69749601  2199.85023947
0.33200002 43403.17266747  3251.98286611
0.33300002 42644.15664540  2350.11958402
0.33400002 41898.54847414  2737.02280869
0.33500002 41164.98639893  3319.54466041
0.33600002 40445.15764223  2044.50281564
0.33700002 39737.11417855  2216.13896269
0.33800002 39042.54209312  2183.84469540
0.33900002 38359.56092268  1956.33769970
0.34000002 37689.53615445  2120.60185216
0.34100002 37031.42349217  2469.62574965
0.34200002 36386.11210727  2246.47866789
0.34300002 35751.93513626  2213.75992848
0.34400002 35130.88500927  2181.62806240
0.34500002 34520.79916950  2149.95547410
0.34600002 33923.46778223  2295.43155620
0.34700002 33336.06077384  2784.22792769
0.34800002 32761.67856777  2058.08874510
0.34900002 32198.05848983  1690.39815078
0.35000002 31645.77690311  2165.99530272
0.35100002 31105.28562570  2135.06690647
0.35200002 30574.55578636  1618.92280556
0.35300002 30055.31263407  1595.93717646
0.35400002 29547.23489793  1888.06839940
0.35500002 29049.69656438  2016.63003101
0.35600002 28561.99620393  1682.44446608
0.35700002 28085.34617830  2111.45642569
0.35800002 27619.40919126  1933.49683201
0.35900002 27163.46811747  1760.19281738
0.36000002 26717.93437998  1880.80907977
0.36100002 26281.60872417  1712.50970558
0.36200002 25856.24739290  1548.66001095
0.36300002 25439.65401713  1527.90569264
0.36400002 25032.76205492  1781.70692365
0.36500002 24635.23360480  1622.96926676
0.36600002 24247.45473294  1601.78693553
0.36700002 23868.41603473  1844.55127854
0.36800002 23499.84399843  1300.71642693
0.36900002 23139.26774066  1797.92118862
0.37000002 22787.30838379  1902.17065744
0.37100002 22444.06869746  1252.37909264
0.37200002 22110.18296349  2968.95550898
0.37300002 21784.26220060  1955.35546775
0.37400002 21466.72326846  1207.50324105
0.37500002 21157.96454721  1551.30203409
0.37600002 20857.34914374  1297.43146495
0.37700002 20564.17535902  1399.18655771
0.37800002 20278.96542107  1152.85923880
0.37900002 20002.10299805  1596.16789486
0.38000002 19732.80617325  1240.50291885
0.38100002 19470.05015627  1115.63392681
0.38200002 19215.69066458  1324.72977717
0.38300002 18967.95713668  1311.06525940
0.38400002 18728.19519895  1081.55332398
0.38500002 18494.39694674  1392.07332413
0.38600002 18268.59379259  1060.49191990
0.38700002 18048.92096760  1260.53670010
0.38800002 17836.08665510  1040.73570563
0.38900002 17629.26319743  1031.31194591
0.39000002 17430.06336176  1226.72791752
0.39100002 17236.13124384  1216.18147818
0.39200002 17049.00070058  1306.55023059
0.39300002 16867.63693000  1395.62834571
0.39400002 16693.47996232  989.08873463
0.39500002 16523.80623256  1177.81696406
0.39600002 16360.24326585  974.25253264
0.39700002 16202.19399142  1450.90654067
0.39800002 16050.00163070  1248.77043604
0.39900002 15902.96748715  1145.01371332
0.40000002 15761.08288333  948.02918035
0.40100002 15624.77861412  1224.82645359
0.40200002 15493.58124179  936.58703044
0.40300002 15366.83336185  1117.47617502
0.40400002 15245.48166610  1296.62827714
0.40500002 15128.96044356  1013.48910813
0.40600002 15017.05648207  1283.50787834
0.40700002 14909.56637413  1368.69825800
0.40800002 14806.69697529  999.22999272
0.40900002 14708.03380300  1175.90735827
0.41000002 14614.07986297  991.05387287
0.41100002 14523.98385578  987.34046930
0.41200002 14437.67565815  1073.29685928
0.41300002 14356.09720677  980.66504666
0.41400002 14277.81168587  977.67320151
0.41500002 14203.62346637  886.30614630
0.41600002 14132.60065766  972.39363433
0.41700002 14065.53234787  1234.67248800
0.41800002 14003.02370985  1056.10809824
0.41900002 13941.88798355  966.17288304
0.42000002 13885.26766554  964.54016409
0.42100002 13832.31574684  963.14419109
0.42200002 13782.43522586  1049.39466782
0.42300002 13735.12709243  960.90953692
0.42400002 13690.64430112  960.05647711
0.42500002 13649.75607875  1133.88529119
0.42600002 13610.62526787  958.93664869
0.42700002 13575.73647671  1133.03102004
0.42800002 13542.39850412  1220.03473905
0.42900002 13512.92101602  1045.90013620
0.43000002 13485.33972066  1307.74088138
0.43100002 13459.37231230  1046.60084060
0.43200002 13436.83764150  1134.53944002
0.43300002 13416.39046477  960.74776671
0.43400002 13398.18450033  961.65473808
0.43500002 13382.05288098  1225.26081985
0.43600002 13368.37000679  1139.18570411
0.43700002 13356.17716926  1228.50123425
0.43800002 13345.94680620  1054.59676660
0.43900002 13338.30445271  880.32813560
0.44000002 13331.96759259  1146.48260746
0.44100002 13327.81697031  1237.08802981
0.44200002 13325.21411365  1239.64472774
0.44300002 13324.36384817  1153.62347665
0.44400002 13325.47395037  978.42297117
0.44500002 13326.79497031  1069.87515092
0.44600002 13330.22338934  1430.06643298
0.44700002 13335.99499537  985.79679678
0.44800002 13341.73961914  1168.13606771
0.44900002 13350.33234059  1081.37697084
0.45000002 13359.55662662  994.15145349
0.45100002 13369.75896061  1087.76364059
0.45200002 13381.31818981  1182.03879832
0.45300002 13393.79351066  1094.54085756
0.45400002 13407.72049525  1006.58466389
0.45500002 13422.63573889  1193.54082647
0.45600002 13438.36462951  1013.31993291
0.45700002 13455.05676815  1478.97991005
0.45800002 13472.26350434  1113.07846348
0.45900002 13490.55057258  1396.27205044
0.46000002 13510.32166447  934.23878738
0.46100002 13529.71359066  1312.65287478
0.46200002 13550.76008855  1035.21036603
0.46300002 13572.47015997  1133.57276149
0.46400002 13593.99568416  1232.63561708
0.46500002 13616.79015428  1142.17641227
0.46600002 13639.84954891  1146.56580742
0.46700002 13663.26938526  1055.07771194
0.46800002 13688.05643713  1829.61415039
0.46900002 13712.21195665  1160.05318652
0.47000002 13737.19102962  1067.58585147
0.47100002 13762.63808275  1461.59223366
0.47200002 13788.57742069  1076.12957580
0.47300002 13814.99357584  1178.69530776
0.47400002 13840.97386925  986.16943493
0.47500002 13867.62870076  1287.19335701
0.47600002 13894.93235950  1391.85544042
0.47700002 13921.63330044  1097.99927045
0.47800002 13948.76449329  1102.44065398
