# SAXS profile: number of points = 501, q_min = 0, q_max = 0.5, delta_q = 0.001
#    q    intensity    error
0.00000000 1646666.22097350 246.99993315
0.00100000 1646580.15113065 493.97405707
0.00200000 1646321.89737757 963.09834046
0.00300000 1645891.69768667 987.53505379
0.00400000 1645289.38522954 1480.76050297
0.00500000 1644515.66454819 2072.08981935
0.00600000 1643570.33723599 1898.32381679
0.00700000 1642454.17051231 2562.22861249
0.00800000 1641166.96517182 2658.69059583
0.00900000 1639710.08485859 2705.52175567
0.01000000 1638082.94626287 3513.68807145
0.01100000 1636287.15625648 3828.91211235
0.01200000 1634322.48923346 3505.62189311
0.01300000 1632190.48411075 4113.12020137
0.01400000 1629891.15338101 4767.43183498
0.01500000 1627426.15314194 5077.56982390
0.01600000 1624795.00343349 4557.55018837
0.01700000 1622000.11708436 5255.28061510
0.01800000 1619041.81468796 6921.40406924
0.01900000 1615921.11218868 5332.53991084
0.02000000 1612638.90227394 7619.71915793
0.02100000 1609197.62386225 6372.42287941
0.02200000 1605596.19342089 7201.09925466
0.02300000 1601837.73888483 7496.60095921
0.02400000 1597922.67927628 6591.43135257
0.02500000 1593853.43684968 8702.44016265
0.02600000 1589630.53657431 6438.00396759
0.02700000 1585255.69754297 9321.30392848
0.02800000 1580729.58098252 8251.40879114
0.02900000 1576055.43802353 12056.82465446
0.03000000 1571233.85288336 9498.10907726
0.03100000 1566266.64028049 8269.88824120
0.03200000 1561154.86374813 11591.57539722
0.03300000 1555902.57022557 10315.63451615
0.03400000 1550508.48593495 8954.18691942
0.03500000 1544976.70666450 11680.02444174
0.03600000 1539307.52469677 8543.15715688
0.03700000 1533504.42072405 9615.07316261
0.03800000 1527568.60130069 10723.53207741
0.03900000 1521502.62177277 9129.01615340
0.04000000 1515306.63604038 13046.79074088
0.04100000 1508984.86258165 10457.26558256
0.04200000 1502538.69882272 14537.06258553
0.04300000 1495969.68862138 10860.74044352
0.04400000 1489281.21067364 12063.17836669
0.04500000 1482475.21392672 11251.98739653
0.04600000 1475552.34860211 11442.90899535
0.04700000 1468516.91392008 11630.65449916
0.04800000 1461370.14992475 12889.28532205
0.04900000 1454114.98210456 10905.86287342
0.05000000 1446753.06177615 13281.19372556
0.05100000 1439288.37272856 17962.31972841
0.05200000 1431719.75971930 11382.17262019
0.05300000 1424053.37038553 13841.79940542
0.05400000 1416289.55670980 12852.82832652
0.05500000 1408432.16523105 14196.99688781
0.05600000 1400481.94256759 13171.53328449
0.05700000 1392444.13758584 12114.26456247
0.05800000 1384317.67541150 13476.33319937
0.05900000 1376106.99919527 16100.45264257
0.06000000 1367815.33980229 15018.61313268
0.06100000 1359444.16455064 17699.96384959
0.06200000 1350996.47543728 14043.60901862
0.06300000 1342475.37926836 14176.54066790
0.06400000 1333880.34299117 14305.86734762
0.06500000 1325218.14165480 20991.45634575
0.06600000 1316489.33518414 17199.93396894
0.06700000 1307695.54192924 14672.34466710
0.06800000 1298840.63645429 16131.60145987
0.06900000 1289928.79564954 13544.25298845
0.07000000 1280959.00555528 15006.43545281
0.07100000 1271936.06125223 16484.29212592
0.07200000 1262861.62073125 19359.66955275
0.07300000 1253739.29610953 18091.45889055
0.07400000 1244571.79643099 18201.86337582
0.07500000 1235359.88758993 22532.96540582
0.07600000 1226106.74030740 18409.99356879
0.07700000 1216816.32282397 19931.45230241
0.07800000 1207489.79826594 17170.50573657
0.07900000 1198128.63497909 15815.29872352
0.08000000 1188738.89524477 17331.81390572
0.08100000 1179320.55436925 17406.77219918
0.08200000 1169875.44633325 16021.44498934
0.08300000 1160406.64769929 23393.79911554
0.08400000 1150917.76013260 16141.62234353
0.08500000 1141410.19262285 16196.61139367
0.08600000 1131886.36858305 17725.34136424
0.08700000 1122348.54828976 23704.00245297
0.08800000 1112798.88872285 17827.03903457
0.08900000 1103240.50851881 22340.62134684
0.09000000 1093675.62086286 17914.40751127
0.09100000 1084105.48049724 20944.91886722
0.09200000 1074532.90745262 17987.68171594
0.09300000 1064961.56327324 18019.15049734
0.09400000 1055390.30820349 19551.10637832
0.09500000 1045823.58958696 15059.86039791
0.09600000 1036262.82343683 18093.14974773
0.09700000 1026712.63450353 16601.94408043
0.09800000 1017172.31560750 15105.00959697
0.09900000 1007645.01266468 21160.54626098
0.10000000 998131.14574251 25706.86886752
0.10100000 988634.00173701 16638.71103178
0.10200000 979155.51312058 18153.54406713
0.10300000 969697.34475143 24203.64686355
0.10400000 960261.95368714 21173.77707492
0.10500000 950852.18736124 16630.40553940
0.10600001 941465.08052791 18132.61830417
0.10700001 932108.39709843 19630.20376664
0.10800001 922779.25842523 15087.44158529
0.10900001 913482.77407599 21101.45307431
0.11000001 904218.92301435 19571.81950988
0.11100001 894988.97547735 21050.14169413
0.11200001 885795.85325762 22521.36062932
0.11300001 876639.56634958 16489.59101938
0.11400001 867522.65564073 17957.71981729
0.11500001 858446.91491632 14936.97702290
0.11600001 849413.24072675 14907.20307676
0.11700001 840423.11109003 20825.68567359
0.11800001 831476.94291748 19294.42336913
0.11900001 822576.48245833 14806.37738165
0.12000001 813723.09772876 22153.61237921
0.12100001 804920.08094878 25041.06489795
0.12200001 796165.92689905 16158.18824765
0.12300001 787463.29017207 14646.81788728
0.12400001 778812.27670628 18983.55013917
0.12500001 770213.88131324 16012.74734703
0.12600001 761671.10025262 20313.76920099
0.12700001 753182.82615661 23137.77750993
0.12800001 744750.68516316 18734.20436821
0.12900001 736375.77645705 14359.32831770
0.13000001 728058.94983052 17167.63084620
0.13100001 719800.32277697 14252.04706279
0.13200001 711601.34728886 18455.38181193
0.13300001 703463.82306671 18381.51056329
0.13400001 695386.29490644 16897.88776289
0.13500001 687371.48049139 15424.61674947
0.13600001 679418.40775063 23735.48319391
0.13700001 671529.18138758 18070.85112324
0.13800001 663702.42055572 13838.19612114
0.13900001 655940.82376179 19284.66112803
0.14000001 648243.67552313 17823.46069907
0.14100001 640611.85006125 19103.04626978
0.14200001 633045.08801714 14936.69955626
0.14300001 625545.81195371 20267.68526328
0.14400001 618110.27596188 18821.45879085
0.14500001 610743.37677374 18725.39281520
0.14600001 603442.90764213 14636.50841533
0.14700001 596211.55925732 14559.48696393
0.14800001 589044.62793447 18431.20727763
0.14900001 581946.75899748 18331.32377331
0.15000001 574916.52266379 19532.78977912
0.15100001 567954.66489554 16834.17706182
0.15200001 561060.96161391 15451.61961196
0.15300001 554236.53108537 14083.15091945
0.15400001 547477.92014509 14001.74846847
0.15500001 540789.25568597 18981.70377038
0.15600001 534166.42421189 15095.54386066
0.15700001 527615.29833184 16255.82810883
0.15800001 521128.63032007 13671.81026174
0.15900001 514712.41573815 17294.33798510
0.16000001 508361.72057217 17187.71058385
0.16100001 502081.98114489 15860.77053306
0.16200001 495868.21471479 13336.37626431
0.16300001 489721.80550692 12047.15698419
0.16400001 483642.66519844 19152.25044603
0.16500001 477630.24927534 16650.19127582
0.16600001 471685.38343946 14178.86329562
0.16700001 465805.19668182 12912.12066166
0.16800001 459990.83462056 11660.76820821
0.16900001 454244.58013668 15058.20854255
0.17000001 448561.83944005 16107.85641490
0.17100001 442944.48722928 14856.35880321
0.17200001 437392.20620988 15890.45960200
0.17300001 431904.16552785 11272.69925262
0.17400001 426479.92245952 15673.13789057
0.17500001 421119.13316288 12229.30020461
0.17600001 415820.07168193 11040.02342457
0.17700001 410585.33333704 18636.46916038
0.17800001 405410.87397457 15239.39547249
0.17900001 400299.07550205 15131.30576868
0.18000001 395248.10200970 12877.18377173
0.18100001 390259.26420935 10654.07841618
0.18200001 385327.86040058 10577.25026764
0.18300001 380456.94648101 12600.73466270
0.18400001 375644.81135027 13551.38720964
0.18500001 370892.60740215 19661.01804722
0.18600001 366196.33862005 12326.16934028
0.18700001 361557.53764236 11215.51534754
0.18800001 356975.28329473 11132.27473550
0.18900001 352450.95458033 18080.73482424
0.19000001 347978.46878523 11963.50032210
0.19100001 343565.28241107 14842.02090144
0.19200001 339203.02631519 14729.89211374
0.19300001 334897.11905621 9745.50662504
0.19400001 330642.09831689 12572.66638261
0.19500001 326440.92171104 10557.09990701
0.19600001 322290.89614889 11428.43571751
0.19700001 318192.11522866 13230.42877645
0.19800001 314144.42402453 10314.93265032
0.19900001 310146.99768978 10234.85140746
0.20000001 306197.63273173 9231.85906317
0.20100001 302298.66610522 16487.37002861
0.20200001 298446.14053863 11813.99103159
0.20300001 294642.81513808 11720.89174018
0.20400001 290885.61847388 8944.73319085
0.20500001 287174.62306551 9761.06589937
0.20600001 283509.31079171 11443.85387104
0.20700001 279889.39643998 12225.56941439
0.20800001 276312.92573775 12127.37488389
0.20900001 272782.40379253 10311.17535078
0.21000001 269293.17793203 8523.12948446
0.21100001 265847.33422909 10144.73475376
0.21200001 262443.06297933 10900.57313617
0.21300001 259079.48702499 10811.38750467
0.21400001 255757.83209383 11547.46666496
0.21500001 252477.13064991 9816.31130376
0.21600001 249234.99759509 8112.59955527
0.21700001 246032.42691698 11263.36503679
0.21800001 242868.20172094 8776.04288412
0.21900001 239741.04812956 12658.32793975
0.22000001 236651.29651321 10198.48810545
0.22100001 233599.79227605 8556.76079567
0.22200001 230584.64618569 10026.97381350
0.22300001 227603.64802064 11471.22440266
0.22400001 224657.99549992 9856.87001865
0.22500001 221748.96199594 8269.01918385
0.22600001 218871.89833892 7452.58849086
0.22700001 216030.83262500 8865.90579019
0.22800001 213221.62896027 8788.99596137
0.22900001 210444.23282683 9438.42428864
0.23000001 207700.34689284 10795.22604028
0.23100001 204988.63289363 8560.32571448
0.23200001 202306.65533562 8484.74152605
0.23300001 199656.00052205 7708.71854474
0.23400001 197036.53790718 9029.19977664
0.23500001 194445.11949901 6883.35755582
0.23600001 191884.71422031 7503.65210449
0.23700001 189352.82983039 7435.88597914
0.23800001 186849.56157242 6698.55709920
0.23900001 184374.27752726 7301.22173542
0.24000001 181926.62331149 8549.64206692
0.24100001 179507.44097849 7167.73245731
0.24200001 177114.70087347 7101.41426743
0.24300001 174749.01234764 7035.39556991
0.24400001 172408.81041354 8870.43371538
0.24500001 170094.66779919 8159.44160030
0.24600001 167806.56163254 6838.95674285
0.24700001 165543.76004018 7389.87379778
0.24800001 163305.57236656 6099.46341644
0.24900001 161091.14684216 7853.19378007
0.25000001 158901.98722643 7179.19212252
0.25100001 156735.54907886 8886.90605320
0.25200001 154594.73559476 6453.55754272
0.25300001 152476.63505706 6390.29607757
0.25400001 150381.32300163 6327.29446465
0.25500001 148308.44477763 6834.05345869
0.25600001 146258.50784415 7329.74546740
0.25700001 144230.08928915 7814.38660741
0.25800001 142224.56909687 6077.96724793
0.25900001 140240.54820869 6563.25796671
0.26000001 138278.00368038 5954.94251026
0.26100001 136336.05692534 6429.60874882
0.26200001 134416.31380981 6893.54097992
0.26300001 132516.32599575 6297.17610928
0.26400001 130637.28100696 5192.83216574
0.26500001 128779.06268382 5652.11332864
0.26600001 126939.92982422 6100.73331604
0.26700001 125122.02917244 5532.89639182
0.26800001 123324.04317912 6468.96299108
0.26900001 121544.44037837 7876.08010923
0.27000001 119785.26077767 8277.76083776
0.27100001 118044.73436913 5297.84792920
0.27200001 116324.71337459 4763.49723811
0.27300001 114622.60564397 6124.28610938
0.27400001 112937.57920889 6056.27797169
0.27500001 111274.04556433 5988.76941569
0.27600001 109626.35818695 7287.96063718
0.27700001 107999.05329634 4953.91680915
0.27800001 106388.74553313 4897.60613241
0.27900001 104797.60232252 4841.64945645
0.28000001 103222.91934158 4350.84625617
0.28100001 101666.73132657 4730.55323252
0.28200001 100128.79355036 5950.65448234
0.28300001 98607.86148696  5460.90362761
0.28400001 97104.16501995  7057.04552684
0.28500001 95618.24251068  4512.22507765
0.28600001 94149.28794832  4053.12703802
0.28700001 92697.29272250  6006.78485273
0.28800001 91261.76725502  3956.19779776
0.28900001 89844.75209943  5471.54566184
0.29000001 88442.99651028  5018.69807453
0.29100001 87058.78561383  4957.12748750
0.29200001 85691.01398983  4519.34429175
0.29300001 84339.86893261  3719.38839599
0.29400001 83004.27780550  6243.99709349
0.29500001 81686.20779664  4714.92813721
0.29600001 80383.49736346  3939.19347477
0.29700001 79097.27305399  4242.77792746
0.29800001 77826.81251195  4188.63924768
0.29900001 76572.96392296  3445.78353965
0.30000001 75334.25699717  4081.61023733
0.30100001 74112.23582279  4700.19821839
0.30200001 72904.37080746  3644.85419107
0.30300001 71713.56350429  3597.15251567
0.30400001 70538.34103206  3549.84218049
0.30500001 69378.21140659  4776.69008148
0.30600001 68232.42135862  4398.94441325
0.30700001 67103.34498950  4030.22709087
0.30800001 65988.94581164  3058.58778317
0.30900001 64889.72382539  3620.84676088
0.31000001 63805.89540740  3869.50871018
0.31100001 62736.06913171  3523.25780925
0.31200001 61682.09117159  3475.16918114
0.31300001 60642.15115114  3141.86999990
0.31400001 59618.26199578  3662.05191648
0.31500001 58607.84584349  3333.61442941
0.31600002 57612.60440269  3287.37536287
0.31700002 56631.68429894  3781.86405655
0.31800002 55665.16828897  3462.65195737
0.31900002 54713.10003398  2888.85181858
0.32000002 53775.55724064  3366.08116486
0.32100002 52851.43718527  2807.99699061
0.32200002 51942.72077336  3271.61242282
0.32300002 51046.17165979  2728.92846615
0.32400002 50164.50713983  4157.38372607
0.32500002 49296.44077819  2892.71528184
0.32600002 48442.45536907  2376.10254837
0.32700002 47601.54212381  3278.79437675
0.32800002 46775.06107516  2539.18431070
0.32900002 45961.17757142  2502.58623727
0.33000002 45161.71316230  2914.96291410
0.33100002 44372.98408659  3093.68459702
0.33200002 43600.64966106  2395.63780907
0.33300002 42839.79659560  2360.90130218
0.33400002 42092.44575742  2326.66004942
0.33500002 41357.01998094  2501.27268690
0.33600002 40635.41872865  2670.35666821
0.33700002 39925.56412613  2226.64881676
0.33800002 39229.14998336  2992.20355668
0.33900002 38544.30932754  1965.75986880
0.34000002 37872.45520489  2518.32902811
0.34100002 37212.54288767  2099.90389460
0.34200002 36565.42239649  1881.29107140
0.34300002 35929.36549926  2224.74641708
0.34400002 35306.50060322  2557.95608985
0.34500002 34694.56017620  1980.71253427
0.34600002 34095.40217073  2129.59892044
0.34700002 33506.09466535  1923.92004680
0.34800002 32929.98370239  2413.43861985
0.34900002 32364.48977974  2208.87653208
0.35000002 31810.34255841  1842.29607653
0.35100002 31268.03787765  1981.14297376
0.35200002 30735.41918746  2603.90483689
0.35300002 30214.29783863  1764.81722034
0.35400002 29704.45166445  1581.76212605
0.35500002 29205.03990032  2027.41396591
0.35600002 28715.52759473  1999.03154819
0.35700002 28236.96405991  1819.59005021
0.35800002 27769.23284773  1644.91058565
0.35900002 27311.43551473  1769.78110518
0.36000002 26864.02021396  1745.62411619
0.36100002 26425.81731163  1865.39853238
0.36200002 25998.71326980  1557.19300505
0.36300002 25580.19811093  1955.35043622
0.36400002 25171.46879658  1515.95178008
0.36500002 24772.03961816  1359.98503946
0.36600002 24382.45770268  2013.38154017
0.36700002 24001.54248950  1722.35077063
0.36800002 23631.15801539  1569.58158973
0.36900002 23268.69935590  1291.41287543
0.37000002 22914.92147453  2295.38779283
0.37100002 22569.84799549  1259.39757781
0.37200002 22234.17594360  1617.20286386
0.37300002 21906.40843234  1597.63444265
0.37400002 21587.00850008  1942.83085704
0.37500002 21276.44116492  1559.98874011
0.37600002 20973.93861457  1423.29154181
0.37700002 20678.96980390  1406.99717211
0.37800002 20391.95103026  1275.21071809
0.37900002 20113.22936937  1490.39036687
0.38000002 19842.07157617  2041.15399974
0.38100002 19577.52591792  1121.79228824
0.38200002 19321.35907372  1332.01455764
0.38300002 19071.80962096  1537.95080069
0.38400002 18830.26726532  1196.19278470
0.38500002 18594.56965598  1291.95076090
0.38600002 18366.99688864  1492.68590786
0.38700002 18145.53544954  1267.28425583
0.38800002 17930.91573108  1464.77657547
0.38900002 17722.30909586  1451.45718371
0.39000002 17521.31676195  1130.38780445
0.39100002 17325.48761723  1120.61259217
0.39200002 17136.58059639  1414.28206362
0.39300002 16953.40211054  1001.94611220
0.39400002 16777.51513670  1491.10172842
0.39500002 16606.09201238  1183.68229472
0.39600002 16440.72319330  1370.66315756
0.39700002 16280.92494863  1069.16839203
0.39800002 16126.86687439  1158.23163379
0.39900002 15978.11214858  1054.55545177
0.40000002 15834.46354001  1428.66454059
0.40100002 15696.37952923  1135.79007655
0.40200002 15563.45744722  1034.89215199
0.40300002 15434.94717673  1215.96519620
0.40400002 15311.87201369  1023.21589580
0.40500002 15193.52263522  1202.87124402
0.40600002 15079.93508978  1196.81910511
0.40700002 14970.65945257  1282.68616267
0.40800002 14866.13151118  1003.24093257
0.40900002 14765.67095148  1271.32432916
0.41000002 14669.95026541  1085.28297206
0.41100002 14578.13620379  1261.30040411
0.41200002 14490.09835727  1346.49245365
0.41300002 14406.81002581  1073.59553399
0.41400002 14326.83898985  1337.76865406
0.41500002 14250.94061235  978.18460998
0.41600002 14178.20500955  1152.90079498
0.41700002 14109.42808900  1326.99177465
0.41800002 14045.21546422  1059.29020050
0.41900002 13982.41484192  1321.33826517
0.42000002 13924.16671073  879.31116945
0.42100002 13869.42728943  1141.31522573
0.42200002 13817.92082472  964.42182966
0.42300002 13768.94634155  875.70502882
0.42400002 13722.77840009  962.30988091
0.42500002 13680.21016573  1573.49784782
0.42600002 13639.45106748  960.96757050
0.42700002 13602.85688872  960.63379900
0.42800002 13567.78896529  1047.70471355
0.42900002 13536.71806987  873.11835688
0.43000002 13507.47547901  1047.90999732
0.43100002 13479.84630457  1048.19289831
0.43200002 13455.70991177  1223.52776026
0.43300002 13433.60121040  1224.33847234
0.43400002 13413.83296121  1137.82843485
0.43500002 13396.01114072  963.70908713
0.43600002 13380.69881455  1052.52581863
0.43700002 13366.85869533  966.02292369
0.43800002 13355.05299218  879.43028121
0.43900002 13345.80938654  880.82346125
0.44000002 13337.86335996  1058.75964369
0.44100002 13332.13669724  1237.48898688
0.44200002 13327.93237905  1239.89760798
0.44300002 13325.47626399  976.22443736
0.44400002 13325.06526139  1156.28259285
0.44500002 13324.83352900  1069.71768640
0.44600002 13326.63373640  1250.97116812
0.44700002 13330.88543658  1164.58620693
0.44800002 13334.98670677  987.92253699
0.44900002 13341.96298165  1080.69905273
0.45000002 13349.74517307  1083.73236451
0.45100002 13358.37990838  1267.97748100
0.45200002 13368.34431733  1635.08227094
0.45300002 13379.30014357  1093.35645955
0.45400002 13391.66026982  1005.37894241
0.45500002 13405.04663070  1283.66732619
0.45600002 13419.21156184  1195.85309501
0.45700002 13434.41812275  922.94456877
0.45800002 13450.06616220  1296.45193882
0.45900002 13466.90111488  1300.90270935
0.46000002 13485.12256147  1118.99552318
0.46100002 13502.99397307  1403.63629003
0.46200002 13522.56328414  1220.88468397
0.46300002 13542.75746733  1036.83356084
0.46400002 13562.79089204  1135.20565147
0.46500002 13584.10286584  1044.48171886
0.46600002 13605.70544700  1143.69565408
0.46700002 13627.66360349  1243.66063940
0.46800002 13650.96153850  1248.44874668
0.46900002 13673.65167261  1542.38798177
0.47000002 13697.17203586  1064.47577522
0.47100002 13721.19944496  1068.60706342
0.47200002 13745.67223940  975.25549161
0.47300002 13770.63758383  1174.91085434
0.47400002 13795.15633633  982.90493555
0.47500002 13820.36162956  1480.16080068
0.47600002 13846.32366822  1585.12720867
0.47700002 13871.57093278  1193.51001963
