# SAXS profile: number of points = 501, q_min = 0, q_max = 0.5, delta_q = 0.001
#    q    intensity    error
0.00000000 1682732.95097188 353.37391970
0.00100000 1682645.96295787 605.75256105
0.00200000 1682384.95732049 984.19523120
0.00300000 1681950.16654675 2018.34027176
0.00400000 1681341.44074684 1387.10674132
0.00500000 1680559.47544528 1966.25466410
0.00600000 1679604.05194507 2292.65962424
0.00700000 1678475.98514240 2618.42264564
0.00800000 1677175.04502451 2490.60504701
0.00900000 1675702.59548117 3267.62020087
0.01000000 1674058.05741101 3038.41550540
0.01100000 1672243.09073466 5117.06408044
0.01200000 1670257.41211496 3257.00209642
0.01300000 1668102.55495028 3853.31707188
0.01400000 1665778.57930527 4872.40256047
0.01500000 1663287.14180390 5189.45611351
0.01600000 1660627.72823332 4658.06098593
0.01700000 1657802.79637949 4923.67452612
0.01800000 1654812.67297002 6131.08122924
0.01900000 1651658.33777982 5450.47276061
0.02000000 1648340.71552214 6230.72818652
0.02100000 1644862.30456942 6513.65502141
0.02200000 1641221.94474912 6794.65915996
0.02300000 1637422.76425918 7663.13888555
0.02400000 1633465.25635697 8575.69298690
0.02500000 1629351.84716221 7625.36699297
0.02600000 1625082.92668669 7239.74476952
0.02700000 1620660.42741320 7487.45151758
0.02800000 1616084.90585653 9138.96056173
0.02900000 1611359.64333837 9426.45434634
0.03000000 1606485.22157877 8964.18794845
0.03100000 1601463.47019722 8455.72751172
0.03200000 1596295.44764673 9481.99539574
0.03300000 1590985.31830353 8925.42804715
0.03400000 1585531.72664882 9156.44614388
0.03500000 1579938.62961742 12797.50349087
0.03600000 1574206.63508194 8736.84722847
0.03700000 1568338.96390417 9833.48575845
0.03800000 1562336.97221053 12795.54039458
0.03900000 1556203.23159085 11204.66378634
0.04000000 1549937.93628393 13344.96624980
0.04100000 1543545.00587036 9724.33398787
0.04200000 1537026.34300675 10905.20240956
0.04300000 1530383.31073419 11110.58335166
0.04400000 1523618.98115048 14398.20004055
0.04500000 1516735.72405705 14651.66777518
0.04600000 1509734.15843821 12772.35157413
0.04700000 1502618.25201695 17310.16306829
0.04800000 1495389.64137752 12090.22581307
0.04900000 1488051.17414038 22320.76865108
0.05000000 1480604.33587481 15857.27317563
0.05100000 1473053.28675542 16085.74264071
0.05200000 1465397.03032384 13979.88832077
0.05300000 1457641.44753627 12987.58590300
0.05400000 1449786.89556153 15548.96518001
0.05500000 1441837.63192553 13322.58034048
0.05600000 1433793.80158479 12258.93757560
0.05700000 1425661.18168566 14883.90343156
0.05800000 1417438.62524326 15053.19890295
0.05900000 1409130.16562976 21559.69254110
0.06000000 1400739.49094758 14098.44363505
0.06100000 1392268.22009594 15537.71406237
0.06200000 1383718.86621153 13076.14389692
0.06300000 1375095.04798869 15841.09569348
0.06400000 1366395.92195008 14654.59694826
0.06500000 1357628.05654909 13440.51838855
0.06600000 1348792.61996370 16266.43975785
0.06700000 1339890.97451600 15033.57743763
0.06800000 1330927.02577810 17907.62397008
0.06900000 1321904.93359362 19432.00343361
0.07000000 1312823.62898596 19574.20122481
0.07100000 1303687.69485151 18303.77609302
0.07200000 1294499.61446187 17009.72573088
0.07300000 1285262.34694444 18546.33653541
0.07400000 1275978.76516693 15790.23795894
0.07500000 1266649.76204149 23103.69274256
0.07600000 1257278.25621767 14521.56454009
0.07700000 1247868.55404034 24820.10670364
0.07800000 1238421.73722467 17610.35792919
0.07900000 1228939.21584064 16221.99840997
0.08000000 1219426.85943312 19260.84814829
0.08100000 1209885.24445803 22322.38380758
0.08200000 1200315.78271924 23910.29151376
0.08300000 1190721.68647165 16503.40334903
0.08400000 1181106.42845239 15059.10766962
0.08500000 1171471.66918530 16623.18376612
0.08600000 1161819.76544380 15161.74865091
0.08700000 1152153.08461951 21291.79000358
0.08800000 1142473.52279847 24403.23559304
0.08900000 1132784.42427313 16821.84949057
0.09000000 1123088.01327673 16863.16731151
0.09100000 1113385.66949269 19974.13984911
0.09200000 1103679.89585497 20015.23585178
0.09300000 1093974.71081617 21595.06180631
0.09400000 1084268.71255265 20086.07884403
0.09500000 1074566.59393937 17021.13564804
0.09600000 1064869.81526061 20142.01350249
0.09700000 1055182.82342903 21715.66352708
0.09800000 1045504.81985631 20183.47149631
0.09900000 1035839.50676109 18645.11199844
0.10000000 1026186.65152888 15546.72850178
0.10100000 1016550.02873960 20219.18102257
0.10200000 1006931.92310485 18668.51873246
0.10300000 997332.91736404 21781.75193986
0.10400000 987756.21141851 26447.17380494
0.10500000 978204.69382430 18664.14643630
0.10600001 968675.26592884 18656.68649965
0.10700001 959175.99393107 20200.24738276
0.10800001 949703.62066180 18633.18591429
0.10900001 940263.21876706 17065.77822383
0.11000001 930855.15862321 23248.10868089
0.11100001 921480.54540040 18577.04866976
0.11200001 912142.29421739 21645.13766077
0.11300001 902840.33481465 21613.99863307
0.11400001 893577.64049541 23121.32253647
0.11500001 884355.68710181 18465.34761618
0.11600001 875175.26697803 21503.05732226
0.11700001 866038.21477954 15328.87712351
0.11800001 856944.65042027 19885.40154957
0.11900001 847896.77171697 19840.78539271
0.12000001 838895.57118976 19793.74193460
0.12100001 829944.38944209 16706.78134649
0.12200001 821041.82546115 19692.68911143
0.12300001 812190.58678882 15106.74562602
0.12400001 803390.67187366 21089.00613034
0.12500001 794643.21379883 19524.38468304
0.12600001 785951.19655100 14972.37099985
0.12700001 777313.73647204 17909.30933232
0.12800001 768731.93320220 14874.96360851
0.12900001 760207.50978683 17788.85656744
0.13000001 751740.95823081 14771.71052550
0.13100001 743332.45572973 22076.97497583
0.13200001 734983.51206643 14662.92175694
0.13300001 726695.98666045 18988.56702662
0.13400001 718468.27705013 14548.98329619
0.13500001 710303.64472606 14490.19503560
0.13600001 702200.28289114 24531.36803947
0.13700001 694161.18075364 14369.13711915
0.13800001 686184.05218001 21460.40724391
0.13900001 678272.57523741 15668.09722686
0.14000001 670425.56527602 15597.45151173
0.14100001 662643.71300013 19760.03645361
0.14200001 654927.11203541 18262.64338047
0.14300001 647278.16967700 18175.57186183
0.14400001 639692.94120538 18087.31876576
0.14500001 632176.47934843 17998.06521606
0.14600001 624726.52097898 13775.22043742
0.14700001 617346.10354709 13705.08414530
0.14800001 610030.00849992 19087.83986650
0.14900001 602783.36986221 18987.67704651
0.15000001 595604.22908590 14839.48006784
0.15100001 588493.74427462 21468.25280412
0.15200001 581451.90937416 18682.05072974
0.15300001 574479.54797654 15924.57382137
0.15400001 567573.03899151 17154.89591308
0.15500001 560736.81165510 19681.86301794
0.15600001 553966.69351556 18264.28274719
0.15700001 547268.68952165 14267.29540920
0.15800001 540635.23825407 16762.39635323
0.15900001 534072.61646045 17944.84076008
0.16000001 527575.74203585 14015.05024873
0.16100001 521150.31587491 24061.51121975
0.16200001 514791.19546685 12586.64532333
0.16300001 508499.50672701 13759.99730161
0.16400001 502275.88949319 12431.32885183
0.16500001 496118.89520407 12353.36107380
0.16600001 490030.22034318 12275.25759915
0.16700001 484006.49290861 12196.96419717
0.16800001 478049.06224526 15754.10759014
0.16900001 472160.08054366 15652.10740908
0.17000001 466335.16972649 15549.94696879
0.17100001 460575.89010954 13071.14437855
0.17200001 454882.10986060 15345.44870080
0.17300001 449253.25822551 14070.61271210
0.17400001 443688.72157574 12811.51244054
0.17500001 438187.80534396 15038.60618964
0.17600001 432749.20391384 14936.33947852
0.17700001 427375.46186173 13693.11044478
0.17800001 422062.51655593 16998.56865717
0.17900001 416812.66329414 16880.91366076
0.18000001 411624.07906539 14528.27255686
0.18100001 406498.39887287 22194.81362686
0.18200001 401430.48654230 15426.97432656
0.18300001 396423.97588321 12035.43247636
0.18400001 391476.40585573 15208.85908597
0.18500001 386589.47598414 12943.01626740
0.18600001 381759.07025636 10708.34242659
0.18700001 376986.60039299 11694.12489668
0.18800001 372271.34959993 11609.28258577
0.18900001 367614.72035014 13620.12603249
0.19000001 363010.23272480 11440.26802486
0.19100001 358465.80565282 16518.10510496
0.19200001 353972.85248843 12297.01747650
0.19300001 349536.93169242 15257.28778932
0.19400001 345152.46603426 10095.71010856
0.19500001 340822.36675729 14028.24927864
0.19600001 336544.31724575 13922.83906240
0.19700001 332318.12698567 10856.83372169
0.19800001 328143.57093939 12733.61187208
0.19900001 324019.83650269 11664.71466537
0.20000001 319944.91880383 10610.97373362
0.20100001 315920.92281938 14358.60662076
0.20200001 311944.22719563 9498.70216705
0.20300001 308017.19810813 16023.05540291
0.20400001 304137.14776321 11222.66128291
0.20500001 300303.75564351 12063.20243439
0.20600001 296516.96302675 9206.85213717
0.20700001 292776.19315469 10961.54118985
0.20800001 289079.29533327 9968.89997080
0.20900001 285429.34357953 11688.33217210
0.21000001 281821.21482583 10703.57024507
0.21100001 278257.19389306 11503.15293933
0.21200001 274735.39098857 14044.47385128
0.21300001 271254.99906806 11319.47164624
0.21400001 267817.21033933 12091.94761849
0.21500001 264421.21421173 11137.42206915
0.21600001 261064.31599237 11046.93705350
0.21700001 257747.73083185 10114.02143603
0.21800001 254470.33220407 10031.22096977
0.21900001 251230.66440252 9119.67354900
0.22000001 248028.86829859 12333.23605929
0.22100001 244866.30845365 10600.26299418
0.22200001 241740.67319452 10512.09367092
0.22300001 238650.11813474 8018.64434849
0.22400001 235595.13133560 8746.46966442
0.22500001 232577.94752231 12615.02847014
0.22600001 229593.42396223 10162.95339228
0.22700001 226645.67653230 10851.79550554
0.22800001 223730.05391299 9222.15325841
0.22900001 220847.33001733 8381.15657051
0.23000001 217998.72484326 9064.38740765
0.23100001 215183.15978893 8986.04917776
0.23200001 212397.78377878 7423.30289414
0.23300001 209644.71868041 8830.23596844
0.23400001 206923.45398409 10941.07814687
0.23500001 204230.83371211 10121.68059749
0.23600001 201570.10985657 10032.14484205
0.23700001 198938.53696078 8522.52732650
0.23800001 196336.29406750 7038.65647524
0.23900001 193762.75677337 9068.09744591
0.24000001 191217.53903302 8295.01723561
0.24100001 188701.72693867 8904.83491544
0.24200001 186212.78151704 8144.94744883
0.24300001 183751.61308899 9415.43310006
0.24400001 181316.93023715 6663.39750142
0.24500001 178908.76164725 6601.73361707
0.24600001 176527.32828627 7848.40538688
0.24700001 174171.99115581 6479.19837750
0.24800001 171842.01028094 9627.44908143
0.24900001 169536.55362485 8264.90738020
0.25000001 167256.94175089 8816.11381676
0.25100001 165000.77191255 8731.84126271
0.25200001 162770.89922096 8648.01828474
0.25300001 160564.43790044 6729.25591077
0.25400001 158381.51479378 8481.33051847
0.25500001 156221.62863433 7198.69298805
0.25600001 154085.40069443 6533.99172559
0.25700001 151971.60606754 7057.56171969
0.25800001 149881.18321773 6987.46109222
0.25900001 147812.96110879 7494.11748280
0.26000001 145766.82977023 7989.48031773
0.26100001 143742.15557612 7343.78707586
0.26200001 141740.06048702 6709.97478095
0.26300001 139758.59182151 6641.32859761
0.26400001 137798.84365410 7668.50601221
0.26500001 135860.59113402 5420.83784276
0.26600001 133941.90114983 5900.81073438
0.26700001 132045.08940990 5839.03413001
0.26800001 130168.92664927 5252.31643884
0.26900001 128311.84212730 7275.28179290
0.27000001 126475.66676374 7197.73053614
0.27100001 124658.99509166 6611.91341256
0.27200001 122863.49395091 8553.14253616
0.27300001 121086.50654005 4976.65565431
0.27400001 119327.09246872 6891.13991619
0.27500001 117589.88183927 6815.50987395
0.27600001 115869.31698389 5777.24441823
0.27700001 114169.59395514 5236.95952257
0.27800001 112487.52893786 5178.36363973
0.27900001 110825.16167511 5585.58841278
0.28000001 109180.04988750 6442.71504879
0.28100001 107553.98782298 4549.53390024
0.28200001 105946.79295714 4947.18573128
0.28300001 104357.18534772 4445.61630622
0.28400001 102785.45720970 5272.89420443
0.28500001 101232.08351541 5211.42790604
0.28600001 99696.24056116  6008.69270302
0.28700001 98177.99419353  4241.28954991
0.28800001 96676.73003301  7962.77924607
0.28900001 95194.74878342  5797.36047532
0.29000001 93728.44279646  5318.62073824
0.29100001 92280.39693626  4041.88157713
0.29200001 90849.21864182  5190.67035280
0.29300001 89435.32925027  6310.55713061
0.29400001 88037.62484970  3895.66508401
0.29500001 86658.00000169  4617.13845865
0.29600001 85294.18052851  5319.79829139
0.29700001 83947.45371473  4878.18676629
0.29800001 82616.92363595  4816.97996062
0.29900001 81303.83524297  5488.00913870
0.30000001 80006.28095273  3612.28375602
0.30100001 78725.93052631  3922.91330384
0.30200001 77460.55214048  4928.81516603
0.30300001 76212.44813507  4170.34535938
0.30400001 74980.45049956  4116.42692730
0.30500001 73764.10656513  3724.34991679
0.30600001 72562.85809105  4678.12768261
0.30700001 71378.60555185  3957.23007914
0.30800001 70209.68839255  4555.90689549
0.30900001 69056.40779753  4174.46004900
0.31000001 67919.01982065  4435.79139450
0.31100001 66796.24708110  3751.27741368
0.31200001 65689.62765435  3084.12816439
0.31300001 64597.71414186  3346.80772815
0.31400001 63522.38370657  4502.14915836
0.31500001 62460.90028059  3256.71149483
0.31600002 61415.10189677  4088.40352684
0.31700002 60384.06953764  4032.44835465
0.31800002 59367.99686276  4261.13817658
0.31900002 58366.84417793  3361.93038383
0.32000002 57380.79343666  3315.46240176
0.32100002 56408.46858732  2724.52916177
0.32200002 55452.15025731  2686.65680718
0.32300002 54508.29285202  4238.56505287
0.32400002 53579.87955590  3134.42310244
0.32500002 52665.51250185  2832.87805162
0.32600002 51765.70263464  3300.84018480
0.32700002 50879.46746287  2753.59690948
0.32800002 50007.92837102  3208.25879656
0.32900002 49149.58859310  2919.48570068
0.33000002 48306.08196299  2878.07649964
0.33100002 47473.88382803  3073.45938457
0.33200002 46658.25144234  3262.81167787
0.33300002 45854.62120440  2986.51162047
0.33400002 45065.03445345  2717.42170623
0.33500002 44287.60479847  2232.09538755
0.33600002 43524.60207144  2420.18561279
0.33700002 42773.58492882  2602.34503031
0.33800002 42036.76006669  2565.08322074
0.33900002 41311.48510776  2528.26300833
0.34000002 40599.90867201  3322.69668307
0.34100002 39900.53755741  2046.89767363
0.34200002 39214.51946607  2622.86325870
0.34300002 38539.68918295  2585.24247283
0.34400002 37878.72709239  1960.22421987
0.34500002 37228.85681605  2125.39553629
0.34600002 36592.21647307  2095.08745339
0.34700002 35965.85278125  2065.15936451
0.34800002 35353.06528399  3146.24619396
0.34900002 34751.27759003  2189.33059186
0.35000002 34161.21865863  2338.16472183
0.35100002 33583.23082521  2127.83360586
0.35200002 33015.50824538  1922.98836883
0.35300002 32459.58818346  2068.32505701
0.35400002 31915.20847062  1869.43342471
0.35500002 31381.89069978  2513.68956411
0.35600002 30858.61285690  2643.96607481
0.35700002 30346.50839845  1792.56833600
0.35800002 29845.78185292  1767.91497180
0.35900002 29355.29322509  2060.74168201
0.36000002 28875.62437592  1719.97664742
0.36100002 28405.36793134  2313.61732759
0.36200002 27946.62374660  1521.69373508
0.36300002 27496.69630942  1951.71559649
0.36400002 27057.01989807  2073.92067342
0.36500002 26626.92370581  2046.54545297
0.36600002 26207.05696166  1586.96840949
0.36700002 25796.07015818  1566.33745420
0.36800002 25396.09122448  1686.80845903
0.36900002 25004.22931726  1526.50827213
0.37000002 24621.42385422  1644.21876287
0.37100002 24247.60179223  1894.22274174
0.37200002 23883.57626137  1469.91477064
0.37300002 23527.61008152  1451.88888691
0.37400002 23180.46503181  1564.68146377
0.37500002 22842.29481069  1417.13603719
0.37600002 22512.64270222  1400.39900563
0.37700002 22190.74525300  1635.67991008
0.37800002 21877.20242834  1616.83472206
0.37900002 21572.25551179  1352.58048466
0.38000002 21275.05534630  1580.63031183
0.38100002 20984.71262468  1683.39372650
0.38200002 20703.15492121  1427.27556788
0.38300002 20428.37778672  1176.67461626
0.38400002 20162.08975208  1280.79681218
0.38500002 19901.69155191  1843.69279271
0.38600002 19649.99770463  1482.88714703
0.38700002 19404.28599616  1242.26244833
0.38800002 19165.96225908  1565.66753112
0.38900002 18933.81916904  1329.15416864
0.39000002 18709.72025294  1316.79017379
0.39100002 18490.83852502  1087.26135678
0.39200002 18279.21409554  1293.07166638
0.39300002 18073.51310745  1068.14467526
0.39400002 17875.47972705  1059.12222401
0.39500002 17682.19079810  1365.41883812
0.39600002 17495.11408805  1250.20091196
0.39700002 17313.90416472  1137.00414037
0.39800002 17138.65261002  1128.32324804
0.39900002 16968.87561887  1119.94584391
0.40000002 16804.58544864  1718.35296646
0.40100002 16646.03887390  1405.25866832
0.40200002 16492.99701345  1096.70188837
0.40300002 16344.48971282  1188.57134823
0.40400002 16201.64070644  1377.94960737
0.40500002 16063.85525274  1076.11771437
0.40600002 15930.86780034  1167.09543035
0.40700002 15802.66236219  1160.54757887
0.40800002 15679.29624573  1058.11735728
0.40900002 15560.28973484  1244.04522325
0.41000002 15446.26540186  1714.07215286
0.41100002 15336.22093135  1516.44559754
0.41200002 15230.35847154  943.52075202
0.41300002 15129.26511311  1315.33837126
0.41400002 15031.88979818  1216.45573956
0.41500002 14938.74331664  1305.04867798
0.41600002 14848.87338214  1578.95502591
0.41700002 14763.33610081  1018.22733912
0.41800002 14682.34019555  1015.06363752
0.41900002 14603.10412279  1287.99384466
0.42000002 14528.77291487  917.49205305
0.42100002 14457.95210138  1647.33914049
0.42200002 14390.62859705  1004.39397052
0.42300002 14325.94956258  1093.35652243
0.42400002 14264.45174258  1000.29472585
0.42500002 14206.49964478  1089.35444438
0.42600002 14150.77596530  906.35724353
0.42700002 14099.23563072  1629.30774669
0.42800002 14049.65830500  904.09555477
0.42900002 14004.02265138  1174.23735496
0.43000002 13960.45110837  1353.81481039
0.43100002 13918.72722805  1262.70699396
0.43200002 13880.68801152  1081.86087488
0.43300002 13844.81703737  991.42739503
0.43400002 13811.53596082  991.32304056
0.43500002 13780.31380859  1081.47907895
0.43600002 13751.83480105  1081.71937671
0.43700002 13724.97012645  991.90363804
0.43800002 13700.19768916  992.37386664
0.43900002 13678.33892922  1263.87857695
0.44000002 13657.84406647  1264.85299894
0.44100002 13639.75669948  904.31591203
0.44200002 13623.40142366  995.80257425
0.44300002 13608.84975127  1268.88921094
0.44400002 13596.58203620  907.57189393
0.44500002 13584.66825108  1272.34008869
0.44600002 13574.86986990  1001.21457470
0.44700002 13567.79205261  1094.10680297
0.44800002 13560.65650183  1095.97231042
0.44900002 13556.58269799  1098.08325058
0.45000002 13553.43703516  1008.57906477
0.45100002 13551.33329848  1102.53652942
0.45200002 13550.77351405  1104.93012470
0.45300002 13551.09759710  1015.11276911
0.45400002 13553.19674192  1110.00686577
0.45500002 13556.41661333  1019.98483433
0.45600002 13560.60184833  1115.49516091
0.45700002 13565.95403327  1211.57541213
0.45800002 13571.92221853  934.42688903
0.45900002 13579.03966751  1124.34453776
0.46000002 13587.89398588  1221.48378775
0.46100002 13596.38363671  1224.89825989
0.46200002 13606.88729137  1039.49820389
0.46300002 13617.96806586  1232.15380900
0.46400002 13629.15110476  1045.69666807
0.46500002 13641.70808611  1144.26652850
0.46600002 13654.68602592  1243.46404189
0.46700002 13668.01748413  1343.29282201
0.46800002 13683.05908725  1347.64455338
0.46900002 13697.51115346  1738.21424776
0.47000002 13712.95654035  1259.46655314
0.47100002 13728.91639874  1166.40879252
0.47200002 13745.60945296  1170.30124429
0.47300002 13762.84520261  1467.80751043
0.47400002 13779.73981767  1472.70976282
0.47500002 13797.44501864  1083.65138313
0.47600002 13816.11781314  1383.96058694
0.47700002 13834.10223738  1091.09569518
