# SAXS profile: number of points = 501, q_min = 0, q_max = 0.5, delta_q = 0.001
#    q    intensity    error
0.00000000 1664650.74656090 274.66737318
0.00100000 1664564.12621592 499.36924972
0.00200000 1664304.22877968 1198.29908267
0.00300000 1663871.27779870 1098.15508247
0.00400000 1663265.12767874 1372.19378248
0.00500000 1662486.47932290 1795.48546874
0.00600000 1661535.10848209 1919.07312843
0.00700000 1660411.81905396 2390.99311881
0.00800000 1659116.40912133 3583.69159501
0.00900000 1657650.20232060 3978.36065564
0.01000000 1656012.65579313 4098.63150006
0.01100000 1654205.38479959 3573.08378674
0.01200000 1652228.18776031 3866.21412887
0.01300000 1650082.50597481 5544.27746460
0.01400000 1647768.47605657 4448.97508258
0.01500000 1645287.62509000 3948.69047605
0.01600000 1642639.59506936 5026.47738561
0.01700000 1639826.75760145 5313.03893296
0.01800000 1636849.45541121 6997.53173675
0.01900000 1633708.63710128 6371.46397219
0.02000000 1630405.28873974 7190.08764859
0.02100000 1626941.83691077 6442.68996627
0.02200000 1623317.18033888 7840.62233725
0.02300000 1619534.37629597 6413.35642206
0.02400000 1615594.01272578 6058.47782397
0.02500000 1611498.41981489 7541.81294917
0.02600000 1607248.04404659 7160.29036373
0.02700000 1602844.79833118 11444.31238425
0.02800000 1598289.19143475 10428.83745237
0.02900000 1593584.59504524 7888.24410766
0.03000000 1588731.54989479 8126.36225124
0.03100000 1583731.88034406 11402.87006316
0.03200000 1578586.59503691 8595.40440586
0.03300000 1573299.83974692 8826.21250787
0.03400000 1567870.30163332 9054.45140971
0.03500000 1562302.06537084 9280.07469684
0.03600000 1556595.54749525 10366.92682541
0.03700000 1550754.09904757 15026.80791472
0.03800000 1544778.90858648 11748.04414349
0.03900000 1538672.64590939 9232.03630299
0.04000000 1532435.53306449 14136.71844760
0.04100000 1526071.52018439 13459.95143212
0.04200000 1519582.32004645 10781.43706091
0.04300000 1512969.44122966 12981.27840831
0.04400000 1506236.00349123 13217.22154447
0.04500000 1499384.22953665 15518.62749678
0.04600000 1492414.69272787 11573.67648013
0.04700000 1485331.59095905 11763.82674751
0.04800000 1478136.37994244 16296.45434711
0.04900000 1470832.00021389 12134.36456659
0.05000000 1463419.80902976 15673.22688455
0.05100000 1455904.07109142 14762.86796858
0.05200000 1448283.75613574 16119.39895698
0.05300000 1440564.65313267 17502.86135151
0.05400000 1432747.29028484 14184.19883528
0.05500000 1424835.74457542 16756.06913787
0.05600000 1416830.26501412 16959.45906362
0.05700000 1408736.64337982 14707.21124340
0.05800000 1400553.62627663 13634.39018843
0.05900000 1392285.33800698 15036.68235278
0.06000000 1383935.47682343 15195.61224544
0.06100000 1375505.50988207 17909.08257558
0.06200000 1366998.06887489 15501.75882565
0.06300000 1358416.67318005 14344.88073948
0.06400000 1349760.61228421 15792.19990227
0.06500000 1341036.40101561 19914.39148663
0.06600000 1332245.12508198 13389.06413353
0.06700000 1323388.16902685 20247.83993369
0.06800000 1314469.50826276 21767.61607575
0.06900000 1305493.14578755 19190.75014157
0.07000000 1296458.22817872 13807.28077668
0.07100000 1287369.29234495 22245.74241366
0.07200000 1278228.57261433 13996.60352582
0.07300000 1269039.11564158 21129.50226547
0.07400000 1259803.94528952 15590.07455357
0.07500000 1250523.91688649 15681.57065279
0.07600000 1241201.94757777 18636.64811658
0.07700000 1231842.15720276 15853.80930656
0.07800000 1222445.78304292 15934.58152924
0.07900000 1213014.08568630 14556.16971097
0.08000000 1203553.30223871 16085.49063901
0.08100000 1194063.54578308 16155.68053244
0.08200000 1184546.31142555 25070.92385778
0.08300000 1175005.04149794 28129.62201364
0.08400000 1165443.17529918 16345.34130080
0.08500000 1155862.08969992 14910.62165711
0.08600000 1146264.26261383 14958.74932945
0.08700000 1136652.30449793 21005.33557348
0.08800000 1127027.70728020 18054.98471856
0.08900000 1117394.11755531 21118.74981374
0.09000000 1107753.61690532 18145.00509728
0.09100000 1098107.53926667 16669.27322921
0.09200000 1088458.53241693 15183.99724066
0.09300000 1078810.44657520 25859.08761958
0.09400000 1069162.07996510 18282.67242664
0.09500000 1059517.79440640 21359.87973920
0.09600000 1049879.23107995 16803.31788332
0.09700000 1040251.02785644 22937.53624259
0.09800000 1030631.99828630 27548.79460947
0.09900000 1021026.13982374 18378.47138103
0.10000000 1011433.01503875 24517.13743751
0.10100000 1001856.58229273 19926.92835900
0.10200000 992298.65387873 16864.11641589
0.10300000 982760.67229489 16864.17392988
0.10400000 973245.00075405 19927.19232792
0.10500000 963755.12931613 19920.81946023
0.10600001 954287.46621022 21442.84037471
0.10700001 944850.22735732 22959.86160522
0.10800001 935440.12301115 19882.78075032
0.10900001 926062.57955250 18336.03993814
0.11000001 916717.55388758 15263.34799067
0.11100001 907406.17415932 16768.86688783
0.11200001 898131.54669319 22834.99564968
0.11300001 888893.47123982 18240.09488860
0.11400001 879694.85897980 18209.68443827
0.11500001 870537.12895936 15147.34675715
0.11600001 861421.50598789 18141.53777042
0.11700001 852349.29475284 16595.24155039
0.11800001 843320.98115355 22579.92033386
0.11900001 834338.37551528 21025.32805331
0.12000001 825402.72533521 16479.16618757
0.12100001 816517.34028149 17930.72163726
0.12200001 807680.92107799 19372.22780471
0.12300001 798895.89138881 16345.41070792
0.12400001 790162.52394000 22223.32203292
0.12500001 781481.69815402 19201.00622841
0.12600001 772856.61921899 22084.37893487
0.12700001 764286.05362280 17609.15150532
0.12800001 755771.51187306 19011.43327716
0.12900001 747314.44176794 20401.68522184
0.13000001 738915.45849929 15971.65838828
0.13100001 730574.68540323 18804.99328870
0.13200001 722293.67310835 15850.73540357
0.13300001 714074.05425244 18658.75591725
0.13400001 705914.71456020 20012.68310129
0.13500001 697818.22732925 15659.04175956
0.13600001 689783.43699879 19845.07041817
0.13700001 681812.70789903 28227.04743802
0.13800001 673904.42917050 15455.99881186
0.13900001 666061.64505730 15386.02472640
0.14000001 658283.42371591 16707.23408183
0.14100001 650570.56469229 13857.15368149
0.14200001 642923.09338616 17927.91130465
0.14300001 635343.24745202 19212.78070917
0.14400001 627827.15559826 21848.38604541
0.14500001 620380.11421942 17662.22268499
0.14600001 612999.61557992 14868.30637729
0.14700001 605688.55309804 16135.54381575
0.14800001 598441.95712014 17387.73188446
0.14900001 591264.95866500 15964.15463716
0.15000001 584155.42129994 17200.45719174
0.15100001 577114.53441362 17105.67560715
0.15200001 570142.39046685 18318.67587010
0.15300001 563239.58911337 14311.91863474
0.15400001 556402.83859953 15523.63992950
0.15500001 549636.38713441 18006.08889228
0.15600001 542935.97849222 14064.75718663
0.15700001 536307.69696263 13981.54231970
0.15800001 529744.06203294 16424.71541856
0.15900001 523251.14769724 16325.43657872
0.16000001 516824.00357361 12481.30027545
0.16100001 510468.22325951 13644.81625182
0.16200001 504178.68689829 17258.03726721
0.16300001 497956.79868810 15924.65917381
0.16400001 491802.75734129 18258.17822826
0.16500001 485715.36216039 16932.03832429
0.16600001 479696.27643279 15621.30997956
0.16700001 473741.92536192 17907.44562418
0.16800001 467853.83917270 29650.23845755
0.16900001 462034.28583394 16494.62478312
0.17000001 456278.72107277 12873.90472297
0.17100001 450588.59851687 18600.29822511
0.17200001 444964.16022884 13856.18460386
0.17300001 439404.19331745 13762.13998461
0.17400001 433908.56260082 11390.10030618
0.17500001 428476.66586809 11311.78451315
0.17600001 423106.86871633 17973.58063195
0.17700001 417801.79616210 14501.90102972
0.17800001 412557.56978559 16615.75690791
0.17900001 407376.17528106 12099.07297733
0.18000001 402256.07801474 13105.50364076
0.18100001 397198.67043785 13012.22905820
0.18200001 392198.90837089 24761.47924968
0.18300001 387260.29261142 16032.57687148
0.18400001 382380.64599991 15916.59514166
0.18500001 377561.36960312 13694.15152245
0.18600001 372798.65357713 11502.70299955
0.18700001 368093.60253174 17646.40813907
0.18800001 363445.63478822 14425.15792628
0.18900001 358856.13788587 16363.84066075
0.19000001 354318.81601179 10151.23455837
0.19100001 349841.13990559 15113.13795802
0.19200001 345414.87609823 14999.64170332
0.19300001 341045.50638607 12901.75211623
0.19400001 336727.34832304 11819.13048464
0.19500001 332463.41659915 9774.42490991
0.19600001 328251.35402396 14549.74195468
0.19700001 324090.92465101 10588.05100871
0.19800001 319981.90039040 9551.46017804
0.19900001 315923.65746154 10425.48118894
0.20000001 311913.96367335 12225.46838397
0.20100001 307954.98831608 9331.03658698
0.20200001 304043.09533911 10183.92395971
0.20300001 300180.84601153 11941.19461873
0.20400001 296365.17511616 10024.55252212
0.20500001 292595.90113905 9041.21377255
0.20600001 288873.02847768 9866.45875402
0.20700001 285196.04678348 11567.55220433
0.20800001 281562.71760205 9709.69077549
0.20900001 277975.95213034 11383.11577783
0.21000001 274430.98588726 11291.46344811
0.21100001 270929.81142408 8615.56841057
0.21200001 267470.67155652 8545.68836022
0.21300001 264052.71196841 11866.52943686
0.21400001 260677.09811035 10928.88785496
0.21500001 257342.95622761 11673.07704636
0.21600001 254047.77134134 9923.10641774
0.21700001 250792.51205423 10661.19019148
0.21800001 247576.29271059 9759.45792008
0.21900001 244397.53151458 8871.63081344
0.22000001 241256.40944356 10396.94545656
0.22100001 238154.25290600 8723.59069643
0.22200001 235088.74880163 7863.71901925
0.22300001 232058.01941265 9356.57978515
0.22400001 229062.77420314 7730.86899492
0.22500001 226104.90704491 9964.44372466
0.22600001 223179.34877915 8359.18290381
0.22700001 220290.29083872 9040.71396355
0.22800001 217433.35647837 8215.71976306
0.22900001 214608.85439041 10365.60815726
0.23000001 211818.13504348 8807.39847163
0.23100001 209060.24498983 8730.35624366
0.23200001 206332.39974820 7932.44948347
0.23300001 203636.40457791 7862.40195260
0.23400001 200971.92352606 7792.68670328
0.23500001 198335.90921181 8425.30982180
0.23600001 195731.46144873 7654.07916197
0.23700001 193155.82163174 6895.66315840
0.23800001 190609.33313737 12983.35534075
0.23900001 188091.16975628 7448.41067466
0.24000001 185601.10246518 6709.48017148
0.24100001 183140.01434256 7312.78111860
0.24200001 180705.63173114 7245.39264698
0.24300001 178298.68375672 6525.73213418
0.24400001 175917.83351396 9697.47103118
0.24500001 173563.27497027 6404.48514936
0.24600001 171235.10751444 8247.53934358
0.24700001 168932.88627446 7541.16440003
0.24800001 166655.50983543 6847.04194550
0.24900001 164402.34292382 9247.63222695
0.25000001 162174.85725016 10990.59059579
0.25100001 159970.58105031 7256.26589973
0.25200001 157792.04168742 6587.02909187
0.25300001 155636.77285585 6522.73745898
0.25400001 153504.65880281 6458.70882470
0.25500001 151395.33232478 7557.65534722
0.25600001 149309.36885167 6331.46408571
0.25700001 147245.39644135 6838.07653427
0.25800001 145204.54374447 5641.19679138
0.25900001 143185.68843169 6142.66632436
0.26000001 141188.54967913 8844.05117036
0.26100001 139212.48139015 6018.15585525
0.26200001 137258.77116338 8122.28816791
0.26300001 135325.30037240 6430.65857798
0.26400001 133413.12590535 7954.75800851
0.26500001 131522.23308188 7346.83228760
0.26600001 129650.65134454 8827.26501450
0.26700001 127800.59207574 7192.61766238
0.26800001 125970.93179190 5591.22007217
0.26900001 124159.87178368 5028.47504519
0.27000001 122369.57762078 7958.91770509
0.27100001 120598.28876512 5412.45145591
0.27200001 118847.89160319 6326.86780891
0.27300001 117115.77270541 5776.15018318
0.27400001 115400.89594083 5236.31590112
0.27500001 113707.85788139 5178.25609298
0.27600001 112031.23992751 5120.38806321
0.27700001 110374.96462449 5062.89986694
0.27800001 108736.13352543 5460.72888409
0.27900001 107116.75668335 5398.68479235
0.28000001 105514.22694994 5781.65233936
0.28100001 103930.44319067 4835.88375054
0.28200001 102365.23568585 5214.48535264
0.28300001 100817.31695243 5583.26327708
0.28400001 99286.83411918  6791.21977519
0.28500001 97774.50112923  5033.43155637
0.28600001 96279.35327529  4559.30899015
0.28700001 94801.53575717  5324.05450012
0.28800001 93340.32109237  4450.93342197
0.28900001 91898.11139074  5196.83844513
0.29000001 90471.18647956  4343.97422443
0.29100001 89062.20128227  4291.01706089
0.29200001 87669.93921568  4623.71281310
0.29300001 86294.52179150  3805.58859115
0.29400001 84934.94750985  4134.20876574
0.29500001 83593.18815386  4453.84527567
0.29600001 82266.96112067  3664.99329142
0.29700001 80957.43630313  4704.43684627
0.29800001 79663.92304740  4287.51254138
0.29900001 78387.38069422  5643.89167716
0.30000001 77126.12443367  3830.46915133
0.30100001 75881.89201373  5499.91979352
0.30200001 74652.06518944  3392.93652348
0.30300001 73439.42661080  5023.25701799
0.30400001 72242.56214891  3966.11684974
0.30500001 71061.04692784  3261.70220840
0.30600001 69894.22393138  4827.94374663
0.30700001 68744.17548072  3493.57916333
0.30800001 67609.09357816  3133.68163571
0.30900001 66489.45421360  4328.46367423
0.31000001 65385.32164137  3355.24793888
0.31100001 64295.53929876  3911.74079614
0.31200001 63221.63069511  4155.55798234
0.31300001 62162.07970736  3220.61750212
0.31400001 61118.72168848  3465.43168381
0.31500001 60089.13997608  3417.87044367
0.31600002 59074.83932151  3370.81049129
0.31700002 58075.07960588  2770.18142836
0.31800002 57089.85923639  3004.92488319
0.31900002 56119.34019175  2963.10130242
0.32000002 55163.57519042  3718.57677966
0.32100002 54221.41083424  2880.78369403
0.32200002 53294.76310490  4389.62337099
0.32300002 52380.53495080  3054.83294298
0.32400002 51481.27488452  3011.65472335
0.32500002 50595.77940921  2968.96047632
0.32600002 49724.60161837  2438.99182487
0.32700002 48866.68619749  2644.66518224
0.32800002 48023.32786614  3080.93674514
0.32900002 47192.79029619  4204.87781451
0.33000002 46376.78608787  2993.38979979
0.33100002 45571.71480140  2269.47150458
0.33200002 44783.15028739  3579.06954045
0.33300002 44006.27812670  2645.65756626
0.33400002 43243.06115409  3259.44588884
0.33500002 42491.84618199  2569.90697879
0.33600002 41754.72581560  2743.91193691
0.33700002 41029.38770268  2288.20906054
0.33800002 40317.76137355  3075.23739440
0.33900002 39617.73527759  2626.65597330
0.34000002 38930.97364991  2190.45133615
0.34100002 38256.19981261  2355.05177200
0.34200002 37594.43660484  2321.08062591
0.34300002 36943.72985119  2478.18551578
0.34400002 36306.45446851  1878.85910773
0.34500002 35680.26146934  2036.98622376
0.34600002 35066.96632850  2190.28282061
0.34700002 34463.65822113  1978.90334878
0.34800002 33873.60670746  1950.61173463
0.34900002 33294.43715418  1922.75383672
0.35000002 32726.62127053  2067.66802980
0.35100002 32170.81497882  2208.20484473
0.35200002 31624.78489295  1674.53243939
0.35300002 31090.48914359  1815.99555689
0.35400002 30567.45100160  1790.48852722
0.35500002 30055.13719487  1765.43884245
0.35600002 29552.70779191  1740.80233493
0.35700002 29061.32547719  2028.77122765
0.35800002 28581.03965734  2308.63358767
0.35900002 28110.64335442  1821.56977565
0.36000002 27650.85844937  2096.21167834
0.36100002 27200.37778317  2067.77281702
0.36200002 26761.07977917  1602.85494930
0.36300002 26330.42964608  2300.22644284
0.36400002 25909.75350145  1844.12679282
0.36500002 25498.52025202  1679.84259377
0.36600002 25097.14880789  1657.91772878
0.36700002 24704.54609256  1772.79831158
0.36800002 24322.69713551  2019.39202533
0.36900002 23948.76794632  1462.07235238
0.37000002 23583.66386972  1706.16024347
0.37100002 23227.30826871  1425.69224907
0.37200002 22880.51712559  1536.19799258
0.37300002 22541.71013456  1391.04899830
0.37400002 22211.40903731  1749.14854455
0.37500002 21889.94565792  1604.97089167
0.37600002 21576.77649914  1464.20012259
0.37700002 21271.13252849  1567.89525295
0.37800002 20973.57899783  1788.52203377
0.37900002 20684.41780187  2004.32017995
0.38000002 20402.94129018  1632.43940996
0.38100002 20128.12365310  1384.00984795
0.38200002 19861.82174876  1255.16788487
0.38300002 19602.11442989  1354.89821358
0.38400002 19350.67318575  1341.00171530
0.38500002 19105.00534124  1438.03382016
0.38600002 18867.68170030  1095.26897459
0.38700002 18636.46510071  1626.96348037
0.38800002 18412.18316113  1289.22112602
0.38900002 18194.04156316  1277.22177824
0.39000002 17983.61385070  1265.68680278
0.39100002 17778.43676449  1045.37213128
0.39200002 17580.23149156  1139.99016508
0.39300002 17387.83586126  1233.14537770
0.39400002 17202.76558922  1019.26390945
0.39500002 17022.37268693  1213.35478261
0.39600002 16848.00220821  1203.95829484
0.39700002 16679.34286590  1692.78658766
0.39800002 16516.51767081  1482.77044415
0.39900002 16358.98106680  981.53891051
0.40000002 16206.69295147  1364.76567810
0.40100002 16060.02269822  1162.10329750
0.40200002 15918.69997822  1058.51400520
0.40300002 15781.75736998  1052.01199613
0.40400002 15650.33676530  1235.98540460
0.40500002 15523.81714888  1418.10076374
0.40600002 15401.93840502  1034.31722260
0.40700002 15284.62150621  1028.96076855
0.40800002 15172.08709010  1210.04986321
0.40900002 15063.71067072  1019.06007516
0.41000002 14960.13392601  1106.75076029
0.41100002 14860.50147807  1102.05484183
0.41200002 14764.81109873  1006.14810000
0.41300002 14673.81765469  1002.36853149
0.41400002 14586.28762172  1271.19502647
0.41500002 14502.91447695  1266.97466874
0.41600002 14422.73746212  992.35649810
0.41700002 14346.62522181  989.48678843
0.41800002 14275.09822308  986.90896242
0.41900002 14205.03715636  984.40912158
0.42000002 14139.67237994  1071.50442372
0.42100002 14077.92843184  1069.35949435
0.42200002 14019.41563844  1334.29794661
0.42300002 13963.47750449  1154.50037478
0.42400002 13910.52879077  1152.83512816
0.42500002 13861.08656524  1062.86816819
0.42600002 13813.64829774  884.76421540
0.42700002 13770.37448609  1502.89874263
0.42800002 13728.78203346  971.79188229
0.42900002 13691.17061808  883.08054671
0.43000002 13655.47928923  971.10945567
0.43100002 13621.45087306  1147.47107592
0.43200002 13591.00811867  1324.10402871
0.43300002 13562.67951921  1236.10266996
0.43400002 13536.73637650  1059.92650851
0.43500002 13512.82555202  1060.48659958
0.43600002 13491.47584013  1149.67616820
0.43700002 13471.71248535  973.60070745
0.43800002 13453.92120585  1151.72297941
0.43900002 13438.88226858  1064.35952611
0.44000002 13425.12691402  888.07218745
0.44100002 13413.67268304  1689.72042796
0.44200002 13403.83668407  1068.82198784
0.44300002 13395.78697402  981.37540022
0.44400002 13389.82074254  1072.52469231
0.44500002 13384.15462960  1074.47998458
0.44600002 13380.55607955  1076.59959318
0.44700002 13379.50525216  1348.65419333
0.44800002 13378.35508552  901.03225771
0.44900002 13380.18924550  1083.79538025
0.45000002 13382.75705041  1086.41226884
0.45100002 13386.32482906  1089.11143971
0.45200002 13391.33538330  1091.92953890
0.45300002 13397.25674708  1186.05919603
0.45400002 13404.80886488  1006.36607323
0.45500002 13413.37119749  1100.96956007
0.45600002 13422.80358954  1196.17319857
0.45700002 13433.29193348  922.86719957
0.45800002 13444.38342253  1203.33959526
0.45900002 13456.57477474  1392.75555519
0.46000002 13470.34074643  1117.76892812
0.46100002 13483.77224750  934.42546104
0.46200002 13498.99538971  1593.75896622
0.46300002 13514.83491442  940.63255463
0.46400002 13530.63781618  1038.13823565
0.46500002 13547.75300754  1325.78317215
0.46600002 13565.26579627  1140.29629688
0.46700002 13583.05389109  1048.88347118
0.46800002 13602.41005178  1148.31551100
0.46900002 13621.15958192  1248.37933485
0.47000002 13640.81874584  1349.21344610
0.47100002 13661.00595889  1354.07897482
0.47200002 13681.74444744  1261.93575892
0.47300002 13702.97919531  1169.13824036
0.47400002 13723.85598547  1271.17222090
0.47500002 13745.50537809  1079.57204356
0.47600002 13767.92278369  1280.62339842
0.47700002 13789.74116655  1186.46938621
