# SAXS profile: number of points = 501, q_min = 0, q_max = 0.5, delta_q = 0.001
#    q    intensity    error
0.00000000 1682732.95097188 252.40994265
0.00100000 1682645.85436192 656.23189879
0.00200000 1682384.52199243 984.19497653
0.00300000 1681949.18994224 1211.00345990
0.00400000 1681339.69907036 1513.20578666
0.00500000 1680556.75983936 1512.50114372
0.00600000 1679600.14140184 2116.29626433
0.00700000 1678470.66091238 3424.08029057
0.00800000 1677168.09751011 2717.01243268
0.00900000 1675693.78513610 3016.24894218
0.01000000 1674047.19290523 3038.39578632
0.01100000 1672229.95615243 3010.01405213
0.01200000 1670241.78884231 4234.06312035
0.01300000 1668084.24727687 4553.87019591
0.01400000 1665757.36082900 5621.93134202
0.01500000 1663262.76460848 4391.01389409
0.01600000 1660600.03664348 5081.43633929
0.01700000 1657771.56110749 4923.58175735
0.01800000 1654777.68847588 6602.56327412
0.01900000 1651619.39448186 6441.31592913
0.02000000 1648297.57454577 6230.56511363
0.02100000 1644814.78806756 5970.67795139
0.02200000 1641169.83139079 6794.44341065
0.02300000 1637365.85309830 7662.87254130
0.02400000 1633403.40575346 9187.89457631
0.02500000 1629284.68849685 8895.89480547
0.02600000 1625010.48622781 9871.93915536
0.02700000 1620582.32217630 7487.09067137
0.02800000 1616001.05049620 7732.56538124
0.02900000 1611269.81830735 7250.71451529
0.03000000 1606389.20966979 7469.71016831
0.03100000 1601361.11535035 8455.18707810
0.03200000 1596186.50512257 7901.12356427
0.03300000 1590869.53499982 10547.46550329
0.03400000 1585409.01217687 8323.39769797
0.03500000 1579808.78965495 10237.16142970
0.03600000 1574069.50330540 9609.69476178
0.03700000 1568194.29590990 10726.44948010
0.03800000 1562184.64529366 13708.17089686
0.03900000 1556043.06033267 10269.88467379
0.04000000 1549769.71165509 10484.19258517
0.04100000 1543368.62319123 12640.18961002
0.04200000 1536841.54813231 9912.62844533
0.04300000 1530190.02424011 15148.88194316
0.04400000 1523416.89969159 13367.98391563
0.04500000 1516524.79960783 11510.42376385
0.04600000 1509514.12901875 17027.32016688
0.04700000 1502389.09575410 12980.64239102
0.04800000 1495151.04010056 14286.16885287
0.04900000 1487803.08181841 13390.22835965
0.05000000 1480346.56395933 13589.58208996
0.05100000 1472785.74149262 11487.72931879
0.05200000 1465119.51113342 17471.55098446
0.05300000 1457353.78730334 12985.02285021
0.05400000 1449488.90477741 16741.59763090
0.05500000 1441529.21300743 16952.38433578
0.05600000 1433474.79508754 15933.07309090
0.05700000 1425331.53047291 17360.53885152
0.05800000 1417098.10860767 13795.45073144
0.05900000 1408778.70982652 17750.61257287
0.06000000 1400376.99990949 15376.14017736
0.06100000 1391894.49055199 15533.54324046
0.06200000 1383333.79702513 14379.75549224
0.06300000 1374698.41978729 14516.81599169
0.06400000 1365987.78324436 14650.21966044
0.06500000 1357208.29850815 17467.27161888
0.06600000 1348361.08066551 16261.23539367
0.06700000 1339447.47403138 16394.83784941
0.06800000 1330471.47350188 16524.45647439
0.06900000 1321437.25533319 15262.60101368
0.07000000 1312343.77150928 19567.04654950
0.07100000 1303195.63299272 16889.41619465
0.07200000 1293995.17906773 15586.17266203
0.07300000 1284745.27084763 18538.87512698
0.07400000 1275449.23402925 24392.96774397
0.07500000 1266107.37014410 15876.98716580
0.07600000 1256723.32663609 15966.67061344
0.07700000 1247300.73015968 16052.76114985
0.07800000 1237841.07222636 17602.10087253
0.07900000 1228345.55873187 16214.16213577
0.08000000 1218820.17200402 16289.53236299
0.08100000 1209265.47279241 26773.13882377
0.08200000 1199682.75382185 14936.05098596
0.08300000 1190075.50127964 17993.94242384
0.08400000 1180447.04594236 21070.98075911
0.08500000 1170798.96455891 22654.96102776
0.08600000 1161133.60452322 18183.35310057
0.08700000 1151453.67299498 16719.10811698
0.08800000 1141760.57196597 16766.75478675
0.08900000 1132057.95829170 15282.78315477
0.09000000 1122348.05912335 18384.06207204
0.09100000 1112632.13910649 16889.75666514
0.09200000 1102912.84951067 18462.76196831
0.09300000 1093194.06897463 20038.24822595
0.09400000 1083474.41963723 15439.51120545
0.09500000 1073758.65390578 17008.33787731
0.09600000 1064048.18732966 20126.47240944
0.09700000 1054347.57294423 18598.69206111
0.09800000 1044655.79477311 17064.45320995
0.09900000 1034976.88731923 20182.05025173
0.10000000 1025310.39223000 17086.79849006
0.10100000 1015660.03148690 21755.43889765
0.10200000 1006028.09674894 20206.07527362
0.10300000 996415.62595402 21761.71829452
0.10400000 986825.02596744 17096.74437920
0.10500000 977259.99780921 15538.43469624
0.10600001 967717.05631437 26404.16112395
0.10700001 958204.20911405 18627.49070174
0.10800001 948718.09534178 17062.69574772
0.10900001 939264.16688173 21697.00327615
0.11000001 929842.64639887 21674.63310777
0.11100001 920454.44915924 27834.54385284
0.11200001 911102.91583638 15443.19515045
0.11300001 901787.51330380 15420.56720351
0.11400001 892511.52819964 23093.73687952
0.11500001 883276.05044059 21516.60560191
0.11600001 874082.56463191 18408.17967802
0.11700001 864932.38136988 21433.02541973
0.11800001 855825.74590115 16804.13931222
0.11900001 846764.72274022 18290.11887268
0.12000001 837750.47465905 21287.24056382
0.12100001 828786.29166953 19716.82680764
0.12200001 819870.85608328 15126.61800737
0.12300001 811006.88160934 16593.20157951
0.12400001 802194.20846057 21057.59896427
0.12500001 793434.14807006 14995.90610514
0.12600001 784729.65865346 17938.92084216
0.12700001 776079.64751168 22351.09490166
0.12800001 767485.45850185 23761.35091507
0.12900001 758948.86131306 19239.35454108
0.13000001 750470.05842266 16221.41107740
0.13100001 742049.46219949 16161.83804854
0.13200001 733688.51655877 20491.92123348
0.13300001 725389.02168052 18954.41603008
0.13400001 717149.56411203 21783.41903690
0.13500001 708973.27007426 15909.36093056
0.13600001 700858.31988679 17283.16698332
0.13700001 692807.80089804 15775.23437030
0.13800001 684819.27867862 15706.33089714
0.13900001 676896.70997532 18479.28105378
0.14000001 669038.45154408 14150.16391749
0.14100001 661245.61638202 18309.89198117
0.14200001 653518.16699865 16821.55841194
0.14300001 645858.63367542 18135.71128902
0.14400001 638262.45992573 23599.75556895
0.14500001 630735.78384324 15194.42574954
0.14600001 623275.54639372 16491.87173557
0.14700001 615884.96763004 20508.97038962
0.14800001 608558.75269835 14961.41764095
0.14900001 601302.28724132 18941.02294175
0.15000001 594113.47697332 16148.00506604
0.15100001 586993.28714747 18736.82660984
0.15200001 579942.15434142 14640.64037720
0.15300001 572960.48914694 15882.46550863
0.15400001 566044.86084998 15792.65236299
0.15500001 559199.62452587 15702.32619773
0.15600001 552420.59453681 13009.50561532
0.15700001 545713.99514836 14226.76452498
0.15800001 539072.06539819 19285.30404986
0.15900001 532501.01049648 15336.02982617
0.16000001 525996.06063360 16513.64710308
0.16100001 519562.54235435 18938.05556277
0.16200001 513195.59321522 13802.39613108
0.16300001 506896.21754032 14963.57704819
0.16400001 500665.09006396 16108.90003330
0.16500001 494500.87798100 12313.07244304
0.16600001 488405.14837009 13458.00449873
0.16700001 482374.28705508 17018.16565081
0.16800001 476410.09267320 22946.29319705
0.16900001 470514.42871586 11998.11849878
0.17000001 464683.07384734 13111.03354770
0.17100001 458917.55633628 22496.13967390
0.17200001 453217.78209328 12937.10220078
0.17300001 447583.02805098 12850.10934218
0.17400001 442012.72136197 15083.68482882
0.17500001 436506.33339842 17285.65161894
0.17600001 431062.34666326 16022.58818221
0.17700001 425683.59641993 12502.32781735
0.17800001 420365.75061625 13544.18512458
0.17900001 415111.09470260 15691.20012091
0.18000001 409918.09440207 15580.98750419
0.18100001 404787.98222092 13260.85492395
0.18200001 399715.93136104 12069.42311758
0.18300001 394705.43710030 13072.64469430
0.18400001 389754.01930014 14060.37691047
0.18500001 384863.33721235 13958.99390014
0.18600001 380029.70433854 18121.71730752
0.18700001 375254.00546132 13756.81249015
0.18800001 370535.88248049 10504.69276463
0.18900001 365876.26757922 16683.95858989
0.19000001 361269.22629432 13455.47296909
0.19100001 356722.39331128 11300.96595407
0.19200001 352227.25279661 12236.37534034
0.19300001 347789.39732342 10120.67194034
0.19400001 343403.02145396 13057.90050782
0.19500001 339071.36101150 10965.56833329
0.19600001 334791.84281566 9893.09942271
0.19700001 330564.48844709 13744.87207918
0.19800001 326388.89663338 12665.52173242
0.19900001 322264.35456745 13535.10353150
0.20000001 318188.69401020 12471.40645114
0.20100001 314164.41239225 10471.10035992
0.20200001 310187.43306215 10389.72856147
0.20300001 306260.53560751 11245.88739904
0.20400001 302380.42195444 12087.65793896
0.20500001 298547.44671733 11070.13984753
0.20600001 294761.25993106 10067.57130882
0.20700001 291021.28151447 11803.82373618
0.20800001 287325.36166325 11709.94566812
0.20900001 283676.28798082 10722.96419256
0.21000001 280069.60674219 9750.62381966
0.21100001 276507.21349841 8792.92980492
0.21200001 272987.10455801 10466.32608354
0.21300001 269508.60723357 9516.34937131
0.21400001 266073.04410079 8580.85607792
0.21500001 262679.26797740 9361.88955332
0.21600001 259324.91819541 10129.23178361
0.21700001 256010.88124011 12557.33431853
0.21800001 252736.51356714 9132.63434954
0.21900001 249499.77792303 9056.84236683
0.22000001 246301.16538840 9797.86082242
0.22100001 243142.07226519 9715.95766712
0.22200001 240020.10197698 12845.87646522
0.22300001 236933.26292585 9553.14961289
0.22400001 233882.17324478 11840.28558040
0.22500001 230869.23713960 10957.05451277
0.22600001 227889.10650985 8535.58688796
0.22700001 224945.78596901 8462.46086834
0.22800001 222034.78045097 8389.58457608
0.22900001 219156.86693576 9073.09472022
0.23000001 216313.29036197 8994.30703861
0.23100001 213502.84770132 8172.88939652
0.23200001 210722.85838075 9574.19352333
0.23300001 207975.41577763 10219.91241466
0.23400001 205259.81495698 7235.40881943
0.23500001 202572.97171403 9322.40859919
0.23600001 199918.34365667 7817.80719845
0.23700001 197292.91765639 9156.36474151
0.23800001 194697.07206147 7677.87939990
0.23900001 192129.94262886 7608.34608797
0.24000001 189591.41173578 7539.10284428
0.24100001 187082.40410237 9507.52822620
0.24200001 184600.28056392 7401.54859932
0.24300001 182146.37601559 7999.86921302
0.24400001 179718.95556209 7925.60631520
0.24500001 177318.07853897 7851.64488912
0.24600001 174944.41717315 9722.53644432
0.24700001 172596.71634668 8346.77759738
0.24800001 170274.44652282 8267.67614203
0.24900001 167976.88291326 10078.61345159
0.25000001 165705.43228463 8110.45276686
0.25100001 163457.52497173 6178.69473624
0.25200001 161235.92924579 6118.90380436
0.25300001 159037.94589998 8483.08443564
0.25400001 156863.71238414 7200.04473907
0.25500001 154712.56644770 7723.25168247
0.25600001 152585.26667961 8235.02723232
0.25700001 150480.31524349 8735.38271318
0.25800001 148399.04640857 10954.07612893
0.25900001 146340.17134158 7990.17373330
0.26000001 144303.26615804 9604.10433357
0.26100001 142288.16458883 7828.69518610
0.26200001 140295.54780149 6641.59154718
0.26300001 138323.80882501 7120.91001526
0.26400001 136373.75846268 7047.11430202
0.26500001 134445.31935682 5364.36849617
0.26600001 132536.59020922 5308.09068906
0.26700001 130649.83004784 6827.76044139
0.26800001 128783.90157866 5716.07374206
0.26900001 126937.10027506 6683.23864574
0.27000001 125111.21980534 7120.07985606
0.27100001 123304.93130945 7043.17800970
0.27200001 121519.96657649 6966.74001352
0.27300001 119753.45590523 4921.86727063
0.27400001 118004.78844333 6814.77685511
0.27500001 116278.28602397 7702.27403074
0.27600001 114568.61923293 6188.42426074
0.27700001 112879.63610921 5177.78915338
0.27800001 111208.51796504 6515.70737594
0.27900001 109557.26312316 5061.54579584
0.28000001 107923.24018068 5913.65422558
0.28100001 106308.32616040 5845.89513224
0.28200001 104712.25169594 4445.03529487
0.28300001 103134.04736501 6150.91487597
0.28400001 101573.59000527 8250.31523867
0.28500001 100031.57137121 5149.62553793
0.28600001 98507.08000622  5512.94899349
0.28700001 97000.43736932  4609.46100197
0.28800001 95510.69638518  4554.42777270
0.28900001 94040.26151966  4499.82672671
0.29000001 92585.43861396  5253.76096283
0.29100001 91148.99946359  4391.55900203
0.29200001 89729.55140521  4337.97536802
0.29300001 88327.28354739  4674.28006659
0.29400001 86941.32074952  5386.01507539
0.29500001 85573.37126652  4939.29522331
0.29600001 84221.42201664  4502.47743415
0.29700001 82886.33307927  5557.52889605
0.29800001 81567.69864707  5487.46718625
0.29900001 80266.37498907  4334.38445460
0.30000001 78980.69131156  4279.17405783
0.30100001 77712.22458641  5280.54591063
0.30200001 76458.64479253  4865.06379846
0.30300001 75222.41630159  4116.17081489
0.30400001 74002.26740564  3385.60389409
0.30500001 72797.81322456  6348.69759187
0.30600001 71608.44102297  3957.08263827
0.30700001 70436.01277257  4881.21591623
0.30800001 69278.92606467  3532.18621263
0.30900001 68137.53539657  3485.23510054
0.31000001 67011.95010790  4063.93990670
0.31100001 65900.99621075  3084.16676868
0.31200001 64806.17398839  4259.71001794
0.31300001 63726.02079457  5402.69229876
0.31400001 62662.41422621  2960.79921237
0.31500001 61612.69413440  3212.48602427
0.31600002 60578.64823529  3456.61783197
0.31700002 59559.35807501  2840.98151469
0.31800002 58554.93413018  3082.03910387
0.31900002 57565.29196366  3039.44755960
0.32000002 56590.91255325  2997.33782531
0.32100002 55630.19226049  4030.40762011
0.32200002 54685.36267932  3709.30832618
0.32300002 53753.10486023  2612.40101991
0.32400002 52835.93882792  2833.32735381
0.32500002 51933.00000507  2539.52382050
0.32600002 51044.58711415  3004.48453981
0.32700002 50169.60782501  3455.68275062
0.32800002 49309.36230124  2920.10057376
0.32900002 48462.22784105  2638.76843090
0.33000002 47629.95088561  3310.75804284
0.33100002 46808.75789906  2564.18387914
0.33200002 46004.18219954  2987.28171259
0.33300002 45211.57292659  2718.11989306
0.33400002 44432.94490691  3349.13338096
0.33500002 43666.33921809  2640.94032097
0.33600002 42914.19886230  2603.17542626
0.33700002 42173.87135816  2993.50153077
0.33800002 41447.58291785  2318.37066030
0.33900002 40732.99413204  3116.07419867
0.34000002 40031.84877998  2252.39207827
0.34100002 39343.07370194  2825.61968709
0.34200002 38667.39394847  2785.21251801
0.34300002 38002.80508626  2157.03931885
0.34400002 37352.02116034  2706.15406123
0.34500002 36712.36622445  2286.44627675
0.34600002 36085.86005129  2253.92292555
0.34700002 35469.46285693  2221.80725859
0.34800002 34866.52632603  2372.84156150
0.34900002 34274.60013976  2159.29991107
0.35000002 33694.24479346  2306.20269411
0.35100002 33125.98019684  1749.05183723
0.35200002 32567.74169818  2586.69300689
0.35300002 32021.28313120  2550.49532220
0.35400002 31486.34287008  2347.30697214
0.35500002 30962.28496519  1984.06331454
0.35600002 30448.15123686  2282.69800635
0.35700002 29945.15657582  1768.86048272
0.35800002 29453.56396923  1586.07449487
0.35900002 28971.93603842  1877.38154421
0.36000002 28501.01709517  1851.99617857
0.36100002 28039.52215626  1674.80073772
0.36200002 27589.42352138  2103.14185465
0.36300002 27148.05072793  1778.74036795
0.36400002 26716.81780320  1755.29501281
0.36500002 26295.00174738  1732.31479717
0.36600002 25883.33585497  2279.80433010
0.36700002 25480.42639354  1687.82352426
0.36800002 25088.51462877  1388.64935048
0.36900002 24704.57100092  2056.65563325
0.37000002 24329.56881889  1624.72868269
0.37100002 23963.36539541  1604.58702289
0.37200002 23607.00477778  1320.81197988
0.37300002 23258.58119774  1304.80646700
0.37400002 22918.77168704  1547.01716216
0.37500002 22587.90695415  1401.35381382
0.37600002 22265.45284882  1385.02256007
0.37700002 21950.66220977  1617.98338813
0.37800002 21643.98531368  1845.69093506
0.37900002 21345.86831774  1460.05746210
0.38000002 21055.42685281  1443.98124197
0.38100002 20771.79992450  1190.22419206
0.38200002 20496.81239371  1648.55869892
0.38300002 20228.38389823  1281.67046451
0.38400002 19968.43057685  1614.44768862
0.38500002 19714.17295636  1255.59573507
0.38600002 19468.55308126  1356.17947189
0.38700002 19228.90085531  1119.12208280
0.38800002 18996.35792456  1330.12504489
0.38900002 18770.08973726  1647.07545248
0.39000002 18551.57203938  2284.90447848
0.39100002 18338.24283153  1509.60422141
0.39200002 18132.05416466  1603.32696547
0.39300002 17931.73411830  1483.67175124
0.39400002 17738.87331843  1261.23395269
0.39500002 17550.70824840  1146.76333128
0.39600002 17368.53877960  1034.29653333
0.39700002 17192.22757074  1436.92644844
0.39800002 17021.83842215  1426.25990897
0.39900002 16856.70093739  1112.54231458
0.40000002 16696.94104100  1606.91368192
0.40100002 16542.75237654  1496.29202335
0.40200002 16394.16889209  1189.23306778
0.40300002 16249.88131472  1378.63999606
0.40400002 16111.20797875  1174.50711730
0.40500002 15977.44706150  1070.32922936
0.40600002 15848.35873813  1354.55928553
0.40700002 15723.93293930  1250.99616392
0.40800002 15604.39239153  1053.06247044
0.40900002 15488.98414216  1238.34434084
0.41000002 15378.40905159  1042.88685925
0.41100002 15271.79406522  1887.59383590
0.41200002 15169.23522398  1315.62783331
0.41300002 15071.30345662  1029.52078790
0.41400002 14977.03166932  1491.71242495
0.41500002 14886.95894090  1207.63016651
0.41600002 14799.97931833  1110.88650027
0.41700002 14717.17375385  922.76683809
0.41800002 14638.98213544  1564.10212037
0.41900002 14562.28438012  1284.39354319
0.42000002 14490.45217176  1098.08651761
0.42100002 14422.09535959  1278.08615133
0.42200002 14357.08363316  1184.24409960
0.42300002 14294.67301819  909.14124704
0.42400002 14235.32167593  1270.50251978
0.42500002 14179.42121840  1268.49108231
0.42600002 14125.63777530  1266.64599933
0.42700002 14075.98995166  903.67859772
0.42800002 14028.09275800  992.97859293
0.42900002 13984.20280381  1262.77357302
0.43000002 13942.25502745  901.36683024
0.43100002 13902.01028354  1081.02037088
0.43200002 13865.40566475  1080.66976872
0.43300002 13830.90841420  1170.50983456
0.43400002 13798.90227125  1080.45409904
0.43500002 13768.84862422  1170.62756551
0.43600002 13741.41156479  990.82452783
0.43700002 13715.65406145  1441.78962326
0.43800002 13691.79355474  1172.08604280
0.43900002 13670.80235906  1263.18219784
0.44000002 13651.12227771  1083.62613776
0.44100002 13633.73489971  1265.48333336
0.44200002 13618.04614279  1266.88689270
0.44300002 13604.06811554  1087.23717532
0.44400002 13592.28371586  998.01347913
0.44500002 13580.84837790  908.55879954
0.44600002 13571.39658721  1091.95462116
0.44700002 13564.63770632  1002.69806677
0.44800002 13557.65467327  913.10808552
0.44900002 13553.74318405  914.87770828
0.45000002 13550.69963708  1191.71633606
0.45100002 13548.57479700  1010.45275625
0.45200002 13547.98181507  1196.76103035
0.45300002 13548.24426316  922.63547805
0.45400002 13550.18879045  924.80042878
0.45500002 13553.19790434  927.03878059
0.45600002 13557.07757099  1301.07279615
0.45700002 13562.05348702  1024.88443059
0.45800002 13567.69513450  1307.79019600
0.45900002 13574.39234420  1217.62305098
0.46000002 13582.77318950  1408.87321585
0.46100002 13590.75452561  1130.20719992
0.46200002 13600.65246073  1227.93496561
0.46300002 13611.08179712  1231.53073937
0.46400002 13621.59881171  1140.12787458
0.46500002 13633.36690292  1048.26963085
0.46600002 13645.65642161  1051.46610540
0.46700002 13658.12934151  958.80072522
0.46800002 13672.28540983  1442.76798625
0.46900002 13685.83836572  1254.30714567
0.47000002 13700.31061220  1064.71968969
0.47100002 13715.34057694  971.04615887
0.47200002 13730.99282031  974.21398678
0.47300002 13747.14584943  1466.13317433
0.47400002 13762.90285546  980.60687493
0.47500002 13779.51680783  1180.62905605
0.47600002 13797.02042215  1085.89454379
0.47700002 13813.80052982  1287.58440841
