# SAXS profile: number of points = 501, q_min = 0, q_max = 0.5, delta_q = 0.001
#    q    intensity    error
0.00000000 1664650.74656090 349.57665678
0.00100000 1664564.31627582 649.18009876
0.00200000 1664304.98141650 898.72471842
0.00300000 1663872.98081123 998.32382405
0.00400000 1663268.15197536 1372.19627752
0.00500000 1662491.19331444 1795.49055985
0.00600000 1661541.90219154 2268.00478883
0.00700000 1660421.06561368 2789.50750616
0.00800000 1659128.46716626 2687.78823029
0.00900000 1657665.46373321 2735.14813208
0.01000000 1656031.47963403 2732.45205938
0.01100000 1654228.18641671 4168.65521127
0.01200000 1652255.25122647 3544.08766927
0.01300000 1650114.26164559 3811.76411252
0.01400000 1647805.20764789 4819.83044604
0.01500000 1645329.85627108 5133.42938015
0.01600000 1642687.56737739 6702.16557451
0.01700000 1639880.84601657 4870.44633115
0.01800000 1636910.04413585 5131.71321928
0.01900000 1633776.05501522 6861.85974069
0.02000000 1630479.91449955 6163.21435561
0.02100000 1627024.03551107 7516.85138486
0.02200000 1623407.27362591 8401.13302270
0.02300000 1619632.73646282 6996.81374000
0.02400000 1615700.90561032 8482.43014123
0.02500000 1611614.26682577 8799.41429874
0.02600000 1607373.16271623 10415.77857080
0.02700000 1602979.51455854 9425.51997730
0.02800000 1598433.86588150 8343.82516255
0.02900000 1593739.48328922 7889.01080450
0.03000000 1588897.00126895 8866.04567461
0.03100000 1583908.14866464 12164.41514147
0.03200000 1578774.09536387 10940.90498479
0.03300000 1573498.94750759 10432.29850291
0.03400000 1568081.25371071 8232.42696183
0.03500000 1562525.12229758 10968.92686505
0.03600000 1556830.99995119 11232.53618375
0.03700000 1551002.20241334 10608.85555514
0.03800000 1545040.10233190 9038.48501694
0.03900000 1538947.16849718 10157.05178245
0.04000000 1532723.60065976 13196.75081320
0.04100000 1526373.40343210 10577.76817624
0.04200000 1519898.32271615 9803.34463632
0.04300000 1513299.82466299 10986.55723703
0.04400000 1506580.96878573 10169.42201159
0.04500000 1499744.07077390 10348.23456917
0.04600000 1492789.74851445 11576.58503789
0.04700000 1485722.10552247 18185.23941735
0.04800000 1478542.52281679 13040.74565801
0.04900000 1471253.91927631 13241.28588984
0.05000000 1463857.92581761 12318.36501937
0.05100000 1456358.44525951 11359.59640220
0.05200000 1448754.64686016 12669.35997720
0.05300000 1441052.36774109 16341.53461199
0.05400000 1433251.97944956 21283.79288737
0.05500000 1425357.54264753 13170.30430845
0.05600000 1417369.54672296 16965.91426597
0.05700000 1409293.35077597 17165.19381370
0.05800000 1401128.06005495 14879.98069257
0.05900000 1392877.73055189 17550.26022465
0.06000000 1384545.89215610 17736.03370713
0.06100000 1376134.07147512 14077.85220907
0.06200000 1367645.07607625 16801.52054496
0.06300000 1359082.28768430 15656.62868615
0.06400000 1350444.77125137 15800.20456256
0.06500000 1341739.48995864 22581.47667232
0.06600000 1332967.10642919 13396.32004641
0.06700000 1324129.25370299 14856.73092183
0.06800000 1315229.70420273 23141.46772868
0.06900000 1306272.70730430 23316.96891706
0.07000000 1297257.13480270 15197.36804588
0.07100000 1288187.70829381 19477.39906168
0.07200000 1279066.59884294 16806.93589615
0.07300000 1269896.99545666 14095.85731004
0.07400000 1260681.59881192 15600.93551642
0.07500000 1251421.42836270 19972.68693284
0.07600000 1242119.27658018 15781.12614878
0.07700000 1232779.45001711 17308.22428980
0.07800000 1223403.03960980 21745.99004887
0.07900000 1213991.48579754 18938.26806672
0.08000000 1204550.77264667 20489.40960390
0.08100000 1195081.05528668 14699.49766970
0.08200000 1185584.20739022 19188.68129704
0.08300000 1176063.08079395 19263.91416750
0.08400000 1166521.33165982 19335.09197982
0.08500000 1156960.41789312 19402.22711891
0.08600000 1147383.01461430 20962.68866123
0.08700000 1137790.98870188 16520.72593173
0.08800000 1128186.68652830 22591.93945873
0.08900000 1118573.34113843 15100.74081465
0.09000000 1108952.94228115 18164.65004786
0.09100000 1099326.89609577 19721.92544252
0.09200000 1089697.93073136 16721.41553276
0.09300000 1080069.78364816 18274.78159810
0.09400000 1070441.38861080 15253.79050459
0.09500000 1060817.10903456 19858.49721453
0.09600000 1051198.48472031 16824.43253883
0.09700000 1041589.86885372 15311.37179198
0.09800000 1031990.70825092 15325.06273808
0.09900000 1022404.36302320 16869.67278314
0.10000000 1012830.85075636 21482.14335479
0.10100000 1003273.80137296 15350.08988295
0.10200000 993735.30094493 23029.81668264
0.10300000 984216.33187147 23030.66324917
0.10400000 974720.06744465 26098.13103362
0.10500000 965249.00124590 21486.44377866
0.10600001 955800.17074315 16874.65280848
0.10700001 946381.62742766 26063.35124584
0.10800001 936990.30362912 21447.70905944
0.10900001 927631.10718097 18367.09678664
0.11000001 918304.35748208 27521.58288917
0.11100001 909011.06838534 18325.66400130
0.11200001 899754.39954475 18301.00534830
0.11300001 890534.30637097 18273.76482708
0.11400001 881353.31619674 18244.01450428
0.11500001 872213.21579801 19729.46387037
0.11600001 863114.83260652 16662.43262813
0.11700001 854059.69183567 18140.22870890
0.11800001 845048.23790382 18100.93410842
0.11900001 836082.38215947 21069.27702282
0.12000001 827163.26867229 18015.61684031
0.12100001 818294.31821418 22462.18009313
0.12200001 809474.04160975 16428.27644843
0.12300001 800704.84263741 23828.97723958
0.12400001 791987.21605705 17819.71320090
0.12500001 783321.89991908 17765.74152729
0.12600001 774711.93144609 17709.91558741
0.12700001 766156.54631805 16181.22702080
0.12800001 757656.80732236 17592.79189516
0.12900001 749214.23929714 23375.48536781
0.13000001 740829.51848591 14557.30072440
0.13100001 732502.79376238 15953.91160017
0.13200001 724235.61708118 20227.90173863
0.13300001 716029.70075455 15831.41743002
0.13400001 707883.58272098 21501.96483887
0.13500001 699800.05198627 15703.51390696
0.13600001 691778.08011815 15637.64423840
0.13700001 683819.96834579 15570.58141344
0.13800001 675923.92293036 16911.61734920
0.13900001 668093.09293954 19641.93785870
0.14000001 660326.67907788 13965.90992114
0.14100001 652625.21534106 16681.10129085
0.14200001 644988.83938485 20752.51688601
0.14300001 637419.85806289 15145.09654193
0.14400001 629914.56854612 15070.70676335
0.14500001 622477.66344648 17721.93991430
0.14600001 615107.13247921 20344.66936650
0.14700001 607805.86337873 16191.94896429
0.14800001 600568.75238751 13422.71224913
0.14900001 593400.68736565 16021.81931479
0.15000001 586300.10158241 14607.66772016
0.15100001 579267.81414091 14528.03746416
0.15200001 572303.76519249 18388.12084332
0.15300001 565408.96633616 14367.04251257
0.15400001 558579.86245274 14285.68065638
0.15500001 551820.66093123 19368.90611276
0.15600001 545127.41504388 17972.85172222
0.15700001 538505.77418935 15315.10494077
0.15800001 531948.44799592 15224.36530021
0.15900001 525461.62833884 15133.29561046
0.16000001 519040.38695550 15041.79112398
0.16100001 512690.27126801 14950.04901588
0.16200001 506405.94845869 14857.95122916
0.16300001 500188.90586549 15996.04196472
0.16400001 494039.38578016 12227.47537531
0.16500001 487956.28787360 18225.16821251
0.16600001 481941.04995561 15694.41103279
0.16700001 475990.46533086 14393.95235121
0.16800001 470105.80464843 11917.18271052
0.16900001 464289.23702456 17759.06415474
0.17000001 458536.28510984 14113.74752213
0.17100001 452848.69277464 12851.84650783
0.17200001 447226.21903902 11605.52093211
0.17300001 441668.23706100 16138.55814434
0.17400001 436174.12179527 14884.44260920
0.17500001 430743.29444290 18194.59761655
0.17600001 425374.49307773 12423.06265707
0.17700001 420070.08153982 14580.63321890
0.17800001 414825.84942889 20048.53424983
0.17900001 409644.61245306 18802.68859971
0.18000001 404524.10368802 14277.67891408
0.18100001 399466.09756862 11995.96747663
0.18200001 394465.40728353 11910.88353557
0.18300001 389525.62807249 11825.99862693
0.18400001 384644.59443060 13876.05439960
0.18500001 379823.59209044 13776.20233594
0.18600001 375058.63803858 11572.43482340
0.18700001 370351.35105675 12532.69031187
0.18800001 365700.71220790 14514.66195329
0.18900001 361108.30466503 11320.74588613
0.19000001 356567.69832805 10215.66503978
0.19100001 352086.61159508 14196.13285028
0.19200001 347656.60221561 10064.65910971
0.19300001 343283.14395753 10988.49395732
0.19400001 338960.68179980 13880.44057561
0.19500001 334692.27858585 11807.94414649
0.19600001 330475.33756983 9765.54668667
0.19700001 326309.76142513 11629.68044678
0.19800001 322195.48974886 11541.04298822
0.19900001 318131.51402287 16224.70798195
0.20000001 314116.01866147 15152.95745638
0.20100001 310150.88715103 11277.08678979
0.20200001 306232.66309740 13054.69904485
0.20300001 302363.56923104 10177.55822136
0.20400001 298541.10738057 11934.18133162
0.20500001 294764.82612312 10929.88026927
0.20600001 291034.65333313 9940.28905445
0.20700001 287350.00465172 10758.38468270
0.20800001 283708.95348079 11562.55894567
0.20900001 280114.34485814 11470.68296417
0.21000001 276561.04635220 12254.42054316
0.21100001 273051.35451000 10419.64018067
0.21200001 269583.62444331 9474.51692896
0.21300001 266156.59048554 10252.35235019
0.21400001 262771.88113972 12711.59035109
0.21500001 259428.44245027 10927.12651261
0.21600001 256123.72542309 9170.51042234
0.21700001 252858.98027307 9095.33795045
0.21800001 249632.69754209 9020.47795218
0.21900001 246443.83900767 10572.44119331
0.22000001 243292.57124940 10484.69385374
0.22100001 240179.86888602 10397.38701570
0.22200001 237103.81698001 9517.34766360
0.22300001 234062.18986328 8650.93894641
0.22400001 231056.12238703 8577.95894924
0.22500001 228086.92372173 9278.57649576
0.22600001 225150.09952142 11499.54187685
0.22700001 222249.61754981 8361.03100761
0.22800001 219381.06455171 10550.03589320
0.22900001 216544.79201238 8217.87524550
0.23000001 213742.27902482 14071.72360508
0.23100001 210972.22994568 11012.75092399
0.23200001 208232.10285430 8005.48357284
0.23300001 205523.74862952 10099.43748530
0.23400001 202846.96173535 10010.49803509
0.23500001 200198.28727542 9921.82758663
0.23600001 197581.13564369 10536.01455652
0.23700001 194992.71138700 11137.98420123
0.23800001 192433.10845171 8278.47271715
0.23900001 189901.98289910 10938.35473237
0.24000001 187398.67579208 8129.35494038
0.24100001 184924.32134125 8726.57913687
0.24200001 182476.58948874 9311.78080208
0.24300001 180056.24334638 8567.07646367
0.24400001 177661.81973460 8487.79383932
0.24500001 175293.63870478 7762.00268902
0.24600001 172951.83778194 7689.43907153
0.24700001 170635.66611916 9521.47061987
0.24800001 168344.52267433 8173.96868514
0.24900001 166077.44589987 7473.48541905
0.25000001 163835.87178274 8018.94712377
0.25100001 161617.33908284 7330.96284762
0.25200001 159425.00251016 7865.23287094
0.25300001 157255.42035298 6590.57497880
0.25400001 155109.09249838 6526.21537563
0.25500001 152985.52082903 8224.50198889
0.25600001 150885.13800210 8724.93351777
0.25700001 148806.82753022 6334.70694768
0.25800001 146751.55722145 6841.55792137
0.25900001 144718.16305435 9594.81466448
0.26000001 142706.56036432 5586.96210261
0.26100001 140715.99830120 8295.20849235
0.26200001 138747.83818890 6020.96272310
0.26300001 136799.80264055 5958.99968499
0.26400001 134873.15240879 5361.20806193
0.26500001 132967.69121825 5835.95224372
0.26600001 131081.51265212 5249.81483014
0.26700001 129216.89053516 6233.42309438
0.26800001 127372.48993169 5139.48021195
0.26900001 125547.03665781 5593.12074778
0.27000001 123742.11889133 7042.16431936
0.27100001 121956.36667341 5473.40199532
0.27200001 120191.50403365 5906.21078772
0.27300001 118444.72393283 4868.07838402
0.27400001 116715.38284874 5777.41172443
0.27500001 115007.83319571 6665.85432749
0.27600001 113316.58801869 7062.45668250
0.27700001 111646.10063136 5586.77114000
0.27800001 109992.88083268 4603.20228070
0.27900001 108359.07367037 4551.08130955
0.28000001 106742.23213260 4499.18529733
0.28100001 105144.15439576 4892.35773559
0.28200001 103564.64598040 5715.21525893
0.28300001 102002.43461483 6517.95588038
0.28400001 100457.90242487 4724.03308512
0.28500001 98931.37791519  4668.57194479
0.28600001 97422.27145730  6710.44637560
0.28700001 95930.34169082  4144.19095720
0.28800001 94455.27885126  5323.02749162
0.28900001 92999.05183486  6068.18841945
0.29000001 91558.38766831  5195.48095416
0.29100001 90135.75289203  4737.53539626
0.29200001 88729.67056906  5849.50380915
0.29300001 87340.67254140  4236.89622554
0.29400001 85967.56718900  4184.47153100
0.29500001 84612.32044415  5259.50208778
0.29600001 83272.68534308  4080.77813841
0.29700001 81949.86518955  4395.79097686
0.29800001 80643.17637278  3978.53129469
0.29900001 79353.50680995  6784.72515343
0.30000001 78079.19181577  4230.33081284
0.30100001 76821.82518689  4872.04038400
0.30200001 75579.15264860  4465.59444565
0.30300001 74353.69955565  4746.74040435
0.30400001 73144.03845293  4015.60790117
0.30500001 71949.99250305  3302.50481224
0.30600001 70770.59599073  3584.88470963
0.30700001 69608.13836519  3215.89614472
0.30800001 68460.75520202  4442.41861538
0.30900001 67328.79932962  4070.02611217
0.31000001 66212.56293864  4015.46106952
0.31100001 65110.67851337  3047.17989870
0.31200001 64024.86028797  5711.33793240
0.31300001 62953.54546925  3261.62334519
0.31400001 61898.55029348  3217.17730383
0.31500001 60857.22217194  3461.55896104
0.31600002 59831.40693002  3129.48188765
0.31700002 58820.15951353  3928.01043830
0.31800002 57823.78565149  3320.24192932
0.31900002 56842.05305675  3001.26054350
0.32000002 55875.27828859  3228.47373238
0.32100002 54921.97778359  2918.00481781
0.32200002 53984.63432988  3138.66678856
0.32300002 53059.41923321  3094.42547620
0.32400002 52149.70647600  4321.90712885
0.32500002 51253.80378830  2756.94223632
0.32600002 50372.18782821  2964.90711596
0.32700002 49504.02706312  2922.71789620
0.32800002 48650.45234478  3121.16991798
0.32900002 47809.86363953  2839.90603467
0.33000002 46983.98608680  2332.75501967
0.33100002 46169.16884318  2299.22471727
0.33200002 45370.80903051  2492.89922023
0.33300002 44584.34681253  2457.04346919
0.33400002 43811.69910501  2421.69178271
0.33500002 43051.14037617  3037.68860880
0.33600002 42304.81724868  2780.06119715
0.33700002 41570.38999307  2950.66642144
0.33800002 40849.87148087  2077.21606317
0.33900002 40140.92356886  2251.90591886
0.34000002 39445.37012857  2017.63077763
0.34100002 38762.01627054  2982.73729328
0.34200002 38091.79014412  2939.73404360
0.34300002 37432.71078524  2317.83356159
0.34400002 36787.27026234  2474.86372411
0.34500002 36152.78504017  2063.96259569
0.34600002 35531.46234593  2589.17778377
0.34700002 34920.23766855  2187.40379116
0.34800002 34322.51017511  1976.46184204
0.34900002 33735.53911124  1771.11588722
0.35000002 33160.27354754  2095.06618196
0.35100002 32596.93585302  2065.34195347
0.35200002 32043.71079559  2375.40039378
0.35300002 31502.17879495  2174.59550521
0.35400002 30972.08089206  2144.04240130
0.35500002 30452.83339106  1788.79951812
0.35600002 29943.58150484  2565.56618485
0.35700002 29445.41987437  1581.21912215
0.35800002 28958.44259443  2339.11831136
0.35900002 28481.56581896  2153.20647790
0.36000002 28015.43522591  1820.44306721
0.36100002 27558.59171749  1496.43160114
0.36200002 27113.17188996  2214.46841900
0.36300002 26676.42984750  1602.18645253
0.36400002 26249.80697759  1580.89470011
0.36500002 25832.65721374  1843.67683268
0.36600002 25425.63103515  1539.64916026
0.36700002 25027.48273587  1657.82053495
0.36800002 24640.00457192  1636.58918119
0.36900002 24260.67277303  1615.76088322
0.37000002 23890.28176999  1462.44366783
0.37100002 23528.83464284  1444.19993879
0.37200002 23176.92111848  1815.44831721
0.37300002 22833.07736127  1537.12284077
0.37400002 22497.89095344  1645.15835390
0.37500002 22171.65875239  1500.57793545
0.37600002 21853.67806402  1359.40810837
0.37700002 21543.48279799  1221.51553251
0.37800002 21241.53457241  1449.09755718
0.37900002 20947.98410045  1313.43866532
0.38000002 20662.16901367  1298.92731658
0.38100002 20383.08237212  1401.54081030
0.38200002 20112.64056398  1386.56550617
0.38300002 19848.93283231  1486.28816089
0.38400002 19593.55353848  1470.98610159
0.38500002 19344.08559946  1680.03391390
0.38600002 19103.10727076  1441.61605848
0.38700002 18868.14373437  1317.75122084
0.38800002 18640.29951407  1196.42768099
0.38900002 18418.70722297  1185.24386595
0.39000002 18204.89624583  1388.03238002
0.39100002 17996.30579249  1481.45596302
0.39200002 17794.88689806  1678.41381174
0.39300002 17599.25961205  1248.13955082
0.39400002 17411.22316912  1031.61502165
0.39500002 17227.81745350  1023.33240522
0.39600002 17050.58301677  1624.57962681
0.39700002 16879.10989209  1309.98778079
0.39800002 16713.41892033  1000.29816977
0.39900002 16553.23712976  1092.51370233
0.40000002 16398.42251734  1183.63819338
0.40100002 16249.24190662  1469.74400009
0.40200002 16105.39702270  1168.28555538
0.40300002 15966.09985938  1644.82768545
0.40400002 15832.38606423  1346.54449856
0.40500002 15703.48713479  1243.24513537
0.40600002 15579.55805506  1331.58489006
0.40700002 15460.08220750  946.15707593
0.40800002 15345.45130418  1412.16522318
0.40900002 15235.06620478  1030.65227759
0.41000002 15129.58758735  1119.28694275
0.41100002 15028.06761780  1207.35500962
0.41200002 14930.53931391  1109.93634519
0.41300002 14837.79630310  1105.71263290
0.41400002 14748.65896868  1193.53528359
0.41500002 14663.60909799  1006.51017618
0.41600002 14581.86530402  1003.30528978
0.41700002 14504.24847468  1273.18299144
0.41800002 14431.18255433  997.69985317
0.41900002 14359.72184349  1176.06127471
0.42000002 14293.10699363  1263.65364918
0.42100002 14229.89617223  1080.90296446
0.42200002 14170.11123003  989.00296016
0.42300002 14112.94042899  1077.09966458
0.42400002 14058.77035214  1254.74531339
0.42500002 14008.21389103  1342.68736508
0.42600002 13959.71524641  1072.94376468
0.42700002 13915.34968324  1072.03859040
0.42800002 13872.77452108  892.71308273
0.42900002 13834.15184365  892.30283620
0.43000002 13797.51752968  1159.61241573
0.43100002 13762.65086709  981.00180029
0.43200002 13731.37241369  981.03794859
0.43300002 13702.16951187  1248.81578849
0.43400002 13675.46771891  1516.95132861
0.43500002 13650.74311815  1071.31037068
0.43600002 13628.73377631  1161.37260378
0.43700002 13608.18463165  1251.68088174
0.43800002 13589.79268812  1073.86546910
0.43900002 13574.09471068  895.89029336
0.44000002 13559.75528241  986.67563988
0.44100002 13547.71542485  988.03493276
0.44200002 13537.35846739  1169.42476663
0.44300002 13528.69713169  1081.21352600
0.44400002 13522.32784671  1083.13851185
0.44500002 13516.18815454  1085.07963647
0.44600002 13512.02907705  1087.17791106
0.44700002 13510.59554943  1180.28568313
0.44800002 13509.01469892  1182.78183802
0.44900002 13510.34075851  1003.14284886
0.45000002 13512.64967754  1096.95695281
0.45100002 13515.86260796  1008.01308107
0.45200002 13520.53459474  1378.08055388
0.45300002 13526.08726236  1105.35190347
0.45400002 13533.27190684  1108.37502170
0.45500002 13541.51015964  1574.60687599
0.45600002 13550.66607023  1114.67784377
0.45700002 13560.91586662  1117.96195703
0.45800002 13571.66337754  1401.61360174
0.45900002 13583.59066686  1405.90170065
0.46000002 13597.06005785  1034.26042232
0.46100002 13610.18531855  1037.50447601
0.46200002 13625.23068825  1230.15401099
0.46300002 13640.77055808  1234.21697859
0.46400002 13656.36270221  1047.78447799
0.46500002 13673.22596884  1051.33439457
0.46600002 13690.47525555  959.01783710
0.46700002 13708.07570249  1347.22974389
0.46800002 13727.19310670  1158.84969699
0.46900002 13745.70431073  1259.79385979
0.47000002 13765.14400145  1069.75821678
0.47100002 13785.03907976  1268.77505704
0.47200002 13805.58858344  1175.40786770
0.47300002 13826.60127225  1376.29995587
0.47400002 13847.23496859  1282.60019976
0.47500002 13868.58880772  1089.23901659
0.47600002 13890.89098765  1987.78659455
0.47700002 13912.34991711  997.51553634
