# SAXS profile: number of points = 501, q_min = 0, q_max = 0.5, delta_q = 0.001
#    q    intensity    error
0.00000000 1682732.95097187 302.89193117
0.00100000 1682645.84963896 706.71127363
0.00200000 1682384.51136892 757.07305409
0.00300000 1681949.15569876 1715.58819993
0.00400000 1681339.66096951 1513.20575237
0.00500000 1680556.66632715 2117.50148339
0.00600000 1679600.04158188 2292.65415010
0.00700000 1678470.52743595 2014.16471663
0.00800000 1677167.89003404 2490.59442185
0.00900000 1675693.59375328 3267.60264750
0.01000000 1674046.93040248 3038.39530988
0.01100000 1672229.62781466 4214.01884557
0.01200000 1670241.39790967 4234.06212934
0.01300000 1668083.79524644 5254.46418677
0.01400000 1665756.80859730 4497.54358259
0.01500000 1663262.24916602 3991.82957575
0.01600000 1660599.43057110 5928.34023216
0.01700000 1657770.93542125 4923.57989907
0.01800000 1654776.97200273 4716.11458242
0.01900000 1651618.65539233 7432.28428463
0.02000000 1648296.84664365 7788.20295270
0.02100000 1644814.06837373 7056.25267324
0.02200000 1641169.11415773 5662.03370108
0.02300000 1637365.14102915 11199.57807443
0.02400000 1633402.64325338 7350.31222980
0.02500000 1629284.14862089 6989.62931680
0.02600000 1625009.87543856 9213.80641516
0.02700000 1620581.92996740 10890.31106817
0.02800000 1616000.69189641 8435.52399855
0.02900000 1611269.55120334 7975.78464466
0.03000000 1606389.18623405 9710.62307714
0.03100000 1601361.18497269 8455.18744571
0.03200000 1596186.80940195 11851.68760568
0.03300000 1590870.35061487 8924.78307839
0.03400000 1585409.96894478 9988.08326521
0.03500000 1579810.18129326 9384.07291022
0.03600000 1574071.24308368 8736.09580284
0.03700000 1568196.50107218 9832.59251646
0.03800000 1562187.34450931 10966.55566598
0.03900000 1556046.25285441 11203.53353939
0.04000000 1549773.45852021 11437.32865387
0.04100000 1543373.02808547 9723.25052777
0.04200000 1536846.61106757 12886.45943164
0.04300000 1530195.67963818 12119.15034528
0.04400000 1523423.73765761 11311.42177743
0.04500000 1516532.33033703 11510.48092209
0.04600000 1509522.65394633 11706.34872555
0.04700000 1502398.48593538 10817.26960182
0.04800000 1495161.74115283 12088.38323967
0.04900000 1487815.03077384 13390.33590025
0.05000000 1480359.74739720 12457.22785443
0.05100000 1472800.02538648 21826.89739301
0.05200000 1465135.33909695 13977.39178635
0.05300000 1457370.92219081 12985.17552206
0.05400000 1449507.98350357 13154.28556373
0.05500000 1441549.92328546 12109.01992047
0.05600000 1433497.59881481 17158.96705852
0.05700000 1425356.14554874 13640.65894963
0.05800000 1417124.63976283 12541.55364750
0.05900000 1408807.45035884 15215.12117451
0.06000000 1400408.02608688 17939.22765227
0.06100000 1391927.76205269 14239.42167123
0.06200000 1383369.77982181 13072.84503039
0.06300000 1374737.11667870 17156.72001832
0.06400000 1366029.22796849 15982.54271468
0.06500000 1357252.36305119 17467.83872958
0.06600000 1348408.12840774 16261.80278946
0.06700000 1339497.74077263 23226.89191199
0.06800000 1330525.24828068 13770.93696431
0.06900000 1321494.37440162 20813.53737129
0.07000000 1312404.26987198 13977.10612866
0.07100000 1303259.79076653 19705.28895934
0.07200000 1294063.07166419 14169.99129854
0.07300000 1284817.34654500 19966.06250083
0.07400000 1275525.37838697 17219.59341521
0.07500000 1266188.08072159 18764.90823585
0.07600000 1256808.38568570 15967.75128871
0.07700000 1247390.55317692 14594.47015648
0.07800000 1237935.45623064 19070.39659756
0.07900000 1228445.04670255 16215.47537704
0.08000000 1218924.93029534 17771.92631741
0.08100000 1209375.41978218 20825.44570574
0.08200000 1199798.14750742 17924.98516489
0.08300000 1190196.75023864 16496.12773250
0.08400000 1180573.82786567 18062.78041419
0.08500000 1170931.80002478 18126.02511531
0.08600000 1161272.80331442 15154.61079478
0.08700000 1151599.00493355 19761.43985261
0.08800000 1141912.57606426 15244.53360640
0.08900000 1132216.84158643 22927.39211902
0.09000000 1122513.81386637 22983.47141857
0.09100000 1112805.04689429 19963.72347920
0.09200000 1103093.02440841 20004.59293760
0.09300000 1093381.72919389 16958.35141671
0.09400000 1083669.83625389 16986.52548160
0.09500000 1073962.01570738 17011.55912839
0.09600000 1064259.48467660 17033.47385295
0.09700000 1054567.22275101 18602.56668389
0.09800000 1044884.14827112 20171.48943079
0.09900000 1035213.94519855 18633.85188978
0.10000000 1025556.11081552 15537.17580952
0.10100000 1015915.10890485 15543.50189728
0.10200000 1006292.55292639 17101.94274140
0.10300000 996689.18564874 27987.03364955
0.10400000 987108.70502134 23320.44425324
0.10500000 977553.54330461 20206.03269079
0.10600001 968020.74324435 20197.75375817
0.10700001 958517.87271784 29503.18151061
0.10800001 949042.67504926 18620.21816077
0.10900001 939599.47804465 18604.07054090
0.11000001 930188.82641258 17036.40915764
0.11100001 920812.03822539 15469.64297039
0.11200001 911471.61188904 21629.22236837
0.11300001 902167.92271164 20055.19386609
0.11400001 892903.55019282 16942.84566265
0.11500001 883680.49623719 18451.24963026
0.11600001 874498.80706688 19951.69122279
0.11700001 865360.80262310 21443.64169889
0.11800001 856266.81163967 16812.79963840
0.11900001 847218.50125937 16774.92711506
0.12000001 838217.36315150 18256.37502940
0.12100001 829266.56323608 18210.69458654
0.12200001 820364.42856515 22703.58663014
0.12300001 811513.94025993 19622.40799998
0.12400001 802715.22313368 24081.45782867
0.12500001 793968.88628854 15006.01265794
0.12600001 785278.40312530 20943.37599828
0.12700001 776642.86016674 20876.16106510
0.12800001 768063.12388822 17834.42657721
0.12900001 759540.90085493 19254.36274417
0.13000001 751077.20885636 16234.53463464
0.13100001 742671.56490848 19116.36698184
0.13200001 734325.94243556 16114.78356640
0.13300001 726041.86459342 17512.13059957
0.13400001 717817.99287645 15989.39654515
0.13500001 709657.20804882 17372.40927211
0.13600001 701558.41987035 15858.72882892
0.13700001 693523.46325856 22969.49818621
0.13800001 685551.35410897 15723.12104792
0.13900001 677645.06743860 22768.87533968
0.14000001 669803.49395732 18416.24793488
0.14100001 662027.34041100 18331.53792055
0.14200001 654316.62814237 15438.60156919
0.14300001 646673.92349976 15364.97314708
0.14400001 639095.35860353 19460.45458742
0.14500001 631585.67642363 16598.07235938
0.14600001 624142.61807600 16514.81445337
0.14700001 616769.23543797 13692.27767268
0.14800001 609460.89305068 14983.59676256
0.14900001 602222.13337903 16259.99836839
0.15000001 595051.08191225 18869.07069773
0.15100001 587948.95540925 14745.76049744
0.15200001 580915.51018024 18664.81622283
0.15300001 573951.84892872 15909.94600308
0.15400001 567054.41232010 15820.81885033
0.15500001 560227.41750557 23596.77993894
0.15600001 553467.05543687 19551.22465603
0.15700001 546778.73564702 14254.52231109
0.15800001 540155.34825364 14170.97623029
0.15900001 533602.86294952 15367.76317831
0.16000001 527116.54959638 14002.85180100
0.16100001 520701.67561669 17714.27184067
0.16200001 514353.65830633 13833.54229318
0.16300001 508073.25564805 16248.18348267
0.16400001 501861.01475508 18631.59105237
0.16500001 495715.66774406 14811.98485149
0.16600001 489638.67749287 15945.08428537
0.16700001 483627.09100974 17062.36457642
0.16800001 477681.89452987 14531.08391770
0.16900001 471805.33152390 13234.14017414
0.17000001 465993.04031870 13147.99425344
0.17100001 460246.46245181 13061.79522118
0.17200001 454565.88554080 11795.98528682
0.17300001 448949.94741612 19919.91010756
0.17400001 443398.79177021 13967.06260037
0.17500001 437911.41538624 16185.20667706
0.17600001 432486.36360502 14927.26754483
0.17700001 427126.42070394 15965.98636000
0.17800001 421827.63695414 18121.71613948
0.17900001 416591.92106419 15747.17536002
0.18000001 411417.65740814 14520.98690412
0.18100001 406306.33840071 15529.02898721
0.18200001 401253.10235788 13217.27781603
0.18300001 396261.14355909 10936.80807888
0.18400001 391328.46389059 11945.30192456
0.18500001 386456.59523276 11860.35346800
0.18600001 381641.17574927 11775.53903406
0.18700001 376883.85649756 13816.56283196
0.18800001 372183.82692335 14771.97678851
0.18900001 367542.70328955 12569.96104640
0.19000001 362953.56034586 10398.61999523
0.19100001 358424.88908604 17548.48339882
0.19200001 353947.79774290 12296.14707460
0.19300001 349527.23067963 16273.98862943
0.19400001 345159.01769171 10095.90174455
0.19500001 340844.49284099 11022.91141937
0.19600001 336582.38254406 11935.21184903
0.19700001 332372.10199740 11845.74227499
0.19800001 328213.65654465 14695.76716629
0.19900001 324106.08176141 11667.81949483
0.20000001 320047.29415486 11579.31164977
0.20100001 316039.46835880 9575.99634386
0.20200001 312079.06687138 11403.36964244
0.20300001 308168.23252991 11315.93803334
0.20400001 304304.50578538 9357.36399518
0.20500001 300487.33102104 12999.08255440
0.20600001 296716.75068907 11976.97220769
0.20700001 292992.22982023 12797.90120349
0.20800001 289311.56128689 10883.90145010
0.20900001 285678.13954307 9898.74800309
0.21000001 282086.09750481 10713.63048969
0.21100001 278538.11486750 8857.51247151
0.21200001 275032.71159074 10544.75466089
0.21300001 271568.32894403 13947.75003395
0.21400001 268146.66135559 12106.82233257
0.21500001 264766.73416806 8578.44259261
0.21600001 261425.92261246 9360.35560168
0.21700001 258125.30038022 10972.90703796
0.21800001 254863.69132596 12558.40898386
0.21900001 251639.97511913 10795.35544303
0.22000001 248454.01010484 9883.50098929
0.22100001 245307.12251557 8985.60032262
0.22200001 242196.97860940 8101.48931756
0.22300001 239122.10865295 10444.85419985
0.22400001 236082.61004781 10358.12500565
0.22500001 233080.74459668 10271.86890010
0.22600001 230111.32984549 8618.82026693
0.22700001 227178.71130724 9323.41475295
0.22800001 224278.23828126 7703.95784928
0.22900001 221410.44509618 9166.39286047
0.23000001 218576.74048986 9845.78974099
0.23100001 215775.86757976 10512.60076566
0.23200001 213005.11770487 8933.43505904
0.23300001 210266.28977684 8118.38183224
0.23400001 207559.24887537 8048.11025578
0.23500001 204880.73532495 9428.61188559
0.23600001 202234.16019490 7908.36720846
0.23700001 199616.35374279 8551.56499881
0.23800001 197027.77071867 7769.79050579
0.23900001 194467.74695472 7000.83922151
0.24000001 191935.96478506 9020.03109172
0.24100001 189433.23099443 8939.35459347
0.24200001 186957.60063108 8177.52583842
0.24300001 184509.03031399 8778.94007761
0.24400001 182086.94279190 8030.03455697
0.24500001 179691.36044143 8619.79496813
0.24600001 177322.07769192 6569.78328927
0.24700001 174978.83166064 7811.05541484
0.24800001 172660.99548545 8383.55503239
0.24900001 170367.22400766 8305.40256328
0.25000001 168099.14098538 7594.71954901
0.25100001 165854.29881467 8150.08062932
0.25200001 163635.54141383 8693.95672663
0.25300001 161440.05662252 9226.29967248
0.25400001 159267.76644532 7310.39082570
0.25500001 157118.34895691 9050.01732809
0.25600001 154992.39640838 8364.94002993
0.25700001 152888.66771415 7691.82923663
0.25800001 150807.99931367 6444.78015560
0.25900001 148749.51313941 6381.35441561
0.26000001 146712.93404646 8615.71745954
0.26100001 144697.19228318 6255.25991838
0.26200001 142704.23708185 6192.65066118
0.26300001 140731.24885942 6687.54926224
0.26400001 138779.98679671 5516.50473620
0.26500001 136849.89598963 7098.40444087
0.26600001 134939.35531613 5404.32143614
0.26700001 133050.27593166 5883.48348011
0.26800001 131181.59896524 5822.49554560
0.26900001 129331.78445013 5761.73126991
0.27000001 127502.77560971 7256.18330333
0.27100001 125692.89277371 6666.75134821
0.27200001 123903.95147301 5073.86705293
0.27300001 122133.31581009 5521.64746908
0.27400001 120380.08983855 5958.81472901
0.27500001 118648.68212765 5894.46680706
0.27600001 116933.53487222 6316.16518504
0.27700001 115239.29406596 4805.47878998
0.27800001 113562.33700687 6178.35923726
0.27900001 111904.76585751 5170.00042730
0.28000001 110264.25952361 6971.45813833
0.28100001 108642.55339621 6893.37033925
0.28200001 107039.47295878 4998.20842637
0.28300001 105453.70965449 5840.02671708
0.28400001 103885.53816941 5773.43905703
0.28500001 102335.61181698 4829.21775022
0.28600001 100802.88469460 5641.43370895
0.28700001 99287.47038627  4718.14081608
0.28800001 97788.77748142  5510.88681581
0.28900001 96309.27805128  5027.34455224
0.29000001 94845.02443994  4553.98406404
0.29100001 93398.96424458  4499.96231031
0.29200001 91969.38015377  4446.25989400
0.29300001 90556.99033901  4792.27615559
0.29400001 89160.42615483  5128.95375734
0.29500001 87781.68998955  6625.76227405
0.29600001 86418.66015519  4619.94179059
0.29700001 85072.32801293  4943.55321485
0.29800001 83742.09862538  5258.16662160
0.29900001 82429.02763513  4080.23706109
0.30000001 81131.06743116  4029.37465472
0.30100001 79850.36096273  4340.66582742
0.30200001 78584.17212097  3571.65079198
0.30300001 77335.28894429  3879.13827709
0.30400001 76101.96785990  3481.66519442
0.30500001 74884.31351258  3780.90916825
0.30600001 73681.38672520  4410.93642513
0.30700001 72495.42383184  4354.07536148
0.30800001 71324.42376026  4297.65335714
0.30900001 70168.95542014  4241.71355597
0.31000001 69029.23429838  4186.27811222
0.31100001 67903.75440919  4449.05419953
0.31200001 66794.21667447  4076.78520774
0.31300001 65699.41121866  4641.66362236
0.31400001 64620.60380386  3358.65604173
0.31500001 63555.66448071  3313.79250292
0.31600002 62506.19011021  3863.82032461
0.31700002 61471.31298756  4984.70900618
0.31800002 60451.15712481  3471.10560646
0.31900002 59446.08578611  3138.75347812
0.32000002 58455.36478819  3096.08854260
0.32100002 57478.40994870  4164.31099796
0.32200002 56517.37214751  3012.09349123
0.32300002 55568.47959162  2700.62823603
0.32400002 54634.97088328  3728.83693935
0.32500002 53715.43088068  3677.35857222
0.32600002 52810.15004635  3885.50697365
0.32700002 51918.14426754  3065.24738270
0.32800002 51040.90798411  3274.52960678
0.32900002 50176.63449506  3725.61528768
0.33000002 49326.89330873  2938.89644250
0.33100002 48488.53907856  3622.09404069
0.33200002 47666.38380242  3809.49757389
0.33300002 46856.32983239  2347.50223577
0.33400002 46059.86581831  3471.76255046
0.33500002 45275.79199155  2966.47003177
0.33600002 44505.73435677  2924.69447176
0.33700002 43747.63677934  3548.80846360
0.33800002 43003.62783782  2405.40803702
0.33900002 42271.12263195  3018.15829885
0.34000002 41552.00397940  2763.00063546
0.34100002 40845.12145745  2514.42579600
0.34200002 40151.35971831  2685.52382194
0.34300002 39468.80860468  3054.88593068
0.34400002 38799.97172192  3614.21753707
0.34500002 38142.06696813  2177.53070634
0.34600002 37497.21612057  1951.73019151
0.34700002 36862.83129935  2116.66387346
0.34800002 36241.66390582  2656.15167346
0.34900002 35631.43440395  2057.71543428
0.35000002 35033.05685386  2582.28674300
0.35100002 34446.51706841  2546.28666230
0.35200002 33870.31384870  1972.77652355
0.35300002 33305.62468352  2475.94025624
0.35400002 32752.41716184  1744.06629647
0.35500002 32210.31349178  1892.03390412
0.35600002 31678.12666269  2544.54564470
0.35700002 31157.26582904  1840.45977969
0.35800002 30647.31968263  1980.42989169
0.35900002 30147.90754996  2116.38321025
0.36000002 29659.25504562  1927.25848415
0.36100002 29179.86853794  1901.36032399
0.36200002 28711.86608424  1876.03341881
0.36300002 28252.88451199  2313.91135114
0.36400002 27803.94134634  1674.49244690
0.36500002 27364.58313548  1802.77882236
0.36600002 26935.38822815  1482.79319220
0.36700002 26515.26270178  2049.09959866
0.36800002 26105.75027210  1589.44868061
0.36900002 25704.80297713  2995.89492890
0.37000002 25312.46985158  1831.23071816
0.37100002 24929.39368112  1530.16625663
0.37200002 24555.84798617  1511.28973590
0.37300002 24190.54015775  1628.50724056
0.37400002 23834.06406256  2279.13248395
0.37500002 23486.55476242  1457.10592649
0.37600002 23147.52671440  1963.48904656
0.37700002 22816.34925379  1423.05577037
0.37800002 22493.43984693  1918.12817381
0.37900002 22179.21309393  1390.63672687
0.38000002 21872.72017900  1375.02861919
0.38100002 21573.13102889  1359.75451317
0.38200002 21282.22926193  1589.46336773
0.38300002 20998.31625647  1451.40368841
0.38400002 20722.74470440  1795.10784506
0.38500002 20453.35086126  1421.09888516
0.38600002 20192.53345592  1875.48259624
0.38700002 19937.68359443  1392.44788820
0.38800002 19690.38938115  1378.72112979
0.38900002 19449.28194213  1137.78304752
0.39000002 19216.16568927  1465.13662239
0.39100002 18988.56981355  1563.13914111
0.39200002 18768.08213516  1438.29204257
0.39300002 18553.60889732  1096.51833778
0.39400002 18346.79067142  1739.27583805
0.39500002 18144.91184330  1293.36937747
0.39600002 17949.26628304  1389.54251514
0.39700002 17759.54153650  1272.29361595
0.39800002 17575.91502822  1262.30227713
0.39900002 17397.69611925  1252.63417993
0.40000002 17225.15250330  1243.31156659
0.40100002 17058.39668824  1234.34564284
0.40200002 16897.12914844  1430.00410759
0.40300002 16740.62326450  1014.48181789
0.40400002 16589.71552012  1310.17284528
0.40500002 16444.04262827  1702.45181397
0.40600002 16303.22502971  1094.84312874
0.40700002 16167.39802035  1286.27824744
0.40800002 16036.19831310  1180.58497575
0.40900002 15909.69194579  1076.29071113
0.41000002 15788.25872532  1752.02315376
0.41100002 15670.82133670  1162.14816539
0.41200002 15557.61302333  1252.93242420
0.41300002 15449.50663326  1055.35584812
0.41400002 15344.97468059  1050.74719104
0.41500002 15244.82775168  1236.66048581
0.41600002 15148.06567074  1042.26270786
0.41700002 15055.79309688  1227.19775348
0.41800002 14968.01838088  1505.18399970
0.41900002 14882.26623682  1312.61594429
0.42000002 14801.41992243  1121.65165487
0.42100002 14724.27292476  1211.66047639
0.42200002 14650.57234579  1022.53674533
0.42300002 14579.72273929  1019.99745117
0.42400002 14512.20107319  1110.18343471
0.42500002 14448.39036931  1384.87828252
0.42600002 14386.77795286  1197.91512301
0.42700002 14329.48654451  1103.94369570
0.42800002 14274.45908422  1010.41763416
0.42900002 14223.27160322  1192.62138045
0.43000002 14174.33075744  1008.00757958
0.43100002 14127.36654779  1098.54407481
0.43200002 14084.13856932  914.76484343
0.43300002 14043.25410037  1097.05906231
0.43400002 14005.01750945  913.82743580
0.43500002 13969.00598590  1004.93033825
0.43600002 13935.84890645  1187.54342084
0.43700002 13904.35541266  1278.92267146
0.43800002 13875.09872716  1187.77788283
0.43900002 13848.86340948  1462.44004535
0.44000002 13824.15628115  1005.91477947
0.44100002 13801.97888090  1189.59261612
0.44200002 13781.50395685  1007.35907947
0.44300002 13763.14818569  1374.93856891
0.44400002 13747.04528059  1192.89991076
0.44500002 13731.39840306  1286.08283538
0.44600002 13718.08001272  1103.75677013
0.44700002 13707.51766416  1289.60332296
0.44800002 13697.13177251  1014.75205546
0.44900002 13689.81009976  1016.46844808
0.45000002 13683.55022361  1018.26143815
0.45100002 13678.43709455  927.39807896
0.45200002 13675.04883143  1300.90745699
0.45300002 13672.62193879  1117.32671779
0.45400002 13672.04572298  1492.98746371
0.45500002 13672.68718206  1028.73303233
0.45600002 13674.48052480  937.38568440
0.45700002 13677.49036136  1127.57235883
0.45800002 13681.22715634  1036.14778779
0.45900002 13686.18556218  1038.78153340
0.46000002 13692.94252882  1230.92712697
0.46100002 13699.60833327  1139.25948299
0.46200002 13708.17676384  1618.45596633
0.46300002 13717.59712139  1050.21928539
0.46400002 13727.13937996  1340.45522398
0.46500002 13738.25041661  1248.39487453
0.46600002 13749.72899393  1155.80227401
0.46700002 13761.69689963  1255.89251858
0.46800002 13775.45845067  1162.92425752
0.46900002 13788.81550290  1069.32269293
0.47000002 13803.23874130  1267.75852228
0.47100002 13818.15896894  978.32570137
0.47200002 13834.06221860  1177.83211312
0.47300002 13850.51490449  1280.20315330
0.47400002 13866.71317399  988.00336048
0.47500002 13883.88078859  1586.09461647
0.47600002 13901.96094614  1193.62242341
0.47700002 13919.57625100  1097.83703095
