# SAXS profile: number of points = 501, q_min = 0, q_max = 0.5, delta_q = 0.001
#    q    intensity    error
0.00000000 1700912.83420643 331.67800267
0.00100000 1700825.09200536 612.29704766
0.00200000 1700561.83053745 1071.35398716
0.00300000 1700123.27481787 1326.09620160
0.00400000 1699509.29067444 1784.48482301
0.00500000 1698720.54775791 1681.73340885
0.00600000 1697756.86286282 1782.64477858
0.00700000 1696619.04146004 3053.91440155
0.00800000 1695306.83145241 3204.13004672
0.00900000 1693821.62033196 2794.80579302
0.01000000 1692162.81362240 3350.48251564
0.01100000 1690332.13333803 3346.85776973
0.01200000 1688329.24114896 3621.46638104
0.01300000 1686155.70778907 4603.20528529
0.01400000 1683811.54189114 5682.86420581
0.01500000 1681298.49986170 4842.13989522
0.01600000 1678616.00458279 5136.56520365
0.01700000 1675766.54900945 6786.85482794
0.01800000 1672750.44449729 5244.07287947
0.01900000 1669568.67487864 5509.57687571
0.02000000 1666222.19765067 6298.32019203
0.02100000 1662713.50440517 7681.73673863
0.02200000 1659041.43591507 8013.17049953
0.02300000 1655209.08367319 7150.50356695
0.02400000 1651217.14003914 7430.47746899
0.02500000 1647067.75322745 8992.99034334
0.02600000 1642761.60887728 6653.18482026
0.02700000 1638300.41542591 7568.94826593
0.02800000 1633684.90064120 7106.52964369
0.02900000 1628918.25939493 10262.18550537
0.03000000 1624001.15039304 9817.08740537
0.03100000 1618935.36415553 10879.24614771
0.03200000 1613721.92265237 8786.71627354
0.03300000 1608365.15431598 11483.72773122
0.03400000 1602863.56581737 9256.53751970
0.03500000 1597221.27180251 10349.99431922
0.03600000 1591438.79308240 13248.72856468
0.03700000 1585519.30276554 10844.95253247
0.03800000 1579464.38582978 11087.84050167
0.03900000 1573276.36857427 12271.55624318
0.04000000 1566955.61534913 12527.81072524
0.04100000 1560506.07464749 10814.30759873
0.04200000 1553929.59169665 15034.26949715
0.04300000 1547227.60683511 13275.21348285
0.04400000 1540403.10813704 11437.49360910
0.04500000 1533458.54683398 15871.29669719
0.04600000 1526394.57133597 17217.73156507
0.04700000 1519215.05592565 12032.18380252
0.04800000 1511921.88402180 12223.88900107
0.04900000 1504517.85144218 13540.66129326
0.05000000 1497004.22318568 13742.49940878
0.05100000 1489385.26237184 18587.52894028
0.05200000 1481660.28010612 16490.87968608
0.05300000 1473834.80404563 15519.48121009
0.05400000 1465909.52629675 13303.12957152
0.05500000 1457888.45935788 15920.14271885
0.05600000 1449771.88544524 24791.10039797
0.05700000 1441565.62675712 18812.43230732
0.05800000 1433268.40451067 17758.19636106
0.05900000 1424884.46030475 16671.14896421
0.06000000 1416417.49277303 16848.28686367
0.06100000 1407868.90811632 14402.49960308
0.06200000 1399241.57354822 14545.11683692
0.06300000 1390538.82716896 16019.00803796
0.06400000 1381760.13576536 13472.16195376
0.06500000 1372911.61111237 14951.00814439
0.06600000 1363995.03252907 23303.85622111
0.06700000 1355011.34910953 19349.56297082
0.06800000 1345964.73637137 15323.80924088
0.06900000 1336859.14305375 15440.72382519
0.07000000 1327693.62408674 15553.93153454
0.07100000 1318472.93249227 17087.41000544
0.07200000 1309199.49638636 21503.60273552
0.07300000 1299876.02621821 18757.21193721
0.07400000 1290505.89078561 18873.64953724
0.07500000 1281089.53697362 17525.30568725
0.07600000 1271630.38595373 16156.06481095
0.07700000 1262132.26049480 16243.64295421
0.07800000 1252596.61784952 19296.25180289
0.07900000 1243024.64721729 16407.92611286
0.08000000 1233422.45578448 20980.51695711
0.08100000 1223790.48484934 18063.14840387
0.08200000 1214129.99573701 21162.28681874
0.08300000 1204444.90174251 18211.20776904
0.08400000 1194737.97425344 18279.49186409
0.08500000 1185011.20584069 21401.30338217
0.08600000 1175266.92629471 18404.68092990
0.08700000 1165507.64464070 18461.64195802
0.08800000 1155735.00767350 15429.06307705
0.08900000 1145952.55599871 17017.39625588
0.09000000 1136162.55865403 17059.48161957
0.09100000 1126366.34394088 20207.01315965
0.09200000 1116566.48715115 20248.93419592
0.09300000 1106767.01800570 18726.49882465
0.09400000 1096966.32308445 17194.94792247
0.09500000 1087169.55214898 23482.86343018
0.09600000 1077377.76739138 26648.94032913
0.09700000 1067595.92706080 17263.02695216
0.09800000 1057822.55627389 25133.86511880
0.09900000 1048062.22628055 18865.12096013
0.10000000 1038313.79423881 23595.68208372
0.10100000 1028581.92144012 15737.30413819
0.10200000 1018868.22405641 23612.27220314
0.10300000 1009173.80389695 15743.11208136
0.10400000 999501.35631800 18890.57652312
0.10500000 989854.52384851 18886.42520362
0.10600001 980229.70753493 22025.76256470
0.10700001 970635.03297188 26731.29006596
0.10800001 961067.20946678 15713.44961428
0.10900001 951531.55067022 15700.27132500
0.11000001 942028.27335141 20390.20293645
0.11100001 932558.64276815 17233.68452960
0.11200001 923125.58997834 23470.46923012
0.11300001 913728.79405381 24999.62098231
0.11400001 904371.51753670 23400.61411807
0.11500001 895055.06145037 17131.35468284
0.11600001 885780.46915049 18654.53755878
0.11700001 876549.43962929 18617.91097454
0.11800001 867362.17538008 17030.65711570
0.11900001 858220.70521413 18537.56810577
0.12000001 849126.36744292 18493.97315406
0.12100001 840082.15956942 19985.55551764
0.12200001 831086.90681717 19933.62039911
0.12300001 822143.29379591 16821.05258358
0.12400001 813251.40581268 15248.46457746
0.12500001 804412.23949135 18244.07045133
0.12600001 795628.94019270 24250.77123985
0.12700001 786900.50528119 18130.18849609
0.12800001 778227.97186748 21082.19675148
0.12900001 769613.53311818 21010.45044439
0.13000001 761057.29290247 22432.16476564
0.13100001 752559.35269191 17880.81106282
0.13200001 744121.41904813 17814.26761178
0.13300001 735745.40979836 16267.33177753
0.13400001 727429.66435388 17676.54167717
0.13500001 719177.54450298 22006.83389937
0.13600001 710987.12266371 17532.94327158
0.13700001 702861.41593917 17459.07839518
0.13800001 694798.14987670 17383.85052966
0.13900001 686801.33033064 15865.11147881
0.14000001 678869.24409793 15793.89370879
0.14100001 671002.81328261 17150.83271639
0.14200001 663202.42945728 22761.10845251
0.14300001 655470.06709012 18405.60035204
0.14400001 647801.91095074 22543.50756446
0.14500001 640203.34422969 15422.49929001
0.14600001 632671.74142428 15345.45381216
0.14700001 625210.32191973 20819.50470212
0.14800001 617813.80524441 16569.76703839
0.14900001 610487.39669439 13735.96707370
0.15000001 603229.10462364 23227.33776947
0.15100001 596039.88375854 14948.68099002
0.15200001 588920.13807453 17570.43314855
0.15300001 581870.51243063 18817.69326000
0.15400001 574887.32454860 17375.97020447
0.15500001 567975.05307570 14619.67855611
0.15600001 561129.50881603 25107.74105693
0.15700001 554356.90637118 14452.08523119
0.15800001 547649.41981883 14367.58320708
0.15900001 541013.33202811 15581.18469785
0.16000001 534443.91172938 14197.50318525
0.16100001 527946.30364697 14112.00536263
0.16200001 521516.00982631 15301.28045062
0.16300001 515153.66613680 15207.33694226
0.16400001 508860.21907222 17632.00742325
0.16500001 502634.06262182 15018.70650019
0.16600001 496476.83682796 16167.76895463
0.16700001 490385.27768527 17300.79341359
0.16800001 484360.76040166 14734.25502712
0.16900001 478405.35579062 18299.00572303
0.17000001 472514.78675113 13332.00533772
0.17100001 466690.45656088 20469.04439134
0.17200001 460932.56821838 19137.92113618
0.17300001 455240.04304939 17822.64852705
0.17400001 449612.76166040 14162.80266116
0.17500001 444049.76766359 11722.91441996
0.17600001 438549.65805386 16300.89155974
0.17700001 433115.30559391 13877.01504665
0.17800001 427742.56486141 17227.33261348
0.17900001 422433.37137134 14827.41203549
0.18000001 417186.36709137 12459.27144170
0.18100001 412002.83642160 13497.21355873
0.18200001 406877.98908561 12285.68146079
0.18300001 401815.06663941 14417.12527208
0.18400001 396811.80762701 13213.83381821
0.18500001 391869.89738180 12026.48771880
0.18600001 386985.46883827 15196.92007923
0.18700001 382159.33089624 14009.96173255
0.18800001 377391.42709712 13908.76170280
0.18900001 372682.60781873 11683.60030714
0.19000001 368026.64826116 10543.96397087
0.19100001 363431.60071228 10466.83059507
0.19200001 358888.77238833 11428.81349673
0.19300001 354403.42209373 10313.14007025
0.19400001 349970.40651919 11260.29836185
0.19500001 345592.30214323 10160.41416314
0.19600001 341266.91262306 11092.88151902
0.19700001 336994.32231344 10008.73184570
0.19800001 332773.73070814 15893.27412972
0.19900001 328604.88206122 11829.77631328
0.20000001 324485.24484268 9783.23059437
0.20100001 320417.51686328 12621.24658575
0.20200001 316397.42833869 9634.30214826
0.20300001 312427.97188335 13384.41494809
0.20400001 308505.79969210 10435.20916781
0.20500001 304631.06861986 10354.41051181
0.20600001 300803.68084969 9339.95473186
0.20700001 297022.92729874 10193.82734675
0.20800001 293286.51010030 10113.98577890
0.20900001 289597.61003556 12771.25520628
0.21000001 285951.25286846 11765.46485545
0.21100001 282349.60268037 17059.56380041
0.21200001 278790.84293812 13361.05177945
0.21300001 275273.91635786 8836.29313283
0.21400001 271800.43946525 8765.56458716
0.21500001 268369.12830461 9564.67618497
0.21600001 264977.56840427 12075.02836307
0.21700001 261626.69139233 9410.71253432
0.21800001 258315.84175933 9334.24338330
0.21900001 255043.12896233 9258.06601907
0.22000001 251808.71886739 10016.95131017
0.22100001 248614.20637983 9934.62415668
0.22200001 245457.19323512 11494.76090272
0.22300001 242335.73331359 8142.48102436
0.22400001 239250.15247419 12112.03954174
0.22500001 236203.23423865 9608.74802320
0.22600001 233189.37121295 9528.11815833
0.22700001 230212.70021405 11022.58460750
0.22800001 227268.59533868 8587.34428097
0.22900001 224357.88008411 7740.34722895
0.23000001 221481.86746027 15348.69414086
0.23100001 218639.30654319 8369.51305029
0.23200001 215827.30936616 9806.11426482
0.23300001 213048.20563436 11964.78779429
0.23400001 210301.15158440 9637.05072714
0.23500001 207583.16918486 10287.82235138
0.23600001 204897.79847266 8012.52878824
0.23700001 202241.68498805 8664.03419468
0.23800001 199615.51346266 7871.83814573
0.23900001 197018.20803185 7092.65582463
0.24000001 194449.76247003 9138.16701952
0.24100001 191911.11172506 7663.01105365
0.24200001 189399.55758128 6903.61420039
0.24300001 186916.34861316 9577.59415599
0.24400001 184459.85325097 9490.45989869
0.24500001 182030.24270479 9403.68278296
0.24600001 179627.80991847 7986.25280677
0.24700001 177251.64865940 8571.89013467
0.24800001 174901.25347718 7185.81833905
0.24900001 172575.66368296 7118.74646369
0.25000001 170276.29227891 10257.44433214
0.25100001 168000.67144342 7620.51081719
0.25200001 165751.46518451 8177.34892175
0.25300001 163526.11679954 9345.51801723
0.25400001 161324.63946310 11107.20195253
0.25500001 159146.29932864 6722.34000169
0.25600001 156991.97579378 7867.65323914
0.25700001 154860.29574630 7191.71247472
0.25800001 152752.26410988 5934.42574145
0.25900001 150666.81988048 7051.20750403
0.26000001 148603.56585404 7563.17884200
0.26100001 146561.98601719 8063.84085222
0.26200001 144543.15637120 6272.45056752
0.26300001 142545.19777486 5644.79009898
0.26400001 140569.19189708 7263.91333500
0.26500001 138614.80076761 6083.80389357
0.26600001 136680.33347570 6568.85713768
0.26700001 134767.72740296 7042.96176735
0.26800001 132876.11073089 8042.32698256
0.26900001 131003.72595349 7958.47672828
0.27000001 129152.34026614 5775.04716829
0.27100001 127320.56189081 6753.08292226
0.27200001 125510.30441500 8223.43553443
0.27300001 123718.53221831 5593.31510629
0.27400001 121944.59714184 6539.27933120
0.27500001 120192.82754575 8459.17160300
0.27600001 118458.02414318 9351.66915856
0.27700001 116744.02054908 5841.87106475
0.27800001 115047.88427828 9148.03295134
0.27900001 113371.52225044 5713.92499185
0.28000001 111712.54264883 7533.89423280
0.28100001 110072.69018254 5121.68251660
0.28200001 108451.71923368 6445.28597911
0.28300001 106848.67685586 4551.75384950
0.28400001 105263.34300429 4950.00893906
0.28500001 103696.56938593 9342.02437815
0.28600001 102147.30030624 8355.13882401
0.28700001 100615.82252479 6519.90560821
0.28800001 99101.27093852  6444.06044779
0.28900001 97606.22142356  5944.21916606
0.29000001 96126.57487196  4615.51771095
0.29100001 94665.50733983  4975.61930130
0.29200001 93221.29724667  4916.49144951
0.29300001 91794.38275318  5667.38545945
0.29400001 90383.76300360  4399.42987245
0.29500001 88991.15738785  4346.32833256
0.29600001 87614.48623695  5464.51576528
0.29700001 86254.74098867  4241.14581518
0.29800001 84911.39231398  4189.10373812
0.29900001 83585.44435098  4513.61420862
0.30000001 82275.01325788  4086.18872689
0.30100001 80981.95894453  4769.02778801
0.30200001 79703.67726711  3984.78553361
0.30300001 78442.78339506  5723.18574745
0.30400001 77197.86092629  5297.70345687
0.30500001 75968.71208941  5579.14247998
0.30600001 74754.65320065  3442.45194286
0.30700001 73557.49468281  4078.02769828
0.30800001 72375.69845722  4025.53653877
0.30900001 71209.58283809  3642.37033461
0.31000001 70059.30255369  5556.05325207
0.31100001 68923.59639142  3225.62446384
0.31200001 67804.03650189  4138.41956383
0.31300001 66699.21378594  3141.53311806
0.31400001 65610.79047604  3720.13199613
0.31500001 64536.31672273  4588.53233624
0.31600002 63477.44826232  3622.02336934
0.31700002 62433.37632019  4169.30106807
0.31800002 61404.11966771  4701.09962435
0.31900002 60389.91807580  3188.58782538
0.32000002 59390.65022559  3145.62593814
0.32100002 58405.10500095  3385.16004614
0.32200002 57435.55589787  3617.57865952
0.32300002 56478.38721614  3568.30467328
0.32400002 55536.44886867  2978.14221160
0.32500002 54608.83004124  3204.44629856
0.32600002 53695.56414996  2897.14430090
0.32700002 52795.77333065  3117.06260504
0.32800002 51910.69607676  2817.97226997
0.32900002 51038.85084626  2779.06556018
0.33000002 50181.73465566  2740.67556800
0.33100002 49335.91831422  2702.62173323
0.33200002 48506.48585597  3149.76880821
0.33300002 47689.11745925  3105.99236721
0.33400002 46885.73672441  2591.60922017
0.33500002 46094.41848762  4414.00172340
0.33600002 45317.61605674  3436.20840023
0.33700002 44552.56953671  2710.57845898
0.33800002 43801.68023733  2672.77865466
0.33900002 43062.43776688  2635.42131614
0.34000002 42336.66760414  2815.17684566
0.34100002 41623.32310460  3416.44252222
0.34200002 40923.10857133  2947.69164999
0.34300002 40233.92761841  2698.89199246
0.34400002 39558.74647299  2456.59827232
0.34500002 38894.50926111  2624.21266413
0.34600002 38243.53406943  2786.80645962
0.34700002 37602.80690210  2159.15327458
0.34800002 36975.49692189  2516.36756220
0.34900002 36359.17799641  1908.85693522
0.35000002 35754.65885549  2447.22774127
0.35100002 35162.16732284  2413.53127935
0.35200002 34579.79000545  2014.09996426
0.35300002 34009.19404259  1805.88828919
0.35400002 33450.13178680  2137.46352241
0.35500002 32902.09844482  2108.36656820
0.35600002 32364.01986611  1906.40268051
0.35700002 31837.08876745  2051.58209735
0.35800002 31321.60532193  1855.33537912
0.35900002 30816.28033588  1996.89506035
0.36000002 30321.79415374  1806.11775432
0.36100002 29836.58703566  1782.13942805
0.36200002 29362.93746130  1918.57442460
0.36300002 28898.10904222  1735.62051129
0.36400002 28443.45548287  2335.91889218
0.36500002 27998.35590830  1844.53177461
0.36600002 27563.43947759  1669.10415663
0.36700002 27137.42763538  1647.78468407
0.36800002 26722.37536453  1479.08354649
0.36900002 26315.57658728  2044.72039769
0.37000002 25917.58168246  1586.54483785
0.37100002 25528.66875533  1709.39974083
0.37200002 25149.58288492  1969.96692069
0.37300002 24778.53210641  1807.09843212
0.37400002 24416.24337850  1510.75513061
0.37500002 24062.97830930  1628.58244912
0.37600002 23718.22035720  2011.89813711
0.37700002 23381.34601757  1325.72238200
0.37800002 23052.57099086  1310.53872291
0.37900002 22732.58533650  1554.90891068
0.38000002 22420.26412787  1281.31815561
0.38100002 22114.91530982  2154.21400238
0.38200002 21818.27296369  1504.15180937
0.38300002 21528.43430780  1612.04923734
0.38400002 21247.11798583  1595.12745835
0.38500002 20971.65380721  1942.81410074
0.38600002 20704.94915444  1562.49906196
0.38700002 20444.32567790  1546.81775407
0.38800002 20190.96252938  1531.58553523
0.38900002 19944.02377693  1166.72544622
0.39000002 19704.90676716  1155.69283665
0.39100002 19471.21039033  1259.39794771
0.39200002 19244.77318569  1361.37531965
0.39300002 19024.18858524  1574.06143812
0.39400002 18811.40046557  1226.03308343
0.39500002 18603.45565813  1105.04531845
0.39600002 18401.52910449  1643.71666513
0.39700002 18205.68327871  1521.63108053
0.39800002 18015.92065819  1509.55406347
0.39900002 17831.49885646  1283.86797849
0.40000002 17652.71603418  1274.17310372
0.40100002 17479.54397673  1264.81986208
0.40200002 17312.22045550  1360.48090895
0.40300002 17149.32736924  1143.17421660
0.40400002 16992.18726371  1341.95805273
0.40500002 16840.13290628  1128.12055684
0.40600002 16692.88699794  1222.92095941
0.40700002 16550.57719129  1316.76398373
0.40800002 16413.12246508  1510.41766641
0.40900002 16280.13718712  1301.59702978
0.41000002 16152.12529820  995.77857182
0.41100002 16028.17719802  1287.70381710
0.41200002 15908.49923914  985.53157456
0.41300002 15793.72870693  980.79059917
0.41400002 15682.63342345  1269.11716993
0.41500002 15575.93681027  971.93850301
0.41600002 15472.49296107  1451.70672086
0.41700002 15373.54891345  1156.70587506
0.41800002 15279.15918522  1056.32472032
0.41900002 15186.58451506  1148.10584374
0.42000002 15099.03503760  1048.85451859
0.42100002 15015.18060052  1330.64536787
0.42200002 14934.72813579  1231.89110865
0.42300002 14857.12255316  1322.87825482
0.42400002 14782.86961940  1130.88957947
0.42500002 14712.10239729  940.10338773
0.42600002 14643.67567761  937.92747160
0.42700002 14579.48625381  1216.80398040
0.42800002 14517.44341370  1494.71604470
0.42900002 14459.41362132  1772.00122326
0.43000002 14403.56622906  1303.66684117
0.43100002 14349.56848275  1487.76333079
0.43200002 14299.39942817  1114.49524424
0.43300002 14251.54491251  927.77561777
0.43400002 14206.39946100  1390.45141314
0.43500002 14163.34744905  926.28296706
0.43600002 14123.12503353  1018.34797880
0.43700002 14084.69192684  1295.51002482
0.43800002 14048.37039158  1572.64489801
0.43900002 14015.08971643  1109.99515814
0.44000002 13983.34429802  1109.99792298
0.44100002 13954.08754335  1480.24967675
0.44200002 13926.63320828  1573.22219493
0.44300002 13901.12516056  1203.55947344
0.44400002 13877.95519371  1204.25961900
0.44500002 13855.31747783  926.92078319
0.44600002 13834.82092774  1020.38726588
0.44700002 13817.28907772  1392.78280504
0.44800002 13799.63166610  1208.22680779
0.44900002 13785.28181059  1395.75984947
0.45000002 13771.93725024  1118.00591896
0.45100002 13759.68091609  1212.77833342
0.45200002 13749.24710416  1027.68752350
0.45300002 13739.69930946  1497.07770771
0.45400002 13732.06858648  1218.37784308
0.45500002 13725.63929335  938.83377216
0.45600002 13720.30762983  1128.63255912
0.45700002 13716.27866951  1130.77006711
0.45800002 13712.99918712  1321.79605429
0.45900002 13710.93439479  1135.26542169
0.46000002 13710.73029956  1042.90674966
0.46100002 13710.34550053  1045.13968704
0.46200002 13711.96806486  952.29622724
0.46300002 13714.37235109  1049.97239696
0.46400002 13716.98177094  1435.13928580
0.46500002 13721.09006509  959.10424101
0.46600002 13725.71290052  1057.63485768
0.46700002 13730.72579094  963.89699621
0.46800002 13737.64154435  1159.73175414
0.46900002 13744.13212925  1162.75363324
0.47000002 13751.68335155  1651.64600722
0.47100002 13759.86757722  974.19867064
0.47200002 13768.90949333  1172.28500983
0.47300002 13778.57636420  1077.62250852
0.47400002 13787.99632083  1277.11321975
0.47500002 13798.41341275  1280.76879368
0.47600002 13809.94310709  988.10147615
0.47700002 13820.85067046  1387.33705606
