# SAXS profile: number of points = 501, q_min = 0, q_max = 0.5, delta_q = 0.001
#    q    intensity    error
0.00000000 1682732.95097187 302.89193117
0.00100000 1682645.68593659 656.23183310
0.00200000 1682383.86267169 908.48731461
0.00300000 1681947.69299104 1513.75297762
0.00400000 1681337.05728887 1639.30369315
0.00500000 1680552.61336999 1814.99689428
0.00600000 1679594.18845256 2116.28876361
0.00700000 1678462.56639685 2618.40171240
0.00800000 1677157.52145643 3169.82784938
0.00900000 1675680.43539310 3016.22491264
0.01000000 1674030.69500054 3314.58091922
0.01100000 1672210.00561288 3611.97376939
0.01200000 1670218.09739497 3582.61797599
0.01300000 1668056.45021969 4203.50243995
0.01400000 1665725.16816307 3747.88179451
0.01500000 1663225.90005212 5189.26503923
0.01600000 1660558.12363480 5928.19276639
0.01700000 1657724.34700910 6266.19831279
0.01800000 1654724.84140318 5187.56261123
0.01900000 1651560.58848304 7432.02298353
0.02000000 1648232.60877845 6230.31954302
0.02100000 1644743.29039279 7055.94903569
0.02200000 1641091.56956221 6794.11940666
0.02300000 1637280.43097578 8251.89374773
0.02400000 1633310.60642330 9187.37258005
0.02500000 1629184.39361964 6989.20136783
0.02600000 1624902.14821135 6580.85400125
0.02700000 1620465.90549977 6805.95711482
0.02800000 1615876.12272721 11949.40447556
0.02900000 1611136.15893140 10150.15826730
0.03000000 1606246.67437680 10456.66633084
0.03100000 1601209.36215078 9222.96635037
0.03200000 1596025.31432038 7900.32566976
0.03300000 1590698.81207185 10546.33361023
0.03400000 1585228.28328704 12483.67330689
0.03500000 1579618.03579136 9382.93156589
0.03600000 1573868.39011373 13975.95195009
0.03700000 1567982.72478606 16087.50350031
0.03800000 1561962.33422196 9137.48007808
0.03900000 1555809.72858928 13068.80232537
0.04000000 1549525.28741394 9529.58095919
0.04100000 1543112.92022241 12638.09540261
0.04200000 1536574.35343614 11893.08604735
0.04300000 1529911.10720177 12116.89653148
0.04400000 1523126.37922494 11309.21389097
0.04500000 1516222.21907419 10461.93379772
0.04600000 1509199.46344162 15959.78506782
0.04700000 1502061.97586825 15140.78542092
0.04800000 1494811.73500068 12085.55343980
0.04900000 1487451.36272975 13387.06288770
0.05000000 1479982.17239084 13586.23697521
0.05100000 1472408.38658066 17227.17892551
0.05200000 1464729.41054431 16302.43909907
0.05300000 1456950.63086291 11801.30066014
0.05400000 1449073.00501927 17932.27927336
0.05500000 1441100.18037500 16947.33891179
0.05600000 1433032.67080709 17153.40187001
0.05700000 1424876.15389480 21073.91929980
0.05800000 1416629.41043964 13790.88795456
0.05900000 1408296.70574846 16477.07222683
0.06000000 1399881.67502061 14089.80971734
0.06100000 1391385.76817166 16821.85472330
0.06200000 1382811.80099079 16987.84376924
0.06300000 1374163.13534717 17149.55673097
0.06400000 1365439.16636318 14644.33574411
0.06500000 1356645.99688133 14773.87559713
0.06600000 1347785.48917183 14899.76927993
0.06700000 1338858.53971729 19118.90084191
0.06800000 1329869.42126395 13764.14915437
0.06900000 1320821.80166033 15255.49252342
0.07000000 1311715.02988013 13969.76572241
0.07100000 1302553.63547779 21101.36988308
0.07200000 1293340.07241554 19826.90423896
0.07300000 1284077.18671843 14253.25744042
0.07400000 1274768.07629832 22945.82644871
0.07500000 1265413.64516057 17310.85947720
0.07600000 1256016.76510851 17408.39318052
0.07700000 1246581.55084700 16043.50531166
0.07800000 1237109.34394910 17591.69569594
0.07900000 1227601.32355568 17677.45988834
0.08000000 1218063.86969339 20719.26739545
0.08100000 1208496.96888506 17837.41609764
0.08200000 1198902.14985376 17911.59895932
0.08300000 1189283.19688178 17981.96278078
0.08400000 1179643.02440971 15040.44926720
0.08500000 1169983.41144166 24148.45874581
0.08600000 1160306.79837061 16656.20487264
0.08700000 1150615.65730884 15188.12738968
0.08800000 1140911.62887556 19800.52224904
0.08900000 1131198.37690675 21379.65032773
0.09000000 1121477.90659970 21431.44380187
0.09100000 1111751.74761796 19944.82728930
0.09200000 1102022.32385391 16910.53335411
0.09300000 1092293.71595018 26182.28160169
0.09400000 1082564.45921825 23139.81640330
0.09500000 1072839.33190299 15448.88710554
0.09600000 1063119.62375602 20108.90862862
0.09700000 1053410.32277321 17033.64572004
0.09800000 1043709.98244087 17049.00336478
0.09900000 1034022.81149950 23265.51435274
0.10000000 1024347.94661847 23278.30818162
0.10100000 1014690.13171200 17077.23571989
0.10200000 1005050.66401652 26397.65693204
0.10300000 995430.87291981 18634.46681764
0.10400000 985833.56065565 17079.56724187
0.10500000 976262.04721820 18627.08073732
0.10600001 966712.78237384 17067.31497589
0.10700001 957193.81157221 18607.84857261
0.10800001 947702.20732180 21692.90454650
0.10900001 938243.07893041 18577.21383717
0.11000001 928816.52662291 20104.23466505
0.11100001 919423.89894582 20080.21889822
0.11200001 910067.89721398 15425.65158397
0.11300001 900748.65231541 20023.64348370
0.11400001 891468.97876962 21528.97685097
0.11500001 882230.47633035 18420.97321318
0.11600001 873033.93555062 27579.14332279
0.11700001 863881.03890908 16819.76461969
0.11800001 854772.33285509 18309.22423209
0.11900001 845709.47322670 19789.60260563
0.12000001 836693.89489911 18223.19388930
0.12100001 827728.74848013 15147.43681075
0.12200001 818812.69449055 18128.51391008
0.12300001 809948.29475536 16571.54289145
0.12400001 801135.86303468 16523.42795363
0.12500001 792376.12784815 19468.68237860
0.12600001 783672.48161586 14928.96147829
0.12700001 775023.69100604 14880.45556858
0.12800001 766431.01371148 16313.48489569
0.12900001 757896.27815359 17734.77374467
0.13000001 749420.08539742 22089.15805826
0.13100001 741002.16163828 16139.02784124
0.13200001 732644.46785078 14616.25782264
0.13300001 724348.50154022 21839.10835100
0.13400001 716113.10791459 20301.80756652
0.13500001 707940.99776393 23107.19525648
0.13600001 699830.94867848 20134.13734282
0.13700001 691785.21666822 21479.93199040
0.13800001 683802.44344098 17108.73794167
0.13900001 675885.66963889 17032.31967811
0.14000001 668033.84222472 15541.80807232
0.14100001 660247.64880920 15469.60314119
0.14200001 652527.32053588 13996.71168565
0.14300001 644875.02325375 15322.23127522
0.14400001 637287.06965304 16633.19330253
0.14500001 629768.46921657 19308.70217701
0.14600001 622316.80613569 13722.08622262
0.14700001 614935.11382881 15016.71618814
0.14800001 607618.41917079 16296.32677100
0.14900001 600371.76121451 14859.20179113
0.15000001 593192.97078901 17466.56784901
0.15100001 586083.32651173 16035.24056998
0.15200001 579042.81348883 13289.03319664
0.15300001 572072.23889550 14536.35627629
0.15400001 565168.19376197 13140.16112506
0.15500001 558334.87315448 14371.54031323
0.15600001 551568.24611576 15587.31937087
0.15700001 544874.24774236 15496.22433717
0.15800001 538245.29331903 12837.15085156
0.15900001 531687.49325431 12760.50044041
0.16000001 525196.13569436 19025.23091357
0.16100001 518776.51520629 13866.89690604
0.16200001 512423.96479060 13781.64318362
0.16300001 506139.31642465 18676.54165775
0.16400001 499923.22326527 16085.03046793
0.16500001 493774.13256889 13524.47412957
0.16600001 487693.86316647 12216.73184911
0.16700001 481678.99569097 14565.97351742
0.16800001 475730.86582210 13265.75581981
0.16900001 469851.84148240 16773.71153294
0.17000001 464037.29221694 13092.81281814
0.17100001 458288.55482759 20100.53696391
0.17200001 452606.23986829 15268.67222299
0.17300001 446988.83256846 16332.97271337
0.17400001 441436.45696026 11587.70754245
0.17500001 435948.19981762 16112.64622622
0.17600001 430522.55317676 11430.37432669
0.17700001 425162.18815302 15892.56334378
0.17800001 419863.21131502 13527.99330753
0.17900001 414627.61544474 13433.93537494
0.18000001 409453.81778186 13340.00601345
0.18100001 404343.21868690 13246.28446989
0.18200001 399290.86502912 10960.53476280
0.18300001 394300.15423295 14147.49020220
0.18400001 389368.93659932 16207.48275160
0.18500001 384498.62344320 15018.51694120
0.18600001 379685.38428783 12780.21063891
0.18700001 374930.19949377 11630.33533777
0.18800001 370232.75352434 14694.53868164
0.18900001 365594.19951583 20838.87035699
0.19000001 361008.24253625 16548.61861976
0.19100001 356482.67549181 11293.37169319
0.19200001 352009.07021925 12228.79567724
0.19300001 347592.41171639 14160.91552247
0.19400001 343227.93566818 14055.18462977
0.19500001 338917.74505153 12953.43682799
0.19600001 334660.08570500 10878.12659990
0.19700001 330454.68651586 12758.85604933
0.19800001 326301.01616768 11688.10295149
0.19900001 322198.69729115 10632.55751310
0.20000001 318145.26891641 9592.08031116
0.20100001 314143.07380105 11422.24270325
0.20200001 310188.44500521 16056.90561460
0.20300001 306283.85318226 13121.20089050
0.20400001 302426.35206145 10229.57184199
0.20500001 298615.68869782 9227.22521690
0.20600001 294851.87740172 9155.15122607
0.20700001 291134.32617586 9991.73054666
0.20800001 287460.83142731 9011.89749124
0.20900001 283834.48511541 9834.86537416
0.21000001 280250.16863146 11530.89373343
0.21100001 276709.99943252 12319.12975710
0.21200001 273212.52771950 9602.05474063
0.21300001 269756.32886937 8659.17856607
0.21400001 266343.06856968 11166.43367769
0.21500001 262971.69086587 9372.31150556
0.21600001 259639.59099624 9296.39599514
0.21700001 256347.78339673 12573.85937010
0.21800001 253095.35883348 9977.01951693
0.21900001 249880.82958706 8246.06776626
0.22000001 246704.25961155 10631.72057065
0.22100001 243566.98615115 8110.78102234
0.22200001 240466.68500415 8847.97209310
0.22300001 237401.61703813 7976.69470966
0.22400001 234372.20300826 10283.08089324
0.22500001 231380.60351122 10981.32396192
0.22600001 228421.62927186 10111.08389785
0.22700001 225499.49276985 8483.29131917
0.22800001 222609.70989017 9175.97267560
0.22900001 219752.70670444 8339.61561382
0.23000001 216929.81765910 7516.61853736
0.23100001 214140.10629986 9687.69886716
0.23200001 211380.52988985 11081.62480357
0.23300001 208653.14891358 8788.47104789
0.23400001 205957.55902675 7260.00429906
0.23500001 203290.60771881 12953.67813650
0.23600001 200655.74124654 9273.30552031
0.23700001 198049.71118867 9898.52503339
0.23800001 195473.11769935 7007.71160098
0.23900001 192925.05298844 7639.83245970
0.24000001 190405.42104433 8948.10318523
0.24100001 187914.95149893 6821.31306207
0.24200001 185451.44071603 8111.64640062
0.24300001 183015.42658798 9377.71090196
0.24400001 180605.84855621 7964.71829809
0.24500001 178222.80170686 6576.42169408
0.24600001 175866.18975442 7167.42690250
0.24700001 173535.77331728 9037.74350190
0.24800001 171230.58798966 8314.10159315
0.24900001 168949.61494948 9503.41629049
0.25000001 166694.54958931 9414.07513342
0.25100001 164462.78593434 8081.70168315
0.25200001 162256.96207022 6157.65200188
0.25300001 160074.57731377 8538.37835787
0.25400001 157915.47867857 7248.32081427
0.25500001 155779.30829829 8374.69601034
0.25600001 153666.61800517 7108.61808525
0.25700001 151576.10804593 8212.39392248
0.25800001 149508.85977558 6389.26142481
0.25900001 147463.70515353 6901.30172772
0.26000001 145440.46594205 8540.99176657
0.26100001 143438.23250671 7328.25964551
0.26200001 141458.61774703 6696.65128101
0.26300001 139499.20317195 6629.00244840
0.26400001 137561.31044440 5468.06234890
0.26500001 135644.79922507 6494.67329422
0.26600001 133747.72271692 5892.25620311
0.26700001 131872.16903819 6361.51373543
0.26800001 130017.06690790 7869.28334698
0.26900001 128180.73849560 9863.50829399
0.27000001 126365.20747248 6677.76970489
0.27100001 124568.72525138 5590.64465385
0.27200001 122793.34710166 7542.58170266
0.27300001 121036.17115317 5969.50424378
0.27400001 119296.38897470 4920.97627809
0.27500001 117578.36283206 5841.29334194
0.27600001 115876.84001220 7703.49268859
0.27700001 114195.84741577 7619.14730017
0.27800001 112532.27118677 7064.21365808
0.27900001 110888.10873054 9314.60157420
0.28000001 109260.89749472 5065.88175210
0.28100001 107652.46271419 5009.06932717
0.28200001 106062.60251001 4502.35768964
0.28300001 104490.14262469 4896.40831514
0.28400001 102935.09750617 7040.76100267
0.28500001 101398.24464383 4784.98339122
0.28600001 99878.58937889  5159.72817153
0.28700001 98376.29788273  4674.84189666
0.28800001 96890.55655400  5880.28815559
0.28900001 95423.97187236  5396.22586481
0.29000001 93972.51064555  5332.47036899
0.29100001 92539.19326779  4863.86022838
0.29200001 91122.44594073  4004.83168866
0.29300001 89722.64772777  6330.83032335
0.29400001 88338.70169442  5081.68405552
0.29500001 86972.51907111  4633.89603546
0.29600001 85621.93538275  5721.68610280
0.29700001 84287.93505752  6028.27340068
0.29800001 82970.09860852  4093.33000862
0.29900001 81669.20773677  5880.18323541
0.30000001 80383.50048527  3992.24674059
0.30100001 79114.87060990  3942.29418912
0.30200001 77860.65120007  4246.52011748
0.30300001 76623.66235506  4192.84700256
0.30400001 75402.23462643  5519.44383595
0.30500001 74196.30621492  3746.17167814
0.30600001 73005.10429371  4370.45077545
0.30700001 71830.61262224  5309.71913642
0.30800001 70671.07517125  3603.16493819
0.30900001 69527.00456842  3556.30645205
0.31000001 68398.48736364  4148.02646256
0.31100001 67284.21180932  4408.46176647
0.31200001 66185.79951152  3728.90812103
0.31300001 65101.92302085  5519.34129503
0.31400001 64033.99493166  3630.72768453
0.31500001 62979.93008608  3582.29859291
0.31600002 61941.05023469  3534.35649373
0.31700002 60916.77456322  4068.02239794
0.31800002 59907.05568488  4299.82912537
0.31900002 58912.21395474  3958.90096521
0.32000002 57931.86590597  3905.18726563
0.32100002 56965.10504141  3851.98058529
0.32200002 56014.03690643  3799.43230327
0.32300002 55075.15481875  3211.98318112
0.32400002 54151.40964115  3959.82201751
0.32500002 53241.49562814  3384.56203735
0.32600002 52345.77487011  3081.07245475
0.32700002 51463.30628628  3038.39374702
0.32800002 50595.37898907  2746.57027848
0.32900002 49740.39771850  2462.14980366
0.33000002 48899.80806141  2913.45070226
0.33100002 48070.39882307  2872.68716970
0.33200002 47257.23161287  3068.64848010
0.33300002 46455.89533269  2327.44046638
0.33400002 45668.16682490  3671.72078660
0.33500002 44892.55210066  2941.36015293
0.33600002 44130.99971697  2676.98656960
0.33700002 43381.21678353  3079.19891312
0.33800002 42645.26688963  2819.06550124
0.33900002 41920.85262532  2137.96358514
0.34000002 41209.69940675  2318.66384693
0.34100002 40510.66703073  2701.65651223
0.34200002 39824.61237807  2868.56696544
0.34300002 39149.59213902  2222.13095505
0.34400002 38488.17676565  3186.82118712
0.34500002 37837.65813649  2356.52946035
0.34600002 37200.14859984  1936.26782632
0.34700002 36572.76224875  2100.00810778
0.34800002 35958.62711565  2258.92106239
0.34900002 35355.31896316  2413.00063352
0.35000002 34763.62547345  2562.42695501
0.35100002 34183.83321282  2526.86907077
0.35200002 33613.94019304  3025.75896979
0.35300002 33055.75663116  1930.78683627
0.35400002 32508.86085896  2250.42599955
0.35500002 31972.83847943  1707.34965567
0.35600002 31446.71359152  1683.97159259
0.35700002 30931.67082333  2823.75236321
0.35800002 30427.72415982  1802.38632598
0.35900002 29933.89093978  1616.43018731
0.36000002 29450.81491855  1913.71404405
0.36100002 28976.87842055  1730.78903004
0.36200002 28514.27919653  1552.60257579
0.36300002 28060.41354177  1532.09865195
0.36400002 27616.60771658  2268.01401615
0.36500002 27182.29691336  1641.53898835
0.36600002 26757.97395283  2209.53980382
0.36700002 26342.52475100  1890.33966567
0.36800002 25937.78425828  1866.35335471
0.36900002 25541.24336828  2268.06251854
0.37000002 25153.39147556  1959.70082269
0.37100002 24774.58881108  1382.42212114
0.37200002 24405.31199427  1775.12045199
0.37300002 24044.14429535  1483.76421475
0.37400002 23691.61741540  1732.44960557
0.37500002 23347.97024132  2106.92093438
0.37600002 23012.76762270  1691.78369193
0.37700002 22685.27738478  1929.38293297
0.37800002 22365.89898931  1398.65155955
0.37900002 22055.10678138  1759.99760453
0.38000002 21751.98589208  1243.12605262
0.38100002 21455.69304328  1598.23465051
0.38200002 21168.02513703  1824.15465260
0.38300002 20887.10365551  1323.40695031
0.38400002 20614.54968808  1190.49030088
0.38500002 20347.94225296  1178.14591226
0.38600002 20089.79434935  1399.45514067
0.38700002 19837.79316935  1154.55961715
0.38800002 19592.95864167  1371.89902908
0.38900002 19354.38226214  1585.12398237
0.39000002 19123.62171217  1345.92055987
0.39100002 18898.30203634  1111.22021238
0.39200002 18680.06837000  1541.66611561
0.39300002 18467.69418994  1309.72893400
0.39400002 18262.89952526  1839.53064183
0.39500002 18062.98756388  1287.52981455
0.39600002 17869.10384808  1489.74725840
0.39700002 17681.16070801  1688.90455085
0.39800002 17499.19283055  1256.79208863
0.39900002 17322.58772580  1559.03296919
0.40000002 17151.51203774  1547.49524692
0.40100002 16986.10867392  1126.68864172
0.40200002 16826.27021466  1220.57769920
0.40300002 16670.99663623  1616.41991043
0.40400002 16521.29790063  1204.40267402
0.40500002 16376.73286179  1496.01461781
0.40600002 16236.90218818  1189.51551067
0.40700002 16101.96907040  1182.52866456
0.40800002 15971.74412893  1175.83985848
0.40900002 15846.00781653  1266.88838496
0.41000002 15725.23056224  1066.40656111
0.41100002 15608.48792839  1157.52551962
0.41200002 15495.89445007  959.97070667
0.41300002 15388.28347159  1051.17369375
0.41400002 15284.20123706  1427.16235813
0.41500002 15184.42509340  1042.25898780
0.41600002 15088.01986723  943.75568741
0.41700002 14995.98286452  1410.37225524
0.41800002 14908.48432579  936.99828427
0.41900002 14822.77890591  1213.98564992
0.42000002 14741.91828664  1117.14262070
0.42100002 14664.89296998  928.28776899
0.42200002 14591.16876924  1388.71455342
0.42300002 14520.23089331  1108.18407429
0.42400002 14452.60054681  921.35332852
0.42500002 14388.53273195  1195.25547068
0.42600002 14326.68027572  1009.38630666
0.42700002 14269.07785466  1007.68232585
0.42800002 14213.57456373  1463.42970643
0.42900002 14162.02921470  1461.52148421
0.43000002 14112.64561751  1551.05039009
0.43100002 14065.09930043  911.41847786
0.43200002 14021.30596144  1001.75225189
0.43300002 13979.85077093  1456.14132530
0.43400002 13940.97815653  1091.57864138
0.43500002 13904.28003167  1364.00993575
0.43600002 13870.34191517  1545.64162456
0.43700002 13838.11093125  1181.91311065
0.43800002 13808.07043449  1182.03992556
0.43900002 13780.96238777  1182.40662890
0.44000002 13755.37219783  1091.90149681
0.44100002 13732.24939924  1274.62744964
0.44200002 13710.83873475  1639.95349878
0.44300002 13691.47939415  1458.96411338
0.44400002 13674.35227952  1004.03936371
0.44500002 13657.68797706  1096.43924276
0.44600002 13643.28295705  1189.21681531
0.44700002 13631.62682968  1007.64990300
0.44800002 13620.01392103  917.30798105
0.44900002 13611.59542697  1102.53928184
0.45000002 13604.06973479  1012.34689729
0.45100002 13597.71361704  1014.11752962
0.45200002 13593.09934600  923.65114434
0.45300002 13589.41674999  1110.52718944
0.45400002 13587.59189776  1205.55914826
0.45500002 13586.90514082  1301.08209795
0.45600002 13587.32374504  1210.83441293
0.45700002 13589.02235214  1026.92246782
0.45800002 13591.37607892  1216.49617360
0.45900002 13595.00820626  1219.47229390
0.46000002 13600.38976020  1128.56039579
0.46100002 13605.66651780  1037.16000781
0.46200002 13612.78509842  945.40796989
0.46300002 13620.81019360  1137.61012129
0.46400002 13628.90444784  1235.80096938
0.46500002 13638.56276536  1239.33625723
0.46600002 13648.59662648  1051.69266290
0.46700002 13659.10269803  1054.75596033
0.46800002 13671.42175850  1250.31993618
0.46900002 13683.29310267  964.67220946
0.47000002 13696.20964858  1257.92843480
0.47100002 13709.74269119  1164.77979425
0.47200002 13724.06639047  973.72255656
0.47300002 13739.00053491  1465.26447650
0.47400002 13753.71760101  1077.94766807
0.47500002 13769.38712151  1179.76114449
0.47600002 13785.99692714  1085.02693958
0.47700002 13802.13071401  1187.53538292
