# SAXS profile: number of points = 501, q_min = 0, q_max = 0.5, delta_q = 0.001
#    q    intensity    error
0.00000000 1682732.95097187 302.89193117
0.00100000 1682645.70480134 555.27309577
0.00200000 1682383.93263245 832.78007302
0.00300000 1681947.85897590 1110.08562647
0.00400000 1681337.34621654 1891.50458637
0.00500000 1680553.06509958 1512.49781846
0.00600000 1679594.83358272 1763.57464706
0.00700000 1678463.45388655 3424.06558823
0.00800000 1677158.67541691 3396.24646111
0.00900000 1675681.87965830 2513.52292693
0.01000000 1674032.48854794 3590.79984298
0.01100000 1672212.19462924 3310.98028952
0.01200000 1670220.66603427 4234.00957403
0.01300000 1668059.47650710 5604.68008826
0.01400000 1665728.65054127 5247.04548181
0.01500000 1663229.93590487 4790.10242870
0.01600000 1660562.69349249 4234.43505770
0.01700000 1657729.50611332 5371.04384075
0.01800000 1654730.63632446 4715.98252573
0.01900000 1651567.04427449 5945.64162767
0.02000000 1648239.77333158 5711.15107294
0.02100000 1644751.14488474 7598.75063388
0.02200000 1641100.16708617 8492.69375051
0.02300000 1637289.85892453 6483.66813647
0.02400000 1633320.86178411 10412.42096865
0.02500000 1629195.47426917 6989.24890382
0.02600000 1624914.16776029 11187.53455673
0.02700000 1620478.80171122 6806.01127891
0.02800000 1615890.05741497 8434.94648653
0.02900000 1611151.06109681 7975.19811860
0.03000000 1606262.56833702 8216.03341470
0.03100000 1601226.31330262 9223.06398901
0.03200000 1596043.36234254 10270.53950972
0.03300000 1590717.96846312 9735.19441579
0.03400000 1585248.65755329 10819.32258701
0.03500000 1579639.55001162 11942.07554955
0.03600000 1573891.10667588 13102.64406860
0.03700000 1568006.60840150 13406.45712185
0.03800000 1561987.58602373 9137.62780112
0.03900000 1555836.27144559 12135.52347927
0.04000000 1549553.10500271 13341.65285231
0.04100000 1543142.13742775 12638.33469153
0.04200000 1536605.00338570 10902.21300481
0.04300000 1529943.18525715 16156.20078625
0.04400000 1523159.81466335 18506.39260763
0.04500000 1516257.15029063 11508.39230544
0.04600000 1509235.94596228 11704.12530503
0.04700000 1502100.04712550 12978.14501075
0.04800000 1494851.33368236 14283.30515791
0.04900000 1487492.46995047 12271.81344831
0.05000000 1480024.96760743 13586.62983531
0.05100000 1472452.89042736 13782.15969643
0.05200000 1464775.49645593 12809.46231344
0.05300000 1456998.51437309 15342.19507157
0.05400000 1449122.56396675 13150.78788127
0.05500000 1441151.42480835 16947.94154636
0.05600000 1433085.69047318 13478.17154785
0.05700000 1424930.90878335 13636.58943359
0.05800000 1416685.99386059 13791.43879419
0.05900000 1408355.22446501 12675.19761219
0.06000000 1399942.02739265 16652.31119381
0.06100000 1391447.95117571 12940.46655066
0.06200000 1382875.87335938 14374.99537551
0.06300000 1374229.09349857 14511.85990585
0.06400000 1365507.03565322 17307.80248633
0.06500000 1356715.94695907 17460.93505415
0.06600000 1347857.47949731 17609.75879357
0.06700000 1338932.50668038 15022.82342801
0.06800000 1329945.22641521 20647.40060658
0.06900000 1320899.69239350 19417.22638728
0.07000000 1311794.98228601 13970.61721557
0.07100000 1302635.72955833 15475.31319198
0.07200000 1293424.27406602 21244.49469677
0.07300000 1284163.53003795 17105.05902157
0.07400000 1274856.53627209 20078.99138727
0.07500000 1265504.21219721 15869.42356479
0.07600000 1256109.39156077 18860.48339848
0.07700000 1246676.33661326 18961.94796899
0.07800000 1237206.40955945 16126.98630490
0.07900000 1227700.57551782 20625.37063611
0.08000000 1218165.25598722 23681.13368730
0.08100000 1208600.56006684 16352.36634493
0.08200000 1199008.09897859 20898.71214587
0.08300000 1189391.31708952 17983.59755840
0.08400000 1179753.46090218 24066.97173208
0.08500000 1170096.10821161 18113.08860544
0.08600000 1160421.88767256 18172.20761416
0.08700000 1150732.91407437 18227.61021486
0.08800000 1141031.18985831 19802.59723000
0.08900000 1131320.26851078 15272.82434226
0.09000000 1121602.11925123 16840.85661166
0.09100000 1111878.21475948 21481.48811838
0.09200000 1102151.19757551 15375.00992860
0.09300000 1092424.88810636 16943.51081074
0.09400000 1082697.88322921 18514.13467334
0.09500000 1072975.17405244 18541.01187910
0.09600000 1063257.90775736 23205.60492765
0.09700000 1053550.89398924 18584.63864369
0.09800000 1043853.00173188 17051.33958500
0.09900000 1034168.03685274 17063.77341045
0.10000000 1024495.70643484 17073.22175064
0.10100000 1014840.20723948 20185.17267134
0.10200000 1005203.08723839 15530.38842833
0.10300000 995585.79529374 20190.48087833
0.10400000 985990.89026443 21741.10015314
0.10500000 976421.56624432 20182.63472385
0.10600001 966874.70329437 21725.67560529
0.10700001 957358.24727907 18611.04520290
0.10800001 947868.97151068 18597.19009625
0.10900001 938412.16086789 18580.56165969
0.11000001 928987.93839208 27841.76982411
0.11100001 919597.66107674 18539.08972000
0.11200001 910244.04397664 18514.36472609
0.11300001 900927.16408985 18487.02627751
0.11400001 891649.97618774 19995.25165748
0.11500001 882413.70270353 24566.39864005
0.11600001 873219.65012999 19922.50725590
0.11700001 864069.14646720 19882.23199656
0.11800001 854962.66744454 18313.30119919
0.11900001 845902.15938426 22839.35937915
0.12000001 836888.86844531 16708.48704556
0.12100001 827926.10623563 19696.36299520
0.12200001 819012.37644853 25688.32439752
0.12300001 810150.22363718 16575.67435657
0.12400001 801340.03530579 21035.17691790
0.12500001 792582.71187989 20971.73954454
0.12600001 783881.31331999 16426.23369468
0.12700001 775234.79847901 14884.50883225
0.12800001 766644.48125050 20768.39997588
0.12900001 758112.00930818 16261.50336610
0.13000001 749637.96691444 20622.54144186
0.13100001 741222.27829361 17611.44216242
0.13200001 732866.73657671 21931.03812589
0.13300001 724573.06690939 16020.31126461
0.13400001 716339.77449742 15956.46922921
0.13500001 708169.88322211 15891.33292875
0.13600001 700061.93571410 24456.66487732
0.13700001 692018.59248634 18622.22120191
0.13800001 684037.91210797 15688.41025399
0.13900001 676123.21115581 14198.58810385
0.14000001 668273.47106390 16960.78149548
0.14100001 660489.30184911 26730.00330650
0.14200001 652771.15169371 15402.13605066
0.14300001 645120.89164153 20901.91787508
0.14400001 637534.97748739 19412.94098020
0.14500001 630018.34088523 13797.40231624
0.14600001 622568.70687600 17845.93282447
0.14700001 615189.09381625 15022.91837972
0.14800001 607874.34364391 13585.99222141
0.14900001 600629.39719426 13514.16207448
0.15000001 593452.70890748 21506.72718556
0.15100001 586345.00399994 24063.60009960
0.15200001 579306.36295428 26590.16331431
0.15300001 572337.85170942 17187.30649789
0.15400001 565435.56712282 17090.29082280
0.15500001 558604.02052251 19607.00204565
0.15600001 551839.23361130 16894.55893435
0.15700001 545146.95150318 16795.97836853
0.15800001 538519.71602622 15412.43500012
0.15900001 531963.72119727 16597.26888476
0.16000001 525474.16797488 12690.20175560
0.16100001 519056.33071797 16396.99026139
0.16200001 512705.39562722 15042.77701781
0.16300001 506422.32731155 13703.78882398
0.16400001 500207.84111803 16094.18804777
0.16500001 494060.49851890 12302.10699392
0.16600001 487981.76318116 13446.33811930
0.16700001 481968.41828405 14574.72565705
0.16800001 476021.96556846 14480.58887631
0.16900001 470144.34685937 17983.02211649
0.17000001 464331.19267015 14292.11478526
0.17100001 458584.12538001 18930.35358960
0.17200001 452903.13266852 12928.12053253
0.17300001 447287.28460709 14009.03841546
0.17400001 441736.23484151 11595.57671220
0.17500001 436249.32992883 12668.68113944
0.17600001 430825.09384151 13726.08813806
0.17700001 425466.09756689 14767.92894405
0.17800001 420168.22495006 12409.66911003
0.17900001 414933.97741199 13443.86150315
0.18000001 409761.39905155 14462.52926266
0.18100001 404652.05056310 13256.40180263
0.18200001 399600.88655681 14259.75831038
0.18300001 394611.34410421 10891.27361177
0.18400001 389681.26195704 11895.02108317
0.18500001 384812.05232007 11809.88244363
0.18600001 379999.83241600 13856.69454369
0.18700001 375245.83398287 17989.28613104
0.18800001 370549.38553800 12606.09069159
0.18900001 365911.77771177 10428.48615750
0.19000001 361326.83120421 15528.02130468
0.19100001 356802.16734251 14386.26406700
0.19200001 352329.38246387 11219.92971472
0.19300001 347913.71350371 14174.00535790
0.19400001 343549.94748290 13063.48737034
0.19500001 339240.85783339 10971.04986077
0.19600001 334983.87235144 11878.52867492
0.19700001 330779.25372140 13753.80201971
0.19800001 326626.40694044 12674.73832032
0.19900001 322524.66272953 10643.31437308
0.20000001 318471.98637519 11522.31701161
0.20100001 314470.56068471 11434.15012690
0.20200001 310516.49362829 16073.88705238
0.20300001 306612.37049821 13135.27457298
0.20400001 302755.41567338 13033.62126078
0.20500001 298945.32840458 10161.15219276
0.20600001 295182.17591037 10998.48839430
0.20700001 291465.05332443 10003.08110293
0.20800001 287792.09494941 9924.51086346
0.20900001 284166.15067414 11636.60442018
0.21000001 280582.21926349 9768.47042544
0.21100001 277042.52835907 10571.94338195
0.21200001 273545.28866789 11361.70410194
0.21300001 270089.50924676 8669.87365669
0.21400001 266676.49037877 16340.60272049
0.21500001 263305.41272366 8531.09577558
0.21600001 259973.48476411 11846.99226081
0.21700001 256682.03009966 9232.85305921
0.21800001 253429.73875433 9157.68404287
0.21900001 250215.32880078 10734.23811309
0.22000001 247038.84004149 9008.27172805
0.22100001 243901.61638691 9746.30905166
0.22200001 240801.58444106 8054.81338042
0.22300001 237736.41859927 10384.32725544
0.22400001 234707.00331444 9505.63408372
0.22500001 231715.39818110 8640.66760677
0.22600001 228756.47232122 11683.73737631
0.22700001 225834.25124714 11585.29763684
0.22800001 222944.37527178 8423.95361801
0.22900001 220087.20122166 8352.30968135
0.23000001 217264.24748726 9033.84783775
0.23100001 214474.26039699 9702.81599923
0.23200001 211714.50342796 8879.30669370
0.23300001 208986.90920632 10269.61720409
0.23400001 206291.09502616 8726.11373231
0.23500001 203623.84671504 10812.42677196
0.23600001 200988.65128344 8574.17626928
0.23700001 198382.34866859 9915.15025542
0.23800001 195805.30770276 8423.54473580
0.23900001 193256.94216559 6957.25024704
0.24000001 190736.83145194 7584.65046144
0.24100001 188245.96152410 8883.32734451
0.24200001 185781.85257424 6771.74884665
0.24300001 183345.58386168 8052.53842411
0.24400001 180935.45754590 7979.25405522
0.24500001 178551.83881559 7247.41948036
0.24600001 176194.86018944 9139.22783036
0.24700001 173863.78305915 7761.27964291
0.24800001 171557.91827870 9611.53282625
0.24900001 169276.36815212 8252.22333781
0.25000001 167020.53234811 7545.98800847
0.25100001 164788.05353103 8097.68533361
0.25200001 162581.72577487 6786.97446356
0.25300001 160398.50210588 6722.30154129
0.25400001 158238.77442620 9078.95011224
0.25500001 156101.82149080 6593.74125173
0.25600001 153988.35240071 6529.87639250
0.25700001 151896.99145116 9993.30354039
0.25800001 149828.96579486 7567.11227550
0.25900001 147782.86179033 8068.94463553
0.26000001 145758.66741075 7989.03293879
0.26100001 143755.65755337 5649.59760916
0.26200001 141775.08575535 7270.93561700
0.26300001 139814.80090512 7197.66629117
0.26400001 137875.96885839 6028.62702360
0.26500001 135958.48208906 7052.16679966
0.26600001 134060.37080328 6442.94172568
0.26700001 132183.80103556 5313.78905308
0.26800001 130327.56727950 6836.33286515
0.26900001 128490.31716068 6765.01551864
0.27000001 126673.67114919 7208.99896625
0.27100001 124876.10978149 6623.42917625
0.27200001 123099.63097007 7057.30217749
0.27300001 121341.27890099 5984.55215861
0.27400001 119600.35082427 5920.21764597
0.27500001 117881.09717429 5856.33318477
0.27600001 116178.38939382 5792.65476932
0.27700001 114496.24333971 5251.94293055
0.27800001 112831.44620358 6138.59512123
0.27900001 111186.05337290 4669.81446267
0.28000001 109557.57419315 5541.42236496
0.28100001 107947.83832255 6849.29066574
0.28200001 106356.64867221 6772.25992473
0.28300001 104782.86278543 7142.00026549
0.28400001 103226.56227859 5736.81647016
0.28500001 101688.34151613 5671.15907478
0.28600001 100167.34127297 6037.08594427
0.28700001 98663.63133450  6393.40361309
0.28800001 97176.61493327  4212.60645675
0.28900001 95708.51497642  4995.98471825
0.29000001 94255.70079574  5759.96614827
0.29100001 92821.00541865  4472.11625276
0.29200001 91402.75161909  5624.01157334
0.29300001 90001.49232483  4762.87919929
0.29400001 88616.10707264  5097.64180066
0.29500001 87248.43724050  5423.36311560
0.29600001 85896.30558577  4209.34865449
0.29700001 84560.86760491  4157.85805696
0.29800001 83241.47971045  3733.38054175
0.29900001 81939.05854116  5162.16093247
0.30000001 80651.84337788  5098.00326125
0.30100001 79381.60435221  4315.18421687
0.30200001 78125.82777016  6036.39236843
0.30300001 76887.21664219  3856.66296935
0.30400001 75664.20102339  3461.63736070
0.30500001 74456.75222985  4784.59112480
0.30600001 73263.90527403  4048.56359711
0.30700001 72087.79817032  4329.59336309
0.30800001 70926.67847185  3616.19687309
0.30900001 69780.91201101  3569.29381835
0.31000001 68650.66987806  3843.06468172
0.31100001 67534.69092573  3792.74842196
0.31200001 66434.64770610  4678.66028622
0.31300001 65349.02167147  4001.32078639
0.31400001 64279.56740825  3644.65164461
0.31500001 63223.69507145  4495.20493242
0.31600002 62183.17676850  4435.21529301
0.31700002 61157.17454369  4084.07630940
0.31800002 60145.74342665  3741.36614700
0.31900002 59149.08178543  3123.07166614
0.32000002 58167.06281480  3640.96746929
0.32100002 57198.52192620  3315.22648782
0.32200002 56245.72186983  3270.12642435
0.32300002 55304.99352608  3225.38737517
0.32400002 54379.52720013  2916.10228419
0.32500002 53467.82806943  2876.03460804
0.32600002 52570.34007186  2836.43283289
0.32700002 51686.10643720  2797.25221284
0.32800002 50816.34550712  3009.34412343
0.32900002 49959.53720212  2472.99720861
0.33000002 49117.25754068  2682.53914761
0.33100002 48286.00053076  3126.03582239
0.33200002 47470.98609606  2845.41104134
0.33300002 46667.82151308  3974.69854649
0.33400002 45878.31872252  2535.92418748
0.33500002 45100.80116315  2500.38853489
0.33600002 44337.48051122  3810.14156817
0.33700002 43585.84644583  2209.80251945
0.33800002 42848.02893285  3050.35132419
0.33900002 42121.72137621  2363.02868111
0.34000002 41408.69031277  2329.86007079
0.34100002 40707.85118246  3341.30058330
0.34200002 40019.94963889  2264.92915708
0.34300002 39343.01775386  2436.11977469
0.34400002 38679.80114464  2201.84778444
0.34500002 38027.38454867  2960.43202732
0.34600002 37388.00462740  2335.25487963
0.34700002 36758.69650087  2686.32566751
0.34800002 36142.76317892  2648.90323884
0.34900002 35537.53595514  2798.58108901
0.35000002 34943.94587748  2575.71837262
0.35100002 34362.26262830  2721.49132906
0.35200002 33790.50717458  2147.04892756
0.35300002 33230.38682383  1940.98698631
0.35400002 32681.67177878  1740.29910465
0.35500002 32143.76840301  2059.77277682
0.35600002 31615.76828477  1862.32691902
0.35700002 31098.78107710  2004.00554753
0.35800002 30592.97251196  2141.66114214
0.35900002 30097.23358834  2112.82589798
0.36000002 29612.22797740  2084.55288721
0.36100002 29136.35354042  1740.31447940
0.36200002 28671.92834363  2029.54254394
0.36300002 28216.13948976  2156.84180476
0.36400002 27770.42979937  1824.51732424
0.36500002 27334.15123520  1500.64497389
0.36600002 26907.95142069  2073.79591422
0.36700002 26490.59586835  1608.50905732
0.36800002 26083.96461591  1732.49701186
0.36900002 25685.47924915  1425.54416585
0.37000002 25295.75632394  2111.56335916
0.37100002 24915.09457524  2085.39351473
0.37200002 24543.95893100  1373.23456724
0.37300002 24180.87638989  1627.85667568
0.37400002 23826.43803736  2814.49812649
0.37500002 23480.92392798  1589.18900673
0.37600002 23143.73785014  1439.65628117
0.37700002 22814.37008483  1422.93232960
0.37800002 22493.15651669  1278.73600855
0.37900002 22180.47037863  2402.14505580
0.38000002 21875.41255893  1625.23385306
0.38100002 21577.23407216  1730.92579927
0.38200002 21287.68376025  1345.27523896
0.38300002 21004.87158508  1330.86872668
0.38400002 20730.49872322  2154.93544437
0.38500002 20461.92661166  1658.64384972
0.38600002 20201.95126395  1524.54032436
0.38700002 19948.04856909  1509.26942624
0.38800002 19701.30024436  1494.44220084
0.38900002 19460.90765761  1138.46315191
0.39000002 19228.26359508  1353.28525593
0.39100002 19001.00240142  1452.43669238
0.39200002 18780.90351831  1328.56117783
0.39300002 18566.63547901  1207.01702968
0.39400002 18360.04457530  1631.74903894
0.39500002 18158.25088148  1186.46016881
0.39600002 17962.48298047  1711.46545946
0.39700002 17772.68838024  1273.23545588
0.39800002 17588.79293580  1473.76502991
0.39900002 17410.39152273  1149.08589494
0.40000002 17237.47044721  1347.88406548
0.40100002 17070.17558328  1132.26480008
0.40200002 16908.55372074  1226.54654502
0.40300002 16751.40468830  1015.13517221
0.40400002 16599.91368595  1411.82272588
0.40500002 16453.41225251  1102.21413902
0.40600002 16311.82978562  1195.00470671
0.40700002 16174.99658323  1484.86475669
0.40800002 16043.04312703  1082.66481673
0.40900002 15915.43511477  1076.67923653
0.41000002 15792.80375581  973.62639768
0.41100002 15674.23369840  1162.40122615
0.41200002 15559.83637674  1060.32510013
0.41300002 15450.33622401  959.46592497
0.41400002 15344.51763088  1241.75514812
0.41500002 15242.95063590  1236.50821417
0.41600002 15144.71377654  1231.49245909
0.41700002 15050.85166157  1132.42613267
0.41800002 14961.57270759  1034.36837815
0.41900002 14874.07680068  1405.60032427
0.42000002 14791.53983587  1214.31152037
0.42100002 14712.57520825  1303.82847674
0.42200002 14637.11472947  1207.34246567
0.42300002 14564.44436491  1204.18831715
0.42400002 14494.98142881  1201.27164284
0.42500002 14429.14253788  1014.22447705
0.42600002 14365.54269187  920.11305301
0.42700002 14306.16564533  1102.14705354
0.42800002 14248.82200181  1100.29408712
0.42900002 14195.53461750  1464.97924195
0.43000002 14144.40661657  1097.32311731
0.43100002 14095.11677005  1096.03633198
0.43200002 14049.58808431  912.52078932
0.43300002 14006.34014975  911.81278696
0.43400002 13965.77872672  1275.77394714
0.43500002 13927.29473458  1093.01414257
0.43600002 13891.64901234  1001.65739950
0.43700002 13857.68981222  910.45026381
0.43800002 13825.91992638  1183.56793139
0.43900002 13797.08443972  1183.78990103
0.44000002 13769.75891631  1001.95655503
0.44100002 13744.95204103  1002.41939986
0.44200002 13721.90321060  1276.54871618
0.44300002 13700.75736407  1094.96458043
0.44400002 13681.99934463  1095.92819944
0.44500002 13663.66400376  1371.14874776
0.44600002 13647.50372961  1006.57168528
0.44700002 13634.22107720  1191.08560975
0.44800002 13620.86600637  1009.10190591
0.44900002 13610.69621653  1010.59424197
0.45000002 13601.60722146  1012.16364935
0.45100002 13593.54220044  1198.13486633
0.45200002 13587.23092182  1200.22810036
0.45300002 13581.93920694  1109.91612459
0.45400002 13578.39372293  1297.41558171
0.45500002 13576.06634848  1114.32357869
0.45600002 13574.82217879  1023.60951490
0.45700002 13574.88049086  1025.85376731
0.45800002 13575.57357312  1028.14611329
0.45900002 13577.57911481  1311.59420465
0.46000002 13581.35370521  1033.06571855
0.46100002 13584.92589630  1035.57895016
0.46200002 13590.52143706  943.86175854
0.46300002 13596.85213156  1135.60914385
0.46400002 13603.35966426  1423.25157233
0.46500002 13611.35919249  1141.72086318
0.46600002 13619.83943346  1144.88375704
0.46700002 13628.75774302  1435.10825836
0.46800002 13639.48897521  1055.49190437
0.46900002 13649.75635982  962.30786898
0.47000002 13661.06517029  1061.66973003
0.47100002 13673.00285320  1258.46324226
0.47200002 13685.77628173  1359.40822250
0.47300002 13699.14822402  1071.41043338
0.47400002 13712.28712675  1367.80070572
0.47500002 13726.35348833  1078.06785407
0.47600002 13741.50265792  1179.84547413
0.47700002 13756.01222901  1084.93673593
