# SAXS profile: number of points = 501, q_min = 0, q_max = 0.5, delta_q = 0.001
#    q    intensity    error
0.00000000 1664650.74656089 249.69761198
0.00100000 1664564.04137283 499.36922427
0.00200000 1664303.89370909 748.93677588
0.00300000 1663870.52536130 1297.81905601
0.00400000 1663263.79909902 1621.68226574
0.00500000 1662484.38310873 1945.10680523
0.00600000 1661532.10910820 2267.99142127
0.00700000 1660407.74256867 2191.73831128
0.00800000 1659111.07014586 3135.72005497
0.00900000 1657643.45779904 2983.75835159
0.01000000 1656004.31975280 3005.64797013
0.01100000 1654195.34777570 3275.30693120
0.01200000 1652216.21803121 3221.82176642
0.01300000 1650068.49416498 4158.17278869
0.01400000 1647752.18695726 4448.93110201
0.01500000 1645269.06182714 4738.37510906
0.01600000 1642618.47539200 5026.41275940
0.01700000 1639802.96310875 4427.46819900
0.01800000 1636822.84465675 5597.93438062
0.01900000 1633679.03068801 6371.34850717
0.02000000 1630372.59586524 6162.80869115
0.02100000 1626905.88117334 5368.78965128
0.02200000 1623277.84433621 6720.37058087
0.02300000 1619491.45452345 6996.20340200
0.02400000 1615547.39635489 11510.77572389
0.02500000 1611448.06525204 7541.57728981
0.02600000 1607193.71986063 8461.87532210
0.02700000 1602786.42683808 7404.87363114
0.02800000 1598226.63004493 8342.74339143
0.02900000 1593517.67423427 9322.07882229
0.03000000 1588660.19992510 7387.27026921
0.03100000 1583655.96196418 9882.01365736
0.03200000 1578505.97099855 10939.04688285
0.03300000 1573214.57542077 8825.73417498
0.03400000 1567780.05966488 10700.09940092
0.03500000 1562206.94395200 9279.50967558
0.03600000 1556495.30491338 14685.53388053
0.03700000 1550648.67461573 10606.43742489
0.03800000 1544668.27595989 12650.83376559
0.03900000 1538556.64781469 9231.34031439
0.04000000 1532314.07799999 9423.73201639
0.04100000 1525944.61407300 18265.55787736
0.04200000 1519449.79056065 10780.49676417
0.04300000 1512831.23140518 10983.15524982
0.04400000 1506092.15667274 11182.73478264
0.04500000 1499234.51149849 10344.71861001
0.04600000 1492259.16206487 12624.51309794
0.04700000 1485170.12672361 17109.16065557
0.04800000 1477969.11142521 11949.38082186
0.04900000 1470658.78250207 16544.91207327
0.05000000 1463240.61624443 12313.17035907
0.05100000 1455718.61342621 11354.60571367
0.05200000 1448092.26808653 11512.33406778
0.05300000 1440367.02363663 15167.06546595
0.05400000 1432543.72733503 16545.88082232
0.05500000 1424625.98001652 15556.91642750
0.05600000 1416614.45565095 13323.25957712
0.05700000 1408514.61998801 14704.89331908
0.05800000 1400325.33989424 14871.45580406
0.05900000 1392050.99533076 15034.15145175
0.06000000 1383695.00974320 16459.05290984
0.06100000 1375258.84190234 15347.88939286
0.06200000 1366745.36032589 12915.74425881
0.06300000 1358158.00792649 20861.30797713
0.06400000 1349495.88249568 15789.10256360
0.06500000 1340765.50077566 17255.65280216
0.06600000 1331968.35545250 14724.91085848
0.06700000 1323105.43798548 17544.37892875
0.06800000 1314180.93110210 13601.77327359
0.06900000 1305198.70987030 16445.50451433
0.07000000 1296157.93233424 20706.12393868
0.07100000 1287063.26706180 16680.34072239
0.07200000 1277916.92420580 19590.46736583
0.07300000 1268722.02607606 15491.09666423
0.07400000 1259481.31994842 14169.16551345
0.07500000 1250196.06055206 19953.13006166
0.07600000 1240868.76093530 17198.44183284
0.07700000 1231503.72994734 21612.89147397
0.07800000 1222102.19814047 21722.86759067
0.07900000 1212665.46069559 18917.58207416
0.08000000 1203199.87978808 20466.43091530
0.08100000 1193705.21535912 26428.63470804
0.08200000 1184183.29105289 16217.39093197
0.08300000 1174637.62373608 16280.47822906
0.08400000 1165071.23332038 25252.92016756
0.08500000 1155485.74117593 17886.92011311
0.08600000 1145883.91069203 17944.54288396
0.08700000 1136267.79441417 16498.60914963
0.08800000 1126639.30751958 16544.69900793
0.08900000 1117002.13454270 18095.43542953
0.09000000 1107357.97237269 16626.98073624
0.09100000 1097708.43509784 18178.05253925
0.09200000 1088056.18094496 19731.89976857
0.09300000 1078404.91286419 15205.50998592
0.09400000 1068753.57280954 15229.73912830
0.09500000 1059106.61698829 18301.36320177
0.09600000 1049465.34835824 16796.69369005
0.09700000 1039834.80242757 19871.24400859
0.09800000 1030213.59499345 22948.00890744
0.09900000 1020605.80219063 24494.54040437
0.10000000 1011010.61053561 15316.81146992
0.10100000 1001432.61954153 18386.30375952
0.10200000 991873.19374673 21454.21818987
0.10300000 982333.77041949 16856.84829336
0.10400000 972817.29264827 22982.80962004
0.10500000 963326.55556043 18380.27154487
0.10600001 953858.21415687 16840.36756334
0.10700001 944420.35224609 18359.53251162
0.10800001 935010.16001018 21402.38356987
0.10900001 925632.52244559 21382.11227486
0.11000001 916287.69369225 18307.42898169
0.11100001 906976.81213694 24379.53785787
0.11200001 897702.71209903 18259.27402369
0.11300001 888465.66724484 16712.03998769
0.11400001 879268.07074035 18200.84992130
0.11500001 870111.84331340 18167.93614388
0.11600001 860997.65215862 24176.81521114
0.11700001 851927.10874422 18094.93264191
0.11800001 842900.88123104 16550.35958247
0.11900001 833920.40663286 19513.73843434
0.12000001 824987.28902631 14973.52000115
0.12100001 816104.78432286 22402.07738498
0.12200001 807271.38263745 20851.82079588
0.12300001 798489.42216395 17822.28474239
0.12400001 789759.63619453 17769.59265164
0.12500001 781082.44496480 20667.44246763
0.12600001 772461.24797302 19130.00370752
0.12700001 763894.86998514 14666.78219491
0.12800001 755384.71664968 17540.03394725
0.12900001 746932.17765311 16021.69596580
0.13000001 738538.26935229 15963.50544449
0.13100001 730202.48771573 21687.01490743
0.13200001 721926.96959713 15842.68809464
0.13300001 713712.99768649 22953.01108767
0.13400001 705559.55990011 15716.33993773
0.13500001 697469.02879997 15651.20574420
0.13600001 689440.79224899 17001.61073850
0.13700001 681476.40919196 19749.18726962
0.13800001 673575.01109484 16852.84757230
0.13900001 665739.37845708 15378.58036758
0.14000001 657968.55880353 18090.84637748
0.14100001 650263.15344915 15235.66640387
0.14200001 642623.49342880 15162.70204261
0.14300001 635051.54741085 15088.82547819
0.14400001 627543.95386643 16378.89796850
0.14500001 620105.30281348 19012.42948112
0.14600001 612733.42994029 16212.92732105
0.14700001 605431.37464542 17472.75029657
0.14800001 598193.95040524 18717.48959125
0.14900001 591026.33269682 14627.90242440
0.15000001 583926.44187947 18516.30834565
0.15100001 576895.48080336 14468.53934125
0.15200001 569933.15390443 15695.95979917
0.15300001 563040.59378703 15607.48599628
0.15400001 556214.32790525 12931.98373407
0.15500001 549458.47808811 15428.79479284
0.15600001 542769.10558271 15338.65564767
0.15700001 536151.89503232 20330.88081918
0.15800001 529599.48663046 17683.32769322
0.15900001 523117.92484209 12554.83078881
0.16000001 516702.58866750 13726.20491586
0.16100001 510358.69269022 18602.57522668
0.16200001 504081.34408373 18487.18416698
0.16300001 497871.72697418 14697.17407410
0.16400001 491730.12861629 15821.41763515
0.16500001 485655.34214366 13302.10044932
0.16600001 479648.91522549 16821.28825114
0.16700001 473707.67209516 13131.17729046
0.16800001 467832.67655256 11859.55891057
0.16900001 462026.49835249 14138.01151716
0.17000001 456284.26239644 15214.79944805
0.17100001 450607.69239504 12788.24691405
0.17200001 444997.07094957 12702.44199010
0.17300001 439450.91262953 12616.63629741
0.17400001 433969.30860184 13670.03386654
0.17500001 428551.62283472 12445.13971487
0.17600001 423196.15580834 13483.03016085
0.17700001 417905.49976110 12273.88510769
0.17800001 412675.68065929 16620.51382357
0.17900001 407509.04452247 11002.74472181
0.18000001 402403.69500240 14202.83908598
0.18100001 397361.15915188 11932.75617299
0.18200001 392376.44819604 11847.80741294
0.18300001 387452.88488058 13901.81016623
0.18400001 382588.56523647 11678.51650554
0.18500001 377784.58976129 14756.26677319
0.18600001 373037.13941043 10463.69225480
0.18700001 368347.60457257 13503.62382161
0.18800001 363715.15529406 10311.32513976
0.18900001 359141.23188918 11259.07815169
0.19000001 354619.39988129 10159.84628664
0.19100001 350157.64499490 11092.99471758
0.19200001 345747.33959644 11010.32454970
0.19300001 341393.54175682 12914.91829492
0.19400001 337091.44634151 12817.90285283
0.19500001 332843.34828461 14678.39235298
0.19600001 328647.21881707 17480.74639496
0.19700001 324502.72080061 11565.27751588
0.19800001 320409.78680355 10520.65584689
0.19900001 316367.53631505 11389.23184560
0.20000001 312373.83132867 12243.49289757
0.20100001 308430.97227759 12149.09657221
0.20200001 304535.13742110 10200.40491003
0.20300001 300688.83228650 11961.40231371
0.20400001 296889.20215369 13694.01509660
0.20500001 293136.07335430 17210.01968009
0.20600001 289429.20643622 13480.16592695
0.20700001 285768.14902061 9807.56333798
0.20800001 282150.82542271 9729.97167464
0.20900001 278580.18750637 8775.27632127
0.21000001 275050.99310180 11316.97364615
0.21100001 271565.53213575 12090.09806222
0.21200001 268122.37512060 12849.76543512
0.21300001 264719.94431183 8497.51061413
0.21400001 261360.06486215 17700.61122961
0.21500001 258041.55323982 9196.60139226
0.21600001 254761.89582474 9951.00012138
0.21700001 251522.33610965 9047.25885761
0.21800001 248321.35333317 13051.77094829
0.21900001 245157.87112391 9708.25215553
0.22000001 242032.14788749 9628.03929820
0.22100001 238945.04714964 7956.87044631
0.22200001 235894.57763086 10257.87619332
0.22300001 232878.84249954 8607.20242578
0.22400001 229898.54167690 10086.79899304
0.22500001 226955.26773212 9232.54072792
0.22600001 224044.27736705 10680.19120713
0.22700001 221169.75963834 10589.60859226
0.22800001 218327.23773880 10499.35735937
0.22900001 215516.96058807 9665.93613949
0.23000001 212740.45313152 8108.60275458
0.23100001 209996.56805820 8038.66900544
0.23200001 207282.48060491 10866.78455964
0.23300001 204600.01292231 8617.75295186
0.23400001 201949.17680687 7830.57970104
0.23500001 199326.50140383 9173.00602845
0.23600001 196735.37955666 9092.12599624
0.23700001 194172.79782080 9011.55997309
0.23800001 191639.10940485 10305.39359568
0.23900001 189133.66770931 7489.69359555
0.24000001 186656.18110164 10121.43189898
0.24100001 184207.40034193 8692.74763331
0.24200001 181785.33650304 7951.29099475
0.24300001 179390.36027889 7878.82499614
0.24400001 177021.26533717 7806.63817065
0.24500001 174678.41943837 8379.32417684
0.24600001 172361.66679899 6386.00005699
0.24700001 170070.56649035 6959.28791000
0.24800001 167804.38863614 7520.99305447
0.24900001 165562.14442128 8692.01299331
0.25000001 163345.23557119 6764.94325122
0.25100001 161151.27835202 8528.12605385
0.25200001 158983.15580890 6636.75215323
0.25300001 156837.85203414 6573.07468973
0.25400001 154715.52659159 7101.44300653
0.25500001 152615.77720012 8204.62457046
0.25600001 150539.09860808 6963.93903109
0.25700001 148484.23154449 6320.97403592
0.25800001 146452.31191056 9103.47613908
0.25900001 144442.17096490 6196.56942758
0.26000001 142453.56434253 6692.46876947
0.26100001 140485.51577817 5521.08103132
0.26200001 138539.96888508 6011.94223423
0.26300001 136614.21610882 7032.90017806
0.26400001 134709.57598463 5890.17648864
0.26500001 132825.95324642 6889.68252090
0.26600001 130961.45662900 7343.00922066
0.26700001 129118.21256161 5190.55239059
0.26800001 127294.99257500 7190.89447084
0.26900001 125490.38476386 6607.06907047
0.27000001 123706.18208787 5531.52219382
0.27100001 121940.81202231 5472.70390255
0.27200001 120196.02723678 5414.23030310
0.27300001 118469.14474461 5842.89849531
0.27400001 116759.45434904 6261.22603578
0.27500001 115071.30130733 5240.34730954
0.27600001 113399.11724749 5182.90689908
0.27700001 111747.41864854 4659.86757818
0.27800001 110112.71119802 5069.03889990
0.27900001 108497.20716509 5012.57120826
0.28000001 106898.29864437 5406.91620133
0.28100001 105317.89945817 4454.94735793
0.28200001 103755.75537045 6606.64803590
0.28300001 102210.69372255 4789.59333453
0.28400001 100682.88120753 4734.61271288
0.28500001 99172.94023616  4254.51933750
0.28600001 97679.93324742  5466.65772294
0.28700001 96203.97841684  5402.81568362
0.28800001 94744.47162486  4928.60764721
0.28900001 93303.62642899  4870.44953013
0.29000001 91877.86608076  6015.70356639
0.29100001 90469.89253935  4755.09777695
0.29200001 89078.21024260  6263.98004077
0.29300001 87703.30092070  5414.80205516
0.29400001 86343.91271179  4202.79015019
0.29500001 85002.06921490  3774.09205180
0.29600001 83675.60438865  3727.74835198
0.29700001 82365.53014750  6627.13086938
0.29800001 81071.39459016  5454.07832924
0.29900001 79793.87776168  4308.86960311
0.30000001 78531.35630671  4254.82908612
0.30100001 77285.58411219  5251.55568903
0.30200001 76054.06597480  3802.32320841
0.30300001 74839.61897562  4436.49282290
0.30400001 73640.48253946  4716.67312995
0.30500001 72456.70346184  3658.33913098
0.30600001 71287.26550183  3282.77873177
0.30700001 70134.48419989  4212.27732047
0.30800001 68996.35251233  3517.77919939
0.30900001 67873.49814161  4734.17671951
0.31000001 66766.04038201  3426.09952441
0.31100001 65672.54431519  3380.82274141
0.31200001 64594.75972809  4549.08616923
0.31300001 63531.27279460  4787.71694448
0.31400001 62483.58531705  3247.58450062
0.31500001 61449.55385228  2912.70899051
0.31600002 60430.55893011  3160.82053450
0.31700002 59425.91327250  3118.07781704
0.31800002 58435.70249997  3355.37819642
0.31900002 57460.10396169  3033.89363283
0.32000002 56498.79934587  4624.70943943
0.32100002 55550.95988637  2951.42263851
0.32200002 54618.67875173  3704.78515515
0.32300002 53698.28804211  3392.65799915
0.32400002 52792.98413797  2573.65809859
0.32500002 51901.26322813  3299.36345964
0.32600002 51023.60899660  3003.24976775
0.32700002 50159.01194080  3208.17055565
0.32800002 49308.81827624  2920.06835659
0.32900002 48471.36578718  3119.13253611
0.33000002 47648.15965300  3312.02373432
0.33100002 46835.88921242  3265.39835052
0.33200002 46039.83685050  2299.68995958
0.33300002 45255.41931928  2267.29661526
0.33400002 44484.37359792  2682.40785498
0.33500002 43725.39510962  2864.88802325
0.33600002 42980.21807526  2607.18015191
0.33700002 42246.73875641  3212.86463458
0.33800002 41526.92579656  2533.97313211
0.33900002 40818.48084486  3122.61393251
0.34000002 40123.14338480  2873.21843386
0.34100002 39439.80237843  2832.56674097
0.34200002 38769.25269171  2792.54940364
0.34300002 38109.74084966  1966.46272097
0.34400002 37463.53438293  2520.35939498
0.34500002 36828.12454093  2867.06963130
0.34600002 36205.60356520  2072.95193030
0.34700002 35593.05903130  2229.54932331
0.34800002 34993.64127892  2381.49237003
0.34900002 34404.86465096  2167.50657567
0.35000002 33827.60718663  1781.02360273
0.35100002 33262.11913899  2283.11196583
0.35200002 32706.39242007  2251.34462887
0.35300002 32162.25795605  2732.50556537
0.35400002 31629.32679402  1852.68790471
0.35500002 31107.07046499  2325.56469811
0.35600002 30594.58375258  1638.34003755
0.35700002 30093.16718340  2262.40441601
0.35800002 29602.57381101  2709.96774789
0.35900002 29122.04310327  1729.84944227
0.36000002 28652.08857886  2172.11493805
0.36100002 28191.20796954  1990.01746483
0.36200002 27741.52065480  1510.52587120
0.36300002 27300.48898229  1788.72812285
0.36400002 26869.36256693  2500.86603938
0.36500002 26447.58205812  2468.35295040
0.36600002 26035.75557246  1719.92209459
0.36700002 25632.71534274  1556.41854934
0.36800002 25240.13617088  2095.56240485
0.36900002 24855.69723479  1517.44038806
0.37000002 24479.87139116  1634.76588894
0.37100002 24113.02130705  1345.50665267
0.37200002 23755.47427759  1727.85450343
0.37300002 23405.97110538  1444.38254533
0.37400002 23065.00089969  1816.36890689
0.37500002 22732.84160348  1666.77202532
0.37600002 22408.95490581  1647.39439794
0.37700002 22092.69610338  1503.18711408
0.37800002 21784.44731966  2229.20259982
0.37900002 21484.64877323  1714.47505332
0.38000002 21192.47719036  1332.26514168
0.38100002 20906.97597615  1197.96978019
0.38200002 20629.97420501  1422.23048907
0.38300002 20359.70183188  1759.07832161
0.38400002 20097.60897207  1276.70067043
0.38500002 19841.49198325  1378.58692831
0.38600002 19593.63327198  1478.63360492
0.38700002 19351.81044297  1576.78558959
0.38800002 19117.09173667  1450.12706239
0.38900002 18888.49688796  1325.97254435
0.39000002 18667.65810112  1204.34401945
0.39100002 18452.12362796  1301.98190487
0.39200002 18243.59212746  1505.64372961
0.39300002 18040.87208351  1172.83714971
0.39400002 17845.57945276  1268.82075920
0.39500002 17655.07063522  1153.58236996
0.39600002 17470.55473564  1144.40874218
0.39700002 17291.85218768  1032.32362451
0.39800002 17118.98173774  1434.39954776
0.39900002 16951.48683572  1118.79818416
0.40000002 16789.36418261  1312.84439446
0.40100002 16632.85499482  1103.25732408
0.40200002 16481.71300990  996.31959865
0.40300002 16335.13351835  1385.87279336
0.40400002 16194.04426803  1278.92470666
0.40500002 16057.95874345  1564.68757410
0.40600002 15926.64048011  1166.78573686
0.40700002 15799.96610018  966.95797115
0.40800002 15677.94354015  1154.21025811
0.40900002 15560.33645330  956.96073722
0.41000002 15447.65192675  1333.28690097
0.41100002 15338.89002916  1137.53213846
0.41200002 15234.15653755  1415.63406333
0.41300002 15134.33995214  1033.82681112
0.41400002 15037.97065030  1123.33646080
0.41500002 14945.82637242  1212.40549278
0.41600002 14857.01146232  1115.16733320
0.41700002 14772.41344453  1204.09947692
0.41800002 14692.29168179  1200.43374874
0.41900002 14613.87415897  1473.07858503
0.42000002 14540.21675603  1193.67915115
0.42100002 14470.25599623  1007.56397276
0.42200002 14403.61195846  913.90922207
0.42300002 14339.65403592  1276.80285586
0.42400002 14278.82462239  1274.38515794
0.42500002 14221.60401581  1181.38870157
0.42600002 14166.50203853  1088.83739828
0.42700002 14115.55206561  1087.46218267
0.42800002 14066.51900529  1086.21664906
0.42900002 14021.51060330  1085.26497212
0.43000002 13978.48878858  1174.82214591
0.43100002 13937.30624637  1174.07873383
0.43200002 13899.72894746  902.78743792
0.43300002 13864.44179081  1263.60528469
0.43400002 13831.65414491  1263.52166601
0.43500002 13800.92807952  1263.61303484
0.43600002 13772.92703151  1444.50465552
0.43700002 13746.51940392  1174.09027793
0.43800002 13722.29986847  993.97483808
0.43900002 13700.88030163  1175.53558559
0.44000002 13680.91061198  995.49150786
0.44100002 13663.33815925  1087.05523547
0.44200002 13647.40888607  1269.61850884
0.44300002 13633.44101866  998.78593636
0.44400002 13621.71371057  1454.79909323
0.44500002 13610.25102414  910.52583667
0.44600002 13601.07294495  1185.53757943
0.44700002 13594.47452891  1187.61335113
0.44800002 13587.96703771  1189.69451037
0.44900002 13584.43911952  916.94968402
0.45000002 13581.85069258  1470.09958864
0.45100002 13580.36769975  1104.89876842
0.45200002 13580.40419040  1015.06735932
0.45300002 13581.46492171  1017.38758550
0.45400002 13584.23686397  1019.83663090
0.45500002 13588.08570839  1022.36761715
0.45600002 13592.98296476  1118.15883167
0.45700002 13599.04345349  1214.53062839
0.45800002 13605.69959336  1030.42770754
0.45900002 13613.64000198  1315.07768652
0.46000002 13623.20740103  1224.65828736
0.46100002 13632.61336678  1228.16219642
0.46200002 13643.78860525  1705.61009438
0.46300002 13655.76487315  1330.61779230
0.46400002 13667.78465700  1048.66082751
0.46500002 13681.30756994  1051.95578891
0.46600002 13695.08558098  1343.07710658
0.46700002 13709.43498044  1058.64261937
0.46800002 13725.37265086  1544.92801880
0.46900002 13740.81030788  1065.59988988
0.47000002 13757.24720452  1166.33947328
0.47100002 13774.23177846  1365.30191859
0.47200002 13791.97356670  1859.22708478
0.47300002 13810.26230808  1178.29163597
0.47400002 13828.23584575  985.26185071
0.47500002 13847.12022398  1087.55287394
0.47600002 13866.85416050  1289.82550087
0.47700002 13886.05028506  1593.00776421
