# SAXS profile: number of points = 501, q_min = 0, q_max = 0.5, delta_q = 0.001
#    q    intensity    error
0.00000000 1664650.74656089 274.66737318
0.00100000 1664564.06013285 549.30615289
0.00200000 1664303.96415759 823.83048834
0.00300000 1663870.68885788 1098.15469377
0.00400000 1663264.08374206 1247.44811021
0.00500000 1662484.82836740 1496.23640475
0.00600000 1661532.74658978 2616.91418242
0.00700000 1660408.61778214 2390.98850898
0.00800000 1659112.20627143 3359.70235955
0.00900000 1657644.88377828 2735.11417515
0.01000000 1656006.08916384 2732.41016510
0.01100000 1654197.50581238 3275.31120411
0.01200000 1652218.75636237 4510.55740263
0.01300000 1650071.48638373 3465.15027424
0.01400000 1647755.62786005 5931.92052326
0.01500000 1645273.04354977 5922.98322052
0.01600000 1642622.98379722 5445.29543471
0.01700000 1639808.06734575 5755.72657458
0.01800000 1636828.56510222 5131.45778250
0.01900000 1633685.39351591 4901.05640170
0.02000000 1630379.67305723 6676.40506318
0.02100000 1626913.62474399 6442.57824608
0.02200000 1623286.33533872 6160.37192249
0.02300000 1619500.75996643 9911.34510214
0.02400000 1615557.52326885 6664.17508735
0.02500000 1611459.00021233 8170.09750421
0.02600000 1607205.58096357 8461.93777081
0.02700000 1602799.15493068 9424.45946264
0.02800000 1598240.37861658 7647.58056240
0.02900000 1593532.37580873 9322.16482650
0.03000000 1588675.88070246 8864.81182179
0.03100000 1583672.69099957 9121.95511989
0.03200000 1578523.78886096 7813.69311475
0.03300000 1573233.47969903 8023.49111635
0.03400000 1567800.15959794 9877.14146120
0.03500000 1562228.17361347 9279.63577978
0.03600000 1556517.72956748 11230.27593782
0.03700000 1550672.25115785 9722.71546441
0.03800000 1544693.20419683 13554.68349413
0.03900000 1538582.84733121 10154.64726265
0.04000000 1532341.53387512 12251.07113103
0.04100000 1525973.44815994 11536.35980299
0.04200000 1519480.03258842 13720.90533083
0.04300000 1512862.89771887 10983.38514727
0.04400000 1506125.13962000 12199.61419750
0.04500000 1499268.99068679 14482.93912298
0.04600000 1492295.17398674 14728.95405195
0.04700000 1485207.71443856 11762.84564542
0.04800000 1478008.17279796 10863.36057552
0.04900000 1470699.35354867 12133.27023155
0.05000000 1463282.84900711 15671.76004264
0.05100000 1455762.52271768 17032.42230924
0.05200000 1448137.73684933 12663.96509890
0.05300000 1440414.28208081 12834.09185164
0.05400000 1432592.62583377 13000.77868572
0.05500000 1424676.54606216 19147.65367230
0.05600000 1416666.76238354 13323.75152196
0.05700000 1408568.62824749 14705.45716533
0.05800000 1400381.19652593 13632.71158472
0.05900000 1392108.73882447 15034.77508152
0.06000000 1383754.56080574 17725.89675205
0.06100000 1375320.18329888 14069.52613264
0.06200000 1366808.58858411 21957.78100199
0.06300000 1358223.06319608 15646.73041959
0.06400000 1349562.81990764 13158.23810947
0.06500000 1340834.52123202 18583.96733359
0.06600000 1332039.34136311 14725.69560776
0.06700000 1323178.42075033 16195.70462793
0.06800000 1314255.72238287 16323.05683606
0.06900000 1305275.54156127 16446.47259368
0.07000000 1296236.79747263 17946.39930141
0.07100000 1287144.24909094 13901.15854128
0.07200000 1277999.98122901 16792.92054004
0.07300000 1268807.19126887 18308.88862788
0.07400000 1259568.56891043 17004.17647718
0.07500000 1250285.39143021 18529.23036951
0.07600000 1240960.10733998 18633.01688524
0.07700000 1231597.20411143 20173.56314925
0.07800000 1222197.91342818 21724.56892999
0.07900000 1212763.32408066 17463.79268588
0.08000000 1203299.84423466 17544.11255195
0.08100000 1193807.34335442 17620.59721464
0.08200000 1184287.76251171 14744.38333515
0.08300000 1174744.21649318 20722.48895149
0.08400000 1165180.15886310 16341.65249511
0.08500000 1155596.90885754 16397.92090649
0.08600000 1145997.41202545 16450.79362201
0.08700000 1136383.40147580 22500.39240579
0.08800000 1126757.20883433 16546.43038881
0.08900000 1117122.30788604 21113.61261075
0.09000000 1107480.45932856 21163.95257196
0.09100000 1097833.13492740 22725.14696065
0.09200000 1088183.21387076 30360.31309353
0.09300000 1078534.22728674 15207.33331937
0.09400000 1068885.09821093 16754.77470189
0.09500000 1059240.50911312 21354.28966743
0.09600000 1049601.67737475 16798.87563606
0.09700000 1039973.34362433 21402.65241799
0.09800000 1030354.58038359 18360.91948572
0.09900000 1020748.91698743 18373.48136974
0.10000000 1011156.24232419 19914.72312911
0.10100000 1001580.54437311 15324.18304963
0.10200000 992023.43855624 24522.82055457
0.10300000 982486.46496435 21457.50540420
0.10400000 972972.34476793 16856.74666613
0.10500000 963483.76518657 18383.27110468
0.10600001 954017.73992249 19905.58108011
0.10700001 944582.38784378 15302.23540316
0.10800001 935174.47415954 25993.17573255
0.10900001 925799.13506524 16803.25509229
0.11000001 916456.58000427 16784.90305284
0.11100001 907148.03543115 22860.13156897
0.11200001 897876.24511229 18262.80368534
0.11300001 888641.56326989 22793.65717102
0.11400001 879446.40873267 18204.54151792
0.11500001 870292.35663086 15143.08771843
0.11600001 861180.59533256 15113.72015981
0.11700001 852112.40636136 16590.62933319
0.11800001 843088.37611489 16554.04104468
0.11900001 834110.21307635 22520.97681384
0.12000001 825179.36045520 16474.70670753
0.12100001 816299.16278768 23901.24061237
0.12200001 807468.06519220 16387.56515512
0.12300001 798688.28242450 22283.40412951
0.12400001 789960.67881663 22217.64513856
0.12500001 781285.85953166 19196.19447323
0.12600001 772666.89075538 16191.23545877
0.12700001 764102.77515267 19072.00616661
0.12800001 755594.92151955 16082.83866252
0.12900001 747144.61408516 21853.98099201
0.13000001 738752.77114242 18871.44042834
0.13100001 730419.20553076 17354.76114147
0.13200001 722145.80445117 20169.53326912
0.13300001 713934.06151717 18655.09790690
0.13400001 705782.66926945 21438.14958977
0.13500001 697694.33956389 19926.15127743
0.13600001 689668.13743160 15589.94898172
0.13700001 681706.11629076 15522.44899987
0.13800001 673806.77806931 15453.75918375
0.13900001 665973.13099252 19579.61097452
0.14000001 658204.36651544 23665.73911415
0.14100001 650501.02118478 13855.67240471
0.14200001 642863.44481948 17926.24800429
0.14300001 635293.46118505 15094.57334973
0.14400001 627787.83973316 19116.14062158
0.14500001 620351.18299023 16302.82985802
0.14600001 612981.25390046 20274.35592919
0.14700001 605681.22433732 17479.96095902
0.14800001 598445.74752531 18725.36832351
0.14900001 591279.77204745 13303.79549875
0.15000001 584181.93799207 18524.41012776
0.15100001 577152.81841263 18422.71883301
0.15200001 570192.36875227 15703.09857642
0.15300001 563301.81130792 14313.49970077
0.15400001 556477.28788948 15525.71706479
0.15500001 549723.16028442 15436.22706927
0.15600001 543035.57225370 14067.33716314
0.15700001 536420.02113149 13984.47061092
0.15800001 529869.30697885 12637.38356791
0.15900001 523389.50850170 13817.48367664
0.16000001 516975.93188219 13733.46627870
0.16100001 510633.78955620 14890.08200633
0.16200001 504357.98616841 17264.17468152
0.16300001 498149.92640731 14705.38652175
0.16400001 492009.90582382 14612.69489283
0.16500001 485936.80980440 16939.75798953
0.16600001 479931.84285930 16831.21052373
0.16700001 473992.09277266 13139.06143202
0.16800001 468118.69460855 11866.80946863
0.16900001 462313.90092468 12967.90553326
0.17000001 456572.99883746 15224.42736513
0.17100001 450898.02953184 13959.80365351
0.17200001 445288.67072471 13866.28986117
0.17300001 439744.11301897 12625.05408099
0.17400001 434263.78692626 12539.36743968
0.17500001 428847.38508638 14718.04295126
0.17600001 423493.29836562 16865.62140396
0.17700001 418203.96107489 14515.86017450
0.17800001 412975.20465431 11088.38476870
0.17900001 407809.85128361 14314.12645616
0.18000001 402705.65332263 12026.80490457
0.18100001 397664.38810515 11941.86213889
0.18200001 392680.77484274 10779.08777861
0.18300001 387758.36801762 13912.77090170
0.18400001 382895.15325395 13812.94330617
0.18500001 378092.20565840 11603.65033984
0.18600001 373345.78834794 17802.99475845
0.18700001 368657.32553300 12475.36448543
0.18800001 364025.84101778 15480.19962066
0.18900001 359452.84791528 13317.72864449
0.19000001 354932.03239053 15253.20481268
0.19100001 350471.07286178 11102.92411287
0.19200001 346061.55647113 13024.02729319
0.19300001 341708.72648211 12926.84173365
0.19400001 337407.28271362 9869.16348573
0.19500001 333160.19887640 11753.89237179
0.19600001 328964.71886125 17497.63422310
0.19700001 324821.03747435 12541.34084956
0.19800001 320728.78205494 11488.50551614
0.19900001 316687.13721693 10450.67602206
0.20000001 312694.14863033 11313.27483212
0.20100001 308751.92699997 11226.22059630
0.20200001 304856.66114469 14852.61723296
0.20300001 301010.82444190 11974.21116226
0.20400001 297211.73369759 10053.18736749
0.20500001 293459.13469877 9067.88769080
0.20600001 289752.80584303 13495.23757003
0.20700001 286092.18451170 9818.68423656
0.20800001 282475.38120641 9741.16398137
0.20900001 278905.07584721 8785.51030449
0.21000001 275376.23048352 9587.22391749
0.21100001 271891.20004098 8646.14057004
0.21200001 268448.30135880 10292.30836066
0.21300001 265046.15294348 11060.37648522
0.21400001 261686.51633881 8439.39055091
0.21500001 258368.24611557 8371.13156991
0.21600001 255088.77898056 9133.45416322
0.21700001 251849.47650544 9882.57392532
0.21800001 248648.61291546 11435.35024865
0.21900001 245485.20988659 8911.11354021
0.22000001 242359.58661299 9641.06481132
0.22100001 239272.54475335 8764.55372873
0.22200001 236222.21289312 9481.96007388
0.22300001 233206.33952337 9402.88005420
0.22400001 230226.08393389 7770.13070019
0.22500001 227282.70256006 9245.86077735
0.22600001 224371.70523617 9167.82830948
0.22700001 221497.08682910 9090.24087334
0.22800001 218654.46310658 8261.85927919
0.22900001 215843.99068686 7446.61803085
0.23000001 213067.37063818 9597.62016429
0.23100001 210323.18706327 7319.24725595
0.23200001 207608.83726417 7981.52212610
0.23300001 204926.15802607 7192.90848690
0.23400001 202275.06067854 8556.23547137
0.23500001 199652.05560008 8481.21972302
0.23600001 197060.59468792 7706.05491974
0.23700001 194497.68388940 8332.28117192
0.23800001 191963.52060085 6881.89253905
0.23900001 189457.71295065 8866.62138548
0.24000001 186979.74525901 8111.18173300
0.24100001 184530.55736576 6698.45954922
0.24200001 182107.87945293 8629.18227605
0.24300001 179712.58821730 7235.22914387
0.24400001 177342.92691688 7169.08815974
0.24500001 174999.47496488 6457.48093167
0.24600001 172682.28148056 8957.03036411
0.24700001 170390.53449138 9507.79227439
0.24800001 168123.67223593 6279.41945507
0.24900001 165880.77154717 7464.63507276
0.25000001 163663.12327254 6778.10857099
0.25100001 161468.40514997 7324.20720410
0.25200001 159299.74677914 6045.42567628
0.25300001 157153.55664078 5987.55079129
0.25400001 155030.56822747 7115.90341830
0.25500001 152930.06587799 8808.77221133
0.25600001 150852.54223734 7559.97551191
0.25700001 148796.81932187 6334.28089823
0.25800001 146764.08287722 9122.85582329
0.25900001 144753.01481882 9032.58855207
0.26000001 142763.40747629 7824.86273401
0.26100001 140794.57484678 7746.51787461
0.26200001 138848.01749719 6025.31000439
0.26300001 136921.36204236 8133.12929016
0.26400001 135015.77989614 5903.56525530
0.26500001 133131.17406451 7436.70773514
0.26600001 131265.60833552 7360.06300765
0.26700001 129421.31026242 6763.55799437
0.26800001 127596.99207843 5148.53887400
0.26900001 125791.41012798 6113.46282152
0.27000001 124006.05211078 6049.01550822
0.27100001 122239.59239304 6982.32584791
0.27200001 120493.74191607 5921.06275796
0.27300001 118765.59948349 5369.39300675
0.27400001 117054.76315069 5311.36012932
0.27500001 115365.35572519 6208.96373897
0.27600001 113691.97494774 5668.68213917
0.27700001 112039.10006675 5139.23376328
0.27800001 110403.20083478 6468.52384305
0.27900001 108786.35416375 5025.92980023
0.28000001 107186.20976578 5421.47874654
0.28100001 105604.48079851 4913.77672412
0.28200001 104041.04710006 4858.19692427
0.28300001 102494.62063733 6112.77946413
0.28400001 100965.53050783 4747.90429685
0.28500001 99454.16824505  5119.90082359
0.28600001 97959.83882649  5482.32263941
0.28700001 96482.46147720  5418.45529303
0.28800001 95021.63249479  4531.10675999
0.28900001 93579.29761543  4477.76960285
0.29000001 92152.12422079  4826.92849516
0.29100001 90742.73035901  5166.89131122
0.29200001 89349.57010377  4712.29655033
0.29300001 87973.20121566  4267.58019298
0.29400001 86612.36814231  4215.85721889
0.29500001 85269.01382438  4164.53883232
0.29600001 83940.99388906  4861.44289121
0.29700001 82629.49250421  5909.66158365
0.29800001 81333.79537599  4012.60298483
0.29900001 80054.70622010  4683.20053557
0.30000001 78790.71112203  4980.36108579
0.30100001 77543.31208522  4917.79708525
0.30200001 76310.24559203  4855.62115689
0.30300001 75094.13940996  5478.86867073
0.30400001 73893.46518505  4394.81404994
0.30500001 72708.10710240  5005.95341099
0.30600001 71537.05065210  3953.13760619
0.30700001 70382.61078536  3251.67677223
0.30800001 69242.88711826  6739.75673674
0.30900001 68118.34621331  3484.25357377
0.31000001 67009.10236727  4376.36468280
0.31100001 65913.99607257  3393.25267847
0.31200001 64834.55384365  3957.17718120
0.31300001 63769.34045286  4505.30411630
0.31400001 62720.10169383  3259.87743988
0.31500001 61684.26845795  3216.21790968
0.31600002 60663.59819963  4326.83134645
0.31700002 59657.20301990  3130.21359066
0.31800002 58665.31154197  3087.84881922
0.31900002 57687.84918420  3045.91858115
0.32000002 56724.92146505  3277.56611744
0.32100002 55775.27277435  3232.73496307
0.32200002 54841.26636922  3719.88327396
0.32300002 53919.04870282  2882.51248014
0.32400002 53012.03816061  3101.20437924
0.32500002 52118.55156662  2803.45702152
0.32600002 51239.07348547  2513.27667347
0.32700002 50372.74483889  2478.33916343
0.32800002 49520.73750079  3177.00306480
0.32900002 48681.43965102  2891.67765220
0.33000002 47856.54088698  2613.68510431
0.33100002 47042.42647993  2342.71294964
0.33200002 46244.54191387  2771.89797358
0.33300002 45458.27512867  2960.69759933
0.33400002 44685.47581275  2469.98979252
0.33500002 43924.57328649  2877.93817802
0.33600002 43177.64240958  3055.68189803
0.33700002 42442.33286919  2367.00901621
0.33800002 41720.64199195  2970.09264406
0.33900002 41010.33508995  2928.13806409
0.34000002 40313.14402888  4124.03482946
0.34100002 39627.95512555  2439.49703306
0.34200002 38955.59439081  3206.82468212
0.34300002 38294.18264898  2173.57791010
0.34400002 37646.17653653  3117.10356485
0.34500002 37008.85872012  2881.13978781
0.34600002 36384.49361527  2083.19428060
0.34700002 35770.02596677  2427.35407707
0.34800002 35168.80417172  2209.30438270
0.34900002 34578.16677491  1996.88922583
0.35000002 33999.00999762  1969.05275727
0.35100002 33431.61015394  1941.70800970
0.35200002 32874.03864325  2088.81651432
0.35300002 32328.00721777  2746.58762331
0.35400002 31793.25326190  2200.88806130
0.35500002 31269.10314762  1669.77018717
0.35600002 30754.78910447  2305.68664837
0.35700002 30251.39789500  1949.40017269
0.35800002 29759.01261968  1602.52290547
0.35900002 29276.53246781  1739.02611096
0.36000002 28804.66638602  2495.63641389
0.36100002 28341.89302834  1692.86135077
0.36200002 27890.40223571  1670.49572103
0.36300002 27447.43816520  1498.63019481
0.36400002 27014.42460306  2514.36768903
0.36500002 26590.71672396  1897.77954248
0.36600002 26177.00838735  2161.56656997
0.36700002 25772.06649001  1564.87995140
0.36800002 25377.66479993  1966.51533850
0.36900002 24991.24160208  2219.22235939
0.37000002 24613.59035954  1643.69564207
0.37100002 24244.87520668  1488.15051068
0.37200002 23885.48152382  1336.39275456
0.37300002 23534.08370550  1452.28837426
0.37400002 23191.20996580  1434.95618461
0.37500002 22857.20789572  1418.06124503
0.37600002 22531.36859743  1783.80853636
0.37700002 22213.24490738  1385.44015050
0.37800002 21903.20619414  1245.19733112
0.37900002 21601.50408089  1477.54294913
0.38000002 21307.43499466  1948.35194821
0.38100002 21020.04552216  1565.78326512
0.38200002 20741.20096685  1429.89846239
0.38300002 20469.04396167  1414.82038566
0.38400002 20205.15096715  1283.53227599
0.38500002 19947.05776137  1270.42816901
0.38600002 19697.41134903  1257.77826128
0.38700002 19453.75240743  1245.42928813
0.38800002 19217.12060047  1457.71475221
0.38900002 18986.75332955  1443.94265912
0.39000002 18764.02782423  1320.61234083
0.39100002 18546.57359371  1090.53857898
0.39200002 18336.20518955  1621.37902070
0.39300002 18131.63521148  1178.73766094
0.39400002 17934.54569440  1062.62188274
0.39500002 17742.16708735  1370.05020739
0.39600002 17555.80377690  1568.17224667
0.39700002 17375.27397598  1244.76468661
0.39800002 17200.49651830  1647.11962463
0.39900002 17031.20058428  1124.05929182
0.40000002 16867.28345660  1217.48057758
0.40100002 16708.92887624  1309.81299667
0.40200002 16556.00057814  1401.13439531
0.40300002 16407.56789503  1093.72852770
0.40400002 16264.72963365  1185.69884647
0.40500002 16126.75556665  1080.33140660
0.40600002 15993.69950732  976.41540119
0.40700002 15865.15497936  1068.04228382
0.40800002 15741.42424948  1158.88370816
0.40900002 15621.94905764  1152.89989508
0.41000002 15507.43650048  1147.24020666
0.41100002 15396.88155569  1046.68005775
0.41200002 15290.38280332  1420.85888932
0.41300002 15188.69356664  1320.50508125
0.41400002 15090.64575794  1409.08911441
0.41500002 14996.69811954  935.79400700
0.41600002 14906.09922515  1025.61420578
0.41700002 14819.68444465  1207.95253632
0.41800002 14737.81809264  1574.66224872
0.41900002 14657.63408855  1292.80338787
0.42000002 14582.31122900  1105.04759730
0.42100002 14510.47910823  1010.36470818
0.42200002 14442.12089033  1007.98787530
0.42300002 14376.44327553  914.34183565
0.42400002 14313.81501624  1186.25747568
0.42500002 14254.85842902  1093.06259613
0.42600002 14198.01796325  1273.13633109
0.42700002 14145.34162237  998.94407271
0.42800002 14094.50022370  1088.37735885
0.42900002 14047.77761333  906.08169900
0.43000002 14003.05755416  995.82748515
0.43100002 13960.14962350  1176.00306001
0.43200002 13920.88495150  1084.99382454
0.43300002 13883.83795583  1265.37305126
0.43400002 13849.37570680  1084.40616923
0.43500002 13816.87558999  1174.71081833
0.43600002 13787.20768340  1084.50180777
0.43700002 13759.09585777  994.36990476
0.43800002 13733.18352125  1537.36130214
0.43900002 13710.09443296  995.35290300
0.44000002 13688.41273854  1267.68396379
0.44100002 13669.19304762  1268.77455881
0.44200002 13651.62048231  997.86524644
0.44300002 13635.92103520  1362.22857597
0.44400002 13622.56201003  1182.09787444
0.44500002 13609.49293232  910.47512032
0.44600002 13598.56698846  1367.67593968
0.44700002 13590.38179552  1278.58317992
0.44800002 13582.17660705  914.75963784
0.44900002 13576.92730857  1191.37542779
0.45000002 13572.80141158  1101.84007081
0.45100002 13569.64265733  1012.02399735
0.45200002 13568.01913124  1014.14163803
0.45300002 13567.49105444  1016.34080306
0.45400002 13568.58068625  1944.71691902
0.45500002 13570.83535168  1485.19229128
0.45600002 13574.08701442  930.50370894
0.45700002 13578.55117691  1119.41581208
0.45800002 13583.58072860  1028.75253524
0.45900002 13589.92526093  1125.24586493
0.46000002 13597.89290574  1034.32377290
0.46100002 13605.64370716  1320.01961503
0.46200002 13615.33670519  1323.81925059
0.46300002 13625.66236237  948.34614537
0.46400002 13636.12281367  951.11961133
0.46500002 13648.01638932  1430.99458624
0.46600002 13660.27653892  1435.35362536
0.46700002 13673.06323892  1055.83399335
0.46800002 13687.43798957  1155.49356985
0.46900002 13701.30400182  1448.91296687
0.47000002 13716.19124487  1065.95385312
0.47100002 13731.63717175  1166.63994941
0.47200002 13747.82351012  1365.57137398
0.47300002 13764.59879874  1076.52932307
0.47400002 13781.02515613  1374.65732448
0.47500002 13798.34469164  1379.28260075
0.47600002 13816.64582676  1087.43916134
0.47700002 13834.25203973  1190.29910192
