# SAXS profile: number of points = 501, q_min = 0, q_max = 0.5, delta_q = 0.001
#    q    intensity    error
0.00000000 1664650.74656090 299.63713438
0.00100000 1664563.93077984 549.30611020
0.00200000 1664303.43925467 823.83022852
0.00300000 1663869.51238222 1297.81826589
0.00400000 1663261.98738978 1247.44653794
0.00500000 1662481.55286333 2543.59687656
0.00600000 1661528.04031513 2267.98586736
0.00700000 1660402.20675027 2191.73100400
0.00800000 1659103.82416784 2687.74830863
0.00900000 1657634.31077513 2983.74188694
0.01000000 1655993.05990824 3552.10526688
0.01100000 1654181.71371824 3573.03265720
0.01200000 1652199.99403212 4510.50618147
0.01300000 1650049.47949572 3811.61446575
0.01400000 1647730.16985724 4448.87165584
0.01500000 1645243.75355684 5922.87777654
0.01600000 1642589.75309966 5864.04568071
0.01700000 1639770.59117767 4870.11887426
0.01800000 1636786.56046768 5131.32609796
0.01900000 1633638.68433348 5391.00790156
0.02000000 1630327.90533598 5649.08644753
0.02100000 1626856.69066408 7516.07825164
0.02200000 1623223.84388079 6160.13476740
0.02300000 1619432.62218899 6995.94924630
0.02400000 1615483.44236974 7875.48214066
0.02500000 1611378.69978008 8169.69038100
0.02600000 1607118.88462487 7810.59813652
0.02700000 1602705.78140880 9423.91042631
0.02800000 1598140.11730890 7647.10081202
0.02900000 1593425.07347709 8604.49579184
0.03000000 1588561.28114332 11080.21544528
0.03100000 1583550.55283044 8361.14730367
0.03200000 1578393.88914873 9375.66013337
0.03300000 1573095.56989198 8022.78777630
0.03400000 1567654.03842207 9053.20248961
0.03500000 1562073.61272845 10965.75726773
0.03600000 1556354.61375330 10365.32220662
0.03700000 1550500.35778367 12372.99342733
0.03800000 1544512.24692671 11746.01618148
0.03900000 1538392.67601239 11076.42778024
0.04000000 1532142.00594468 12249.47590516
0.04100000 1525764.35878296 12496.01067783
0.04200000 1519261.14067632 12739.00525557
0.04300000 1512633.99256174 12978.40025861
0.04400000 1505886.15580707 12197.67842852
0.04500000 1499019.71174438 10343.23649163
0.04600000 1492035.34203689 12622.61958042
0.04700000 1484937.30685309 17106.47857053
0.04800000 1477726.91738503 13033.55201776
0.04900000 1470407.07864626 13233.66432381
0.05000000 1462979.34909669 20145.22657515
0.05100000 1455447.88334805 14758.24222465
0.05200000 1447811.67145295 13812.12398932
0.05300000 1440076.53690172 15164.00664049
0.05400000 1432243.09452150 15360.80790508
0.05500000 1424315.14315121 15553.52208877
0.05600000 1416293.40820201 13320.24012572
0.05700000 1408183.20731128 12251.19447548
0.05800000 1399983.41240487 17345.79528961
0.05900000 1391698.58008134 17535.40292803
0.06000000 1383331.98523094 17720.48355869
0.06100000 1374884.98738068 15343.71717620
0.06200000 1366360.73638227 14203.32051861
0.06300000 1357762.25020885 13034.51821144
0.06400000 1349089.13775334 24991.87744567
0.06500000 1340347.80037642 19904.16576666
0.06600000 1331539.40602417 18734.76031933
0.06700000 1322665.35875893 14840.30601979
0.06800000 1313729.47471993 14956.81076980
0.06900000 1304735.93958380 13699.72800704
0.07000000 1295683.76255289 16558.83926085
0.07100000 1286577.89016124 15284.54605101
0.07200000 1277419.86795638 13987.74820940
0.07300000 1268213.39148790 21115.75395766
0.07400000 1258961.18813782 15579.64543333
0.07500000 1249664.06186082 15670.78807026
0.07600000 1240325.18473981 20056.05917748
0.07700000 1230948.51997626 15842.30819492
0.07800000 1221535.27157120 20265.27110573
0.07900000 1212086.96206487 15999.54864969
0.08000000 1202609.51531952 14611.70629658
0.08100000 1193103.16651075 19077.72052760
0.08200000 1183569.51450272 14735.44114702
0.08300000 1174011.96917517 17751.06180702
0.08400000 1164433.74245704 20785.14327848
0.08500000 1154836.72763239 20856.35228015
0.08600000 1145223.04937601 14945.16149605
0.08700000 1135595.18715406 16488.84289176
0.08800000 1125955.05409298 18037.80081369
0.08900000 1116306.08270052 27126.23908373
0.09000000 1106650.24099432 16616.35414909
0.09100000 1096989.10624505 18166.14045288
0.09200000 1087325.22021182 19718.64379506
0.09300000 1077662.41721950 19753.55303590
0.09400000 1067999.32200810 16740.89015926
0.09500000 1058340.93535055 19812.14324099
0.09600000 1048688.33363778 19835.94076320
0.09700000 1039046.27888578 21383.57342477
0.09800000 1029413.75534823 15286.79498567
0.09900000 1019794.53163111 22945.37804065
0.10000000 1010188.43564849 19895.66217573
0.10100000 1000599.08759352 15309.16676020
0.10200000 991028.48609341 15311.39083033
0.10300000 981478.16394176 16842.16608551
0.10400000 971950.52836117 15308.22154187
0.10500000 962448.73543126 24484.69698136
0.10600001 952969.76522264 18354.19854182
0.10700001 943521.27146640 22927.56797555
0.10800001 934100.42703338 21381.55978105
0.10900001 924712.29135199 18309.30423051
0.11000001 915356.87297826 18288.83118295
0.11100001 906035.59865523 15221.39877393
0.11200001 896751.40302852 16719.93069659
0.11300001 887503.93675250 15176.31803298
0.11400001 878296.40804112 21210.85925289
0.11500001 869130.13582687 22684.29761324
0.11600001 860006.14018496 16602.41931810
0.11700001 850926.00116417 18073.66911591
0.11800001 841890.07651219 18033.28628823
0.11900001 832900.08511455 20989.08313351
0.12000001 823957.61960820 16450.31465037
0.12100001 815065.69468977 19390.41379012
0.12200001 806223.00918018 20824.74130820
0.12300001 797432.25112568 19281.91274067
0.12400001 788693.34190112 20703.20120039
0.12500001 780007.57445570 19164.78700743
0.12600001 771377.76380692 14694.74709299
0.12700001 762802.77871224 17574.97684978
0.12800001 754284.37011306 18974.02422443
0.12900001 745823.75415217 18906.63305887
0.13000001 737421.61148240 15939.36888349
0.13100001 729078.02086415 20210.04369101
0.13200001 720794.48427441 21569.77595872
0.13300001 712573.02979001 15754.99043139
0.13400001 704411.89100350 22822.94634452
0.13500001 696314.18311426 17045.77200631
0.13600001 688278.55435570 18387.36244659
0.13700001 680307.27657154 16898.83354687
0.13800001 672398.88119463 14019.51733401
0.13900001 664556.62357436 20933.53462978
0.14000001 656778.95404584 15279.96308649
0.14100001 649067.31200143 17972.67471696
0.14200001 641421.25749851 20637.72993340
0.14300001 633843.25949181 15060.11655587
0.14400001 626329.54347746 17709.46867718
0.14500001 618885.04901093 20330.37481904
0.14600001 611507.65124951 16180.49321537
0.14700001 604199.92437077 16095.88674459
0.14800001 596957.14839133 17344.59076480
0.14900001 589784.24945249 13270.14623878
0.15000001 582679.44183652 17156.99697439
0.15100001 575643.57643616 13124.67416203
0.15200001 568676.67014278 19576.69529343
0.15300001 561779.54625742 19465.66219639
0.15400001 554948.92234348 16773.33196938
0.15500001 548188.82367630 20524.19052704
0.15600001 541495.28240919 14027.43595283
0.15700001 534874.12663656 13944.16913954
0.15800001 528318.00746391 15120.46208728
0.15900001 521833.03297518 16281.19139731
0.16000001 515414.24094202 12447.25450629
0.16100001 509066.92383426 18555.49024966
0.16200001 502786.42480680 14751.75440020
0.16300001 496573.82134758 13437.28824001
0.16400001 490429.29303118 13351.93813311
0.16500001 484352.15347144 14472.44302899
0.16600001 478343.11282098 14378.99465027
0.16700001 472399.54533475 15475.80983585
0.16800001 466522.37463578 14191.61130650
0.16900001 460714.05354646 12923.02981218
0.17000001 454969.90039827 17504.96774440
0.17100001 449291.79688199 11591.72890693
0.17200001 443679.48153371 13816.17970740
0.17300001 438132.03598961 17152.87001903
0.17400001 432649.10548136 12492.74351076
0.17500001 427230.31762208 14662.54519327
0.17600001 421873.84429370 13440.90131400
0.17700001 416582.32293683 22245.49709549
0.17800001 411351.93077714 11044.79986304
0.17900001 406184.64292177 15353.78022766
0.18000001 401079.02366389 13067.15520820
0.18100001 396036.09026868 12974.14293005
0.18200001 391051.35404963 11807.79619330
0.18300001 386127.74243280 15985.68929187
0.18400001 381263.46239608 12696.07389756
0.18500001 376459.80911284 11553.55208749
0.18600001 371712.78846579 13554.50747177
0.18700001 367023.87676572 13455.09595791
0.18800001 362392.14545406 10273.81780902
0.18900001 357818.93292814 16316.54411244
0.19000001 353298.05008266 13158.58649706
0.19100001 348837.24993547 12055.81592741
0.19200001 344428.02163748 12962.54920682
0.19300001 340075.68503889 10885.82319248
0.19400001 335774.93796113 12767.84261930
0.19500001 331528.43263962 9746.93638020
0.19600001 327333.87546484 9672.71647708
0.19700001 323191.14652302 15358.04400856
0.19800001 319100.04163889 11430.16403168
0.19900001 315059.79570218 11342.15318131
0.20000001 311068.12375706 14068.05656179
0.20100001 307127.55402262 11167.15839205
0.20200001 303233.82415245 13850.20557277
0.20300001 299389.94420884 10077.46599838
0.20400001 295592.68375095 9998.42300046
0.20500001 291842.18268970 9919.71625850
0.20600001 288138.01273071 13420.02857727
0.20700001 284479.69419909 9763.34356642
0.20800001 280865.20636547 11446.66202651
0.20900001 277297.24124632 13975.78161947
0.21000001 273771.20642247 11264.31682074
0.21100001 270288.93216091 11173.74498375
0.21200001 266848.76438805 11083.56395283
0.21300001 263449.84467940 10148.08849681
0.21400001 260093.26180749 10065.60970782
0.21500001 256778.07434012 9151.57100215
0.21600001 253501.93475402 9901.78603963
0.21700001 250265.70586904 8183.68896884
0.21800001 247068.47189786 11362.67955982
0.21900001 243908.70146604 8853.88628184
0.22000001 240786.56274179 9578.48991876
0.22100001 237703.25860567 12664.83021735
0.22200001 234656.74006595 10988.97565690
0.22300001 231644.84802911 12453.22761890
0.22400001 228668.26304145 9261.06509110
0.22500001 225729.29024346 9182.66796133
0.22600001 222822.44320315 9104.52545982
0.22700001 219951.95109813 12035.77133325
0.22800001 217113.54463357 8203.63567193
0.22900001 214307.44831480 7393.60731651
0.23000001 211535.13673305 10261.56996821
0.23100001 208795.42696075 10899.12180280
0.23200001 206085.79087002 8643.23847786
0.23300001 203407.78622489 7139.61363416
0.23400001 200761.23786712 9907.56755732
0.23500001 198143.07219020 7014.26508728
0.23600001 195556.36932834 8342.43511012
0.23700001 192998.23127389 8268.04461883
0.23800001 190469.14818426 9559.64699953
0.23900001 187968.23363795 6766.85673104
0.24000001 185495.26758566 12740.74305676
0.24100001 183051.13504060 8638.18347116
0.24200001 180633.47594689 9876.13576456
0.24300001 178243.27775396 6523.70427438
0.24400001 175878.83053031 6463.54732774
0.24500001 173540.58542340 6403.64790504
0.24600001 171228.65639204 7612.82642332
0.24700001 168942.30379329 9426.98099762
0.24800001 166680.70182936 7470.62940940
0.24900001 164443.09147302 8016.60108855
0.25000001 162230.94591867 6107.99540280
0.25100001 160041.85809836 6654.54077455
0.25200001 157878.23640864 8987.21903274
0.25300001 155737.75078075 10087.13459530
0.25400001 153620.18488330 7051.16681974
0.25500001 151525.20046453 9891.56555431
0.25600001 149453.34284751 6337.56930330
0.25700001 147403.14143166 6274.95202763
0.25800001 145376.01682236 6777.43022493
0.25900001 143370.50366566 8946.31985203
0.26000001 141386.57202315 7195.86992359
0.26100001 139423.47300889 6027.27702336
0.26200001 137482.51559269 7050.79114579
0.26300001 135561.55090208 5905.06143671
0.26400001 133661.65134388 5844.35598156
0.26500001 131782.67180280 5258.12885374
0.26600001 129922.87604692 7805.11714785
0.26700001 128084.42247975 5148.99402734
0.26800001 126265.96186008 5604.31498236
0.26900001 124465.85449261 8065.38775279
0.27000001 122686.37865682 5485.92168125
0.27100001 120925.57969026 5920.51666181
0.27200001 119185.41157035 4880.64283477
0.27300001 117463.29172550 7724.38642942
0.27400001 115758.17111218 7162.53717653
0.27500001 114074.62786903 5194.95879901
0.27600001 112407.11638574 6538.72226961
0.27700001 110759.89075584 7389.90026097
0.27800001 109129.67107731 5937.20003595
0.27900001 107518.83517721 7225.26606586
0.28000001 105924.36797750 5804.12601803
0.28100001 104348.48230120 5296.72921230
0.28200001 102790.85330040 4363.47192912
0.28300001 101250.30457818 5175.91581501
0.28400001 99726.98826486  4263.32895011
0.28500001 98221.51857982  4213.70334651
0.28600001 96732.99089442  5413.66209165
0.28700001 95261.46878671  4526.82521101
0.28800001 93806.32637693  4879.80532910
0.28900001 92369.88938019  4821.70845387
0.29000001 90948.60835967  4366.89763709
0.29100001 89544.93412132  3922.06830016
0.29200001 88157.65046736  4261.98181359
0.29300001 86787.02286635  4975.50025645
0.29400001 85431.99634286  4158.40261883
0.29500001 84094.46625100  4480.55337395
0.29600001 82772.28136748  4425.00637137
0.29700001 81466.56386956  3641.55557735
0.29800001 80176.62224171  5034.29034887
0.29900001 78903.30122521  4615.84334018
0.30000001 77645.09572315  3856.24386164
0.30100001 76403.71361405  3807.19722962
0.30200001 75176.37700105  4783.47309503
0.30300001 73966.09504364  3710.13950303
0.30400001 72771.33657067  3662.21768629
0.30500001 71591.72192700  3286.06019202
0.30600001 70426.46561024  4216.08056336
0.30700001 69277.84091883  3520.70004218
0.30800001 68143.95923410  3474.31992604
0.30900001 67025.26251991  4675.01228210
0.31000001 65921.93283087  4305.36163702
0.31100001 64832.56972600  4854.66305093
0.31200001 63759.02857999  2993.48653356
0.31300001 62699.56219802  2953.14951935
0.31400001 61656.13117992  2913.25233618
0.31500001 60626.23713388  3448.42053145
0.31600002 59611.43297432  4251.78565821
0.31700002 58611.03661892  3914.04521073
0.31800002 57624.89578913  3033.08653347
0.31900002 56653.34680397  3263.23293042
0.32000002 55696.26471748  4022.66290969
0.32100002 54752.67476611  3702.37604299
0.32200002 53824.39628923  3129.35054843
0.32300002 52908.37270643  3085.61644235
0.32400002 52007.07733551  4817.15576630
0.32500002 51119.51006421  3749.61624076
0.32600002 50246.06264345  2957.48338724
0.32700002 49385.69123915  2915.73134883
0.32800002 48539.66954915  3353.60592795
0.32900002 47706.39830036  2361.46682769
0.33000002 46887.49432463  2327.96420346
0.33100002 46079.37865477  2753.70379881
0.33200002 45287.63604166  2488.32928014
0.33300002 44507.43647190  3121.75174197
0.33400002 43740.71181283  2417.76795995
0.33500002 42985.95446284  2166.49220752
0.33600002 42245.11985378  2562.58909169
0.33700002 41515.86968696  3578.25297777
0.33800002 40800.25607059  2282.16243139
0.33900002 40096.25492749  2453.89091777
0.34000002 39405.19525936  2217.13341627
0.34100002 38726.26377872  1986.65742593
0.34200002 38060.08351487  2937.28708437
0.34300002 37404.90240609  2509.12097223
0.34400002 36763.10097993  2092.73962239
0.34500002 36132.19775414  2250.31338270
0.34600002 35514.18136555  2218.21587315
0.34700002 34906.06207856  2004.30617948
0.34800002 34311.18670807  1796.19070924
0.34900002 33726.95246706  1947.73159722
0.35000002 33154.15022239  2269.23591945
0.35100002 32593.33262417  1893.02084847
0.35200002 32042.16237882  1866.29583615
0.35300002 31502.58604128  2843.73857663
0.35400002 30974.34976132  1814.32262320
0.35500002 30456.71205989  2114.30505134
0.35600002 29948.92968613  2084.89483885
0.35700002 29452.14772821  2530.52865267
0.35800002 28966.39029227  2027.79224846
0.35900002 28490.65186865  2000.04385591
0.36000002 28025.36608982  1669.33101021
0.36100002 27569.38423962  1796.42116214
0.36200002 27124.50519572  1624.62231565
0.36300002 26688.39379582  2040.06091838
0.36400002 26262.09965047  2156.77503596
0.36500002 25845.27771350  1560.79639505
0.36600002 25438.37514150  2240.61218860
0.36700002 25040.16978269  1658.66092497
0.36800002 24652.71359572  2046.79164324
0.36900002 24273.28611245  1481.88418736
0.37000002 23902.58216962  1463.19663682
0.37100002 23540.66271781  1707.63975444
0.37200002 23188.39247875  1686.60780684
0.37300002 22844.03426756  1281.55038312
0.37400002 22508.18106310  1645.91081821
0.37500002 22181.26478235  1376.12573229
0.37600002 21862.58918844  1483.59537261
0.37700002 21551.58159649  1588.56715473
0.37800002 21248.56212632  1328.77889552
0.37900002 20954.08760945  1433.25966038
0.38000002 20667.18846041  1417.35585176
0.38100002 20387.10267415  1401.81724628
0.38200002 20115.52275301  1155.63683691
0.38300002 19850.68110152  1143.39928561
0.38400002 19594.00150359  1357.86436853
0.38500002 19343.24473069  1119.97392297
0.38600002 19100.78728797  1108.80075460
0.38700002 18864.60587734  1207.71212548
0.38800002 18635.33515771  1413.58341536
0.38900002 18412.35555308  1077.12285088
0.39000002 18197.02992978  1067.25585594
0.39100002 17987.06017800  1586.45878286
0.39200002 17784.14424078  1467.72549373
0.39300002 17587.07099723  1143.33553970
0.39400002 17397.47923469  1546.20104024
0.39500002 17212.54983950  1124.66805980
0.39600002 17033.67473933  1115.79091666
0.39700002 16860.64500453  1107.23860991
0.39800002 16693.49306795  1398.74785043
0.39900002 16531.76478417  1091.09652745
0.40000002 16375.28315968  1280.46532734
0.40100002 16224.54349005  1076.17402068
0.40200002 16079.19727752  1652.37878651
0.40300002 15938.40767389  1159.04106096
0.40400002 15803.12953879  1152.04819796
0.40500002 15672.76121819  1431.70680512
0.40600002 15547.23037556  1044.07430534
0.40700002 15426.32210579  1227.31824489
0.40800002 15310.26677326  1314.99887546
0.40900002 15198.40891839  1495.52350843
0.41000002 15091.47696500  1116.46751877
0.41100002 14988.64131963  1204.18750068
0.41200002 14889.68290574  1106.89907966
0.41300002 14795.63497710  1102.57077074
0.41400002 14705.07915452  1006.93034282
0.41500002 14618.76324086  1459.53739113
0.41600002 14535.75562354  1000.13271307
0.41700002 14456.87253648  906.44595099
0.41800002 14382.67706101  903.95129612
0.41900002 14310.03316184  901.53213191
0.42000002 14242.21982057  989.33584672
0.42100002 14177.99638857  1256.45409949
0.42200002 14117.17467873  1343.60216372
0.42300002 14059.03460260  1251.81650033
0.42400002 14003.90474028  892.74896950
0.42500002 13952.40218087  1248.18195825
0.42600002 13902.97023059  1157.63087111
0.42700002 13857.77136560  978.63586021
0.42800002 13814.32831116  1066.74248274
0.42900002 13775.03174895  1066.18750789
0.43000002 13737.66130261  1154.58179889
0.43100002 13702.03952607  1065.47064404
0.43200002 13670.09058364  976.65966803
0.43300002 13640.35941239  1154.38367177
0.43400002 13613.11515906  977.08138684
0.43500002 13587.89314738  888.64825395
0.43600002 13565.36364663  1155.97251793
0.43700002 13544.48447136  1334.80900791
0.43800002 13525.68329732  1514.13268847
0.43900002 13509.63611932  1248.29043658
0.44000002 13495.04136350  1160.50613705
0.44100002 13482.77090382  1251.47085460
0.44200002 13472.23254277  1611.41381081
0.44300002 13463.47833063  1076.00123918
0.44400002 13456.93446179  1077.90050147
0.44500002 13450.70137428  1169.80755396
0.44600002 13446.62947370  1081.91585873
0.44700002 13445.18434607  993.86807396
0.44800002 13443.59958796  1177.05441771
0.44900002 13445.14471520  907.54731129
0.45000002 13447.53376498  1091.67084278
0.45100002 13450.91996640  1276.76138372
0.45200002 13455.82444973  1005.75564616
0.45300002 13461.70651834  916.74225735
0.45400002 13469.20473567  1011.20059345
0.45500002 13477.81559395  1475.01220851
0.45600002 13487.31853786  1479.28916734
0.45700002 13497.95663145  927.30966453
0.45800002 13509.18905600  1116.12925270
0.45900002 13521.62454684  1399.48820693
0.46000002 13535.67979163  1403.98845293
0.46100002 13549.42163017  1408.46244521
0.46200002 13564.95747230  1130.50360932
0.46300002 13581.22741053  1039.77881983
0.46400002 13597.43089469  948.42084986
0.46500002 13615.01720316  1332.36564665
0.46600002 13632.96216730  1145.98685410
0.46700002 13651.29092326  1054.15273506
0.46800002 13671.19680557  1346.47623720
0.46900002 13690.54195319  1061.70157879
0.47000002 13710.76589745  968.66565657
0.47100002 13731.55081080  972.19384348
0.47200002 13752.93979844  1268.50246243
0.47300002 13774.83765434  1077.33010401
0.47400002 13796.35222649  1081.28915700
0.47500002 13818.70057551  1381.31737500
0.47600002 13841.87498877  990.38620239
0.47700002 13864.38156428  1192.89144633
