# SAXS profile: number of points = 501, q_min = 0, q_max = 0.5, delta_q = 0.001
#    q    intensity    error
0.00000000 1682732.95097188 328.13292544
0.00100000 1682645.74636799 555.27310949
0.00200000 1682384.08807862 1135.60929541
0.00300000 1681948.21402580 1009.16896437
0.00400000 1681337.97358722 1387.10388092
0.00500000 1680554.03816283 2117.49817190
0.00600000 1679596.25353015 2469.00659321
0.00700000 1678465.37432464 2215.57438619
0.00800000 1677161.16060846 2264.16766241
0.00900000 1675685.07241872 3016.23325929
0.01000000 1674036.43623609 3038.37626296
0.01100000 1672216.95142362 3310.98970798
0.01200000 1670226.31972235 4234.02390613
0.01300000 1668066.10738243 4553.82067400
0.01400000 1665736.33448059 4497.48830248
0.01500000 1663238.71600993 3991.77309617
0.01600000 1660572.73065590 6351.69097870
0.01700000 1657740.79738114 5818.67045983
0.01800000 1654743.23788102 7074.02766026
0.01900000 1651581.08826064 6936.64088369
0.02000000 1648255.25688006 6749.60558225
0.02100000 1644768.30349407 6513.28277714
0.02200000 1641118.90032876 7360.41860238
0.02300000 1637310.37807109 5894.31762936
0.02400000 1633343.10579044 7962.54800380
0.02500000 1629219.61081409 6989.35244960
0.02600000 1624940.18832343 7897.20967646
0.02700000 1620506.85038210 8167.35490000
0.02800000 1615920.09993998 9840.95385994
0.02900000 1611183.28228614 10875.48765477
0.03000000 1606297.01531955 9710.06590393
0.03100000 1601262.99733085 10760.48783719
0.03200000 1596082.35292176 7900.60801085
0.03300000 1590759.43045234 8112.87346931
0.03400000 1585292.46180960 11651.90013192
0.03500000 1579685.84763366 10236.36476536
0.03600000 1573940.02985009 13103.05135404
0.03700000 1568058.21267324 11619.31189327
0.03800000 1562041.79712599 10051.73942970
0.03900000 1555893.26597935 9335.36002820
0.04000000 1549612.94160246 9530.12003247
0.04100000 1543204.78972582 11666.62875127
0.04200000 1536670.51330283 11893.83032475
0.04300000 1530011.59997891 10098.07702859
0.04400000 1523231.33608048 10281.81199605
0.04500000 1516331.69575750 14647.76486162
0.04600000 1509313.54661673 12768.79319796
0.04700000 1502180.91377798 12978.84369866
0.04800000 1494935.39083244 17580.44101417
0.04900000 1487579.72565255 12272.53330789
0.05000000 1480115.46897570 15852.03741090
0.05100000 1472546.75334080 11485.86521112
0.05200000 1464872.83559054 12810.31354422
0.05300000 1457099.13144768 14163.00421792
0.05400000 1449226.60696251 16738.56809100
0.05500000 1441258.99581138 18159.86419437
0.05600000 1433196.91698454 15929.98447564
0.05700000 1425045.72093917 14877.47802106
0.05800000 1416804.32348031 20061.95015722
0.05900000 1408477.15301103 17746.81295682
0.06000000 1400067.66944048 15372.74372865
0.06100000 1391577.25118257 14235.83594486
0.06200000 1383008.96152329 20911.09647569
0.06300000 1374365.85370616 14513.30409371
0.06400000 1365647.50799636 13315.06382567
0.06500000 1356860.21390708 16119.50009525
0.06600000 1348005.32301276 17611.69036919
0.06700000 1339084.30957305 15024.52665654
0.06800000 1330101.02223377 13766.54622452
0.06900000 1321059.41277963 22193.79917379
0.07000000 1311958.44880223 15369.59394745
0.07100000 1302803.14987421 19698.38454873
0.07200000 1293595.38449948 15581.35713623
0.07300000 1284338.61213198 15681.77518891
0.07400000 1275035.58449842 15778.56609762
0.07500000 1265687.12053607 17314.60062051
0.07600000 1256296.29223452 21765.33428333
0.07700000 1246867.26776454 17506.01726025
0.07800000 1237400.96654485 14663.20214121
0.07900000 1227899.31612908 17681.75098160
0.08000000 1218367.89166383 14803.17057815
0.08100000 1208807.11872946 16355.16108376
0.08200000 1199218.54726255 17916.32593683
0.08300000 1189605.68935646 16487.93562829
0.08400000 1179971.38982003 25575.88107485
0.08500000 1170318.06623274 15097.10376314
0.08600000 1160647.68000771 19690.38881582
0.08700000 1150962.57387828 21269.78936405
0.08800000 1141264.79059854 18283.06280403
0.08900000 1131557.67206569 18331.23514848
0.09000000 1121843.26212448 24501.05799575
0.09100000 1112123.20701854 18416.76117347
0.09200000 1102399.82266566 16916.32607365
0.09300000 1092677.26776785 16947.42521948
0.09400000 1082953.94861442 20061.72284093
0.09500000 1073234.90755359 20090.95841373
0.09600000 1063521.28987717 17021.65904463
0.09700000 1053817.87188175 15491.12344494
0.09800000 1044123.49444045 21707.32847005
0.09900000 1034442.22762428 21723.28780159
0.10000000 1024773.50422844 17077.85125109
0.10100000 1015121.32713474 18637.62844275
0.10200000 1005487.75371807 26409.13709359
0.10300000 995873.57908231 17089.19142094
0.10400000 986282.10580849 17087.33828701
0.10500000 976716.11223294 23294.68037276
0.10600001 967172.60622345 15523.12106030
0.10700001 957659.14340803 17065.48673859
0.10800001 948173.32712395 17052.89809086
0.10900001 938719.64166289 20135.53726136
0.11000001 929298.49047728 17020.10265422
0.11100001 919911.16714722 16999.95916913
0.11200001 910560.59802201 15434.00286306
0.11300001 901246.50766008 21575.84240919
0.11400001 891972.01012003 15386.51789904
0.11500001 882738.81326448 19967.55289627
0.11600001 873547.23594488 15330.75471278
0.11700001 864399.42375276 16829.85757307
0.11800001 855295.57996710 15267.02682146
0.11900001 846237.56498390 16755.50457589
0.12000001 837226.82109137 15195.66751860
0.12100001 828266.33829613 15157.27470485
0.12200001 819354.80140946 25699.06455692
0.12300001 810495.16680137 19597.77405659
0.12400001 801687.11543041 21044.28777160
0.12500001 792931.82375698 25476.90069780
0.12600001 784232.44170457 20915.48020587
0.12700001 775587.86593874 17869.54527336
0.12800001 766999.45338666 14841.44012250
0.12900001 758468.74140044 16269.15526984
0.13000001 749996.46156577 16211.17428086
0.13100001 741582.54956696 16151.66869092
0.13200001 733228.47960169 16090.69974338
0.13300001 724936.41948906 16028.34499053
0.13400001 716704.44020072 17415.91871796
0.13500001 708535.88630932 17344.95931464
0.13600001 700429.21853110 18711.96745534
0.13700001 692386.75597649 18632.12848189
0.13800001 684407.03684007 21404.83108653
0.13900001 676493.57803341 18468.27555124
0.14000001 668644.61763795 26869.48522696
0.14100001 660861.44303911 23929.79398105
0.14200001 653143.74490766 15410.92738796
0.14300001 645494.15172960 15336.94176850
0.14400001 637908.87199334 16649.42234438
0.14500001 630392.54410132 13805.59736706
0.14600001 622943.22424111 23351.02786225
0.14700001 615563.65962172 24597.92499893
0.14800001 608249.09182368 21750.98854980
0.14900001 601004.35894518 18931.63819998
0.15000001 593827.45709593 21520.30806055
0.15100001 586719.65575248 17390.37141707
0.15200001 579680.74019436 19955.51042283
0.15300001 572711.60930966 15875.56655922
0.15400001 565808.99078323 14470.56562216
0.15500001 558976.98803592 14388.06835106
0.15600001 552211.50119312 15605.49776022
0.15700001 545518.36756809 15514.54310587
0.15800001 538890.35428921 14137.78911206
0.15900001 532333.38753907 15331.20228477
0.16000001 525842.69424820 15238.92199863
0.16100001 519423.53396290 16408.59021244
0.16200001 513071.43128375 13799.05679578
0.16300001 506787.02152754 13713.65744993
0.16400001 500570.92536137 18583.69648137
0.16500001 494421.98302192 14773.32955016
0.16600001 488341.47214273 12232.95445473
0.16700001 482326.56612203 14585.55604818
0.16800001 476378.07849133 12076.18485995
0.16900001 470498.34864143 13197.47930255
0.17000001 464683.13081711 15494.85972876
0.17100001 458933.84515819 13024.54314063
0.17200001 453250.42119394 14114.21878249
0.17300001 447632.14710332 15188.15946847
0.17400001 442078.59112680 13925.47627814
0.17500001 436588.99338747 12678.54496675
0.17600001 431161.91224440 12592.08424181
0.17700001 425799.99112559 15916.40442002
0.17800001 420499.40504788 11290.40955881
0.17900001 415261.95610906 12333.28067898
0.18000001 410086.20081671 15587.37722931
0.18100001 404973.39108767 12161.35150882
0.18200001 399918.93608881 10977.77531421
0.18300001 394925.82216836 16349.92981013
0.18400001 389992.12841745 10822.28207484
0.18500001 385119.37588740 11819.31420435
0.18600001 380303.21318489 16001.25845071
0.18700001 375545.31488679 15885.56757022
0.18800001 370844.87008570 16821.52410184
0.18900001 366203.26863610 11480.47301416
0.19000001 361613.93075961 14504.33544808
0.19100001 357085.02122755 12340.85891673
0.19200001 352607.91686528 11228.79964315
0.19300001 348187.66386812 11145.48764707
0.19400001 343819.53719564 16090.75510111
0.19500001 339505.37907212 14972.18792459
0.19600001 335243.88101273 13869.04001290
0.19700001 331034.18551061 13764.40208400
0.19800001 326876.41871629 12684.44002774
0.19900001 322769.65185540 10651.39901461
0.20000001 318711.71098453 13452.82195645
0.20100001 314705.06523035 10489.12031987
0.20200001 310745.58882403 10408.42398960
0.20300001 306836.22176079 12205.94547855
0.20400001 302973.58900898 11179.72596285
0.20500001 299158.04056721 10168.38227951
0.20600001 295389.00602830 12840.56069900
0.20700001 291666.13990573 10009.98239473
0.20800001 287987.16176699 10834.07753780
0.20900001 284355.37365197 8957.19469345
0.21000001 280765.41680112 10663.47103419
0.21100001 277219.57118943 10578.69933668
0.21200001 273716.13159968 10494.27698164
0.21300001 270254.11130809 12145.22033636
0.21400001 266834.79602937 12047.59161029
0.21500001 263457.20304865 11096.81791704
0.21600001 260118.80319706 8466.86744437
0.21700001 256820.58932674 10077.64040165
0.21800001 253561.77601128 12494.25710369
0.21900001 250340.65965513 13217.98745476
0.22000001 247157.47211711 11470.57882331
0.22100001 244013.43293106 9750.77724098
0.22200001 240906.30170479 11281.64264228
0.22300001 237834.34417417 8790.35777633
0.22400001 234797.74584273 8716.86672660
0.22500001 231799.22304738 9429.59283947
0.22600001 228833.01059788 8570.94081725
0.22700001 225903.65874818 8498.49604399
0.22800001 223006.43725574 8426.29863019
0.22900001 220142.01290724 7594.89980447
0.23000001 217311.65622604 8282.83416877
0.23100001 214514.28545935 9704.62673314
0.23200001 211747.06139798 8880.67217503
0.23300001 209011.96400207 9537.21636847
0.23400001 206308.61875391 8726.85498603
0.23500001 203633.86051834 7929.50290362
0.23600001 200991.00152431 7859.75348635
0.23700001 198376.94503053 9206.67445432
0.23800001 195792.27783563 8422.98419089
0.23900001 193236.12416839 8347.80095892
0.24000001 190708.26395001 11719.97691541
0.24100001 188209.59929036 9564.81228836
0.24200001 185737.79072356 7447.15707133
0.24300001 183293.43285712 8050.24795188
0.24400001 180875.47955186 7311.89160676
0.24500001 178483.92762467 7903.26868908
0.24600001 176118.98752315 7177.72967605
0.24700001 173779.93502027 6464.61388857
0.24800001 171466.19625505 7685.11527971
0.24900001 169176.71802058 8881.77811625
0.25000001 166913.02220909 8169.55825851
0.25100001 164672.60183674 6224.62464391
0.25200001 162457.99994115 7398.33766733
0.25300001 160266.99864817 7327.40752486
0.25400001 158099.08186315 10280.39328453
0.25500001 155954.10394198 8982.95681206
0.25600001 153832.66675669 6523.27454245
0.25700001 151733.37664892 7046.49834497
0.25800001 149657.30424379 8139.86116295
0.25900001 147603.15545857 6332.17566878
0.26000001 145571.08214437 6838.92976273
0.26100001 143560.04025212 6770.29181863
0.26200001 141571.58467494 6143.49920766
0.26300001 139603.34144400 6633.95109932
0.26400001 137656.59954001 7113.40511782
0.26500001 135731.08737663 5415.67064259
0.26600001 133825.19838546 5359.69944896
0.26700001 131940.81482489 10608.04201390
0.26800001 130076.85473500 8397.76213908
0.26900001 128231.61073993 5193.38048073
0.27000001 126407.27331064 5138.45590324
0.27100001 124602.08754652 6608.89503622
0.27200001 122817.76015183 5029.38751623
0.27300001 121051.95647004 6965.32990491
0.27400001 119303.33925854 5413.38927504
0.27500001 117576.71479637 5354.44384523
0.27600001 115866.39095588 6739.94828088
0.27700001 114176.81488875 5713.40808743
0.27800001 112504.47272632 5179.14364707
0.27900001 110851.86024411 6052.51185578
0.28000001 109216.01064797 7825.87361337
0.28100001 107599.09473117 5461.73030705
0.28200001 106000.78316028 4499.73345812
0.28300001 104419.78794671 6672.42476560
0.28400001 102856.43374524 6155.95785102
0.28500001 101311.26039559 4780.87860435
0.28600001 99783.39845053  4725.24305728
0.28700001 98272.82663644  4669.92494280
0.28800001 96778.88846474  4614.90151488
0.28900001 95304.17236072  6218.59754089
0.29000001 93844.80992207  4915.59137639
0.29100001 92403.48777514  4856.72754735
0.29200001 90978.78558492  4398.36959730
0.29300001 89571.11054419  4345.09477818
0.29400001 88179.41698426  5072.52120213
0.29500001 86805.53827670  4239.58269012
0.29600001 85447.30374658  4187.34531832
0.29700001 84105.84055416  5263.34375104
0.29800001 82780.45537401  5197.78503899
0.29900001 81472.16654886  4766.12196873
0.30000001 80179.13952760  3982.09715315
0.30100001 78903.31300264  5718.91239717
0.30200001 77641.96793222  5999.00693628
0.30300001 76397.95486720  4877.24566962
0.30400001 75169.59958204  4126.81121242
0.30500001 73956.79210532  5091.92537751
0.30600001 72758.77388728  3350.54169613
0.30700001 71577.66085984  4298.95451477
0.30800001 70411.59880081  4242.65108661
0.30900001 69261.05942023  4508.89518173
0.31000001 68126.19924642  4767.13101797
0.31100001 67005.68675234  3449.45291733
0.31200001 65901.08035106  5259.89497725
0.31300001 64811.06988740  3357.86168985
0.31400001 63737.32861621  4216.22448759
0.31500001 62677.36732449  2970.90735184
0.31600002 61632.85789156  3516.77103780
0.31700002 60603.02680842  4047.07032189
0.31800002 59587.85557393  4276.91853632
0.31900002 58587.61292494  3093.42610891
0.32000002 57601.98747130  3050.88941088
0.32100002 56630.13950230  3008.75945422
0.32200002 55674.03161315  3506.62904719
0.32300002 54730.32182049  4521.81940292
0.32400002 53801.75508098  3671.96995815
0.32500002 52887.21949840  3103.42218712
0.32600002 51987.09275678  3569.95382865
0.32700002 51100.20363600  3016.95616553
0.32800002 50228.02112641  2974.50355196
0.32900002 49368.92373590  3665.64276097
0.33000002 48524.39815961  2650.16013098
0.33100002 47691.10547175  3562.52574744
0.33200002 46874.29817186  2575.50843502
0.33300002 46069.34410153  2769.68909854
0.33400002 45278.16202982  2502.75052472
0.33500002 44499.28931165  2242.76428752
0.33600002 43734.51926862  3095.09207521
0.33700002 42981.63434186  2832.91965363
0.33800002 42242.87397243  2577.66029187
0.33900002 41515.71777715  2329.03187760
0.34000002 40801.86142097  2504.41837262
0.34100002 40100.37876296  2262.86448076
0.34200002 39411.92563748  2433.29240410
0.34300002 38734.74769893  2198.58438351
0.34400002 38071.26500529  2561.24447453
0.34500002 37418.84951944  2330.44605844
0.34600002 36779.51054704  2871.56042196
0.34700002 36150.51983015  1887.05722451
0.34800002 35534.86098993  2604.35008530
0.34900002 34930.15646634  2383.98329174
0.35000002 34337.24166073  2711.78378859
0.35100002 33756.36396703  1960.56971206
0.35200002 33185.62271268  1757.17880586
0.35300002 32626.56719033  1905.71787985
0.35400002 32079.00617159  1708.20715954
0.35500002 31542.51735904  2863.42986148
0.35600002 31015.98915547  1826.99692774
0.35700002 30500.71546032  1637.88849780
0.35800002 29996.60739335  1615.31738464
0.35900002 29502.95479725  1911.79156141
0.36000002 29019.92548744  2042.85775145
0.36100002 28546.39314970  1860.08306574
0.36200002 28084.14039535  3211.28118561
0.36300002 27630.99112490  1508.65218688
0.36400002 27187.86907862  1935.09667333
0.36500002 26754.35660586  2203.22137085
0.36600002 26331.08498107  2319.24207499
0.36700002 25916.77404214  1573.66659438
0.36800002 25513.30855807  1977.02637381
0.36900002 25118.19056563  2369.90139213
0.37000002 24731.93184544  1651.59848687
0.37100002 24354.68387058  1766.68885166
0.37200002 23987.30546756  1878.92572628
0.37300002 23628.04690419  2253.40694000
0.37400002 23277.53541466  1702.16985783
0.37500002 22936.13111208  1552.31742720
0.37600002 22603.20753068  1533.85373569
0.37700002 22278.10566798  2021.06984194
0.37800002 21961.29379856  2372.14926203
0.37900002 21653.22143758  1357.65704845
0.38000002 21352.85746956  1220.31586219
0.38100002 21059.48048828  1689.39160480
0.38200002 20774.84454505  1312.86636322
0.38300002 20497.07101205  1534.82075009
0.38400002 20227.73070775  1518.59695483
0.38500002 19964.52806178  1618.32472136
0.38600002 19709.90991689  1258.57635737
0.38700002 19461.44198709  1245.92157504
0.38800002 19220.33857279  1233.65748974
0.38900002 18985.55274777  1554.91684371
0.39000002 18758.70720758  1540.27752179
0.39100002 18537.40296305  1852.99888798
0.39200002 18323.23428243  1296.18565455
0.39300002 18115.12406612  1391.78504794
0.39400002 17914.68178655  1698.31191383
0.39500002 17719.09287867  1473.51983360
0.39600002 17529.71903010  1565.84222655
0.39700002 17346.34704708  1656.92314844
0.39800002 17169.07965187  1541.35419877
0.39900002 16997.23639316  1631.73477105
0.40000002 16830.97770647  1113.62169271
0.40100002 16670.57350688  1206.28275611
0.40200002 16515.71716274  1098.21266477
0.40300002 16365.56399962  1190.10387044
0.40400002 16221.04820060  1478.14308731
0.40500002 16081.68006287  1175.24923468
0.40600002 15947.16969069  1265.64718247
0.40700002 15817.63752305  1064.84340850
0.40800002 15692.87933678  1732.96474727
0.40900002 15572.65099805  1245.03350629
0.41000002 15457.49378953  1143.54544473
0.41100002 15346.44018677  948.41004848
0.41200002 15239.51485824  1227.31438726
0.41300002 15137.61206387  1222.05947982
0.41400002 15039.36801897  1217.06091460
0.41500002 14945.48693785  1119.11811493
0.41600002 14854.96588439  1207.93160813
0.41700002 14768.81762742  1111.20589094
0.41800002 14687.34352226  923.09958411
0.41900002 14607.70080811  1012.31371397
0.42000002 14533.02920685  1376.64125685
0.42100002 14462.03095290  1006.99126297
0.42200002 14394.50854175  1004.66477128
0.42300002 14329.78339347  911.37426701
0.42400002 14268.29723949  1000.56439133
0.42500002 14210.46550611  908.04878887
0.42600002 14154.90650188  997.28398485
0.42700002 14103.61574747  905.45217389
0.42800002 14054.43835427  1266.16441134
0.42900002 14009.24573221  993.95603180
0.43000002 13966.16588732  1083.49520088
0.43100002 13924.98969568  1082.80725005
0.43200002 13887.60444438  1172.59993683
0.43300002 13852.51154557  991.97839879
0.43400002 13820.01074709  991.93131838
0.43500002 13789.67133134  1082.21345737
0.43600002 13762.15629912  902.10938816
0.43700002 13736.35919182  1263.47037834
0.43800002 13712.67717888  1173.87378553
0.43900002 13691.93661393  903.66785934
0.44000002 13672.72305969  1175.78587524
0.44100002 13655.90988510  1177.00292878
0.44200002 13640.95015971  1269.01765350
0.44300002 13627.86013138  998.37708054
0.44400002 13617.05136962  1181.61968860
0.44500002 13606.65185982  1183.37056833
0.44600002 13598.54264910  1185.31702618
0.44700002 13593.13574241  1187.49639473
0.44800002 13587.73228025  1189.67395618
0.44900002 13585.52105769  1375.53407228
0.45000002 13584.18849754  1378.45559312
0.45100002 13583.98371311  1105.19296728
0.45200002 13585.42990221  1015.44300617
0.45300002 13587.77068048  1110.39267263
0.45400002 13591.94734440  1205.94558529
0.45500002 13597.28276118  930.05418494
0.45600002 13603.65391421  1119.03662402
0.45700002 13611.16210855  1215.61294553
0.45800002 13619.40634851  1312.77464015
0.45900002 13628.77678616  1128.46277138
0.46000002 13639.92092062  1037.52063400
0.46100002 13650.84185435  1135.20406241
0.46200002 13663.65543135  948.94091468
0.46300002 13677.21499678  1237.51447156
0.46400002 13690.84558230  1432.40478694
0.46500002 13705.88637155  1149.64980333
0.46600002 13721.33658377  1441.76950987
0.46700002 13737.15940462  1060.78349950
0.46800002 13754.75333713  1064.41163744
0.46900002 13771.82927405  1359.27961377
0.47000002 13789.85639900  1169.10408092
0.47100002 13808.37644944  1270.92302864
0.47200002 13827.75946713  1373.51141297
0.47300002 13847.60949145  1279.93460596
0.47400002 13867.13674370  1185.64024778
0.47500002 13887.55936447  1189.88614275
0.47600002 13908.83922877  1194.21299279
0.47700002 13929.55643687  1498.12386579
