# SAXS profile: number of points = 501, q_min = 0, q_max = 0.5, delta_q = 0.001
#    q    intensity    error
0.00000000 1700912.83420644 280.65061764
0.00100000 1700824.98761241 561.27225924
0.00200000 1700561.40279516 765.25265549
0.00300000 1700122.32136250 1122.08077207
0.00400000 1699507.58754734 1529.55688691
0.00500000 1698717.89111992 2599.03847629
0.00600000 1697753.03667399 3208.75336995
0.00700000 1696613.83352656 3461.09236424
0.00800000 1695300.02770854 2517.52064744
0.00900000 1693813.00491917 3557.00746238
0.01000000 1692152.21517237 3071.25640315
0.01100000 1690319.32210154 4259.60487716
0.01200000 1688314.00087369 4279.87617986
0.01300000 1686137.83613529 5665.42337929
0.01400000 1683790.84112517 4167.38251653
0.01500000 1681274.71204866 6052.58923289
0.01600000 1678588.99749072 4708.44234845
0.01700000 1675736.08434169 5429.38515682
0.01800000 1672716.33043642 6197.41428314
0.01900000 1669530.69939516 7012.02925386
0.02000000 1666180.12978127 6298.16117547
0.02100000 1662667.23343611 6035.48233101
0.02200000 1658990.66608387 5723.51805802
0.02300000 1655153.71365184 5958.55364037
0.02400000 1651156.94387331 6811.02270404
0.02500000 1647002.49597693 8350.30303597
0.02600000 1642691.16046574 10644.63920669
0.02700000 1638224.50065716 8256.65186148
0.02800000 1633603.43233470 7816.79278220
0.02900000 1628831.04719155 9528.66206357
0.03000000 1623907.94872182 9061.40677038
0.03100000 1618836.08272176 10878.57897645
0.03200000 1613616.29920415 7987.40104895
0.03300000 1608253.00668201 9022.29978342
0.03400000 1602744.77618139 10938.73360216
0.03500000 1597095.58853399 12074.04320687
0.03600000 1591306.15118710 9714.92450196
0.03700000 1585379.47167479 9940.32974712
0.03800000 1579317.19810347 10162.90664013
0.03900000 1573121.70200499 13214.22290879
0.04000000 1566793.32709176 9635.77940813
0.04100000 1560335.97448346 10813.12880454
0.04200000 1553751.52479161 13028.20713979
0.04300000 1547041.45457202 11231.52148154
0.04400000 1540208.60740115 13515.33115762
0.04500000 1533255.65627788 14811.25032785
0.04600000 1526183.11593554 19367.26464155
0.04700000 1518995.04725063 13124.11781862
0.04800000 1511692.95288444 17777.50995307
0.04900000 1504279.90784879 11282.09983402
0.05000000 1496757.18062013 16030.27015091
0.05100000 1489129.14022305 17422.81175223
0.05200000 1481394.84285439 14132.50745942
0.05300000 1473559.92728019 14323.00316087
0.05400000 1465624.97586875 14509.68793774
0.05500000 1457594.25635468 14692.55078945
0.05600000 1449467.85244708 16110.83593175
0.05700000 1441251.72323483 13792.77963518
0.05800000 1432944.46897685 21558.65054238
0.05900000 1424550.45148599 14103.05012841
0.06000000 1416073.24430040 18139.89910696
0.06100000 1407514.40838012 18325.83845350
0.06200000 1398876.65735489 17185.20053890
0.06300000 1390163.35370689 17349.23946543
0.06400000 1381374.07073361 14815.23760148
0.06500000 1372514.92809528 19023.05779326
0.06600000 1363587.59159406 15074.46153038
0.06700000 1354593.14089458 17961.90588886
0.06800000 1345535.62649467 20889.44157915
0.06900000 1336419.16772354 16838.88230169
0.07000000 1327242.64084414 18375.67522299
0.07100000 1318011.03985982 15657.97188692
0.07200000 1308726.41682647 18629.72141627
0.07300000 1299391.74936785 27404.17327821
0.07400000 1290010.42770555 15963.87979099
0.07500000 1280582.72405064 21897.96560768
0.07600000 1271112.36425339 17617.61819448
0.07700000 1261602.89737505 20665.05642796
0.07800000 1252055.87143964 16320.54904959
0.07900000 1242472.52198617 14909.67096315
0.08000000 1232858.86995504 19473.00676444
0.08100000 1223215.49796683 16550.10646399
0.08200000 1213543.57314624 19641.20365304
0.08300000 1203846.92494457 24269.55514590
0.08400000 1194128.45716941 15225.13854356
0.08500000 1184390.23151674 16806.49817421
0.08600000 1174634.40382044 24526.36750332
0.08700000 1164863.70485969 18451.44195141
0.08800000 1155079.47211116 23130.46751532
0.08900000 1145285.53379383 20099.76206216
0.09000000 1135483.95668583 18599.22808422
0.09100000 1125676.34458195 17087.76771356
0.09200000 1115865.00892424 21792.84464826
0.09300000 1106054.10095755 23393.04533454
0.09400000 1096241.88386062 24994.31612669
0.09500000 1086433.73887895 20338.04054776
0.09600000 1076630.64328439 15664.97659616
0.09700000 1066837.47205574 21955.51620710
0.09800000 1057052.71649015 20406.40365130
0.09900000 1047281.16105762 17280.13997001
0.10000000 1037521.65974423 17290.29927275
0.10100000 1027778.40512406 20442.51343937
0.10200000 1018053.59383080 18874.71451742
0.10300000 1008348.20378551 17303.25599092
0.10400000 998664.54415648 17301.86404148
0.10500000 989006.79570563 17297.72967074
0.10600001 979371.13484737 23578.36118090
0.10700001 969765.68971489 15710.20491267
0.10800001 960187.03441313 18838.87050177
0.10900001 950640.69893922 18822.68672490
0.11000001 941126.79187034 17236.73800443
0.11100001 931646.53402457 21912.32751174
0.11200001 922203.10093152 15631.34329667
0.11300001 912795.76501113 21852.33164319
0.11400001 903428.28540239 20259.38025405
0.11500001 894101.45133327 18668.83918292
0.11600001 884816.84369781 27951.36540869
0.11700001 875575.86677158 18597.23228606
0.11800001 866378.56450437 18557.82972573
0.11900001 857227.30996862 18516.11076746
0.12000001 848123.17877505 26168.84191379
0.12100001 839069.09072595 16890.46159199
0.12200001 830064.35189380 15314.68801394
0.12300001 821111.37792758 16799.93958392
0.12400001 812209.98548225 16751.83173988
0.12500001 803361.73905937 19738.59885878
0.12600001 794569.36545059 16650.20183763
0.12700001 785831.77517067 16596.76787375
0.12800001 777150.43784484 28571.93719394
0.12900001 768527.31092332 19482.16825014
0.13000001 759962.32689293 19413.23855552
0.13100001 751455.92243652 19342.47635527
0.13200001 743009.43939836 17787.64681771
0.13300001 734625.21217475 22148.95119124
0.13400001 726301.24295948 16178.36094966
0.13500001 718041.21171446 19042.45383249
0.13600001 709842.76166559 16045.99638403
0.13700001 701709.39009613 15977.92356590
0.13800001 693638.35090979 20247.30441783
0.13900001 685634.17056742 24477.14104355
0.14000001 677694.59799978 21499.86213549
0.14100001 669821.01404686 14267.18827208
0.14200001 662013.41947520 15620.20736925
0.14300001 654274.16904514 16958.78726156
0.14400001 646598.99352338 18282.58740426
0.14500001 638993.83926996 16792.75888816
0.14600001 631455.76742152 18100.68042703
0.14700001 623987.90443787 15237.78534524
0.14800001 616585.05413548 19292.94725411
0.14900001 609252.60029991 17820.63939956
0.15000001 601988.27686878 17725.54564874
0.15100001 594793.25527012 16273.54423206
0.15200001 587667.94856048 14835.67806146
0.15300001 580612.72608273 13412.15460542
0.15400001 573624.18812893 14670.43930371
0.15500001 566706.62338307 17239.21629688
0.15600001 559855.91564600 17139.98966642
0.15700001 553078.43725198 17040.34745598
0.15800001 546366.16181013 15637.00028905
0.15900001 539725.34645713 19430.11338957
0.16000001 533151.48045455 12875.60886074
0.16100001 526649.49487152 14077.34166243
0.16200001 520214.95086203 13991.18176390
0.16300001 513848.49801131 13904.74101260
0.16400001 507551.07360891 13818.07863135
0.16500001 501321.11957200 21220.92399335
0.16600001 495160.33601814 16124.89710374
0.16700001 489065.22979400 17254.22212179
0.16800001 483037.35126672 13469.49717605
0.16900001 477078.64705248 14598.60728912
0.17000001 471185.08706283 18128.84708078
0.17100001 465357.91781040 12006.23484646
0.17200001 459597.13573620 13119.20085912
0.17300001 453902.06979649 13031.52903926
0.17400001 448272.22628742 14120.57579491
0.17500001 442706.96618094 12856.21090506
0.17600001 437204.55570994 12768.55965256
0.17700001 431768.25210297 18445.14060101
0.17800001 426393.54369527 13738.40062676
0.17900001 421082.48538040 12506.15040651
0.18000001 415833.93002176 11289.89173337
0.18100001 410648.78292549 13452.85476410
0.18200001 405522.57956248 12244.75486831
0.18300001 400458.45891962 13263.18478596
0.18400001 395454.04472970 12071.23528563
0.18500001 390511.04223669 13074.31031174
0.18600001 385625.79660559 11898.48451639
0.18700001 380799.03323942 15033.94654257
0.18800001 376030.56309724 14924.65375446
0.18900001 371321.17940356 15873.98116951
0.19000001 366664.85876860 11555.44357007
0.19100001 362069.59071683 10427.60470535
0.19200001 357526.64381349 11385.43651022
0.19300001 353041.47820176 17464.96275191
0.19400001 348608.49148276 14275.51840079
0.19500001 344230.63295210 11132.41919573
0.19600001 339905.67553737 15066.31978017
0.19700001 335633.51996411 9968.31601401
0.19800001 331413.61503415 13849.77562680
0.19900001 327245.51922306 15707.78566506
0.20000001 323126.60213214 10716.49426619
0.20100001 319059.88072973 14501.27226453
0.20200001 315040.76827173 12470.88940145
0.20300001 311072.50862119 12374.46497783
0.20400001 307151.46624421 12278.38044346
0.20500001 303278.16345526 10308.42526309
0.20600001 299452.32971924 11157.59433274
0.20700001 295673.09939522 10147.50125091
0.20800001 291938.31522083 11897.94659924
0.20900001 288250.96185148 10895.88687305
0.21000001 284606.57300737 11710.13799995
0.21100001 281006.97711632 12510.43121263
0.21200001 277450.14635980 12410.34563337
0.21300001 273935.49367272 14948.66059643
0.21400001 270464.20771128 9594.71822216
0.21500001 267035.13966290 10382.32672094
0.21600001 263645.96304404 12872.51475422
0.21700001 260297.43508335 9362.89918262
0.21800001 256989.25974724 9286.30734003
0.21900001 253719.09419072 9210.00355459
0.22000001 250487.38379087 8303.65716529
0.22100001 247295.67587442 10705.43031479
0.22200001 244141.51176119 9799.84074547
0.22300001 241022.95996183 8908.20902142
0.22400001 237940.16359460 9636.57708126
0.22500001 234896.50790271 10351.88959279
0.22600001 231885.84864972 9474.85622388
0.22700001 228912.24272701 9394.55888578
0.22800001 225971.32144409 8538.32678454
0.22900001 223063.89621336 10773.98669662
0.23000001 220191.25711629 11444.44112985
0.23100001 217352.01208307 13614.93068077
0.23200001 214543.56045848 8997.95735117
0.23300001 211768.06475149 14866.11884864
0.23400001 209024.70579676 10315.36971894
0.23500001 206310.33759174 8764.06355540
0.23600001 203628.58770713 8686.79596245
0.23700001 200976.21176929 8609.82131942
0.23800001 198353.86015938 7822.08484536
0.23900001 195760.35299606 11275.79686591
0.24000001 193195.76593531 6984.02726891
0.24100001 190661.10045068 11073.59723797
0.24200001 188153.37023232 7544.00973631
0.24300001 185674.24462919 7475.24544237
0.24400001 183221.81047915 8080.08222435
0.24500001 180796.20360061 8005.65627414
0.24600001 178398.05657554 7270.61313967
0.24700001 176026.02867490 9167.43600706
0.24800001 173679.69861657 9730.40557531
0.24900001 171358.27133558 8996.30967071
0.25000001 169063.18177601 7638.27491399
0.25100001 166791.87165141 9457.09957004
0.25200001 164546.82775063 7493.46289028
0.25300001 162325.86875050 8040.00065959
0.25400001 160128.70594199 6737.41562126
0.25500001 157954.74974400 6065.46267714
0.25600001 155804.88988869 7207.53454726
0.25700001 153677.50867428 6542.05185379
0.25800001 151573.97289938 6477.51403833
0.25900001 149492.95127801 6413.24791327
0.26000001 147434.07097327 7503.65739722
0.26100001 145397.10538627 5714.10651205
0.26200001 143382.70347814 6787.73750383
0.26300001 141389.34147699 5599.01818742
0.26400001 139417.90996198 8312.79327483
0.26500001 137467.97857146 7678.96164636
0.26600001 135538.04455539 5971.12883544
0.26700001 133630.12258774 6446.31741867
0.26800001 131743.14260847 5315.83605580
0.26900001 129875.27771770 6837.93369542
0.27000001 128028.47943038 6245.22952215
0.27100001 126201.35324234 6693.72009274
0.27200001 124395.64003128 5094.00170035
0.27300001 122608.52094408 5543.13149421
0.27400001 120839.16997494 5483.07759710
0.27500001 119092.14629949 6409.53961717
0.27600001 117362.05924139 7314.59068839
0.27700001 115652.61282182 5304.98560120
0.27800001 113961.03782916 5723.12359064
0.27900001 112289.56275197 6602.62660230
0.28000001 110635.20337766 5129.60144738
0.28100001 109000.04366576 5532.84247834
0.28200001 107383.76182534 9572.72590099
0.28300001 105785.44701695 4957.10628184
0.28400001 104204.83252543 4900.23248144
0.28500001 102642.72245528 5724.38490227
0.28600001 101098.17466804 4787.50428801
0.28700001 99571.48480861  4731.63718207
0.28800001 98061.65022946  5951.36183412
0.28900001 96571.25784547  5041.01989814
0.29000001 95096.40392667  6226.43734182
0.29100001 93640.01193330  5742.00580355
0.29200001 92200.57954906  4457.43722929
0.29300001 90778.35622598  4003.32569907
0.29400001 89372.51312629  4350.20728235
0.29500001 87984.64207361  4687.82195159
0.29600001 86612.77172173  5402.03882800
0.29700001 85257.69533872  4954.32491066
0.29800001 83919.09681633  4140.14883742
0.29900001 82597.88819835  4088.59565937
0.30000001 81292.29222873  4771.45131824
0.30100001 80003.97538614  3986.59828222
0.30200001 78730.47840176  3936.13045404
0.30300001 77474.34136263  6005.81122675
0.30400001 76234.26052007  3836.48934230
0.30500001 75009.83937057  3787.24696912
0.30600001 73800.64720078  3738.37196094
0.30700001 72608.24385313  4025.40122979
0.30800001 71431.23463204  4304.08924653
0.30900001 70269.99111928  6208.35400932
0.31000001 69124.48989664  3869.58912762
0.31100001 67993.61392081  5091.36205144
0.31200001 66878.87977321  3139.96355402
0.31300001 65778.82069228  3408.00086142
0.31400001 64695.27308942  4890.96287713
0.31500001 63625.67555744  3317.44288064
0.31600002 62571.68984590  4760.45438887
0.31700002 61532.53909346  3228.61247910
0.31800002 60508.19544596  3763.91247593
0.31900002 59498.67344789  4569.49833716
0.32000002 58504.40113259  2816.98704792
0.32100002 57523.84039730  3334.08194730
0.32200002 56559.14200924  3288.34867212
0.32300002 55607.07141578  2972.75417865
0.32400002 54669.91193710  2931.67416645
0.32500002 53747.10985319  2628.23379627
0.32600002 52838.97326079  3887.62764175
0.32700002 51944.15318829  2555.65245788
0.32800002 51064.05067877  3276.01432643
0.32900002 50197.22211017  2733.23887333
0.33000002 49345.21043081  3429.98573947
0.33100002 48504.34802248  2415.51664590
0.33200002 47680.02982358  2857.94112296
0.33300002 46867.72573383  2582.88048750
0.33400002 46069.48832594  3240.98865721
0.33500002 45283.27270315  2738.73246278
0.33600002 44511.58319635  2925.07882827
0.33700002 43751.60286683  2440.02700744
0.33800002 43005.86755405  3061.58785616
0.33900002 42271.83297234  2155.86358369
0.34000002 41551.23374526  2550.41484807
0.34100002 40843.13512045  2933.35410327
0.34200002 40148.09594490  2272.18159761
0.34300002 39464.15452869  2443.62056414
0.34400002 38794.17700359  2609.87838152
0.34500002 38135.32202026  2572.99029856
0.34600002 37489.72723365  2341.60847391
0.34700002 36854.29255452  2693.31182744
0.34800002 36232.32181757  2086.43835068
0.34900002 35621.37873297  2431.15921367
0.35000002 35022.14109314  1843.91581589
0.35100002 34435.14817297  2181.81109158
0.35200002 33858.16985827  2151.34821469
0.35300002 33293.00618158  1767.85871197
0.35400002 32739.43977333  1917.71277555
0.35500002 32196.94986721  2407.04408608
0.35600002 31664.32771361  1865.18731231
0.35700002 31142.93531031  2341.32598753
0.35800002 30633.10843289  1979.51156069
0.35900002 30133.34906993  2115.36120490
0.36000002 29644.31998545  1926.28800389
0.36100002 29164.83844878  2058.74604361
0.36200002 28696.82701707  2031.30499662
0.36300002 28237.63978804  2158.48528764
0.36400002 27788.70467179  1521.43165285
0.36500002 27349.28346963  1651.62330696
0.36600002 26920.12729028  1630.14838528
0.36700002 26499.77599707  1755.34524519
0.36800002 26090.60991264  1444.11532707
0.36900002 25689.54743896  2281.23192064
0.37000002 25297.44969474  2252.48502752
0.37100002 24914.18738024  1529.23289384
0.37200002 24541.07041760  1510.38025040
0.37300002 24175.90296148  1356.26822039
0.37400002 23819.51121865  2009.77135428
0.37500002 23472.15718859  1588.59567378
0.37600002 23133.37748222  1439.01181445
0.37700002 22802.38559828  1680.76392207
0.37800002 22479.52747542  1405.75731727
0.37900002 22165.54329465  1895.15404147
0.38000002 21859.24628322  1374.18158269
0.38100002 21559.95161286  1235.38528594
0.38200002 21269.40231410  1588.50538708
0.38300002 20985.52788728  1208.76646357
0.38400002 20710.31533751  1435.22492088
0.38500002 20440.85130258  1893.64055438
0.38600002 20180.26771643  1288.61105608
0.38700002 19925.79906518  1391.61787264
0.38800002 19678.49316455  1148.24013055
0.38900002 19437.69387355  1705.65771821
0.39000002 19204.74476327  1464.26583385
0.39100002 18977.17946561  1450.61566708
0.39200002 18756.89426559  1326.86276321
0.39300002 18542.55088265  1205.45128999
0.39400002 18335.90784446  1303.68310951
0.39500002 18134.09552406  1184.88185768
0.39600002 17938.33623451  1495.51916273
0.39700002 17748.69741917  1059.59728613
0.39800002 17565.16476184  1051.27516080
0.39900002 17386.95200028  1460.50403722
0.40000002 17214.25972358  1346.06910286
0.40100002 17047.31579721  1439.13446779
0.40200002 16886.23885358  1122.85050577
0.40300002 16729.54294290  1317.95345549
0.40400002 16578.60135983  1309.29510443
0.40500002 16432.76555196  1100.83101648
0.40600002 16291.67048903  1292.98848962
0.40700002 16155.53422752  1285.33436404
0.40800002 16024.34634786  1278.02180353
0.40900002 15897.51502061  1173.23666411
0.41000002 15775.66974516  1069.82709446
0.41100002 15657.92244742  1064.42561841
0.41200002 15544.37205486  1348.16345220
0.41300002 15435.64666151  1054.40907341
0.41400002 15330.69607387  954.33587582
0.41500002 15230.17184662  950.36276826
0.41600002 15132.83682021  1325.18258314
0.41700002 15039.90383136  1414.50302236
0.41800002 14951.65968319  1127.65422674
0.41900002 14865.09500537  1217.45133863
0.42000002 14783.56949710  933.58245798
0.42100002 14705.71295574  1117.04600905
0.42200002 14631.32516148  1763.87948842
0.42300002 14559.68615385  1111.19529992
0.42400002 14491.32843487  1108.58667780
0.42500002 14426.45048872  1290.59032188
0.42600002 14363.91345337  1012.00957031
0.42700002 14305.62581586  1010.26334299
0.42800002 14249.34295338  1192.02884125
0.42900002 14197.15874264  1007.28846052
0.43000002 14147.04192853  1097.52756482
0.43100002 14098.78225638  1187.68147356
0.43200002 14054.34303745  1095.39554825
0.43300002 14012.16661781  912.19209005
0.43400002 13972.63208667  1094.05714423
0.43500002 13935.17481678  1458.17676193
0.43600002 13900.47993519  1002.29415322
0.43700002 13867.60224643  1002.21166184
0.43800002 13836.74325149  1002.26454492
0.43900002 13808.90318484  911.38765339
0.44000002 13782.55216190  1002.88745559
0.44100002 13758.59525131  1003.41439923
0.44200002 13736.54918796  1277.91123152
0.44300002 13716.24959639  1278.90317297
0.44400002 13698.27124752  1005.79561401
0.44500002 13680.80335681  1098.29494553
0.44600002 13665.43140190  1007.89394081
0.44700002 13652.96688512  1192.72324361
0.44800002 13640.26104484  1010.53878740
0.44900002 13630.92871130  1196.11405110
0.45000002 13622.46079808  1290.18332333
0.45100002 13615.02943931  1292.33865563
0.45200002 13609.35658838  1294.65815361
0.45300002 13604.55773915  1482.35268151
0.45400002 13601.58597924  1113.96994449
0.45500002 13599.81757372  1488.36410581
0.45600002 13598.99647887  932.21125281
0.45700002 13599.41542188  1027.70787214
0.45800002 13600.60066955  1123.68168057
0.45900002 13602.89938632  1314.04014300
0.46000002 13607.05894430  1693.67070707
0.46100002 13610.88343967  1131.88112049
0.46200002 13616.74979069  1040.25164956
0.46300002 13623.21727819  1232.62875775
0.46400002 13629.89610570  1045.75382827
0.46500002 13637.91951580  1334.60686707
0.46600002 13646.51352469  1051.53214948
0.46700002 13655.37364478  958.60727530
0.46800002 13666.07572563  1442.11270930
0.46900002 13676.29343623  1060.59660625
0.47000002 13687.42205455  1063.71805539
0.47100002 13699.22302855  1066.89554003
0.47200002 13711.75551759  1167.41892010
0.47300002 13724.82851380  1171.00242430
0.47400002 13737.59485172  1566.08588732
0.47500002 13751.29923231  1374.57993641
0.47600002 13766.00280625  984.95754747
0.47700002 13780.05422655  1383.24190882
