# SAXS profile: number of points = 501, q_min = 0, q_max = 0.5, delta_q = 0.001
#    q    intensity    error
0.00000000 1682732.95097188 378.61491397
0.00100000 1682645.60080939 656.23179990
0.00200000 1682383.50693302 832.77986230
0.00300000 1681946.91027209 1211.00181854
0.00400000 1681335.65146818 1765.40250112
0.00500000 1680550.42182581 1663.74498346
0.00600000 1679591.02496327 2292.64184241
0.00700000 1678458.27079118 2014.15000866
0.00800000 1677151.90487166 2943.40171732
0.00900000 1675673.30726456 2513.51006834
0.01000000 1674021.93829448 3866.99084443
0.01100000 1672199.44715593 3912.94687671
0.01200000 1670205.50446324 3582.59096415
0.01300000 1668041.69530830 3502.88771464
0.01400000 1665708.06390110 4497.41197191
0.01500000 1663206.26818755 5189.20378781
0.01600000 1660535.82510334 4657.80319763
0.01700000 1657699.20202445 4923.36685087
0.01800000 1654696.69632597 5187.47437641
0.01900000 1651529.26233645 5945.50561269
0.02000000 1648197.92337723 7787.73554024
0.02100000 1644705.10123050 6513.03249616
0.02200000 1641049.65881249 9058.59452820
0.02300000 1637234.77267796 7662.25908491
0.02400000 1633260.97388773 6124.72893135
0.02500000 1629130.55783284 6988.97041229
0.02600000 1624844.08118181 6580.61882977
0.02700000 1620403.27280661 11569.67989774
0.02800000 1615808.99266450 11246.03110468
0.02900000 1611064.29571418 10149.70552901
0.03000000 1606169.84067290 8962.42812292
0.03100000 1601127.54164739 7685.41255354
0.03200000 1595938.29529376 8689.88441811
0.03300000 1590606.39040713 11356.93015107
0.03400000 1585130.47596320 9154.12892106
0.03500000 1579514.50429836 9382.31658879
0.03600000 1573759.15246226 13101.54554972
0.03700000 1567867.50438450 13405.26778245
0.03800000 1561841.17118474 12791.47978399
0.03900000 1555682.39654259 11200.91377382
0.04000000 1549391.66417626 11434.51101148
0.04100000 1542972.91675527 10692.80280890
0.04200000 1536427.86476403 9909.96018748
0.04300000 1529758.00120351 11106.04360426
0.04400000 1522966.31524636 11308.02541587
0.04500000 1516055.33550934 16737.25168172
0.04600000 1509025.60143014 11702.49408310
0.04700000 1501881.19659440 16220.31767759
0.04800000 1494623.61040197 13182.58085711
0.04900000 1487255.77763254 11154.41885145
0.05000000 1479779.20917394 15848.43606825
0.05100000 1472198.13528747 13779.77518821
0.05200000 1464511.43380040 11642.86644129
0.05300000 1456725.09306263 18879.15808620
0.05400000 1448839.50928241 14343.51181079
0.05500000 1440858.79305009 13313.53586885
0.05600000 1432783.26238191 15925.38670452
0.05700000 1424618.67329815 12394.18303624
0.05800000 1416363.80123140 16295.26629403
0.05900000 1408022.98190476 17741.09040061
0.06000000 1399599.62117217 20490.13941124
0.06100000 1391095.35682634 18112.06239228
0.06200000 1382512.91756864 14371.22244989
0.06300000 1373855.62537275 19783.52193035
0.06400000 1365123.06040155 14640.94550752
0.06500000 1356321.41164665 16113.09912410
0.06600000 1347452.24249773 18958.65393899
0.06700000 1338516.60473922 13652.87000728
0.06800000 1329518.45912701 19264.72337451
0.06900000 1320462.11674917 13864.85287500
0.07000000 1311346.46953981 18155.59272098
0.07100000 1302176.37450569 18282.55715437
0.07200000 1292953.80081640 18405.19821685
0.07300000 1283681.93710282 15673.75718643
0.07400000 1274363.81767366 18637.57170691
0.07500000 1265000.21434447 17305.20374337
0.07600000 1255594.22935355 14502.11402890
0.07700000 1246149.92061372 16037.95023029
0.07800000 1236668.67856050 17585.42943382
0.07900000 1227151.54588620 17670.98308960
0.08000000 1217604.84956127 16273.28957778
0.08100000 1208028.81558719 16344.63064176
0.08200000 1198425.00180867 19396.50956446
0.08300000 1188796.70500204 17974.60702322
0.08400000 1179147.39374441 21047.78196629
0.08500000 1169478.69879983 18103.53110729
0.08600000 1159792.97191810 22702.94849123
0.08700000 1150092.67270765 16699.34639188
0.08800000 1140379.42505742 22836.09905924
0.08900000 1130657.08666117 22895.80708030
0.09000000 1120927.45293731 22950.99067703
0.09100000 1111192.23107561 19934.78956206
0.09200000 1101453.78348819 16901.80910179
0.09300000 1091716.14010019 21550.47761828
0.09400000 1081977.65704382 15418.18233749
0.09500000 1072243.65509974 18528.37123101
0.09600000 1062515.22787300 23189.39593841
0.09700000 1052796.91110637 15476.11532084
0.09800000 1043087.71388314 23234.77991919
0.09900000 1033391.64193831 17050.96289376
0.10000000 1023708.29105353 18611.01760658
0.10100000 1014041.49179359 18617.80266496
0.10200000 1004393.33920057 15517.87782055
0.10300000 994765.13724591 17070.17055813
0.10400000 985159.13412543 15516.25709244
0.10500000 975578.94759977 15511.70599665
0.10600001 966021.32407413 17055.10727903
0.10700001 956494.22279009 24792.33142139
0.10800001 946994.17627974 18580.02661302
0.10900001 937526.82701497 20109.95138596
0.11000001 928092.03448578 23179.09965231
0.11100001 918691.16867316 20064.21606831
0.11200001 909327.31685561 24660.95799409
0.11300001 899999.92940512 16928.99946914
0.11400001 890712.62130151 21510.71081725
0.11500001 881466.11315173 18405.01330926
0.11600001 872262.07333051 18369.84012940
0.11700001 863101.71059525 21387.66139580
0.11800001 853985.32093967 18292.36643607
0.11900001 844915.07755950 15208.47211241
0.12000001 835892.10130254 16688.58658862
0.12100001 826919.56693385 21185.68030286
0.12200001 817996.38431114 18110.44080185
0.12300001 809124.99989307 22574.58856060
0.12400001 800305.38980072 19507.44479553
0.12500001 791539.03021595 14960.08837601
0.12600001 782828.68650644 22369.33077104
0.12700001 774173.11265766 14864.12446352
0.12800001 765574.10298368 17776.63150908
0.12900001 757032.94746018 20667.00043974
0.13000001 748550.30456175 17650.81701354
0.13100001 740126.25668723 19050.85074514
0.13200001 731762.26228735 14598.65782082
0.13300001 723460.45233168 21812.33366610
0.13400001 715218.99829388 15931.50393810
0.13500001 707041.30685486 15866.00767388
0.13600001 698925.39979930 14362.91764310
0.13700001 690874.42848827 17161.32161286
0.13800001 682886.09540058 17085.81091262
0.13900001 674964.14674368 18426.52207506
0.14000001 667106.96717780 14109.31302121
0.14100001 659315.77501691 16852.11200423
0.14200001 651590.45785299 16771.93917619
0.14300001 643933.42022519 15299.85878621
0.14400001 636340.59383184 15224.44942556
0.14500001 628817.41957801 16525.32256604
0.14600001 621361.46374379 15071.12301408
0.14700001 613975.45726561 14993.28137376
0.14800001 606654.46151826 14914.60064008
0.14900001 599403.52208460 21578.52781314
0.15000001 592220.97058053 14755.18617821
0.15100001 585107.47614859 20010.67662848
0.15200001 578063.39849683 13266.55562151
0.15300001 571089.34077931 15830.59727343
0.15400001 564181.81105787 17052.39604394
0.15500001 557345.07351168 13041.87533566
0.15600001 550575.17827843 15559.25527247
0.15700001 543878.13033830 12889.91229738
0.15800001 537246.18552544 14094.65434251
0.15900001 530685.59135151 15283.74575233
0.16000001 524191.63949536 12659.22869136
0.16100001 517769.48024574 13839.97886027
0.16200001 511414.32859873 18756.12138676
0.16300001 505127.26157997 18639.19683222
0.16400001 498908.85661833 16052.39321952
0.16500001 492757.90251375 15950.57405742
0.16600001 486675.59637606 15848.59154425
0.16700001 480658.83899091 14535.12397736
0.16800001 474709.06121474 13237.26279699
0.16900001 468828.25902323 15541.65752047
0.17000001 463012.17932449 11876.26296047
0.17100001 457262.26530490 11797.36700195
0.17200001 451578.50885093 11718.46285806
0.17300001 445960.22088426 15131.43100918
0.17400001 440406.66064586 15028.87800429
0.17500001 434917.56216642 12630.00660180
0.17600001 429491.13056530 13683.58806607
0.17700001 424130.15706333 12456.70330129
0.17800001 418830.48114041 13494.71873973
0.17900001 413594.42056428 13400.45985923
0.18000001 408420.36732145 12197.47484620
0.18100001 403309.50567686 14313.45503259
0.18200001 398257.00049679 20771.09484209
0.18300001 393266.34304267 11939.56673879
0.18400001 388335.11748513 11853.93002122
0.18500001 383464.97380819 12838.40792961
0.18600001 378651.95206303 16993.90041144
0.18700001 373897.39199104 13707.07903798
0.18800001 369200.49799296 10466.83461262
0.18900001 364562.36452994 13507.03624401
0.19000001 359977.11497782 13407.34828083
0.19100001 355452.32048233 18426.64916446
0.19200001 350979.42492778 11176.94031495
0.19300001 346564.01339571 10085.01326636
0.19400001 342200.38994474 10009.36187886
0.19500001 337891.57534433 10927.41406301
0.19600001 333635.11477437 11830.70172897
0.19700001 329431.00168893 12719.33157629
0.19800001 325278.82554202 12622.44542168
0.19900001 321177.92022455 12525.93948073
0.20000001 317126.03844827 14342.02576664
0.20100001 313125.68848860 10436.47969058
0.20200001 309172.65340887 9414.30774125
0.20300001 305269.81488458 11209.50813237
0.20400001 301414.02880581 9268.48182386
0.20500001 297605.42199677 10115.60877180
0.20600001 293843.82343621 9123.85114896
0.20700001 290128.31691696 9052.00391569
0.20800001 286457.08015312 12572.60184223
0.20900001 282832.67329097 9800.15259280
0.21000001 279250.77376452 9722.11614820
0.21100001 275713.14914788 11397.98212459
0.21200001 272217.90629129 9567.09876889
0.21300001 268764.45260454 9490.07327011
0.21400001 265353.67541609 10269.18772409
0.21500001 261984.89638313 8488.31104412
0.21600001 258655.43169327 11786.92857953
0.21700001 255366.29540370 8350.47825451
0.21800001 252116.77194548 10766.64725498
0.21900001 248904.94279712 8213.86350067
0.22000001 245731.15601545 8960.58702778
0.22100001 242596.77490668 8886.32028501
0.22200001 239499.60671056 16022.52444655
0.22300001 236437.42904017 10327.58738882
0.22400001 233410.80974029 7877.61520124
0.22500001 230422.51450909 10935.85305573
0.22600001 227466.83162698 10843.34437642
0.22700001 224547.72272364 8447.48572834
0.22800001 221661.07299269 10659.68150432
0.22900001 218807.20879635 9058.61887256
0.23000001 215987.65402923 8232.36982265
0.23100001 213201.04861050 7419.39684253
0.23200001 210444.84525489 8826.05722741
0.23300001 207720.89995099 8020.10432641
0.23400001 205028.71082897 10840.89359781
0.23500001 202365.13955821 10029.21679085
0.23600001 199733.63946930 12780.95619414
0.23700001 197131.06428516 9148.85312620
0.23800001 194557.91539391 7672.39175645
0.23900001 192013.30217137 11751.21464871
0.24000001 189497.10878426 8220.38496789
0.24100001 187010.27420193 6788.47327463
0.24200001 184549.97584825 7399.53163165
0.24300001 182117.79757034 8665.16521828
0.24400001 179711.75844730 6604.40743535
0.24500001 177332.11411572 7197.91085245
0.24600001 174979.42669992 6482.98806591
0.24700001 172652.54779174 7707.21009802
0.24800001 170350.76131279 6998.86135963
0.24900001 168073.37277358 8193.57731033
0.25000001 165821.85333389 7491.83168805
0.25100001 163593.72532447 7420.61173178
0.25200001 161391.48824446 8574.73017610
0.25300001 159212.67893657 8492.40469626
0.25400001 157057.25954693 7208.92855427
0.25500001 154924.70502250 8923.66343149
0.25600001 152815.66990092 5891.04435340
0.25700001 150728.63136676 6416.51814087
0.25800001 148665.13497141 6930.76892029
0.25900001 146623.47429716 6861.97892178
0.26000001 144603.63293838 7359.60224662
0.26100001 142605.22974828 5604.38579429
0.26200001 140629.03329481 6102.59718858
0.26300001 138673.39351028 7138.90663570
0.26400001 136739.13748824 7609.53336129
0.26500001 134826.09008355 6993.42962355
0.26600001 132932.53485494 5323.94827287
0.26700001 131060.62718898 7376.09244723
0.26800001 129209.00128839 6256.30013844
0.26900001 127376.21881497 5158.73710613
0.27000001 125564.18777562 5104.18447462
0.27100001 123771.26057549 5049.86767045
0.27200001 121999.30996938 5995.04637560
0.27300001 120245.61017477 6918.93273689
0.27400001 118509.25304628 5377.35761146
0.27500001 116794.72590699 6285.89244580
0.27600001 115096.73722541 6216.95055545
0.27700001 113419.09200036 5202.53399627
0.27800001 111758.86096587 4677.10855278
0.27900001 110118.30845229 5549.96300866
0.28000001 108494.41780618 7774.16787584
0.28100001 106889.33713964 4973.56109250
0.28200001 105302.86510732 5364.12820245
0.28300001 103733.74113037 6628.58637196
0.28400001 102182.17234123 6115.60330408
0.28500001 100648.56361343 4749.60594172
0.28600001 99132.26926321  4694.40883315
0.28700001 97633.30265337  4217.75887426
0.28800001 96150.99919145  5001.77521469
0.28900001 94687.52817640  4118.90767064
0.29000001 93239.45949963  4883.88311977
0.29100001 91809.39393523  5629.75230259
0.29200001 90395.88699200  6753.92901631
0.29300001 88999.29377946  3924.86904146
0.29400001 87618.64394972  5815.68776746
0.29500001 86255.67921199  4978.67803979
0.29600001 84908.27538617  6052.26215603
0.29700001 83577.54225488  4109.50794721
0.29800001 82262.79827279  4427.38401263
0.29900001 80965.06796875  4736.45670039
0.30000001 79682.63875714  4317.20557224
0.30100001 78417.15459543  4973.21617988
0.30200001 77166.11819961  3857.92026203
0.30300001 75932.17593056  5193.76107953
0.30400001 74714.00989462  4101.79933740
0.30500001 73511.21553080  3711.58144786
0.30600001 72323.19924383  3330.48348285
0.30700001 71151.76699549  3615.93296990
0.30800001 69995.37291529  4541.99996351
0.30900001 68854.43492770  4482.42392601
0.31000001 67728.91935689  4739.33135638
0.31100001 66617.74122334  3429.48148055
0.31200001 65522.43762493  3383.90645135
0.31300001 64441.52131289  4552.79369631
0.31400001 63376.92495763  3294.01583063
0.31500001 62325.86245979  3840.51982661
0.31600002 61290.16840430  3205.78241017
0.31700002 60269.05960430  3449.80113509
0.31800002 59262.42350202  2835.70709884
0.31900002 58270.43809338  2796.98116092
0.32000002 57293.31433269  3310.40785889
0.32100002 56329.73294601  4625.23459120
0.32200002 55381.68687716  2951.56714188
0.32300002 54446.02356967  2646.07687078
0.32400002 53525.26697084  2870.29257722
0.32500002 52618.32673292  3087.64355889
0.32600002 51725.85769435  3552.01481607
0.32700002 50846.59572635  2751.81789102
0.32800002 49981.70302220  2959.91659314
0.32900002 49129.83819235  2431.92710568
0.33000002 48292.58407303  2877.27229532
0.33100002 47466.23116098  3072.96395088
0.33200002 46656.28496514  2563.52969881
0.33300002 45858.11487423  3446.23749600
0.33400002 45073.68659508  3170.93400213
0.33500002 44301.16443618  2456.05667265
0.33600002 43542.89996662  2861.42180681
0.33700002 42796.25974617  2169.77047188
0.33800002 42063.50992677  2352.82253918
0.33900002 41342.35309730  3795.22819407
0.34000002 40634.41452655  2701.98552190
0.34100002 39938.73126333  2253.74271192
0.34200002 39255.96552346  2827.60733057
0.34300002 38584.16741001  2190.03744591
0.34400002 37926.07678812  2551.47693676
0.34500002 37278.96143507  3289.12292319
0.34600002 36644.87678348  1907.36592691
0.34700002 36020.78348635  1880.28498704
0.34800002 35410.11214985  2595.20724237
0.34900002 34810.20794728  2010.28960417
0.35000002 34221.80575171  2342.31160561
0.35100002 33645.54574674  2131.78187948
0.35200002 33079.08095111  1926.69116125
0.35300002 32524.30240991  1899.74459374
0.35400002 31981.02417136  2043.58754134
0.35500002 31448.57217407  1679.35383364
0.35600002 30925.92705835  1821.69181966
0.35700002 30414.40281990  2123.22956142
0.35800002 29914.16860258  2255.22927777
0.35900002 29423.94044660  2383.33928906
0.36000002 28944.28441942  2037.53299821
0.36100002 28474.04466670  1546.14069864
0.36200002 28015.17581760  1983.05431418
0.36300002 27564.93706987  2107.06388943
0.36400002 27124.85287119  1633.59434155
0.36500002 26694.18263687  1612.06176580
0.36600002 26273.63993984  1735.63673664
0.36700002 25861.84601493  1427.57396765
0.36800002 25461.03167671  1691.12180407
0.36900002 25068.18897949  2086.92683140
0.37000002 24684.26081311  1648.41501518
0.37100002 24309.16988220  1627.74209242
0.37200002 23943.91133138  1473.62809270
0.37300002 23586.58897150  2381.77386717
0.37400002 23237.98235173  1437.85022613
0.37500002 22898.27422186  1420.60900002
0.37600002 22566.97478218  1531.39498126
0.37700002 22243.41723920  1891.80272581
0.37800002 21928.02648756  1869.91254731
0.37900002 21621.25385476  1355.65268091
0.38000002 21322.10644731  1705.98181767
0.38100002 21029.87498949  1325.51308338
0.38200002 20746.32781847  2264.56552031
0.38300002 20469.41093724  1296.94193842
0.38400002 20201.04965739  1633.25494217
0.38500002 19938.37312481  1269.87504448
0.38600002 19684.40020772  1371.21538343
0.38700002 19436.58176341  1923.05549078
0.38800002 19195.78078246  1120.07386172
0.38900002 18961.43995807  1331.09314812
0.39000002 18734.85923316  1208.67950069
0.39100002 18513.64095206  1197.46235351
0.39200002 18299.60190709  1186.63774188
0.39300002 18091.47356675  1176.12675230
0.39400002 17890.93378534  1166.04166470
0.39500002 17695.17274902  1471.53063553
0.39600002 17505.46630429  1250.94068137
0.39700002 17321.78342518  1447.75472727
0.39800002 17144.01545949  1128.67631125
0.39900002 16971.74138875  1120.13498473
0.40000002 16804.80320347  1314.05164875
0.40100002 16643.63525219  1103.97237858
0.40200002 16488.15962393  1295.72208544
0.40300002 16337.12491850  1485.04472545
0.40400002 16191.72221867  983.64717139
0.40500002 16051.36495995  1564.04507580
0.40600002 15915.83276143  1165.99396335
0.40700002 15785.06980490  1545.67410853
0.40800002 15659.28021526  1248.90595274
0.40900002 15537.72597954  1146.68423162
0.41000002 15421.15638821  1045.78577002
0.41100002 15308.70956755  1040.68612571
0.41200002 15200.34075523  1129.99338529
0.41300002 15096.80306320  1031.26266611
0.41400002 14997.00785225  1026.92016134
0.41500002 14901.50066960  1394.78052876
0.41600002 14809.27867047  1111.58450968
0.41700002 14721.34756792  1292.23995074
0.41800002 14638.10560694  920.00498099
0.41900002 14556.51651450  1283.88481742
0.42000002 14479.91013119  1005.84700492
0.42100002 14406.85398200  1367.93085041
0.42200002 14337.35889687  1000.67601162
0.42300002 14270.56422569  1179.89030609
0.42400002 14206.91022294  1267.96679748
0.42500002 14146.85860014  1355.97646108
0.42600002 14089.04881155  992.64398106
0.42700002 14035.47074615  1171.40044398
0.42800002 13983.79575736  899.85729963
0.42900002 13936.27060788  988.77844648
0.43000002 13890.77793831  898.03883627
0.43100002 13847.10611999  1166.48027482
0.43200002 13807.22441753  1165.81304894
0.43300002 13769.55257133  1165.31728933
0.43400002 13734.50871096  896.17673586
0.43500002 13701.53162050  1075.29625253
0.43600002 13671.31461709  1075.38565874
0.43700002 13642.82860216  1165.23404613
0.43800002 13616.42235556  1075.96974553
0.43900002 13592.95179701  986.84834723
0.44000002 13570.91513221  1346.57411781
0.44100002 13551.32403970  988.29810905
0.44200002 13533.57660685  1259.02869140
0.44300002 13517.55805694  1170.35023203
0.44400002 13503.89135301  991.52326958
0.44500002 13490.63086533  992.77557243
0.44600002 13479.50186405  1084.56077138
0.44700002 13471.20377720  1357.89740509
0.44800002 13462.71855161  1450.74261987
0.44900002 13457.47533037  1090.05555342
0.45000002 13453.17193614  1092.12854953
0.45100002 13449.85161695  1185.46997770
0.45200002 13448.20389651  1279.32769731
0.45300002 13447.57503390  1098.93588385
0.45400002 13448.59814424  1193.22692690
0.45500002 13450.84264319  1380.05652060
0.45600002 13454.02633208  1291.18296828
0.45700002 13458.43613138  1109.51352726
0.45800002 13463.51590235  926.96311381
0.45900002 13469.81246355  929.41710403
0.46000002 13477.86649438  1304.79231716
0.46100002 13485.56809126  1308.36987822
0.46200002 13495.30018537  1312.14809921
0.46300002 13505.63431243  1127.99063124
0.46400002 13516.10475699  1037.02318663
0.46500002 13527.95802209  1229.28560373
0.46600002 13540.30907180  1612.44778224
0.46700002 13553.00297167  1427.13128056
0.46800002 13567.41133861  1240.80766278
0.46900002 13581.34405126  1244.73024129
0.47000002 13596.15654665  960.56850555
0.47100002 13611.64735333  963.70467829
0.47200002 13627.80424202  966.89275680
0.47300002 13644.51420689  1164.15000731
0.47400002 13660.91532042  1460.01039407
0.47500002 13678.19105285  1074.28517621
0.47600002 13696.43708446  1273.97415579
0.47700002 13713.99784328  1179.95243036
