# SAXS profile: number of points = 501, q_min = 0, q_max = 0.5, delta_q = 0.001
#    q    intensity    error
0.00000000 1682732.95097188 328.13292544
0.00100000 1682645.58192141 504.79368656
0.00200000 1682383.43698741 984.19434180
0.00300000 1681946.74465223 1211.00169929
0.00400000 1681335.36282263 1513.20188404
0.00500000 1680549.97160821 1663.74453775
0.00600000 1679590.38168673 2468.99796160
0.00700000 1678457.38892383 2014.14895042
0.00800000 1677150.76306155 3849.06116373
0.00900000 1675671.87220823 3518.91108206
0.01000000 1674020.15303223 3590.77338330
0.01100000 1672197.26881786 3009.95521492
0.01200000 1670202.95364917 3908.27508289
0.01300000 1668038.68651246 4553.74581502
0.01400000 1665704.59236685 4122.61904887
0.01500000 1663202.25418086 4390.85414656
0.01600000 1660531.28263995 5504.66144803
0.01700000 1657694.05846148 5370.92899035
0.01800000 1654690.92807576 5659.04322866
0.01900000 1651522.84036759 6440.93936807
0.02000000 1648190.80334604 6749.34164501
0.02100000 1644697.30098522 7055.75174112
0.02200000 1641041.09788071 6227.75124940
0.02300000 1637225.39366175 7662.21519111
0.02400000 1633250.77462590 7962.09788935
0.02500000 1629119.53754939 7624.27978394
0.02600000 1624832.10221435 6580.57031495
0.02700000 1620390.44776186 7486.20421154
0.02800000 1615795.13221695 7731.58006223
0.02900000 1611049.46046775 7974.69519547
0.03000000 1606154.02716398 17177.81811010
0.03100000 1601110.67740599 10759.46424725
0.03200000 1595920.33187914 8689.78660732
0.03300000 1590587.35392655 10545.59464269
0.03400000 1585110.19640250 8321.82891509
0.03500000 1579493.10536749 12793.89474427
0.03600000 1573736.56057639 8734.23831484
0.03700000 1567843.73665827 8936.70971225
0.03800000 1561816.04712838 10050.28672839
0.03900000 1555655.98733048 9333.93635624
0.04000000 1549363.97826281 15245.74225258
0.04100000 1542943.82714933 14580.81984262
0.04200000 1536397.35990653 12882.69246048
0.04300000 1529726.09314822 12115.43122011
0.04400000 1522933.06178226 11307.77850889
0.04500000 1516020.56896230 15690.81361783
0.04600000 1508989.30527508 13829.88762575
0.04700000 1501843.31912960 12975.92688076
0.04800000 1494584.22161507 12083.71399399
0.04900000 1487214.88871396 12269.52340301
0.05000000 1479736.63582869 11319.98579122
0.05100000 1472153.82366471 12631.08039545
0.05200000 1464465.60932520 15135.25277770
0.05300000 1456677.47681855 14158.90573473
0.05400000 1448790.21410605 15538.27577090
0.05500000 1440807.82737264 13313.06494597
0.05600000 1432730.49158378 15924.80015707
0.05700000 1424564.18329295 13633.07987049
0.05800000 1416307.50118168 15041.18636486
0.05900000 1407964.77465933 16473.18863291
0.06000000 1399539.60237277 12805.78795998
0.06100000 1391033.49292400 16817.59571536
0.06200000 1382449.17088761 13064.14527555
0.06300000 1373790.02372118 13188.38484435
0.06400000 1365055.51671212 13309.29191038
0.06500000 1356251.82810468 16112.27247158
0.06600000 1347380.64279927 18957.64653119
0.06700000 1338443.04243899 15017.33163896
0.06800000 1329443.05652981 17887.65716291
0.06900000 1320384.63756020 16636.84721218
0.07000000 1311266.92760637 19550.99080615
0.07100000 1302094.69482037 14062.62336272
0.07200000 1292870.01666895 15572.62008030
0.07300000 1283596.01238448 17097.49968607
0.07400000 1274275.79646324 14335.60338204
0.07500000 1264910.12263733 21629.96411095
0.07600000 1255502.06484050 18851.36438734
0.07700000 1246055.61666786 16036.73653845
0.07800000 1236572.12352228 16118.71838602
0.07900000 1227052.79970724 20614.48800198
0.08000000 1217503.98648936 16271.94154276
0.08100000 1207925.78626542 22286.23180223
0.08200000 1198319.58285186 14919.07950659
0.08300000 1188689.17059703 19470.72952818
0.08400000 1179037.54851993 19542.54828402
0.08500000 1169366.50899879 16593.31154167
0.08600000 1159678.48231174 16647.18539520
0.08700000 1149975.98947359 21251.55728340
0.08800000 1140260.49348468 16744.72613322
0.08900000 1130535.85027700 19840.90510428
0.09000000 1120803.92060137 26008.25619931
0.09100000 1111066.41834713 16865.98902289
0.09200000 1101325.57202609 16899.84169681
0.09300000 1091585.61573210 21547.90106713
0.09400000 1081844.93699681 24666.06572277
0.09500000 1072108.54340818 18526.03650087
0.09600000 1062377.64943193 20094.87418362
0.09700000 1052657.10574003 18568.87221823
0.09800000 1042945.38260422 21682.83552382
0.09900000 1033247.16211860 20148.32060874
0.10000000 1023561.29468922 20159.04064693
0.10100000 1013892.20327853 17063.80658372
0.10200000 1004241.70829557 18618.64214755
0.10300000 994611.05472808 21722.30645709
0.10400000 985002.63132701 20167.92982522
0.10500000 975420.29412254 17060.10174687
0.10600001 965860.24767916 17052.26347515
0.10700001 956330.63869724 17041.81278353
0.10800001 946828.30489885 17028.70786501
0.10900001 937358.64557919 27839.55308399
0.11000001 927921.50872710 20084.86200178
0.11100001 918518.30690420 16974.21911062
0.11200001 909152.07239459 15410.12835255
0.11300001 899822.38342850 21541.74887348
0.11400001 890532.58983451 23042.53184691
0.11500001 881283.82552095 18401.20714335
0.11600001 872077.34668830 16835.45397062
0.11700001 862914.62785499 19855.66652204
0.11800001 853795.95150927 16764.28429745
0.11900001 844723.40845356 21287.03089568
0.12000001 835698.16299983 19718.29908481
0.12100001 826723.19624529 15129.03520399
0.12200001 817797.74882720 18106.04301203
0.12300001 808924.07284543 15045.98846381
0.12400001 800102.29806197 18002.30255462
0.12500001 791333.55410850 23929.92780383
0.12600001 782620.93496775 20872.50131917
0.12700001 773963.09159404 16346.10126480
0.12800001 765361.70832836 17771.69970495
0.12900001 756818.36184993 17709.55050198
0.13000001 748333.55498880 17645.70605836
0.13100001 739907.29123880 17580.19806852
0.13200001 731541.13925270 14594.24641607
0.13300001 723237.05030341 20351.89155499
0.13400001 714993.52190706 21717.92925183
0.13500001 706813.63158280 14418.99876412
0.13600001 698695.64934484 15794.01589814
0.13700001 690642.32608663 18585.18587134
0.13800001 682651.86711047 21349.93815065
0.13900001 674727.83762889 17003.14231009
0.14000001 666868.63448361 22566.83565519
0.14100001 659075.39495807 22461.29051951
0.14200001 651348.01147365 19559.98170711
0.14300001 643688.84750137 19465.15166657
0.14400001 636094.04442718 15218.55073078
0.14500001 628568.84772396 15142.22425596
0.14600001 621110.84257734 21912.79155985
0.14700001 613722.83158092 16349.57700463
0.14800001 606399.91530563 14908.34262114
0.14900001 599147.24891021 14828.89511017
0.15000001 591962.61578275 16089.54465613
0.15100001 584847.19041643 18668.32319896
0.15200001 577801.18599892 19890.80676660
0.15300001 570825.11885012 14504.66695444
0.15400001 563915.83303622 17044.35685786
0.15500001 557077.34263638 15642.73251946
0.15600001 550305.65406946 18143.57827095
0.15700001 543606.81518815 18036.87497923
0.15800001 536973.13497560 17929.53382309
0.15900001 530410.83302650 14002.84665284
0.16000001 523915.07305630 21509.33433962
0.16100001 517491.15166717 13832.53913702
0.16200001 511134.37688518 14996.68332575
0.16300001 504845.73425714 14903.04677881
0.16400001 498625.76731335 16043.28482070
0.16500001 492473.02646302 12262.57893786
0.16600001 486389.14576895 18276.07301514
0.16700001 480370.99862445 16947.48963164
0.16800001 474419.47293744 13229.18762750
0.16900001 468537.22633681 15532.00978646
0.17000001 462719.82039603 17803.14593040
0.17100001 456968.27924001 18863.65145779
0.17200001 451283.19737060 17566.19928718
0.17300001 445663.34242915 12794.99516538
0.17400001 440108.48147860 16173.98745817
0.17500001 434617.99726079 13768.69880348
0.17600001 429190.20128324 19371.50064982
0.17700001 423827.86515035 18105.92725438
0.17800001 418527.09923749 12361.19845982
0.17900001 413289.70117991 13390.58695071
0.18000001 408114.38229979 12188.33660310
0.18100001 403002.26110839 14302.55092234
0.18200001 397948.62381652 10923.69023978
0.18300001 392956.74112793 11930.16722422
0.18400001 388024.46313851 13997.98316900
0.18500001 383153.20395644 11758.97238494
0.18600001 378339.22570673 13796.14051717
0.18700001 373583.43600724 17909.59076832
0.18800001 368885.49599323 17778.43731936
0.18900001 364246.51916436 11419.12891533
0.19000001 359660.22953136 14425.97248811
0.19100001 355134.51732374 12273.44949863
0.19200001 350660.74341256 15227.44350221
0.19300001 346244.41307566 13098.42676559
0.19400001 341880.01150611 13999.98713273
0.19500001 337570.17000229 13894.38885388
0.19600001 333313.03875601 14774.10114103
0.19700001 329108.14568953 9774.51238890
0.19800001 324955.12429601 12609.88419423
0.19900001 320853.67505974 9625.61070670
0.20000001 316801.00206989 9551.55066382
0.20100001 312799.94968607 14216.75838515
0.20200001 308846.30551623 10344.80749220
0.20300001 304942.95789592 12130.63143845
0.20400001 301086.70412161 9258.41658935
0.20500001 297277.45496930 21127.50972330
0.20600001 293515.21447798 13670.47176049
0.20700001 289799.26895159 9945.91138055
0.20800001 286127.49398111 11661.12656842
0.20900001 282502.73778900 11568.48765932
0.21000001 278920.42426834 9710.61502995
0.21100001 275382.32994804 10508.59020759
0.21200001 271886.80000358 11292.81877201
0.21300001 268433.01733161 12063.38036919
0.21400001 265021.97705435 9401.65508048
0.21500001 261652.93016025 13564.08854078
0.21600001 258323.20837213 8408.42083005
0.21700001 255033.75137722 9173.56447076
0.21800001 251784.07986599 10752.43963906
0.21900001 248572.13606633 8202.88087803
0.22000001 245398.31286406 8948.44990169
0.22100001 242263.82921513 12907.81743091
0.22200001 239166.44915391 10400.15353322
0.22300001 236104.37267224 10313.03948598
0.22400001 233077.75717776 10226.28707974
0.22500001 230089.41394933 10140.04095224
0.22600001 227133.65858029 7733.90144038
0.22700001 224214.64216942 11502.21168722
0.22800001 221328.14357555 8362.88430048
0.22900001 218474.42349262 8291.10476364
0.23000001 215654.91592662 12703.15342341
0.23100001 212868.57615690 9630.17484078
0.23200001 210112.55105025 8077.77740715
0.23300001 207388.78210022 7279.34659599
0.23400001 204696.84781060 7937.12064924
0.23500001 202033.62621197 10012.78698863
0.23600001 199402.37994790 9215.38142515
0.23700001 196800.06814542 7728.33904160
0.23800001 194227.31533016 9051.96445911
0.23900001 191683.06562319 8280.70882660
0.24000001 189167.29399454 8206.07760163
0.24100001 186680.85078634 8131.81824490
0.24200001 184221.17250601 10072.29308321
0.24300001 181789.27907475 8649.53430752
0.24400001 179383.73291709 9888.52874482
0.24500001 177004.71373921 7184.62167054
0.24600001 174652.30843144 8412.12883354
0.24700001 172326.08060217 7051.58355182
0.24800001 170024.94755138 10160.69134634
0.24900001 167748.18856360 8177.72457934
0.25000001 165497.38893696 8723.36778355
0.25100001 163269.96012347 8640.24669850
0.25200001 161068.31611660 8557.56004013
0.25300001 158890.30210928 7869.83703580
0.25400001 156735.52107287 7194.16075761
0.25500001 154603.68811670 6530.46009502
0.25600001 152495.45969898 8230.18034935
0.25700001 150409.28079663 6985.00733068
0.25800001 148346.54588516 6915.91629639
0.25900001 146305.77150444 6276.51789451
0.26000001 144286.91931184 6778.59979000
0.26100001 142289.27284346 6151.16555607
0.26200001 140314.00030892 5535.38757410
0.26300001 138359.24417206 6574.83159416
0.26400001 136425.87204818 5422.92867052
0.26500001 134513.84390184 5367.10262565
0.26600001 132621.28567008 5311.48274242
0.26700001 130750.34031402 5781.78032228
0.26800001 128899.83368065 6241.33024216
0.26900001 127068.02958287 6690.13207413
0.27000001 125257.07964070 5091.70052834
0.27100001 123465.23863686 7556.07296215
0.27200001 121694.33702718 6478.39833822
0.27300001 119941.83168498 5422.57046710
0.27400001 118206.57001613 6338.82761710
0.27500001 116493.26601513 6269.66787365
0.27600001 114796.46029838 4769.79315113
0.27700001 113119.96293113 6603.94374846
0.27800001 111460.97043174 5597.57020000
0.27900001 109821.58789619 6457.50967392
0.28000001 108198.96134850 5016.64508035
0.28100001 106595.16926803 5410.77104813
0.28200001 105010.05217370 5349.21231090
0.28300001 103442.19717986 5728.62915096
0.28400001 101891.83652602 6098.22670472
0.28500001 100359.65433320 6027.60112455
0.28600001 98844.64536201  5531.84083952
0.28700001 97347.05083681  6308.08919280
0.28800001 95866.03446768  6649.26846541
0.28900001 94404.05584239  4517.23428588
0.29000001 92957.33238617  4057.58775072
0.29100001 91528.63248958  5211.64058065
0.29200001 90116.61104338  4752.75029140
0.29300001 88721.46774614  5086.40198666
0.29400001 87342.24961940  4251.38420147
0.29500001 85980.80400925  3817.54787872
0.29600001 84634.87624741  4147.53230684
0.29700001 83305.60932807  4468.51309589
0.29800001 81992.35207411  4045.09288107
0.29900001 80696.14817875  4357.59220794
0.30000001 79415.17082869  3585.59513266
0.30100001 78151.29925045  3894.27942601
0.30200001 76901.78144468  4543.74197176
0.30300001 75669.47514905  4830.73952221
0.30400001 74452.91284036  4428.08720081
0.30500001 73251.61109690  5043.37366279
0.30600001 72065.20487959  3650.46312600
0.30700001 70895.37676150  4585.51318603
0.30800001 69740.57324101  3555.72329503
0.30900001 68601.28887857  3827.95210066
0.31000001 67477.49696047  4406.95553513
0.31100001 66367.98799801  3416.62418390
0.31200001 65274.31765820  3064.62935915
0.31300001 64195.08454484  3930.66521278
0.31400001 63132.00394952  3877.88352620
0.31500001 62082.73902450  3236.99416600
0.31600002 61048.69038200  3193.15190162
0.31700002 60029.29992596  3722.41706466
0.31800002 59024.35055037  3671.60989983
0.31900002 58034.16705011  3064.20416533
0.32000002 57058.68709026  3296.85109618
0.32100002 56096.85064640  4335.16482322
0.32200002 55150.52523198  2939.24738141
0.32300002 54216.65181044  2634.92940275
0.32400002 53297.64201849  3897.39025715
0.32500002 52392.46520471  3074.39000379
0.32600002 51501.72861337  3031.39188973
0.32700002 50624.17284972  4981.41884430
0.32800002 49761.13744392  3192.42592389
0.32900002 48911.05348463  3147.42644078
0.33000002 48075.51296210  3819.11893056
0.33100002 47250.96886495  2588.40819699
0.33200002 46442.87703804  3247.75054507
0.33300002 45646.47863826  2515.57755688
0.33400002 44863.80931067  3156.16913447
0.33500002 44093.17321483  2666.75524232
0.33600002 43336.66291943  2847.86893862
0.33700002 42591.85238645  2591.28842191
0.33800002 41860.96423167  2554.35615838
0.33900002 41141.67264887  2727.69302580
0.34000002 40435.61116158  3309.25057418
0.34100002 39741.69841353  2242.62414768
0.34200002 39060.73835197  2612.57760840
0.34300002 38390.83946318  2971.45111518
0.34400002 37734.55046648  2343.31569495
0.34500002 37089.33333835  2117.43014057
0.34600002 36457.09415101  3225.90612873
0.34700002 35834.91111314  2431.75718331
0.34800002 35226.00839175  2212.89795198
0.34900002 34627.96049104  2545.15521663
0.35000002 34041.46064085  2150.73958515
0.35100002 33467.07447008  2120.47393886
0.35200002 32902.46024931  2090.62242326
0.35300002 32349.60677567  2061.31704138
0.35400002 31808.10612993  2201.91625114
0.35500002 31277.52599860  2505.32995115
0.35600002 30756.75035588  2141.13127744
0.35700002 30247.12305906  1786.69764373
0.35800002 29748.74924817  1601.97022289
0.35900002 29260.39151576  1738.06733836
0.36000002 28782.64312872  1870.29623909
0.36100002 28314.34151592  2152.45634399
0.36200002 27857.26474298  1971.87657823
0.36300002 27408.95219389  1646.18174674
0.36400002 26970.71890350  2067.30570188
0.36500002 26542.01964683  2331.45111621
0.36600002 26123.29978004  1438.08772101
0.36700002 25713.42554644  1845.19550462
0.36800002 25314.46328022  1821.50229161
0.36900002 24923.54807258  1521.58268191
0.37000002 24541.48362681  2321.74716849
0.37100002 24168.22934335  1618.30471349
0.37200002 23804.79073051  1997.81715670
0.37300002 23449.38803410  1578.61287724
0.37400002 23102.66438320  1559.42991974
0.37500002 22764.83563983  1540.72414909
0.37600002 22435.49014715  1649.34513630
0.37700002 22113.79150791  1630.00764926
0.37800002 21800.20007772  1363.27557644
0.37900002 21495.29007241  1592.80106982
0.38000002 21198.10877424  1453.76636861
0.38100002 20907.74800776  1677.21962464
0.38200002 20626.03521503  1303.46235716
0.38300002 20350.99981842  1289.43940958
0.38400002 20084.43330022  1391.85129364
0.38500002 19823.70628705  1951.24750227
0.38600002 19571.52858451  1249.74001697
0.38700002 19325.62606584  1462.17693741
0.38800002 19086.70797945  1893.30608772
0.38900002 18854.15970567  1433.85891355
0.39000002 18629.44576889  1201.87875072
0.39100002 18410.15483126  1732.02744858
0.39200002 18197.97566648  1287.32485964
0.39300002 17991.71083643  1275.97219297
0.39400002 17792.97216420  1581.35047601
0.39500002 17599.05880174  1045.38414235
0.39600002 17411.23144948  1244.20665833
0.39700002 17229.36207342  1337.17085387
0.39800002 17053.51163797  1224.78326387
0.39900002 16883.02985135  1418.17457470
0.40000002 16717.94163780  1206.70108459
0.40100002 16558.63117545  998.48550719
0.40200002 16404.92464555  1190.01329017
0.40300002 16255.72881219  1083.60693396
0.40400002 16112.13298045  1174.57454993
0.40500002 15973.67630394  1167.35631960
0.40600002 15839.91299108  967.02673392
0.40700002 15711.01324979  1346.11967902
0.40800002 15586.94388091  1625.64038908
0.40900002 15467.24374428  1236.60619595
0.41000002 15352.51569511  1230.42742868
0.41100002 15241.88246798  1224.53289550
0.41200002 15135.30691189  1031.39553838
0.41300002 15033.64396482  1400.38400168
0.41400002 14935.56222745  929.73879271
0.41500002 14841.84190346  1018.74407652
0.41600002 14751.44195647  1107.24328572
0.41700002 14665.32154288  1195.37041560
0.41800002 14583.83356589  1374.89097457
0.41900002 14504.03930898  1370.63177965
0.42000002 14429.09733398  1366.79630973
0.42100002 14357.98047601  999.74622792
0.42200002 14290.20166491  906.71333860
0.42300002 14225.13198757  1176.13396846
0.42400002 14163.27885333  1173.78179059
0.42500002 14104.99083260  991.43985260
0.42600002 14048.92448069  899.83365563
0.42700002 13997.12541065  1437.78479031
0.42800002 13947.27460114  1077.00859574
0.42900002 13901.48594420  986.31047448
0.43000002 13857.71651858  1075.08169846
0.43100002 13815.78066987  984.78889282
0.43200002 13777.62735528  1252.79971478
0.43300002 13741.73864815  1252.42211974
0.43400002 13708.36049426  1162.81173403
0.43500002 13677.18695915  1252.28329732
0.43600002 13648.67554538  1163.07194172
0.43700002 13621.90447650  1073.95099982
0.43800002 13597.21654799  984.91442733
0.43900002 13575.46341015  985.57869028
0.44000002 13555.14214888  1165.67450433
0.44100002 13537.23839023  897.51894781
0.44200002 13521.12252439  988.32649776
0.44300002 13506.88374562  1169.42605012
0.44400002 13494.83493156  1080.93632924
0.44500002 13483.25374193  992.23268989
0.44600002 13473.84833642  1084.10588853
0.44700002 13467.18429817  904.99482773
0.44800002 13460.43484692  1178.52842887
0.44900002 13456.95674486  999.17908566
0.45000002 13454.20598145  1092.21249334
0.45100002 13452.58701470  1459.33670852
0.45200002 13452.61836555  1005.51600739
0.45300002 13453.57851790  1465.90198478
0.45400002 13456.33742788  1102.07408757
0.45500002 13460.20414767  1473.08481174
0.45600002 13465.07571593  923.03098407
0.45700002 13471.12310197  925.46620097
0.45800002 13477.85633033  1020.74549756
0.45900002 13485.75018730  1116.62016843
0.46000002 13495.40349250  1026.52791531
0.46100002 13504.81779510  1029.47230931
0.46200002 13516.08288916  1220.29960148
0.46300002 13528.09230769  1035.71079616
0.46400002 13540.17433460  1038.86992506
0.46500002 13553.65403292  947.40046180
0.46600002 13567.56948873  1330.57160282
0.46700002 13581.85514328  1430.16941437
0.46800002 13597.85765754  1147.93119786
0.46900002 13613.40243261  959.74491699
0.47000002 13629.82579092  1059.24196155
0.47100002 13646.90266608  1449.30113183
0.47200002 13664.60532821  969.50379399
0.47300002 13682.87860413  1167.42325784
0.47400002 13700.87690761  1366.66253631
0.47500002 13719.72295483  1077.54709195
0.47600002 13739.45448651  1081.36381661
0.47700002 13758.64072017  1282.44296231
