# SAXS profile: number of points = 501, q_min = 0, q_max = 0.5, delta_q = 0.001
#    q    intensity    error
0.00000000 1682732.95097188 353.37391970
0.00100000 1682645.71831027 656.23184573
0.00200000 1682383.97880913 908.48737732
0.00300000 1681947.96803787 1311.91946180
0.00400000 1681337.54404961 1639.30416774
0.00500000 1680553.36191141 1663.74789415
0.00600000 1679595.28021388 1939.93262763
0.00700000 1678464.04372243 2618.40401703
0.00800000 1677159.43438782 2943.41493162
0.00900000 1675682.85906403 2513.52439604
0.01000000 1674033.70741104 3314.58688380
0.01100000 1672213.67321377 3611.98169141
0.01200000 1670222.43344120 4234.01405441
0.01300000 1668061.55815598 4904.10119727
0.01400000 1665731.04133658 4122.68451007
0.01500000 1663232.64279645 4790.11022455
0.01600000 1660565.81737903 6351.66453542
0.01700000 1657733.00179960 5371.05516677
0.01800000 1654734.53612776 5659.19236821
0.01900000 1651571.41707470 5450.18592227
0.02000000 1648244.56167384 6749.56178538
0.02100000 1644756.46457914 8141.54486879
0.02200000 1641105.96013660 6794.17898364
0.02300000 1637296.24265443 8251.97343859
0.02400000 1633327.75153946 8574.97108658
0.02500000 1629202.96478196 8895.44859397
0.02600000 1624922.22624760 7239.02884903
0.02700000 1620487.47897837 9528.46681281
0.02800000 1615899.34734311 8434.99497996
0.02900000 1611161.10361974 7250.22529918
0.03000000 1606273.23372402 8963.00505617
0.03100000 1601237.68222047 10760.31771964
0.03200000 1596055.46920249 9480.56992372
0.03300000 1590730.84370257 9735.27321226
0.03400000 1585262.24921109 8322.62719237
0.03500000 1579653.88639428 10236.15765652
0.03600000 1573906.30534010 9608.69843816
0.03700000 1568022.60956226 11619.04807421
0.03800000 1562004.34076036 10965.27097961
0.03900000 1555853.99408539 11202.14927619
0.04000000 1549571.67244774 9529.86622716
0.04100000 1543161.66459010 12638.49461900
0.04200000 1536625.31365606 15857.97397263
0.04300000 1529964.43963606 11107.54234735
0.04400000 1523182.01502152 11309.62698678
0.04500000 1516280.33036815 11508.56824224
0.04600000 1509260.01611096 12768.34032986
0.04700000 1502125.28336700 14059.89330621
0.04800000 1494877.50252916 13184.82018577
0.04900000 1487519.56385187 15618.95614747
0.05000000 1480053.08730256 16983.60996766
0.05100000 1472482.15671789 16079.50590041
0.05200000 1464805.81058392 17467.81010524
0.05300000 1457029.97291349 12982.13766386
0.05400000 1449155.05739898 19128.84764972
0.05500000 1441184.88166635 14527.14428488
0.05600000 1433120.51238862 14703.81714325
0.05700000 1424966.79698867 13636.93288373
0.05800000 1416722.98825742 17553.19864411
0.05900000 1408393.38945811 17745.75753600
0.06000000 1399981.40098100 15371.79650092
0.06100000 1391488.41622409 18117.18002588
0.06200000 1382917.55547289 14375.42866110
0.06300000 1374271.99409373 14512.31293616
0.06400000 1365551.04176763 14645.53560788
0.06500000 1356761.26530928 13431.93715488
0.06600000 1347903.85439707 14901.07780756
0.06700000 1338980.17417287 20486.39762359
0.06800000 1329994.22931384 17895.07319307
0.06900000 1320949.90268815 19417.96447864
0.07000000 1311846.38141552 15368.28107796
0.07100000 1302688.60021341 22510.46006603
0.07200000 1293478.23939517 19829.02233885
0.07300000 1284218.89920923 17105.79653897
0.07400000 1274913.17007647 14342.77383552
0.07500000 1265562.06373204 23083.85312447
0.07600000 1256168.58849862 18861.37224054
0.07700000 1246736.88200643 17504.18664412
0.07800000 1237268.02659660 16127.78948302
0.07900000 1227763.76395779 16206.48244439
0.08000000 1218229.75209315 23682.38749166
0.08100000 1208666.32665792 22299.89477311
0.08200000 1199075.27516443 19407.03423922
0.08300000 1189459.66011470 16485.91166291
0.08400000 1179823.10585949 16547.01983637
0.08500000 1170167.14127526 21133.21956353
0.08600000 1160494.28860516 18173.34141282
0.08700000 1150806.56906354 21266.90639494
0.08800000 1141106.21492379 18280.52242160
0.08900000 1131396.65536829 16801.24112137
0.09000000 1121679.71979690 21435.30045225
0.09100000 1111957.34987338 21483.01700885
0.09200000 1102231.60082751 24601.81048643
0.09300000 1092506.58660743 23106.51539257
0.09400000 1082780.88300625 18515.55396959
0.09500000 1073059.60150568 16997.26488677
0.09600000 1063343.73029953 17018.81720346
0.09700000 1053637.91221150 18586.17364520
0.09800000 1043941.40673490 15502.53061891
0.09900000 1034257.91860820 20168.03036121
0.10000000 1024586.98926491 21731.49106428
0.10100000 1014932.63736467 18634.16409841
0.10200000 1005296.77202427 23297.75378750
0.10300000 995680.81532901 20192.40788474
0.10400000 986087.36466637 20190.13974139
0.10500000 976519.24234500 17079.32235219
0.10600001 966973.72055333 18623.91473418
0.10700001 957458.69609221 21715.16424924
0.10800001 947970.73385358 23248.98334190
0.10900001 938515.32284534 21679.70497810
0.11000001 929092.43968783 18563.26781873
0.11100001 919703.35173046 16996.11874004
0.11200001 910351.00517312 16973.49529052
0.11300001 901035.37194606 15407.70558568
0.11400001 891759.42787399 21535.99119717
0.11500001 882524.62623066 16891.52214144
0.11600001 873331.76264575 15326.97315620
0.11700001 864182.66695575 16825.63731803
0.11800001 855077.39043021 22894.69820707
0.11900001 846018.14271836 21319.65820069
0.12000001 837006.14022900 16710.82837683
0.12100001 828044.51622730 15153.21536080
0.12200001 819131.99820955 24180.77772633
0.12300001 810271.30684652 27127.88463134
0.12400001 801462.23832641 18032.90121201
0.12500001 792706.13612136 17978.57601439
0.12600001 784005.91283302 16428.84467760
0.12700001 775360.71233317 16375.61901620
0.12800001 766771.64267243 16320.73518347
0.12900001 758240.34051942 26614.23720662
0.13000001 749767.49131176 20626.10465820
0.13100001 741353.01132215 16146.66934771
0.13200001 732998.58069390 20472.65132387
0.13300001 724706.21506826 23306.55297534
0.13400001 716474.11778441 15959.46172607
0.13500001 708305.40824997 15894.37411052
0.13600001 700198.47304576 21583.61894932
0.13700001 692156.23286289 17193.16163503
0.13800001 684176.64568974 15691.59210884
0.13900001 676263.23142457 17041.83423556
0.14000001 668414.54322788 15550.66508158
0.14100001 660631.60242391 22514.32607245
0.14200001 652914.48835847 18206.52136659
0.14300001 645265.15786695 16725.27368080
0.14400001 637680.48345080 18030.41652006
0.14500001 630164.86932605 17940.79467602
0.14600001 622716.41584914 20596.34642583
0.14700001 615337.67166528 16392.59634651
0.14800001 608024.04178204 13589.33797496
0.14900001 600780.15014173 13517.55401596
0.15000001 593604.46938721 16134.17023920
0.15100001 586497.84796329 16046.58187743
0.15200001 579460.24131788 26597.22633153
0.15300001 572492.59974930 18514.41154957
0.15400001 565591.34412396 18409.99912002
0.15500001 558760.79526340 20920.00516194
0.15600001 551996.92080344 12999.52809843
0.15700001 545305.59700419 15508.49191075
0.15800001 538679.25923354 12847.50093911
0.15900001 532124.30569603 17879.37751530
0.16000001 525635.71311725 15232.92368517
0.16100001 519218.71683617 16402.12003910
0.16200001 512868.62837896 15047.56626698
0.16300001 506586.49721617 16200.63694577
0.16400001 500372.69665174 12384.22482678
0.16500001 494226.32946503 19689.97789548
0.16600001 488148.36195596 18342.17556649
0.16700001 482135.96407163 12149.82686826
0.16800001 476190.31481040 12071.42505041
0.16900001 470313.49588960 13192.29418262
0.17000001 464501.08381265 16680.23470735
0.17100001 458754.79836975 15386.63666390
0.17200001 453074.51444275 17635.92630750
0.17300001 447459.46564679 14014.43112588
0.17400001 441909.16156949 11600.11603903
0.17500001 436422.99915304 16130.19481049
0.17600001 430999.41315880 16020.24894373
0.17700001 425641.14017696 12501.08087743
0.17800001 420343.90647303 11286.23442187
0.17900001 415110.38075975 15691.17313387
0.18000001 409938.39298452 11129.82789525
0.18100001 404829.70351094 12157.03657069
0.18200001 399779.03413496 13168.72200647
0.18300001 394790.13864479 17433.93334612
0.18400001 389860.58912134 11900.49504512
0.18500001 384992.00092318 12889.53279984
0.18600001 380180.20502349 12796.86630566
0.18700001 375426.92825366 11645.74386463
0.18800001 370730.96733032 10510.22342038
0.18900001 366093.85822753 13563.77808818
0.19000001 361509.21974237 11392.96359848
0.19100001 356985.10062948 14393.63993748
0.19200001 352512.66471961 16328.38740135
0.19300001 348097.47963062 11142.60084949
0.19400001 343734.18993852 14075.91574312
0.19500001 339425.43119423 13970.75140814
0.19600001 335168.87475717 11885.08886054
0.19700001 330964.49864935 11795.57528929
0.19800001 326811.89812546 10730.86918208
0.19900001 322710.55275178 11617.58044811
0.20000001 318658.10123041 12489.80486801
0.20100001 314656.93759845 13347.74792377
0.20200001 310703.07948414 14191.36382617
0.20300001 306799.18475628 13143.27769617
0.20400001 302942.39422062 11178.57487510
0.20500001 299132.50584471 10167.51435425
0.20600001 295369.40931075 12839.70882965
0.20700001 291652.41585766 12739.37812684
0.20800001 287979.55280616 9028.15940724
0.20900001 284353.66178989 11644.28300074
0.21000001 280769.77647928 11552.27299934
0.21100001 277230.08322900 10579.10047613
0.21200001 273732.88554704 9620.34271735
0.21300001 270277.15117506 9543.48665916
0.21400001 266863.95109000 11188.27167839
0.21500001 263492.77858403 12805.74964461
0.21600001 260160.80229571 10161.88141811
0.21700001 256869.10744965 10919.50627395
0.21800001 253616.65949949 12496.96148770
0.21900001 250402.09961900 10742.25058157
0.22000001 247225.41695770 9834.62755158
0.22100001 244087.97082194 10566.56875651
0.22200001 240987.57957719 8867.13840982
0.22300001 237922.17379830 10392.44104292
0.22400001 234892.37330686 11098.66516356
0.22500001 231900.48467461 7861.42680221
0.22600001 228941.18135236 10134.08187178
0.22700001 226018.52852706 9275.80084940
0.22800001 223128.10239073 9963.78588345
0.22900001 220270.47600686 9119.19813794
0.23000001 217447.01175293 9794.90110763
0.23100001 214656.36067118 7470.04170464
0.23200001 211896.06432467 10368.07491775
0.23300001 209167.92980358 8810.15362000
0.23400001 206471.50925082 8733.74525438
0.23500001 203803.61010481 11543.43702230
0.23600001 201167.72865823 8581.81571045
0.23700001 198560.66306007 8506.33920783
0.23800001 195982.90987900 7025.98765148
0.23900001 193433.74434978 8356.33815116
0.24000001 190912.78385384 8971.94670159
0.24100001 188421.05654110 8207.62161116
0.24200001 185956.02096941 7455.90701345
0.24300001 183518.82055836 8060.14698019
0.24400001 181107.72651634 7986.85111718
0.24500001 178723.11631364 7254.37163433
0.24600001 176365.17566826 7841.19608114
0.24700001 174033.01513059 11005.84839750
0.24800001 171726.06460992 10262.35010657
0.24900001 169443.35248661 9531.18902827
0.25000001 167186.42490424 7553.48303452
0.25100001 164952.75594320 11223.38604534
0.25200001 162745.05470353 6176.17511819
0.25300001 160560.67487670 7340.83440266
0.25400001 158399.57351691 8482.29756314
0.25500001 156261.28978865 8400.60733649
0.25600001 154146.47159348 10101.98949383
0.25700001 152053.69343713 9415.16514309
0.25800001 149984.22497163 8157.64238218
0.25900001 147936.65012566 6923.43555346
0.26000001 145910.90284160 5712.41211653
0.26100001 143906.42090325 7917.73165273
0.26200001 141924.21385631 7278.58365202
0.26300001 139962.35448341 6651.01139976
0.26400001 138021.94273538 6583.64698000
0.26500001 136102.69023331 6516.59711673
0.26600001 134202.86063301 6987.27226949
0.26700001 132324.64801315 6383.34132222
0.26800001 130466.65655258 5790.76282511
0.26900001 128627.44618268 6772.23536199
0.27000001 126808.97582733 5154.78511132
0.27100001 125009.63281338 5610.43258617
0.27200001 123231.19152423 7064.84454442
0.27300001 121470.90531228 6490.19077798
0.27400001 119727.97475668 6420.41295017
0.27500001 118006.85559714 5862.58086351
0.27600001 116301.94695931 5315.58073734
0.27700001 114617.81117714 5735.47554274
0.27800001 112950.82646950 5672.39077376
0.27900001 111303.35844282 6077.16365860
0.28000001 109672.70879674 8783.13929968
0.28100001 108060.82628282 5028.07048491
0.28200001 106467.34191197 5875.40054149
0.28300001 104891.29633350 6255.71720941
0.28400001 103332.75721027 5742.71825377
0.28500001 101792.21630479 5240.26354340
0.28600001 100268.95705797 4316.57880566
0.28700001 98762.83850732  5119.86579056
0.28800001 97273.34962953  4216.79990603
0.28900001 95802.87092454  6667.88013196
0.29000001 94347.68195515  4941.93181473
0.29100001 92910.47201366  4476.42675351
0.29200001 91489.69959971  5227.26423406
0.29300001 90085.95482333  4767.34895492
0.29400001 88697.98721686  6672.30640423
0.29500001 87327.79143782  5428.29577273
0.29600001 85973.02452155  4596.11810849
0.29700001 84635.01628964  4539.82248868
0.29800001 83312.91874025  4483.90149886
0.29900001 82007.84590648  4797.45921264
0.30000001 80717.94837062  4008.85709560
0.30100001 79444.99277724  4318.63001182
0.30200001 78186.58795003  4619.65476773
0.30300001 76945.19452292  4912.18145089
0.30400001 75719.46946336  4156.99907034
0.30500001 74509.21888532  4787.96263224
0.30600001 73313.59977854  3376.09142964
0.30700001 72134.62622773  4998.92983425
0.30800001 70970.73483694  3947.39245852
0.30900001 69822.08818767  3246.72725444
0.31000001 68689.10015197  3204.34667380
0.31100001 67570.19828872  3478.51397259
0.31200001 66467.28954454  3432.70333105
0.31300001 65378.78437578  4311.07724585
0.31400001 64306.49175153  3950.02644286
0.31500001 63247.62425951  3297.73128503
0.31600002 62204.18875646  4140.93304158
0.31700002 61175.29728077  3501.67418215
0.31800002 60160.99204197  3454.44432661
0.31900002 59161.32224711  4259.61540348
0.32000002 58176.40587699  3641.55229830
0.32100002 57204.94471678  4973.39812917
0.32200002 56249.17032873  4360.43589035
0.32300002 55305.51671214  2956.63306343
0.32400002 54377.02334773  2915.96801510
0.32500002 53462.38219842  3398.60379728
0.32600002 52561.99938653  2835.98281119
0.32700002 51674.83980954  4576.32403023
0.32800002 50802.07297586  2757.79066208
0.32900002 49942.33028669  2472.14546626
0.33000002 49097.13656019  2681.44024021
0.33100002 48262.94600022  2403.49482463
0.33200002 47444.98231782  2843.85237480
0.33300002 46638.90511128  2803.93110807
0.33400002 45846.50253880  2534.16554784
0.33500002 45066.05497150  2725.59513375
0.33600002 44299.86878973  2911.16601538
0.33700002 43545.24887670  2207.74422260
0.33800002 42804.60638480  2394.27577152
0.33900002 42075.43264991  2575.01660012
0.34000002 41359.56049033  2115.54161927
0.34100002 40655.81491160  2711.33642486
0.34200002 39965.14111275  2056.20660763
0.34300002 39285.36333691  2837.97478186
0.34400002 38619.38896458  1998.55347357
0.34500002 37964.18331929  2167.37532835
0.34600002 37322.04888614  2136.87401018
0.34700002 36689.97893348  2106.73869014
0.34800002 36071.36485502  3021.33766335
0.34900002 35463.38449388  2792.74166116
0.35000002 34867.15856451  2386.48278098
0.35100002 34282.77625117  2715.19600769
0.35200002 33708.42877295  2320.31980448
0.35300002 33145.69146937  1936.03993042
0.35400002 32594.37510415  2603.47583475
0.35500002 32053.95667989  1711.68136778
0.35600002 31523.43217359  2363.31182199
0.35700002 31003.89313708  1664.90914032
0.35800002 30495.59686334  1970.62556265
0.35900002 29997.44853515  2105.82098691
0.36000002 29509.98456671  1757.76231397
0.36100002 29031.76265794  2206.99470179
0.36200002 28564.99047161  2333.04570728
0.36300002 28106.88598894  1841.56325722
0.36400002 27658.84722452  1665.75415300
0.36500002 27220.30748370  1643.83444681
0.36600002 26791.90888699  1474.89465409
0.36700002 26372.31011143  1601.32674582
0.36800002 25963.56635875  1580.79181263
0.36900002 25562.96284843  2128.11675794
0.37000002 25171.17856212  1821.00899934
0.37100002 24788.40691224  1521.51248835
0.37200002 24415.32322344  1639.24487887
0.37300002 24050.24026460  1349.21854276
0.37400002 23693.89921026  1732.61646183
0.37500002 23346.53324150  1975.11680579
0.37600002 23007.46769105  1431.17959552
0.37700002 22676.27105273  1542.89355552
0.37800002 22353.30567951  1524.94258570
0.37900002 22038.90768314  1381.83957719
0.38000002 21732.16122604  1366.19238020
0.38100002 21432.32836859  1596.49421581
0.38200002 21141.16926500  1578.92830136
0.38300002 20856.82876018  1201.35339350
0.38400002 20580.93170172  1782.82329312
0.38500002 20310.88285074  1176.00017277
0.38600002 20049.49930748  1513.03553692
0.38700002 19794.20949152  1267.22535168
0.38800002 19546.15295248  1140.51807881
0.38900002 19304.42338898  1693.96323264
0.39000002 19070.54609547  1454.03385594
0.39100002 18842.09774157  1440.29001960
0.39200002 18620.84407326  1317.23857215
0.39300002 18405.47581830  1305.31640688
0.39400002 18197.83747552  1401.68849796
0.39500002 17995.03661570  1282.68627074
0.39600002 17798.30914888  1483.84510404
0.39700002 17607.57360987  1576.75829147
0.39800002 17422.82282805  1042.75599566
0.39900002 17243.60734307  1034.61648960
0.40000002 17069.87288960  1437.45406414
0.40100002 16901.88777414  1121.10226918
0.40200002 16739.55358170  1214.28727435
0.40300002 16581.80508468  1406.80041004
0.40400002 16429.74390453  1097.91768844
0.40500002 16282.68120866  1388.26146563
0.40600002 16140.60196049  1083.92217601
0.40700002 16003.31868996  1273.22409530
0.40800002 15870.99222582  1265.79104495
0.40900002 15742.99367630  1161.83298836
0.41000002 15620.10006747  1155.57505774
0.41100002 15501.30960044  1341.17337018
0.41200002 15386.64682801  1334.48394262
0.41300002 15277.00471931  1138.44244563
0.41400002 15171.02713770  944.39648407
0.41500002 15069.36599181  1786.62411664
0.41600002 14971.12822172  1217.37734903
0.41700002 14877.26810506  1212.64618070
0.41800002 14788.08056705  1022.37399845
0.41900002 14700.66799342  1296.59897846
0.42000002 14618.30328549  1200.08966509
0.42100002 14539.48269417  1012.38422797
0.42200002 14464.33238939  1193.09051367
0.42300002 14391.92940760  1098.39210444
0.42400002 14322.77646511  1278.30786008
0.42500002 14257.27731128  1184.35208237
0.42600002 14194.10636422  1181.87232242
0.42700002 14135.17420176  998.22604943
0.42800002 14078.34591961  1268.31824400
0.42900002 14025.56926083  995.11418621
0.43000002 13975.00713306  903.48425397
0.43100002 13926.34365848  1082.91253420
0.43200002 13881.47118725  991.76175597
0.43300002 13838.88011228  991.00225180
0.43400002 13799.05160160  1170.50460757
0.43500002 13761.27982359  1259.98284036
0.43600002 13726.47856857  1259.67899793
0.43700002 13693.35603541  1079.58424099
0.43800002 13662.46685450  899.67348500
0.43900002 13634.52758339  1439.80618104
0.44000002 13608.18124468  1080.21747839
0.44100002 13584.28726174  1441.02126102
0.44200002 13562.29237751  991.33580831
0.44300002 13542.16167906  1352.86201585
0.44400002 13524.49853808  1083.31238424
0.44500002 13507.24661832  1355.45226238
0.44600002 13492.25159655  995.12106366
0.44700002 13480.11670414  1177.62305108
0.44800002 13467.96438667  1088.48093332
0.44900002 13459.04343580  1181.03111746
0.45000002 13451.21200671  909.97453538
0.45100002 13444.45212791  1367.30084621
0.45200002 13439.41273966  1917.73709177
0.45300002 13435.46443654  1006.45068864
0.45400002 13433.22711415  1466.90847039
0.45500002 13432.34808226  1194.40444808
0.45600002 13432.50046793  1565.35651622
0.45700002 13433.97964152  1292.08022316
0.45800002 13436.11144556  1017.58394856
0.45900002 13439.60482751  1390.99916557
0.46000002 13444.93523006  1022.68904674
0.46100002 13449.98763111  1398.12628052
0.46200002 13457.11153569  1401.89466067
0.46300002 13465.03318615  1030.88298959
0.46400002 13473.10467525  1221.67382433
0.46500002 13482.65863441  1225.16924818
0.46600002 13492.75515282  1039.68429758
0.46700002 13503.32732891  1421.90043513
0.46800002 13515.68800551  950.82869625
0.46900002 13527.62141138  1335.17629659
0.47000002 13540.59967198  1339.30077703
0.47100002 13554.20480655  1631.38416784
0.47200002 13568.70804914  1155.23985806
0.47300002 13583.77735810  965.80661594
0.47400002 13598.62532663  1065.79231049
0.47500002 13614.42940084  1069.27733582
0.47600002 13631.32334480  1072.85335470
0.47700002 13647.56713777  1174.23673219
