# SAXS profile: number of points = 501, q_min = 0, q_max = 0.5, delta_q = 0.001
#    q    intensity    error
0.00000000 1682732.95097188 277.65093691
0.00100000 1682645.69915211 605.75246608
0.00200000 1682383.90883678 908.48733954
0.00300000 1681947.80305773 1110.08558956
0.00400000 1681337.25809692 1765.40418808
0.00500000 1680552.91525013 1966.24698867
0.00600000 1679594.64267276 2116.28933593
0.00700000 1678463.16919883 2618.40265277
0.00800000 1677158.30156403 2943.41294352
0.00900000 1675681.43289344 3518.93115950
0.01000000 1674031.93624409 3038.36809548
0.01100000 1672211.51708345 4213.97320652
0.01200000 1670219.90269976 4559.70053428
0.01300000 1668058.56685042 5254.38471732
0.01400000 1665727.59293655 4872.25342533
0.01500000 1663228.66174284 5588.44855230
0.01600000 1660561.30925463 5504.76098626
0.01700000 1657727.88865572 5371.03860018
0.01800000 1654728.80701305 8017.16143073
0.01900000 1651565.04059147 7432.04301801
0.02000000 1648237.49262804 6230.33800397
0.02100000 1644748.72287448 7055.97234104
0.02200000 1641097.45964240 6227.96514229
0.02300000 1637286.93433485 6483.65655509
0.02400000 1633317.62167180 7349.92963266
0.02500000 1629192.02463648 8260.00394215
0.02600000 1624910.34434312 8555.15335426
0.02700000 1620474.75486574 7486.59371037
0.02800000 1615885.59669759 9137.83346838
0.02900000 1611146.38299584 7975.17496200
0.03000000 1606257.54963017 8962.91753892
0.03100000 1601220.94438778 10760.20524140
0.03200000 1596037.63329884 8690.42531358
0.03300000 1590711.95548395 10546.42075105
0.03400000 1585242.12651651 11651.53016750
0.03500000 1579632.64436639 9383.01834083
0.03600000 1573883.88294052 10482.06714480
0.03700000 1567999.02717811 15193.91127604
0.03800000 1561979.40703478 11878.85394025
0.03900000 1555827.77679593 10268.46380239
0.04000000 1549544.19353379 13341.57612456
0.04100000 1543132.78853472 13610.43182595
0.04200000 1536595.05346165 10902.14241009
0.04300000 1529932.77195477 13126.82379269
0.04400000 1523149.01430687 12337.50758886
0.04500000 1516245.82452688 13600.72567796
0.04600000 1509223.98378817 13832.03845443
0.04700000 1502087.67826793 12978.03814382
0.04800000 1494838.39939017 12085.76902140
0.04900000 1487478.97673312 13387.31141374
0.05000000 1480010.83298784 11322.08339958
0.05100000 1472438.17630277 14930.52380323
0.05200000 1464760.35374097 16302.78349687
0.05300000 1456982.68632664 11801.56030941
0.05400000 1449106.10951688 16737.17634544
0.05500000 1441134.30575382 14526.63447966
0.05600000 1433068.15684316 18379.09996916
0.05700000 1424912.72973669 14876.08959285
0.05800000 1416667.09900056 12537.50441156
0.05900000 1408335.61916014 15210.02539733
0.06000000 1399921.83632934 21775.78518144
0.06100000 1391427.03402895 14234.29922330
0.06200000 1382854.27474998 15681.56820868
0.06300000 1374206.86171664 13192.38648929
0.06400000 1365484.00022272 15976.16354976
0.06500000 1356692.20104220 14774.37876046
0.06600000 1347832.81761666 18964.00863116
0.06700000 1338907.15455048 17753.90970020
0.06800000 1329919.38711425 15141.13293104
0.06900000 1320873.01861402 15256.08407927
0.07000000 1311767.42789716 18161.42088971
0.07100000 1302607.53587973 16881.79445571
0.07200000 1293395.07800235 18411.47979788
0.07300000 1284133.60840357 18530.04883750
0.07400000 1274825.80605346 18644.32828728
0.07500000 1265472.64120719 15869.02766456
0.07600000 1256077.10709146 24663.07515396
0.07700000 1246643.30658991 17502.87284521
0.07800000 1237172.20674336 16126.54047117
0.07900000 1227665.77109320 14731.98994410
0.08000000 1218129.65181421 16280.30356022
0.08100000 1208564.09714246 16351.87300154
0.08200000 1198970.65278427 16419.90386039
0.08300000 1189352.96309582 17983.01764599
0.08400000 1179714.08075366 16545.49075919
0.08500000 1170055.76838751 22640.58018116
0.08600000 1160380.63927968 18171.56166430
0.08700000 1150690.78087325 15189.11902077
0.08800000 1140988.16891270 15232.19277035
0.08900000 1131276.33969127 21381.12382443
0.09000000 1121557.11790684 21432.95753002
0.09100000 1111832.46230035 18411.94644071
0.09200000 1102104.37328028 21524.09942151
0.09300000 1092377.05832724 18483.02069545
0.09400000 1082649.17026136 16970.52654142
0.09500000 1072925.47583084 16995.14033598
0.09600000 1063207.19024787 21657.53148342
0.09700000 1053499.19416525 23229.65832343
0.09800000 1043800.15952122 17050.47640745
0.09900000 1034114.53172975 18614.06244641
0.10000000 1024441.09513646 15520.28332119
0.10100000 1014784.45928790 17078.82325306
0.10200000 1005146.28088165 23294.26615511
0.10300000 995527.89002784 18636.28297799
0.10400000 985932.00221601 17081.27274198
0.10500000 976361.76001790 15524.15271469
0.10600001 966813.91641553 17069.10049748
0.10700001 957296.35224533 20160.66212700
0.10800001 947806.12435754 17046.29394880
0.10900001 938348.39927901 17031.02424849
0.11000001 928923.20627319 18559.88653494
0.11100001 919531.77841276 18537.76152544
0.11200001 910177.07333824 18513.00254324
0.11300001 900859.14985209 27728.44593792
0.11400001 891580.73378691 16917.74522017
0.11500001 882343.68999443 18423.33711460
0.11600001 873148.42523767 19920.88225990
0.11700001 863996.97708652 18351.29665757
0.11800001 854889.43104170 16785.75476908
0.11900001 845827.90550637 15224.90301623
0.12000001 836813.61298975 18225.80134944
0.12100001 827849.65619658 21209.50919090
0.12200001 818934.82875794 27196.82694433
0.12300001 810071.87330086 19587.53881927
0.12400001 801260.68987434 16526.00250732
0.12500001 792502.15196832 22467.43706698
0.12600001 783799.74098849 25383.35580806
0.12700001 775152.24710411 23812.67815324
0.12800001 766560.90151525 23732.72662942
0.12900001 758027.29948799 20694.14625138
0.13000001 749552.38574010 19147.31659624
0.13100001 741135.67683678 20544.28193032
0.13200001 732779.08101090 20466.52069743
0.13300001 724484.47137557 16018.35241727
0.13400001 716250.31334928 17404.88343495
0.13500001 708079.44127322 15889.30341132
0.13600001 699970.43327923 15822.83239034
0.13700001 691925.84022267 15755.15212478
0.13800001 683944.12393430 17112.28278778
0.13900001 676028.69136848 14196.60318822
0.14000001 668177.99436844 19784.75134631
0.14100001 660392.97748478 14066.37108384
0.14200001 652673.76317074 16799.82345638
0.14300001 645022.42540350 15325.73355047
0.14400001 637435.72778355 19409.91882657
0.14500001 629918.11611262 13795.20739362
0.14600001 622467.63304944 15097.95315185
0.14700001 615086.88752337 16385.91545665
0.14800001 607771.33774768 14942.05904347
0.14900001 600525.73154313 17565.37847639
0.15000001 593348.01711685 20158.99983271
0.15100001 586239.50740563 17376.13981940
0.15200001 579199.95677643 15951.16756231
0.15300001 572230.33812040 13218.52143435
0.15400001 565327.28259188 18401.40391675
0.15500001 558494.98245761 19603.17480939
0.15600001 551729.42049128 15591.87415894
0.15700001 545036.23826597 18084.30323919
0.15800001 538408.21428694 19261.55477524
0.15900001 531851.45628225 12764.43555326
0.16000001 525361.11021889 17762.45997493
0.16100001 518942.36476946 13871.33006507
0.16200001 512590.66054343 13786.12646610
0.16300001 506306.94705926 14946.18178277
0.16400001 500091.59589182 17328.17461571
0.16500001 493943.48320937 17218.87063760
0.16600001 487863.97120418 17109.39027792
0.16700001 481850.16558879 15785.41216999
0.16800001 475902.82309701 14476.96456216
0.16900001 470024.47056532 13184.18702189
0.17000001 464210.79928479 15479.10983307
0.17100001 458462.93782861 13011.17878998
0.17200001 452781.24170766 16449.54328803
0.17300001 447164.69551547 15172.29883534
0.17400001 441613.06724021 15070.04663127
0.17500001 436125.53412657 12665.08610918
0.17600001 430700.55947251 13722.12047288
0.17700001 425340.93076147 14763.58440402
0.17800001 420042.62761468 13533.77410097
0.17900001 414807.77927524 14559.75374027
0.18000001 409634.56913479 12233.73698507
0.18100001 404524.57931072 15460.93015158
0.18200001 399472.80823929 13158.63492499
0.18300001 394482.67233103 13065.26672480
0.18400001 389552.06846813 14053.09153387
0.18500001 384682.40121558 16098.95925142
0.18600001 379869.54287734 13851.94353544
0.18700001 375115.12318402 12693.89636827
0.18800001 370418.10413278 11551.48912314
0.18900001 365780.13511854 13552.15464645
0.19000001 361194.44441608 11383.04345361
0.19100001 356669.40560719 12326.49524021
0.19200001 352196.14032460 15294.11811626
0.19300001 347779.99718199 15180.59759432
0.19400001 343415.91478103 10044.91598201
0.19500001 339106.12392478 10966.69256596
0.19600001 334848.95032993 15831.65911975
0.19700001 330643.72587627 11784.14294712
0.19800001 326490.40704175 9745.73911077
0.19900001 322388.38179807 11605.98229323
0.20000001 318335.14093819 12477.14643876
0.20100001 314333.31435521 11429.15985012
0.20200001 310378.88611155 11341.24503454
0.20300001 306474.44939029 10315.93045406
0.20400001 302617.07952129 11166.57076213
0.20500001 298806.58273555 12003.06099583
0.20600001 295042.84952858 10993.29709307
0.20700001 291325.44109794 10907.22503028
0.20800001 287652.04026301 10821.47026623
0.20900001 284025.80166106 11630.85712783
0.21000001 280441.43381692 9763.56897988
0.21100001 276901.32941030 9686.00896066
0.21200001 273403.76500637 9608.77577540
0.21300001 269947.74878484 8665.32314565
0.21400001 266534.25999784 12034.02240783
0.21500001 263162.83390192 9379.12384369
0.21600001 259830.53296806 11840.47794716
0.21700001 256538.55962485 8388.81129635
0.21800001 253285.96011440 9152.48860147
0.21900001 250071.22883683 8252.35094180
0.22000001 246894.46087134 12276.82764731
0.22100001 243756.91648096 8117.10570262
0.22200001 240656.32158803 12879.92694041
0.22300001 237590.98164137 8781.36309670
0.22400001 234561.10769420 8708.08153492
0.22500001 231569.24259118 10205.25700357
0.22600001 228609.86756778 10119.41626642
0.22700001 225687.27523372 8490.35569579
0.22800001 222796.96389955 10714.30650061
0.22900001 219939.44539689 14417.03132756
0.23000001 217116.10814371 11284.61025444
0.23100001 214325.66461172 9696.09352559
0.23200001 211565.58554627 8133.63932100
0.23300001 208837.57078589 10262.27871377
0.23400001 206141.39040322 7993.13279092
0.23500001 203473.82319567 7202.97368180
0.23600001 200838.14737131 9281.73541976
0.23700001 198231.37950084 8492.23269948
0.23800001 195653.95695250 7715.61415736
0.23900001 193105.13876206 7646.96385668
0.24000001 190584.53583732 8956.52068532
0.24100001 188093.22802014 8193.34140011
0.24200001 185628.79353633 8796.02079779
0.24300001 183191.88001704 7375.30543836
0.24400001 180781.23647263 7972.45290557
0.24500001 178397.21245702 9874.28617659
0.24600001 176039.61119226 8478.94827417
0.24700001 173708.02452423 6461.93881799
0.24800001 171401.68739094 9602.77999035
0.24900001 169119.64216297 8244.58294548
0.25000001 166863.33234437 6910.64523597
0.25100001 164630.34917243 9956.84398900
0.25200001 162423.23913877 8013.15088201
0.25300001 160239.62176250 6715.64286579
0.25400001 158079.14305023 7255.83300929
0.25500001 155941.52148118 7185.78564983
0.25600001 153827.49796785 6523.05535995
0.25700001 151735.57763427 7633.81727196
0.25800001 149666.85033136 6396.01315153
0.25900001 147620.09528863 6908.62078639
0.26000001 145595.29845625 7410.07306554
0.26100001 143591.54284141 6207.46269075
0.26200001 141610.27085902 8379.78817459
0.26300001 139649.29766213 5530.11244909
0.26400001 137709.71901353 6568.75390777
0.26500001 135791.42092272 5959.88574631
0.26600001 133892.58270771 6971.11764855
0.26700001 132015.28166183 10083.32769048
0.26800001 130158.37445385 6302.26878928
0.26900001 128320.10080495 5196.96432853
0.27000001 126502.68704118 5656.56791873
0.27100001 124704.45664308 6105.53048618
0.27200001 122926.95578981 6544.01680116
0.27300001 121167.82661754 5477.99770062
0.27400001 119425.97732751 5911.58615748
0.27500001 117706.06725339 5360.33455640
0.27600001 116002.31806620 5301.88619813
0.27700001 114319.28103828 6197.24851838
0.27800001 112653.45946986 6600.36650272
0.27900001 111007.21360828 6993.45478831
0.28000001 109377.77250560 5532.32799517
0.28100001 107767.13744046 4558.55012948
0.28200001 106174.97393810 5408.55342839
0.28300001 104600.13968758 5792.75601007
0.28400001 103042.81266832 4405.08045007
0.28500001 101503.64754017 5225.40802269
0.28600001 99981.60742880  5165.05008424
0.28700001 98476.82204330  4679.61880500
0.28800001 96988.64645176  4624.90382496
0.28900001 95519.60996514  4986.12387619
0.29000001 94065.72175807  5748.35652873
0.29100001 92629.83034083  4462.90543707
0.29200001 91210.50506811  5211.31245375
0.29300001 89808.19968171  3960.54179344
0.29400001 88421.64107739  4695.18936346
0.29500001 87052.89121615  3865.14855296
0.29600001 85699.54898861  4963.28961463
0.29700001 84362.97091784  4148.12747639
0.29800001 83042.32863263  4841.78320013
0.29900001 81738.75722572  4781.71752407
0.30000001 80450.23783643  4722.02693335
0.30100001 79178.86295729  5380.20399265
0.30200001 77921.92301871  4249.86188263
0.30300001 76682.14855408  4895.38859545
0.30400001 75457.95979797  5523.52291870
0.30500001 74249.15489898  3748.84000833
0.30600001 73055.12454599  4037.02637354
0.30700001 71877.72637141  3320.75111557
0.30800001 70715.36175238  5244.25147584
0.30900001 69568.37204064  5175.88712487
0.31000001 68437.02402558  3831.10478633
0.31100001 67319.78798330  3150.56622678
0.31200001 66218.39939457  3419.84939865
0.31300001 65131.53351416  4908.31259802
0.31400001 64060.77207681  3329.55878634
0.31500001 63003.55719662  3882.27937827
0.31600002 61961.82365357  3830.17031049
0.31700002 60934.65404337  4650.53301678
0.31800002 59921.99539509  3727.44790004
0.31900002 58924.04622691  3959.69609394
0.32000002 57940.67893078  3068.82820488
0.32100002 56970.95903130  3302.03694181
0.32200002 56016.86623047  4613.82940554
0.32300002 55074.96383497  4014.96505368
0.32400002 54148.12848823  3431.63780543
0.32500002 53235.22072841  3644.48338364
0.32600002 52336.55179631  3850.66198075
0.32700002 51451.05352553  2784.53114866
0.32800002 50580.07828271  3244.96507589
0.32900002 49722.06154748  3199.61481209
0.33000002 48878.55134262  2912.18422690
0.33100002 48046.12694055  2631.96695844
0.33200002 47229.97574576  2830.96488026
0.33300002 46425.68453362  3023.70497686
0.33400002 45634.96031066  3439.73529631
0.33500002 44856.35104861  2486.83621990
0.33600002 44091.87707410  2897.49783914
0.33700002 43339.05658276  2197.29027280
0.33800002 42600.22425547  3249.33225897
0.33900002 41872.88121534  2989.72386036
0.34000002 41158.83616937  2526.32948372
0.34100002 40456.83561904  2698.06649521
0.34200002 39767.87198468  3273.69137682
0.34300002 39089.96581980  2823.85926456
0.34400002 38425.78694076  2386.24148203
0.34500002 37772.45955659  2548.50796698
0.34600002 37132.06675855  2125.99658295
0.34700002 36501.91131576  2286.47983311
0.34800002 35884.98585028  2817.86864735
0.34900002 35278.83292643  2592.99434290
0.35000002 34684.45413647  1826.13659677
0.35100002 34101.88038714  1980.63730669
0.35200002 33529.38545418  1775.38104389
0.35300002 32968.50603264  2100.75330390
0.35400002 32418.92740952  1898.93876295
0.35500002 31880.35682774  1702.41113523
0.35600002 31351.62994094  2182.54382171
0.35700002 30833.97845751  2483.67708239
0.35800002 30327.46880587  2123.07455431
0.35900002 29831.19728992  1933.06167595
0.36000002 29345.54361778  1589.06126217
0.36100002 28869.21965308  2037.87831184
0.36200002 28404.18623349  2319.91202051
0.36300002 27948.02552056  1983.75094541
0.36400002 27501.79339373  2108.01256348
0.36500002 27065.11676056  2228.81247081
0.36600002 26638.49732814  1759.73921685
0.36700002 26220.82503857  1736.86753283
0.36800002 25813.88463889  2000.31801542
0.36900002 25415.16122128  1410.54151460
0.37000002 25025.19776346  1810.44801796
0.37100002 24644.23996674  1650.17838634
0.37200002 24272.93339255  1901.29896270
0.37300002 23909.74260282  1475.47028591
0.37400002 23555.25195452  1854.97617929
0.37500002 23209.69608190  1701.73499734
0.37600002 22872.54751693  1552.13114803
0.37700002 22543.15834040  1789.47599383
0.37800002 22221.96744615  1263.31890916
0.37900002 21909.42009319  1873.25550671
0.38000002 21604.58294759  1358.17217134
0.38100002 21306.59084970  1709.21479893
0.38200002 21017.23508093  1569.67227638
0.38300002 20734.71251138  1313.75144696
0.38400002 20460.59451450  1654.23914487
0.38500002 20192.47566365  1402.97327558
0.38600002 19932.88424806  1388.52478250
0.38700002 19679.42201619  1259.87665716
0.38800002 19433.20042005  1133.92729823
0.38900002 19193.23577203  1571.92608420
0.39000002 18961.22099713  1112.07566417
0.39100002 18734.66492330  1101.59834968
0.39200002 18515.20619707  1091.47145703
0.39300002 18301.69329010  1406.11916210
0.39400002 18095.83782201  1286.61413010
0.39500002 17894.82022603  1169.24760896
0.39600002 17699.93035892  1054.03090281
0.39700002 17510.96157783  1463.56623802
0.39800002 17328.12868785  1659.34168177
0.39900002 17150.69994057  1029.04204519
0.40000002 16978.74363875  1429.78006956
0.40100002 16812.58206616  1216.55849595
0.40200002 16651.98799491  1107.27399418
0.40300002 16496.04774514  1399.52475701
0.40400002 16345.76532521  1191.60634867
0.40500002 16200.59623986  1479.92453663
0.40600002 16060.23062383  1274.62026385
0.40700002 15924.81894570  1169.51875879
0.40800002 15794.16896534  1065.86954313
0.40900002 15668.02024334  1252.65827781
0.41000002 15546.94620855  1150.16313501
0.41100002 15429.93232370  1048.92684907
0.41200002 15317.06647559  948.89231312
0.41300002 15209.22368586  944.49283564
0.41400002 15104.93523217  1410.42339413
0.41500002 15005.06715527  936.31623485
0.41600002 14908.62287774  1025.78784571
0.41700002 14816.52133261  1765.09226999
0.41800002 14729.10463397  1110.86912413
0.41900002 14643.46424378  922.53829107
0.42000002 14562.77182392  1195.53080953
0.42100002 14485.82729209  1008.64820214
0.42200002 14412.36341751  1280.25030304
0.42300002 14341.71295740  1094.55958477
0.42400002 14274.30035890  1000.98536010
0.42500002 14210.53582413  1089.66393863
0.42600002 14149.09766140  1268.74964742
0.42700002 14091.93486193  1357.05339151
0.42800002 14036.90786552  993.60257034
0.42900002 13985.85627499  1082.50532698
0.43000002 13937.00939444  1081.23324006
0.43100002 13890.08791500  990.08551350
0.43200002 13846.93661118  899.35857551
0.43300002 13806.07447844  1438.04078582
0.43400002 13767.89796004  988.19092291
0.43500002 13731.92828285  1167.48859793
0.43600002 13698.83449505  987.75450807
0.43700002 13667.45600649  1257.13266305
0.43800002 13638.21586068  1167.49952408
0.43900002 13611.98858281  1257.74780466
0.44000002 13587.34779276  1348.20464863
0.44100002 13565.14148430  1349.05338455
0.44200002 13544.81927772  1350.07992549
0.44300002 13526.43553967  1171.11884452
0.44400002 13510.37553839  1082.18113191
0.44500002 13494.76960950  1083.36015559
0.44600002 13481.51549236  1084.72278792
0.44700002 13471.01609975  1357.87848721
0.44800002 13460.59868836  997.22850109
0.44900002 13453.42665598  1271.34887924
0.45000002 13447.15957104  1000.67042690
0.45100002 13442.08755196  1093.64829506
0.45200002 13438.70008744  1461.05554275
0.45300002 13436.38890442  1464.02900441
0.45400002 13435.89509073  1100.39986008
0.45500002 13436.62269810  1562.41056138
0.45600002 13438.47769071  1105.44922723
0.45700002 13441.54844241  1015.77786393
0.45800002 13445.38509016  1110.85776880
0.45900002 13450.45535864  1113.69775648
0.46000002 13457.41158130  1861.16010990
0.46100002 13464.15665377  1492.90576053
0.46200002 13472.84918432  1029.25836222
0.46300002 13482.41661919  1126.05148940
0.46400002 13492.11506014  1129.29008406
0.46500002 13503.28843378  943.87990626
0.46600002 13514.97610625  1136.06894534
0.46700002 13527.14106490  1234.48695209
0.46800002 13541.10778955  1047.87867596
0.46900002 13554.66820361  955.60415365
0.47000002 13569.23887354  1054.53344904
0.47100002 13584.41579192  1057.95435202
0.47200002 13600.52273137  1254.44427358
0.47300002 13617.18575530  1645.90932025
0.47400002 13633.62551836  1554.23338276
0.47500002 13651.02914742  1559.49364372
0.47600002 13669.37052160  1271.45655933
0.47700002 13687.27833993  1079.51569384
