# SAXS profile: number of points = 501, q_min = 0, q_max = 0.5, delta_q = 0.001
#    q    intensity    error
0.00000000 1700912.83420644 280.65061764
0.00100000 1700825.10564676 663.32180696
0.00200000 1700561.87724000 1071.35401659
0.00300000 1700123.38509647 1122.08147414
0.00400000 1699509.48938702 1657.02181512
0.00500000 1698720.84593447 1681.73370404
0.00600000 1697757.31216020 2317.43882545
0.00700000 1696619.63638185 3257.50983724
0.00800000 1695307.59401021 2517.53188340
0.00900000 1693822.60289070 3811.10101942
0.01000000 1692164.04281901 3629.69202858
0.01100000 1690333.62195264 3651.12078239
0.01200000 1688331.01545993 3950.69474939
0.01300000 1686157.79748193 3895.02468397
0.01400000 1683813.93347201 5304.01412557
0.01500000 1681301.22344909 4842.14773915
0.01600000 1678619.14023919 5564.62269865
0.01700000 1675770.04726795 5881.95312977
0.01800000 1672754.36328336 6674.29020983
0.01900000 1669573.06139628 7513.07911529
0.02000000 1666227.00926101 6823.19991158
0.02100000 1662718.86236391 7681.76149240
0.02200000 1659047.24948821 6868.45592493
0.02300000 1655215.49453390 6554.65365671
0.02400000 1651224.06397067 8049.71767890
0.02500000 1647075.27039585 8350.67200229
0.02600000 1642769.71101020 8649.18292407
0.02700000 1638309.13912511 6880.89869948
0.02800000 1633694.24523623 8527.88435122
0.02900000 1628928.34434403 7330.17788611
0.03000000 1624011.87357506 9061.98667109
0.03100000 1618946.79681345 10102.22847695
0.03200000 1613734.08292552 11981.97611759
0.03300000 1608378.10659895 9023.00159398
0.03400000 1602877.22737992 10098.12699842
0.03500000 1597235.68616290 10350.08772428
0.03600000 1591454.06271118 8832.57045623
0.03700000 1585535.38238273 9037.55209755
0.03800000 1579481.21929995 15707.94145289
0.03900000 1573294.19812894 14159.64843889
0.04000000 1566974.26819700 11564.27063517
0.04100000 1560525.71378681 12780.70618851
0.04200000 1553950.01442003 12027.57366960
0.04300000 1547248.98371416 12254.21251983
0.04400000 1540425.45290522 14557.02120601
0.04500000 1533481.83391855 11639.12766025
0.04600000 1526418.77538897 11837.37815342
0.04700000 1519240.43068589 12032.38477063
0.04800000 1511948.18772158 12224.10166649
0.04900000 1504545.10276193 12412.49767556
0.05000000 1497032.51833996 11452.29929859
0.05100000 1489414.67402819 16264.40899805
0.05200000 1481690.79592013 16491.21932710
0.05300000 1473866.42610910 13132.15046882
0.05400000 1465942.20621168 18141.03564786
0.05500000 1457922.10787585 14695.85553294
0.05600000 1449806.93010869 17354.18976322
0.05700000 1441601.74075870 13796.12930304
0.05800000 1433305.59193758 13953.23058902
0.05900000 1424922.86866303 20518.89026710
0.06000000 1416457.09793912 20736.93288263
0.06100000 1407909.62807390 23568.40827534
0.06200000 1399283.51019387 18512.52170521
0.06300000 1390582.00639467 14684.54667411
0.06400000 1381804.40901145 17514.37170331
0.06500000 1372957.19769449 14951.50458229
0.06600000 1364041.71812001 13708.61990851
0.06700000 1355059.27450644 20732.40787020
0.06800000 1346014.05858528 16717.49539016
0.06900000 1336909.68048365 16845.06276276
0.07000000 1327745.34043256 15554.53739156
0.07100000 1318526.15142654 21360.12465357
0.07200000 1309253.82375427 15769.96304589
0.07300000 1299931.75655640 15872.16749125
0.07400000 1290562.91319442 14518.83345385
0.07500000 1281147.78900726 16065.59402719
0.07600000 1271690.02506986 19094.42662158
0.07700000 1262193.22448145 16244.42756075
0.07800000 1252658.68138724 16328.40667762
0.07900000 1243088.28511169 19392.17815731
0.08000000 1233487.40104906 17984.24715096
0.08100000 1223856.74776156 15053.43870375
0.08200000 1214197.64569098 21163.46595749
0.08300000 1204513.77119739 16694.56165231
0.08400000 1194808.15413557 22850.70702042
0.08500000 1185082.73445999 16816.32479143
0.08600000 1175339.89871690 18405.82367809
0.08700000 1165581.87619260 15385.68148822
0.08800000 1155810.61842795 20059.09422487
0.08900000 1146029.58010364 18565.68006970
0.09000000 1136240.77276054 20162.59345978
0.09100000 1126446.11231692 20208.44420438
0.09200000 1116647.55727424 21808.12781826
0.09300000 1106849.39059979 21849.20799718
0.09400000 1097050.04105418 18759.55658368
0.09500000 1087254.69727152 17222.11521427
0.09600000 1077464.26442426 25083.36925491
0.09700000 1067683.70821039 21972.93174798
0.09800000 1057911.77413136 17280.98964295
0.09900000 1048152.89466201 20438.98240700
0.10000000 1038405.92331888 23597.77571716
0.10100000 1028675.18798325 20460.35045127
0.10200000 1018962.76071685 26763.05816906
0.10300000 1009269.71375394 18893.52993024
0.10400000 999598.73961351 17318.04897853
0.10500000 989953.17204102 20462.33302883
0.10600001 980329.75793643 17307.72269076
0.10700001 970736.47860410 17298.52486275
0.10800001 961170.02389673 28287.23513453
0.10900001 951635.71089069 18842.38796246
0.11000001 942133.82359025 18823.83468136
0.11100001 932665.43868735 17235.65811828
0.11200001 923233.61686985 17213.69159691
0.11300001 913838.17568803 21877.28695597
0.11400001 904482.12392161 15602.31737227
0.11500001 895167.15174156 15575.90917374
0.11600001 885893.84871035 23321.15666553
0.11700001 876664.24981603 20172.04533827
0.11800001 867478.16184044 20129.83169359
0.11900001 858338.02278542 18540.10216543
0.12000001 849244.92628208 18496.55536570
0.12100001 840201.88777450 15375.69527059
0.12200001 831207.93758270 19936.52332216
0.12300001 822265.85894265 15294.14569691
0.12400001 813375.07931238 16775.86180125
0.12500001 804537.18629563 25849.78101373
0.12600001 795755.08563985 18190.96211495
0.12700001 787027.93475680 19644.21817729
0.12800001 778356.68901745 16567.32290654
0.12900001 769743.50597531 19512.99879616
0.13000001 761188.46838908 14957.35410886
0.13100001 752691.75264053 19374.28662623
0.13200001 744254.96863619 22271.83098634
0.13300001 735880.31583902 16270.31455023
0.13400001 727565.80348552 17679.84985823
0.13500001 719314.88259244 22011.03644511
0.13600001 711125.52083930 17536.35617075
0.13700001 703000.98119563 18917.75729601
0.13800001 694938.87776676 15938.42391317
0.13900001 686943.32874700 18753.55375918
0.14000001 679012.37161910 22977.77973924
0.14100001 671147.18622589 20013.61003716
0.14200001 663347.84885593 21343.21804360
0.14300001 655616.45285646 18409.71086455
0.14400001 647949.57169637 21139.35577373
0.14500001 640352.08559958 19633.19587062
0.14600001 632821.64554737 15349.08973683
0.14700001 625361.21229845 19436.22739517
0.14800001 617965.83797848 16573.84455651
0.14900001 610640.53820079 16487.29530931
0.15000001 603383.24932337 13666.63124201
0.15100001 596195.23281678 17671.22753451
0.15200001 589076.49720187 14871.23687359
0.15300001 582027.83725358 16133.81241001
0.15400001 575045.61898045 21391.69803557
0.15500001 568134.43586834 19941.51964008
0.15600001 561289.93283684 17183.89210479
0.15700001 554518.21889606 17084.70713053
0.15800001 547811.77742541 15678.37380991
0.15900001 541176.67284766 15585.88891368
0.16000001 534608.28833640 15492.94892729
0.16100001 528111.61806662 14116.42421728
0.16200001 521682.21669132 12755.13080022
0.16300001 515320.86084850 16479.96190792
0.16400001 509028.15336512 20157.51582489
0.16500001 502802.93819751 13771.77312741
0.16600001 496646.62690143 18661.49788689
0.16700001 490556.01965890 18543.01841861
0.16800001 484532.45563173 19652.63732835
0.16900001 478577.77740830 13424.10729016
0.17000001 472688.04309270 16974.22842898
0.17100001 466864.62853558 13249.61878350
0.17200001 461107.39287604 17948.60611529
0.17300001 455415.75051328 14263.62197967
0.17400001 449789.29595830 12987.66653415
0.17500001 444227.11160177 12900.35593017
0.17600001 438727.68132962 15142.68663627
0.17700001 433294.18058131 17353.43275189
0.17800001 427922.03397273 16085.59001679
0.17900001 422613.64225022 15974.79643161
0.18000001 417367.31674943 12464.67550349
0.18100001 412184.46926459 13503.16385095
0.18200001 407060.21548809 13408.56413157
0.18300001 401997.98703597 11095.14496632
0.18400001 396995.38102084 11016.62234376
0.18500001 392054.14719834 15313.63571302
0.18600001 387170.16392434 16290.18541672
0.18700001 382344.83471648 15094.97478777
0.18800001 377577.37858592 10704.31918865
0.18900001 372869.14386947 10626.77110237
0.19000001 368213.61662735 15823.98092222
0.19100001 363619.15241283 16755.57133489
0.19200001 359076.78391898 13513.85540134
0.19300001 354591.96442513 12382.35198282
0.19400001 350159.45182702 12290.59733991
0.19500001 345781.76652327 13215.77974103
0.19600001 341456.80501606 11099.05397155
0.19700001 337184.47619454 14020.13118273
0.19800001 332964.35435934 13914.58102626
0.19900001 328795.89512320 12823.04051582
0.20000001 324676.55605021 11746.79835306
0.20100001 320609.15754947 11657.34951945
0.20200001 316589.35162108 10604.16083374
0.20300001 312620.13533217 9566.17659331
0.20400001 308698.20249018 14238.70526286
0.20500001 304823.78657420 10360.96099539
0.20600001 300996.57933930 12149.72749932
0.20700001 297215.92832705 9273.13740214
0.20800001 293479.65609447 10120.64641882
0.20900001 289790.95138889 10041.25694029
0.21000001 286144.67434321 9962.12730819
0.21100001 282543.19173005 9883.36131394
0.21200001 278984.42481911 8913.55279435
0.21300001 275467.70523844 12379.51925866
0.21400001 271994.06726224 11403.35180908
0.21500001 268562.77674148 10441.72125337
0.21600001 265171.16639378 12083.85062387
0.21700001 261820.21446196 11986.12998477
0.21800001 258509.20892772 9341.23070626
0.21900001 255236.40855592 9265.08206865
0.22000001 252001.93300548 11695.41026377
0.22100001 248807.23012070 8285.28115478
0.22200001 245650.01699070 9038.69280256
0.22300001 242528.34604669 12223.42921874
0.22400001 239442.45305109 12929.89307617
0.22500001 236395.33659900 9616.56274759
0.22600001 233381.17949143 11125.28135245
0.22700001 230404.09030005 10243.76633916
0.22800001 227459.56461067 10157.20733802
0.22900001 224548.45844954 7746.92218287
0.23000001 221672.03881873 10753.31111164
0.23100001 218828.87516034 11422.86782359
0.23200001 216016.43807419 9814.70732807
0.23300001 213236.80725809 8981.53474649
0.23400001 210489.35132109 8161.72498349
0.23500001 207770.75177611 10297.11894504
0.23600001 205084.71585688 8748.91439225
0.23700001 202427.94227609 10840.01682159
0.23800001 199801.05718271 10744.30235819
0.23900001 197203.11464177 7099.31246290
0.24000001 194633.86797558 10554.02199018
0.24100001 192094.40462287 9762.23810470
0.24200001 189582.07100384 8292.32017795
0.24300001 187098.02733711 9586.90337424
0.24400001 184640.61321568 10178.31428499
0.24500001 182210.12034703 8068.26451063
0.24600001 179806.80677149 7328.02675663
0.24700001 177429.63943784 9240.53605905
0.24800001 175078.20057075 6539.17110066
0.24900001 172751.53122532 7126.00100016
0.25000001 170451.10053291 7700.98108640
0.25100001 168174.40587222 7628.39141126
0.25200001 165924.00048827 6296.81611643
0.25300001 163697.52452879 6860.56357758
0.25400001 161494.74866386 6177.17442864
0.25500001 159315.12615109 7341.24136037
0.25600001 157159.59359653 6664.35288177
0.25700001 155026.55271403 6599.48066128
0.25800001 152917.21350212 7723.08423334
0.25900001 150830.26116344 7058.85655644
0.26000001 148765.58423915 8736.25934780
0.26100001 146722.58005794 6342.81743602
0.26200001 144702.28827915 5708.50554272
0.26300001 142702.77966422 9041.64854735
0.26400001 140725.22032677 6153.21054995
0.26500001 138769.17573653 6090.57941128
0.26600001 136833.06843662 7124.21404527
0.26700001 134918.96994803 5966.11713342
0.26800001 133025.63686586 8051.37705230
0.26900001 131151.36101404 6905.11948415
0.27000001 129298.25887254 6307.16936627
0.27100001 127464.79311064 6760.73294653
0.27200001 125652.59304210 6174.56871429
0.27300001 123859.02211227 5599.66665469
0.27400001 122083.14394660 6043.11591135
0.27500001 120329.56699929 9465.12418810
0.27600001 118592.64654700 5913.02963667
0.27700001 116876.75738119 5848.51321615
0.27800001 115178.50229736 7712.35287884
0.27900001 113500.21318136 4767.00917923
0.28000001 111839.05798262 4714.01651707
0.28100001 110197.16375644 6525.87634652
0.28200001 108573.98344880 5530.75897865
0.28300001 106968.72041980 5012.55447612
0.28400001 105381.22058770 4955.55213269
0.28500001 103812.22282145 6234.96239777
0.28600001 102260.75698932 4842.55837644
0.28700001 100726.94800501 4786.54479576
0.28800001 99210.01672256  4730.82987134
0.28900001 97712.60011407  5100.59796738
0.29000001 96230.72356369  5040.56553886
0.29100001 94767.22236909  6641.28725799
0.29200001 93320.54523947  5742.01342038
0.29300001 91891.23081235  4457.64381771
0.29400001 90478.13265410  4804.38907136
0.29500001 89083.03523953  3955.28695187
0.29600001 87703.83491037  6251.52964834
0.29700001 86341.58622179  6175.15053890
0.29800001 84995.58875497  4193.25756973
0.29900001 83667.10565156  4518.02391906
0.30000001 82354.03777629  3718.28498162
0.30100001 81058.28244662  5140.71651613
0.30200001 79777.43199240  5076.23823799
0.30300001 78513.89592421  4296.28058836
0.30400001 77266.27450520  3888.42544856
0.30500001 76034.39485291  4885.97044456
0.30600001 74817.62783651  5168.02788748
0.30700001 73617.73000980  4421.48107372
0.30800001 72433.28413686  3357.28287869
0.30900001 71264.32171041  3976.54933971
0.31000001 70111.35843735  4251.90353374
0.31100001 68972.74615803  3227.92467302
0.31200001 67850.39812080  3822.69161111
0.31300001 66742.74700429  3772.30023929
0.31400001 65651.59346544  3722.44552574
0.31500001 64574.17500729  3672.97924832
0.31600002 63512.43673602  3624.01981175
0.31700002 62465.52289753  3575.52669995
0.31800002 61433.51320512  3527.51249526
0.31900002 60416.32419272  3189.98206842
0.32000002 59414.21668925  3432.95360285
0.32100002 58425.83832327  3950.75537449
0.32200002 57453.34956423  3061.97641001
0.32300002 56493.24826648  4118.35799363
0.32400002 55548.44103335  3249.58395432
0.32500002 54617.85865629  2937.89475624
0.32600002 53701.84495024  2897.48318149
0.32700002 52799.15309670  2597.71845537
0.32800002 51911.11849938  3074.17658311
0.32900002 51036.37639821  2778.93082647
0.33000002 50176.42191137  2740.38541246
0.33100002 49327.68710052  2702.17082733
0.33200002 48495.38509026  3149.04797996
0.33300002 47675.13280036  2627.37669305
0.33400002 46868.87451728  3297.22547843
0.33500002 46074.72162665  2554.38268795
0.33600002 45295.09225182  2518.63372394
0.33700002 44527.11939008  2483.27756599
0.33800002 43773.45242943  2448.46817759
0.33900002 43031.40595497  2414.06198840
0.34000002 42302.82451652  2596.54749179
0.34100002 41586.60082904  3413.42835770
0.34200002 40883.59060767  2734.49908730
0.34300002 40191.66201704  2281.27884413
0.34400002 39513.75822259  2249.32079335
0.34500002 38846.80221850  2217.76404369
0.34600002 38193.09679822  2584.33601725
0.34700002 37549.61904788  2156.09922784
0.34800002 36919.71939881  2126.02214227
0.34900002 36300.64973519  2477.51946177
0.35000002 35693.52191845  1879.26401801
0.35100002 35098.36801536  2223.83270278
0.35200002 34513.44506485  2010.23570301
0.35300002 33940.25909180  2523.11898039
0.35400002 33378.63382338  2488.37726939
0.35500002 32828.09792224  2103.62461449
0.35600002 32287.56453444  2247.69891153
0.35700002 31758.09029495  3410.81905923
0.35800002 31240.13254229  2018.73746050
0.35900002 30732.41988861  2323.37105363
0.36000002 30235.48161594  2128.42682917
0.36100002 29747.94011373  2099.90719209
0.36200002 29271.97194422  1753.24484264
0.36300002 28804.85066765  1730.01941304
0.36400002 28347.88001053  2483.27440655
0.36500002 27900.51369277  1838.08592915
0.36600002 27463.43044993  1965.42049325
0.36700002 27035.22826075  2089.28253896
0.36800002 26618.05710814  1767.97143687
0.36900002 26209.12224098  1745.52762393
0.37000002 25809.09381318  1867.15898036
0.37100002 25418.09455300  2127.49461487
0.37200002 25037.05314758  1540.90550896
0.37300002 24664.06538707  1522.01954713
0.37400002 24299.86003055  1503.55391062
0.37500002 23944.75721195  1485.53280780
0.37600002 23598.12330556  2135.15829783
0.37700002 23259.37890209  1450.68753085
0.37800002 22928.88716953  1694.55948654
0.37900002 22607.18808875  1417.47076031
0.38000002 22293.18105235  1783.67750050
0.38100002 21986.17005557  2015.69216618
0.38200002 21687.93986490  1495.16664512
0.38300002 21396.52578873  1478.92793258
0.38400002 21113.68164135  1585.10972432
0.38500002 20836.77217209  1568.38391569
0.38600002 20568.66055270  1194.01080165
0.38700002 20306.59714385  1772.76601464
0.38800002 20051.93670949  1287.03361867
0.38900002 19803.60897865  1506.06453418
0.39000002 19563.29223498  1376.86457273
0.39100002 19328.37421061  1477.46099466
0.39200002 19100.76052517  1463.78685220
0.39300002 18879.05933628  1562.05344349
0.39400002 18665.23008056  1658.87240200
0.39500002 18456.21373910  1644.44872206
0.39600002 18253.37817471  1413.08533834
0.39700002 18056.56990679  1293.57272941
0.39800002 17865.87469001  1069.27265086
0.39900002 17680.66042566  1166.92364338
0.40000002 17501.01699823  1052.68622232
0.40100002 17327.13393918  1462.75671645
0.40200002 17159.05503763  1244.71791140
0.40300002 16995.54008418  1132.92275569
0.40400002 16837.78286604  1432.05350061
0.40500002 16685.14451581  1524.18802374
0.40600002 16537.32921733  1615.36639449
0.40700002 16394.55625766  1003.34689051
0.40800002 16256.71282421  1496.02406853
0.40900002 16123.28076743  991.58181418
0.41000002 15994.97182123  1281.91707735
0.41100002 15870.77601590  1667.38380723
0.41200002 15750.76499718  1268.48791915
0.41300002 15635.76475808  1262.27534873
0.41400002 15524.52891165  1063.04216760
0.41500002 15417.67942269  1346.88853819
0.41600002 15314.20082385  1149.48396830
0.41700002 15215.19312013  1335.58971537
0.41800002 15120.86090553  950.34615294
0.41900002 15028.33903641  1325.49956582
0.42000002 14940.93031261  1320.92771153
0.42100002 14857.12249677  1128.54707833
0.42200002 14776.94570330  1687.67504874
0.42300002 14699.55649053  934.89183710
0.42400002 14625.49021259  1305.32506333
0.42500002 14555.02777222  1023.07295059
0.42600002 14486.97490651  927.89078673
0.42700002 14423.18364295  1111.16212051
0.42800002 14361.57726347  1201.41780291
0.42900002 14303.99136560  1568.43272756
0.43000002 14248.62083187  1013.29071848
0.43100002 14195.23979413  1011.83674047
0.43200002 14145.63107131  1102.51053794
0.43300002 14098.35438725  1376.70437115
0.43400002 14053.86796911  1283.82089982
0.43500002 14011.49155460  1099.62190931
0.43600002 13972.03001150  1099.03993279
0.43700002 13934.32909025  1007.03401107
0.43800002 13898.82292308  1189.80879271
0.43900002 13866.33679579  1189.73175346
0.44000002 13835.50024243  1006.74022285
0.44100002 13807.08033897  1556.19609875
0.44200002 13780.63728313  1190.44040812
0.44300002 13756.02066723  1007.76612184
0.44400002 13733.88651304  1008.41066501
0.44500002 13712.22641920  1376.02198638
0.44600002 13692.83586830  1193.53609502
0.44700002 13676.33640182  919.04984976
0.44800002 13659.79212080  1103.98445152
0.44900002 13646.61370907  1013.26111592
0.45000002 13634.42123788  1291.31609664
0.45100002 13623.37719761  1016.03151955
0.45200002 13614.10872818  1480.12597107
0.45300002 13605.83887859  1297.18074016
0.45400002 13599.38269123  928.15791266
0.45500002 13594.33219955  1022.83760317
0.45600002 13590.28055058  1024.77515348
0.45700002 13587.59569477  1306.85501586
0.45800002 13585.64456201  1122.44600691
0.45900002 13584.93570053  1218.56879009
0.46000002 13586.19752901  1033.43416402
0.46100002 13587.15318202  1224.06668818
0.46200002 13590.23853225  1604.53158836
0.46300002 13594.10420853  1040.76466753
0.46400002 13598.18810895  1138.16839866
0.46500002 13603.72980047  1045.99083393
0.46600002 13609.85171121  1048.70717331
0.46700002 13616.41233658  1051.45941047
0.46800002 13624.89349613  1054.36243317
0.46900002 13632.90024255  1249.45536645
0.47000002 13641.99021678  1349.32931629
0.47100002 13651.71839255  1353.15839121
0.47200002 13662.37944198  1357.08421429
0.47300002 13673.61622557  1458.29123958
0.47400002 13684.66036458  1267.54172635
0.47500002 13696.68678106  1760.29826854
0.47600002 13709.80271941  1177.12371728
0.47700002 13722.35569977  1377.45013043
