# SAXS profile: number of points = 501, q_min = 0, q_max = 0.5, delta_q = 0.001
#    q    intensity    error
0.00000000 1682732.95097188 277.65093691
0.00100000 1682645.77373884 858.14936499
0.00200000 1682384.19439256 757.07291145
0.00300000 1681948.45907235 1311.91984481
0.00400000 1681338.40477002 1513.20462179
0.00500000 1680554.71671192 1663.74923540
0.00600000 1679597.21981834 2469.00801365
0.00700000 1678466.69591629 2618.40815445
0.00800000 1677162.89382947 2717.00400272
0.00900000 1675687.22253778 3518.94331776
0.01000000 1674039.09464943 3038.38108798
0.01100000 1672220.21429934 3310.99616847
0.01200000 1670230.18585709 4234.03370678
0.01300000 1668070.64340923 3853.24335622
0.01400000 1665741.56275661 5247.08615529
0.01500000 1663244.74780757 4390.96632974
0.01600000 1660579.56365114 5081.37369193
0.01700000 1657748.48936650 5818.69745870
0.01800000 1654751.90501666 7545.66902641
0.01900000 1651590.68183339 6441.20394979
0.02000000 1648265.91127113 8826.46435413
0.02100000 1644780.01713545 5427.77430263
0.02200000 1641131.76663556 6794.28582255
0.02300000 1637324.38207503 5894.36804377
0.02400000 1633358.34666873 6125.09407930
0.02500000 1629236.12404397 7624.82540876
0.02600000 1624958.02172652 7239.18831790
0.02700000 1620526.02086185 12251.17727883
0.02800000 1615940.70469060 7732.27662654
0.02900000 1611205.34556748 8700.50926554
0.03000000 1606320.52803932 7469.39079872
0.03100000 1601288.08507844 9223.41979445
0.03200000 1596109.02596795 8690.81404668
0.03300000 1590787.73459933 8113.01782047
0.03400000 1585322.48032528 9155.23774630
0.03500000 1579717.58015800 14501.80805552
0.03600000 1573973.51608918 13103.33012700
0.03700000 1568093.45771767 9831.94643459
0.03800000 1562078.92319064 14621.05939772
0.03900000 1555932.29481729 14936.95072198
0.04000000 1549653.87501235 9530.37177295
0.04100000 1543247.66953439 15555.93723018
0.04200000 1536715.41202428 13876.54081435
0.04300000 1530058.61560329 12118.06479807
0.04400000 1523280.25800747 11310.35644098
0.04500000 1516382.77146586 11509.34577021
0.04600000 1509366.80327497 11705.14010353
0.04700000 1502236.38321791 10816.10246220
0.04800000 1494993.03286456 13185.83916338
0.04900000 1487639.56877621 12273.02701368
0.05000000 1480177.62082570 13588.03119192
0.05100000 1472611.21749665 13783.64163787
0.05200000 1464939.59677299 13975.52440449
0.05300000 1457168.41438501 14163.67764810
0.05400000 1449298.19560362 16739.39493984
0.05500000 1441333.02993039 16950.07722269
0.05600000 1433273.32107474 15930.83370714
0.05700000 1425124.58001545 12398.58442488
0.05800000 1416885.76918671 12539.43964280
0.05900000 1408561.09032761 19015.57560756
0.06000000 1400154.10209755 15373.69275927
0.06100000 1391666.26362273 16825.24591347
0.06200000 1383100.46541645 15684.36001096
0.06300000 1374460.08412152 14514.29916694
0.06400000 1365744.29313177 21305.61196925
0.06500000 1356959.68750198 18807.46214855
0.06600000 1348107.51651355 18967.87364482
0.06700000 1339189.11396275 15025.70256185
0.06800000 1330208.41701713 15144.42353664
0.06900000 1321169.50094560 15259.50845036
0.07000000 1312071.29514798 15370.91594246
0.07100000 1302918.73768870 18292.97993395
0.07200000 1293713.79514736 14166.16672050
0.07300000 1284459.80727379 18534.75588742
0.07400000 1275159.48135115 15780.09932124
0.07500000 1265813.86914486 14430.27878463
0.07600000 1256425.73917342 18865.23335810
0.07700000 1246999.44051961 14589.89413818
0.07800000 1237536.02167436 17597.76305348
0.07900000 1228037.06503000 14736.44547155
0.08000000 1218508.46632863 20726.82998457
0.08100000 1208950.40771482 16357.09978383
0.08200000 1199364.77737796 20904.92905067
0.08300000 1189754.62722619 17989.09080792
0.08400000 1180123.29380287 22569.85905338
0.08500000 1170472.65091296 19628.82727729
0.08600000 1160805.17569540 16663.35907948
0.08700000 1151122.81964027 18233.78631932
0.08800000 1141427.76337591 15238.06135671
0.08900000 1131723.54357732 16806.09541150
0.09000000 1122011.90445032 15315.46321520
0.09100000 1112294.59033185 19954.56588804
0.09200000 1102573.97492901 16918.99844025
0.09300000 1092854.16638737 18491.09336421
0.09400000 1083133.59239068 18521.58530035
0.09500000 1073417.40452199 18548.65362198
0.09600000 1063706.58096246 17024.62462859
0.09700000 1054005.83026444 15493.88643330
0.09800000 1044314.14783515 21711.29215431
0.09900000 1034635.64641009 18623.44251110
0.10000000 1024969.53140165 17081.11804409
0.10100000 1015320.02156839 18641.27647273
0.10200000 1005689.08703094 18645.47655057
0.10300000 996077.64729956 18646.57443460
0.10400000 986488.89205686 21752.08109318
0.10500000 976925.49827696 26406.29746083
0.10600001 967384.46358771 18631.82564539
0.10700001 957873.79363056 17069.31180574
0.10800001 948390.38504406 15506.18352522
0.10900001 938939.22040047 18590.99743893
0.11000001 929520.62043887 20119.47477641
0.11100001 920135.66315401 18549.93584239
0.11200001 910787.61113820 15437.85073556
0.11300001 901476.04497884 27747.43397082
0.11400001 892204.00853524 15390.51987189
0.11500001 882973.12531354 16900.10641429
0.11600001 873784.07087535 18401.89339921
0.11700001 864638.59032126 16834.51414638
0.11800001 855537.05799797 18325.60464542
0.11900001 846481.36234305 19807.66481180
0.12000001 837472.84019342 19760.17259516
0.12100001 828514.58378084 19710.36287666
0.12200001 819605.43432844 19658.23726849
0.12300001 810747.81364880 25635.84707539
0.12400001 801941.99434124 19547.33703309
0.12500001 793188.87542703 20987.77863275
0.12600001 784491.55176082 16439.02124181
0.12700001 775849.09699918 20854.82471015
0.12800001 767262.73848528 14846.53468940
0.12900001 758734.10332467 16274.84728338
0.13000001 750263.71921330 20639.75588841
0.13100001 741851.71191686 22032.99688251
0.13200001 733499.57520925 16096.64893677
0.13300001 725209.40042555 16034.38059932
0.13400001 716979.28400072 23230.12989682
0.13500001 708812.53703372 15905.75408096
0.13600001 700707.64498574 20159.35989677
0.13700001 692667.06730162 17205.85076308
0.13800001 684689.05410749 17130.92094159
0.13900001 676777.16105975 15633.55315773
0.14000001 668929.95231831 15562.65607463
0.14100001 661148.27048799 21123.68823835
0.14200001 653432.23869890 15417.73439928
0.14300001 645784.09280677 15343.83076882
0.14400001 638200.27096276 16657.02785784
0.14500001 630685.38701398 16574.41275258
0.14600001 623237.53530645 17865.10479233
0.14700001 615859.55955666 15039.29115388
0.14800001 608546.26200609 17681.31247677
0.14900001 601302.75695001 14882.24393667
0.15000001 594127.21101753 16148.37835738
0.15100001 587020.55568700 21414.51088190
0.15200001 579982.91030841 15972.73010360
0.15300001 573015.05355929 13236.64836184
0.15400001 566113.56971151 15794.56934031
0.15500001 559282.61387027 20939.54205150
0.15600001 552518.20024641 15614.16507587
0.15700001 545826.12770295 12936.07983710
0.15800001 539199.03782350 16717.86695678
0.15900001 532643.02240923 15340.11976945
0.16000001 526153.33155330 12706.60355679
0.16100001 519735.21690066 16418.43627691
0.16200001 513383.81301445 13807.45830282
0.16300001 507100.23091062 14969.59952316
0.16400001 500884.87456587 13636.59135383
0.16500001 494736.67158658 25869.78177861
0.16600001 488656.85178520 14689.02565818
0.16700001 482642.57971756 17027.63101639
0.16800001 476694.74490436 14501.05482468
0.16900001 470815.61463589 14406.95848813
0.17000001 465000.92282080 14312.72908027
0.17100001 459252.17634060 13033.57738001
0.17200001 453569.25242758 11770.12265631
0.17300001 447951.47496850 12860.68745368
0.17400001 442398.33496328 12774.25252534
0.17500001 436909.08415426 19608.48062290
0.17600001 431482.43264723 13747.03095340
0.17700001 426120.92725114 14790.65808346
0.17800001 420820.35939922 11299.02718355
0.17900001 415583.30405729 11220.74973954
0.18000001 410407.66113317 18942.36649434
0.18100001 405295.15618593 12171.01411518
0.18200001 400240.76923652 14282.59252488
0.18300001 395247.87821100 11999.72614934
0.18400001 390314.32113145 12997.46750769
0.18500001 385441.52727718 16130.72867860
0.18600001 380625.42064944 16014.81533042
0.18700001 375867.57067601 13779.30579198
0.18800001 371167.10708868 13679.36437805
0.18900001 366525.42070631 13579.76747878
0.19000001 361936.01147613 14517.25410623
0.19100001 357406.99480313 13381.31851770
0.19200001 352929.58091556 14304.23659040
0.19300001 348509.32965884 12169.94636675
0.19400001 344140.75012254 14092.56438345
0.19500001 339826.63342219 12988.17454315
0.19600001 335564.76982580 15865.50306711
0.19700001 331354.86835718 13777.73607739
0.19800001 327196.75375392 10743.50591723
0.19900001 323089.58924699 14539.03220323
0.20000001 319031.32771257 11542.55398216
0.20100001 315024.26325870 14317.85344180
0.20200001 311064.40594572 11366.29393047
0.20300001 307154.45264985 12218.60470392
0.20400001 303291.46612195 11191.45562887
0.20500001 299475.36297328 12029.92589925
0.20600001 295705.91002473 11936.16962235
0.20700001 291982.46638045 10931.82405802
0.20800001 288303.03295162 9942.13056130
0.20900001 284670.61424471 10760.54972712
0.21000001 281080.04978295 9785.80239579
0.21100001 277533.60462979 9708.12594889
0.21200001 274029.50921627 9630.76755669
0.21300001 270566.81846104 9553.71481152
0.21400001 267146.79696304 11200.12999218
0.21500001 263768.54520749 8546.10126876
0.21600001 260429.42549202 9324.67602060
0.21700001 257130.62870100 10089.80634727
0.21800001 253870.97860123 9173.62824549
0.21900001 250649.05487832 8271.41920207
0.22000001 247465.13529414 8203.46962288
0.22100001 244320.21657438 11390.20903527
0.22200001 241212.40469801 8875.41085053
0.22300001 238139.51245290 9601.78559613
0.22400001 235102.16772087 15075.92721799
0.22500001 232102.64249697 9441.93594326
0.22600001 229135.65783120 9362.48342172
0.22700001 226205.38156774 10057.09174009
0.22800001 223307.25490252 8437.66502551
0.22900001 220441.90990618 8365.77087656
0.23000001 217610.61006524 8294.22879489
0.23100001 214812.26376561 8970.56055909
0.23200001 212044.01041547 10375.31392031
0.23300001 209308.01373203 7346.71162945
0.23400001 206603.78165153 8011.06201242
0.23500001 203927.96832358 8662.86050411
0.23600001 201284.12596218 7155.65101640
0.23700001 198669.11167224 7801.73638437
0.23800001 196083.34150945 7029.58812560
0.23900001 193526.23010582 8360.33353601
0.24000001 190997.31511207 10356.82990183
0.24100001 188497.59850180 8895.20209405
0.24200001 186024.65472895 8136.71878273
0.24300001 183579.41955120 9406.60990276
0.24400001 181160.39313874 12649.52504928
0.24500001 178767.73391284 7915.83563211
0.24600001 176401.82616173 7842.82556216
0.24700001 174061.69209522 7770.11430270
0.24800001 171746.78947888 6414.74289050
0.24900001 169456.22813264 10167.37416895
0.25000001 167191.32635217 8183.17985544
0.25100001 164949.77452970 7482.12212664
0.25200001 162734.27592858 7410.91927640
0.25300001 160542.02305803 7951.64677826
0.25400001 158373.08210462 6663.54774481
0.25500001 156227.01071901 6599.02924498
0.25600001 154104.41175748 7722.94296062
0.25700001 152003.94533525 7059.06355536
0.25800001 149926.81180866 6407.12260579
0.25900001 147871.53777518 8650.48536914
0.26000001 145838.27282095 6851.48238131
0.26100001 143826.17024297 7348.07938540
0.26200001 141836.51102420 8393.17593700
0.26300001 139867.20046395 10523.60866086
0.26400001 137919.36727910 6030.52461963
0.26500001 135992.76449820 7596.55618433
0.26600001 134085.66097574 8055.19646429
0.26700001 132200.12359987 9034.55687433
0.26800001 130334.93262696 6836.71921447
0.26900001 128488.71745923 5724.17263369
0.27000001 126663.16272045 6178.62936989
0.27100001 124856.87520058 5094.16074925
0.27200001 123071.49500741 6551.71134677
0.27300001 121304.41864943 6481.29539516
0.27400001 119554.63949171 4931.62911242
0.27500001 117826.82605544 6829.24316137
0.27600001 116115.39549622 5307.05440232
0.27700001 114424.69579826 5725.81204873
0.27800001 112751.32486455 4718.64316890
0.27900001 111097.46914999 6999.14088770
0.28000001 109460.51767597 5997.88934993
0.28100001 107842.48153777 6842.60577743
0.28200001 106242.99518072 4961.01689477
0.28300001 104660.86492313 4458.55305675
0.28400001 103096.41041276 5729.58327987
0.28500001 101550.06796456 4356.49812188
0.28600001 100021.08230229 4736.49857661
0.28700001 98509.38696611  6383.40857755
0.28800001 97014.42486898  4205.57551713
0.28900001 95538.48203679  4155.92416532
0.29000001 94078.00422844  4927.80609474
0.29100001 92635.60936874  4057.43988241
0.29200001 91209.73576185  4008.66807648
0.29300001 89800.96523317  4752.26730509
0.29400001 88408.21486897  5476.88917039
0.29500001 87033.22279080  4637.13032980
0.29600001 85673.82032953  6870.18397744
0.29700001 84331.30759573  4523.53155357
0.29800001 83004.75950902  5956.42182434
0.29900001 81695.42224857  4779.18242778
0.30000001 80401.31338157  5082.16725944
0.30100001 79124.30958161  5018.06395122
0.30200001 77861.94565872  3892.70815749
0.30300001 76616.78053711  3843.09789368
0.30400001 75387.29765130  3793.86593391
0.30500001 74173.47825059  3404.56281288
0.30600001 72974.40720534  5376.75457744
0.30700001 71792.16570650  3980.15785520
0.30800001 70625.06206089  4910.20767225
0.30900001 69473.41039538  3553.56510996
0.31000001 68337.39451486  3506.73356556
0.31100001 67215.75292424  3460.26712437
0.31200001 66110.09545700  4035.02986726
0.31300001 65019.01386781  3981.11440762
0.31400001 63944.26922088  3021.36686374
0.31500001 62883.23263691  3278.73190493
0.31600002 61837.63036414  3822.49330195
0.31700002 60806.64242389  2900.47698095
0.31800002 59790.44242379  3433.16736653
0.31900002 58789.03551849  3386.24860620
0.32000002 57802.44071427  4174.78147826
0.32100002 56829.48053227  4666.26886745
0.32200002 55872.32146879  3248.41692401
0.32300002 54927.44545803  3203.36877079
0.32400002 53997.88484427  2632.39701081
0.32500002 53082.21779875  3374.43674525
0.32600002 52181.00996032  2815.42652573
0.32700002 51293.09773123  3028.34463345
0.32800002 50419.78545635  3732.32479514
0.32900002 49559.55395336  2698.51784054
0.33000002 48714.08730151  3869.84727848
0.33100002 47879.69082605  2861.29045926
0.33200002 47061.70659127  3526.09853333
0.33300002 46255.68660120  3012.63301100
0.33400002 45463.46302279  2284.53912508
0.33500002 44683.41455686  2702.45304038
0.33600002 43917.63401215  2220.03650445
0.33700002 43163.64510022  2407.23660124
0.33800002 42423.79018302  2372.97481626
0.33900002 41695.43542716  3189.70096123
0.34000002 40980.53410668  2515.38530259
0.34100002 40277.90759300  2892.75946033
0.34200002 39588.43583343  2240.50763210
0.34300002 38910.07533936  2208.53598086
0.34400002 38245.52662600  1979.20609663
0.34500002 37591.95586375  2731.43164242
0.34600002 36951.54285596  2115.66068642
0.34700002 36321.36332003  1895.97525510
0.34800002 35704.65642783  2803.70827878
0.34900002 35098.80865446  2211.22504996
0.35000002 34504.72102310  1816.67364791
0.35100002 33922.67719810  2328.45267316
0.35200002 33350.74225122  2825.47501735
0.35300002 32790.57803738  1915.29775388
0.35400002 32241.91565837  2231.94671716
0.35500002 31704.31959621  2200.91397061
0.35600002 31176.62445730  2337.31164627
0.35700002 30660.13003044  1646.44906062
0.35800002 30154.93678919  2273.38079222
0.35900002 29660.02274893  1761.80543474
0.36000002 29175.78826585  1895.84281131
0.36100002 28701.02169877  1558.46555206
0.36200002 28237.72063103  1537.54396119
0.36300002 27783.24687969  2123.75149208
0.36400002 27338.93276111  1646.48730353
0.36500002 26904.18418062  1772.44773778
0.36600002 26479.70593583  1749.24945698
0.36700002 26064.19057233  1726.49206529
0.36800002 25659.47707389  2272.40339730
0.36900002 25263.06722498  1682.52035688
0.37000002 24875.58706269  1661.19178274
0.37100002 24497.15355921  1640.32948003
0.37200002 24128.50164454  1889.98562335
0.37300002 23767.94839855  1733.39655882
0.37400002 23416.18158107  1712.30835923
0.37500002 23073.51146985  1301.34610855
0.37600002 22739.24885823  1414.49504223
0.37700002 22412.84714779  1270.80849348
0.37800002 22094.78176305  1884.13260410
0.37900002 21785.37730150  1614.29653451
0.38000002 21483.68336308  1227.79256236
0.38100002 21188.97460932  1456.95396316
0.38200002 20902.99588554  1200.87717051
0.38300002 20623.85362487  1425.52083008
0.38400002 20353.27887912  1292.94210205
0.38500002 20088.61058334  2209.94815497
0.38600002 19832.69229597  1266.41662656
0.38700002 19582.83696674  1139.72116546
0.38800002 19340.31983790  1354.20925921
0.38900002 19104.16120326  1229.35283167
0.39000002 18875.93084760  2103.43945365
0.39100002 18653.16391045  1206.48669889
0.39200002 18437.59073075  1195.58562758
0.39300002 18228.02603789  1185.00402887
0.39400002 18026.16778868  1815.68583654
0.39500002 17829.15915108  1059.05210375
0.39600002 17638.33197800  1155.39899096
0.39700002 17453.53738867  1562.96434721
0.39800002 17274.68418153  1344.05686642
0.39900002 17101.43138009  1641.73749027
0.40000002 16933.72016519  1324.13231105
0.40100002 16771.73854316  1517.00382310
0.40200002 16615.43967061  1104.84371324
0.40300002 16463.72259400  997.70163647
0.40400002 16317.71701311  1090.43149107
0.40500002 16176.81561364  985.16811755
0.40600002 16040.82154482  1077.22142188
0.40700002 15909.63391442  1168.40357003
0.40800002 15783.41579988  1258.80638676
0.40900002 15661.56994143  1252.14257615
0.41000002 15544.83118052  1150.00666522
0.41100002 15432.17509249  953.70846590
0.41200002 15323.67521310  1044.23189687
0.41300002 15220.12875458  1134.20404853
0.41400002 15120.32214762  1129.48811795
0.41500002 15024.80855706  1218.81252790
0.41600002 14932.68390047  1120.84730668
0.41700002 14844.94882979  1023.85616930
0.41800002 14761.80031683  1298.89087142
0.41900002 14680.49059145  1017.35804619
0.42000002 14604.20548490  922.25562007
0.42100002 14531.45579290  1011.82531480
0.42200002 14462.31613558  1376.45100343
0.42300002 14395.90922085  1190.25383078
0.42400002 14332.73702206  1279.19683983
0.42500002 14273.18046961  1003.26190275
0.42600002 14215.95226926  1001.58496459
0.42700002 14162.91634248  1182.03705396
0.42800002 14111.94332026  1180.53467440
0.42900002 14065.04045145  997.91466732
0.43000002 14020.22192434  906.40739036
0.43100002 13977.33792649  1086.87784867
0.43200002 13938.22305624  1176.87391952
0.43300002 13901.32487230  1357.46443811
0.43400002 13867.10407012  1085.79430014
0.43500002 13834.97557485  1085.76893457
0.43600002 13805.69162773  904.96312908
0.43700002 13778.07043720  995.74119768
0.43800002 13752.61275008  996.17055176
0.43900002 13730.10086855  996.80537029
0.44000002 13709.04805448  997.53892896
0.44100002 13690.46191048  907.67766768
0.44200002 13673.68986091  908.61673432
0.44300002 13658.72597155  1182.57255066
0.44400002 13646.18935620  910.88318269
0.44500002 13633.97547255  912.11300234
0.44600002 13623.96202529  1004.83536680
0.44700002 13616.76551244  1189.56069154
0.44800002 13609.51935947  1283.24164122
0.44900002 13605.37798106  1102.03566869
0.45000002 13602.24753147  1012.21129802
0.45100002 13600.16744959  1106.50967614
0.45200002 13599.72268731  924.10120040
0.45300002 13600.23797764  1389.26437526
0.45400002 13602.48778483  1114.04380238
0.45500002 13605.96575804  1209.84253254
0.45600002 13610.42250398  1026.29395755
0.45700002 13616.08386149  1403.13750843
0.45800002 13622.40858941  1406.85431375
0.45900002 13629.91829671  1504.74305127
0.46000002 13639.20078251  1226.09601245
0.46100002 13648.16141707  1040.39939413
0.46200002 13659.15732481  1612.66848599
0.46300002 13670.72399997  1141.77892259
0.46400002 13682.48752648  1336.09497029
0.46500002 13695.60525837  1340.25199411
0.46600002 13709.19864415  1152.39529265
0.46700002 13723.15212438  1156.03838975
0.46800002 13738.82981364  1063.17939552
0.46900002 13753.97417799  1260.55179316
0.47000002 13770.09804129  1070.14322000
0.47100002 13786.74292217  1366.54202322
0.47200002 13804.21212042  1175.29067564
0.47300002 13822.13255247  1572.40587370
0.47400002 13839.77185758  1183.30054991
0.47500002 13858.23817275  989.47825243
0.47600002 13877.72114660  1092.24609461
0.47700002 13896.46914138  1693.84070393
