# SAXS profile: number of points = 501, q_min = 0, q_max = 0.5, delta_q = 0.001
#    q    intensity    error
0.00000000 1664650.74656090 349.57665678
0.00100000 1664563.95741064 649.17995881
0.00200000 1664303.54489183 973.61760459
0.00300000 1663869.75367286 1098.15407654
0.00400000 1663262.41387361 1496.93622937
0.00500000 1662482.22326265 2244.35109024
0.00600000 1661528.99622527 2093.52662048
0.00700000 1660403.50955395 3586.47172969
0.00800000 1659105.53231650 2239.79256319
0.00900000 1657636.43267320 2735.10023083
0.01000000 1655995.68668614 4098.58950152
0.01100000 1654184.94103865 3275.28632586
0.01200000 1652203.81415439 5799.23564194
0.01300000 1650053.96103934 4504.64751231
0.01400000 1647735.33744972 3707.40467361
0.01500000 1645249.71348887 4738.31938584
0.01600000 1642596.50617069 6701.79404477
0.01700000 1639778.19731283 4427.40133135
0.01800000 1636795.12274130 5131.35294069
0.01900000 1633648.15846353 6371.22810549
0.02000000 1630338.42907417 6676.23616906
0.02100000 1626868.25168432 6442.39856876
0.02200000 1623236.56021838 6720.19966462
0.02300000 1619446.46176559 6413.00828050
0.02400000 1615498.49631254 7875.55552863
0.02500000 1611395.01122895 6912.88491389
0.02600000 1607136.50527939 7159.79345850
0.02700000 1602724.72122150 8077.73296493
0.02800000 1598160.47207050 10427.99755848
0.02900000 1593446.86297520 10755.76681893
0.03000000 1588584.51151488 7386.91831809
0.03100000 1583575.33811814 8361.27816999
0.03200000 1578420.23747500 7813.18053536
0.03300000 1573123.52585426 8022.93035172
0.03400000 1567683.68659781 12345.50960158
0.03500000 1562104.95221710 9278.90384465
0.03600000 1556387.69889458 13820.72340489
0.03700000 1550535.17011588 11489.46614192
0.03800000 1544548.91731488 13553.41737668
0.03900000 1538431.22230730 9230.58776131
0.04000000 1532182.44686498 11307.50698184
0.04100000 1525806.71341265 10573.84101422
0.04200000 1519305.48218686 13719.32914063
0.04300000 1512680.42357282 10982.06038490
0.04400000 1505934.47311170 13214.57561527
0.04500000 1499070.15211046 12412.30143621
0.04600000 1492087.94412984 10519.22049512
0.04700000 1484992.08470561 12830.33220857
0.04800000 1477783.81887202 11947.88273149
0.04900000 1470466.16602911 14337.04578614
0.05000000 1463040.72223158 12311.48825088
0.05100000 1455511.53150639 12488.28952208
0.05200000 1447877.59214418 16114.87835154
0.05300000 1440144.92179751 12831.69185140
0.05400000 1432313.76796305 14179.90696410
0.05500000 1424388.24065183 15554.32031352
0.05600000 1416368.84327611 14531.94501013
0.05700000 1408261.05599974 13477.05893501
0.05800000 1400063.83095733 12390.56548252
0.05900000 1391781.45792409 13778.63707699
0.06000000 1383417.29262048 15189.92258263
0.06100000 1374972.85508312 14065.97296482
0.06200000 1366451.06450271 16786.85211209
0.06300000 1357855.22301448 15642.49290050
0.06400000 1349184.63756716 13154.55083147
0.06500000 1340445.97390884 17251.54049120
0.06600000 1331640.24354948 16059.58208861
0.06700000 1322768.78531930 13492.24224168
0.06800000 1313835.45809135 13598.19762776
0.06900000 1304844.57743208 20551.30305674
0.07000000 1295795.11636545 15180.24049909
0.07100000 1286691.92139257 13896.27340191
0.07200000 1277536.68426159 15387.93008281
0.07300000 1268332.95123184 15486.34606016
0.07400000 1259083.41911845 18414.09586757
0.07500000 1249789.10949690 15672.35616769
0.07600000 1240452.87654975 14327.23139582
0.07700000 1231078.91309699 15843.98635446
0.07800000 1221668.48190009 23162.83550308
0.07900000 1212222.79223915 16001.34160808
0.08000000 1202748.15419501 16074.72983490
0.08100000 1193244.46275870 14676.90758055
0.08200000 1183713.72287569 19158.40750375
0.08300000 1174158.86000443 20712.16326254
0.08400000 1164583.52919788 14848.44069424
0.08500000 1154989.16529923 16389.29702499
0.08600000 1145378.36078128 22420.78246498
0.08700000 1135753.19214316 17990.33140833
0.08800000 1126115.71249975 16537.01001470
0.08900000 1116469.60463777 19594.04248172
0.09000000 1106816.47063815 19640.45919409
0.09100000 1097158.01735910 24225.25016142
0.09200000 1087496.85095917 18204.69814044
0.09300000 1077836.77440499 21276.49892658
0.09400000 1068176.38664429 19787.96849257
0.09500000 1058520.70999458 16766.96883441
0.09600000 1048870.89713455 21365.50117898
0.09700000 1039231.45293526 15276.70307635
0.09800000 1029601.62272743 18347.50177966
0.09900000 1019985.04863569 16829.75409387
0.10000000 1010381.55364331 18368.73750907
0.10100000 1000794.80430232 19905.80959378
0.10200000 991226.83148784 16845.90079350
0.10300000 981679.15446818 24502.71284815
0.10400000 972154.16289109 27560.57181455
0.10500000 962654.93528350 16836.83561027
0.10600001 953178.38207436 15298.51375214
0.10700001 943732.60763943 16817.31585952
0.10800001 934314.12358753 19858.84763144
0.10900001 924928.44529487 16787.45207221
0.11000001 915575.53013625 19817.63328261
0.11100001 906256.57448128 19792.64451838
0.11200001 896974.84686186 15203.72437006
0.11300001 887729.84963444 19734.23548648
0.11400001 878524.73623937 19700.91813777
0.11500001 869360.70951398 15126.87705784
0.11600001 860239.15992561 25665.23654499
0.11700001 851161.27318587 22598.33286735
0.11800001 842127.62755013 22547.96828963
0.11900001 833139.90588652 29993.03802464
0.12000001 824199.59228166 16455.14563502
0.12100001 815309.85197555 17904.20519282
0.12200001 806469.50563679 19343.17200398
0.12300001 797680.69340969 19287.92007539
0.12400001 788943.95690939 16271.96987795
0.12500001 780260.22580530 16221.61085886
0.12600001 771632.51376452 19109.48010388
0.12700001 763059.56794626 16115.81883451
0.12800001 754543.19836854 20440.57620715
0.12900001 746084.45497020 18913.24182492
0.13000001 737684.25834500 14495.49635972
0.13100001 729342.49428450 17329.17848106
0.13200001 721060.85932718 14385.16482170
0.13300001 712841.19323403 14328.10865947
0.13400001 704681.85204606 15696.78899436
0.13500001 696585.90678226 22736.56506936
0.13600001 688551.95379123 16979.69198110
0.13700001 680582.51647453 16905.67050638
0.13800001 672675.75126674 15427.81908281
0.13900001 664835.03350952 20942.30454315
0.14000001 657059.03733135 18065.83908342
0.14100001 649348.89067354 17980.47163076
0.14200001 641704.31122172 19270.38137488
0.14300001 634127.76518913 13697.16037415
0.14400001 626615.40150558 20443.32843843
0.14500001 619172.38870663 16271.85114279
0.14600001 611796.31791465 13490.10944640
0.14700001 604490.15140360 13419.68199425
0.14800001 597248.56960544 13348.50616045
0.14900001 590076.84235129 22570.44028483
0.15000001 582973.34663358 15845.21630912
0.15100001 575938.59108853 18383.96069499
0.15200001 568972.87968259 13057.92820488
0.15300001 562076.94964273 19475.96722417
0.15400001 555247.40801119 12909.50284547
0.15500001 548488.27779331 16685.01419789
0.15600001 541795.76532749 15311.14905076
0.15700001 535175.58515702 13952.02816353
0.15800001 528620.35409433 17650.63445630
0.15900001 522136.19403137 15037.52309788
0.16000001 515718.37121969 17436.43895398
0.16100001 509372.04005243 13615.51527331
0.16200001 503092.24142528 17220.84823692
0.16300001 496880.35582269 12223.25733027
0.16400001 490736.53803714 14574.87586778
0.16500001 484660.05230623 13274.83945939
0.16600001 478651.65620314 15587.29192018
0.16700001 472708.66383344 15485.93655835
0.16800001 466832.12142483 14201.03380427
0.16900001 461024.27598535 11756.11959273
0.17000001 455280.60736822 15181.33256955
0.17100001 449602.96334423 15079.68410265
0.17200001 443990.99607894 11521.56689233
0.17300001 438444.13498624 14876.41020261
0.17400001 432961.51829596 13638.28847041
0.17500001 427543.04019096 13544.56415293
0.17600001 422186.90453088 11209.06284469
0.17700001 416895.73450596 13357.33996445
0.17800001 411665.32496359 13263.85739681
0.17900001 406498.32897050 13170.54648074
0.18000001 401392.78706008 16346.72202516
0.18100001 396350.15468102 10820.35973391
0.18200001 391365.34552046 15040.17093882
0.18300001 386441.90915067 12798.95663568
0.18400001 381577.74281980 12706.53943617
0.18500001 376773.99429002 16819.19189968
0.18600001 372026.90137007 12522.42609172
0.18700001 367337.98640051 11394.82487649
0.18800001 362706.21824801 11310.99395046
0.18900001 358132.80941523 10206.78555058
0.19000001 353611.83427676 11144.07748378
0.19100001 349150.84271145 12066.65369426
0.19200001 344741.34066503 12974.34096898
0.19300001 340388.88564077 11886.38044824
0.19400001 336087.70154266 9830.56573466
0.19500001 331841.01376148 12682.96414530
0.19600001 327646.16552019 9681.94464865
0.19700001 323503.13170462 10568.84781225
0.19800001 319411.65476707 11441.32601446
0.19900001 315370.92036949 12299.46647568
0.20000001 311378.86050390 12204.49501425
0.20100001 307437.78673974 13973.04806772
0.20200001 303543.67396248 11091.48637081
0.20300001 299699.22417227 11004.95603175
0.20400001 295901.42652600 10918.76315489
0.20500001 292150.37969994 9027.44715943
0.20600001 288445.69396148 9851.86314293
0.20700001 284786.77961080 8885.34794386
0.20800001 281171.82422811 13222.10565934
0.20900001 277603.12875011 8744.49896899
0.21000001 274076.41694786 10409.42280776
0.21100001 270593.52693905 12907.31184517
0.21200001 267152.69867274 9389.08203872
0.21300001 263752.94316331 12699.70481370
0.21400001 260395.63765417 9237.53568250
0.21500001 257079.75060430 9162.32274471
0.21600001 253802.83122505 12391.92382044
0.21700001 250565.93749509 10651.55850652
0.21800001 247367.87777728 9751.24220302
0.21900001 244207.15577563 11282.37113028
0.22000001 241084.31583535 12787.11271651
0.22100001 238000.17353234 13473.19046073
0.22200001 234952.76744653 8645.08748697
0.22300001 231939.92267577 8572.49994745
0.22400001 228962.53063325 7727.48577428
0.22500001 226022.52613402 11493.24599740
0.22600001 223114.84441351 9876.17905499
0.22700001 220243.39958600 9038.78954645
0.22800001 217404.05630725 7467.82968731
0.22900001 214596.95269356 9624.67378347
0.23000001 211823.73041580 8073.66186662
0.23100001 209083.02579181 9458.91653416
0.23200001 206372.24877695 8655.25252304
0.23300001 203693.29522994 7149.63500071
0.23400001 201045.85592549 10630.30013482
0.23500001 198426.54118650 8429.15986827
0.23600001 195838.80957402 7658.27701061
0.23700001 193279.69714089 8280.10261715
0.23800001 190749.45075836 7522.20494645
0.23900001 188247.46242417 7454.59986460
0.24000001 185773.43615194 8058.85204146
0.24100001 183328.29328160 9316.74430526
0.24200001 180909.46461195 11869.47053464
0.24300001 178518.29936439 7840.52407896
0.24400001 176152.75789632 7120.97557481
0.24500001 173813.31272234 8337.82500571
0.24600001 171500.43522511 8260.31885337
0.24700001 169212.88936597 10701.02362973
0.24800001 166950.12673484 6235.58752853
0.24900001 164711.41979946 8647.34994856
0.25000001 162498.08876066 7953.46933066
0.25100001 160307.74548172 7877.52298565
0.25200001 158143.18802077 10802.76168477
0.25300001 156001.42385523 6538.01998309
0.25400001 153882.76330332 8240.42236476
0.25500001 151786.69818280 8742.91422897
0.25600001 149713.62329133 6348.60649604
0.25700001 147662.20805135 6857.43326635
0.25800001 145634.04161412 9052.61245505
0.25900001 143627.36014304 6161.61404167
0.26000001 141642.16408535 8317.93647948
0.26100001 139677.94568447 8234.01528770
0.26200001 137735.76519571 7063.77905230
0.26300001 135813.75487857 5378.22494768
0.26400001 133912.72331611 7984.54650554
0.26500001 132032.58521725 7902.15059917
0.26600001 130171.56032091 5734.70836130
0.26700001 128331.91918097 7222.52075328
0.26800001 126512.22508129 5615.24537595
0.26900001 124711.11679399 5555.88051609
0.27000001 122930.33544427 6496.25388397
0.27100001 121168.48044520 6921.14393056
0.27200001 119427.19894577 5868.65283392
0.27300001 117703.71056326 4837.62273309
0.27400001 115997.45649860 5741.87436841
0.27500001 114312.73081672 6625.56619169
0.27600001 112644.06021137 7956.61356958
0.27700001 110995.68037586 5091.37209980
0.27800001 109364.36729324 5034.58888662
0.27900001 107752.30757127 5883.27627183
0.28000001 106156.74725281 5816.85924102
0.28100001 104579.67967255 5750.83685737
0.28200001 103020.90769891 4810.56151268
0.28300001 101479.14485184 4323.01177530
0.28400001 99954.76320784  5127.67959526
0.28500001 98448.03068304  5490.44693106
0.28600001 96958.38509119  5008.87041089
0.28700001 95485.75424691  5774.97869020
0.28800001 94029.55314761  6521.89011502
0.28900001 92591.86108244  4833.29537728
0.29000001 91169.42936745  5173.40951434
0.29100001 89764.64376824  5111.19905810
0.29200001 88376.22076746  4272.54859525
0.29300001 87004.47511155  3836.89753404
0.29400001 85648.36455861  4926.92240446
0.29500001 84309.69536302  4492.02078158
0.29600001 82986.35977609  4066.74675334
0.29700001 81679.54857138  4016.18359337
0.29800001 80388.48216379  5408.13539358
0.29900001 79114.04440234  3560.13216664
0.30000001 77854.79599074  3515.14420539
0.30100001 76612.16937586  3817.58458072
0.30200001 75383.83263618  4454.05396217
0.30300001 74172.38585017  6426.29581429
0.30400001 72976.50417173  4340.27779109
0.30500001 71795.79907445  3624.97006688
0.30600001 70629.53012191  4878.73502414
0.30700001 69479.74379657  3209.96431537
0.30800001 68344.73763808  3801.33448740
0.30900001 67225.01200429  3751.15584744
0.31000001 66120.44653395  3392.97087453
0.31100001 65030.10341823  3956.43167928
0.31200001 63955.38710714  3903.51723690
0.31300001 62894.85704623  3258.58269785
0.31400001 61850.46629924  3506.92160521
0.31500001 60819.41723272  4035.97671866
0.31600002 59803.52252949  4265.48644638
0.31700002 58801.98399060  3085.34024607
0.31800002 57814.85025672  3319.72885893
0.31900002 56842.08666021  3274.10434665
0.32000002 55884.04568692  2959.89861996
0.32100002 54939.32160862  3714.99710308
0.32200002 54009.99875873  3401.81993290
0.32300002 53092.85778708  2580.31301063
0.32400002 52190.52518604  3053.14586795
0.32500002 51301.82786382  2759.52545146
0.32600002 50427.30908646  3215.49751616
0.32700002 49565.95111250  2682.50940123
0.32800002 48718.75029598  3125.55157324
0.32900002 47884.35490731  2370.27568015
0.33000002 47064.48985163  2570.42723497
0.33100002 46255.28111207  2994.56704100
0.33200002 45462.39659410  3406.27022612
0.33300002 44681.13976143  2910.08277047
0.33400002 43913.36732565  3089.30553766
0.33500002 43157.41692929  2610.16069949
0.33600002 42415.57596379  3001.75045311
0.33700002 41685.25127121  2747.47504140
0.33800002 40968.57291660  2499.90243776
0.33900002 40263.41227405  2258.77753555
0.34000002 39571.26161027  2428.88415267
0.34100002 38891.20576625  3391.70221550
0.34200002 38224.00467798  1966.62513382
0.34300002 37567.66730439  2520.03924213
0.34400002 36924.79547639  2101.94408204
0.34500002 36292.77120655  1883.59491483
0.34600002 35673.64409258  2413.85724185
0.34700002 35064.37996468  2196.43286501
0.34800002 34468.42061316  2165.30628547
0.34900002 33883.11906333  2490.40936910
0.35000002 33309.13410396  1929.09859300
0.35100002 32747.12457295  3112.28686682
0.35200002 32194.82613774  2045.65934968
0.35300002 31654.14592865  1848.91875126
0.35400002 31124.80092707  1823.13530065
0.35500002 30606.08354617  1961.23792653
0.35600002 30097.12126997  1772.87101238
0.35700002 29599.15202364  2225.26435454
0.35800002 29112.33243685  1881.23901117
0.35900002 28635.36480439  1546.30977268
0.36000002 28168.86633773  2135.48185821
0.36100002 27711.70149857  1655.22000891
0.36200002 27265.74685475  2375.39197850
0.36300002 26828.33536031  1464.82718006
0.36400002 26400.89933039  2023.62902953
0.36500002 25982.82381412  1997.03993295
0.36600002 25574.76394990  1689.46898656
0.36700002 25175.39022229  1806.58608793
0.36800002 24786.76132506  2057.92095649
0.36900002 24405.99807319  1489.98625295
0.37000002 24034.10516178  1872.49722185
0.37100002 23671.00694949  1452.92647538
0.37200002 23317.48053720  1956.91964678
0.37300002 22971.85535759  1417.59326127
0.37400002 22634.76870878  1273.20580018
0.37500002 22306.58142862  1258.09125217
0.37600002 21986.62078876  1367.67781095
0.37700002 21674.32264037  1351.82756712
0.37800002 21370.11916329  1579.35873158
0.37900002 21074.34775230  1321.36166667
0.38000002 20786.12347010  1425.51241511
0.38100002 20504.68883405  1292.41059844
0.38200002 20231.85879116  1743.48051392
0.38300002 19965.60504031  1150.01890480
0.38400002 19707.74457322  1365.74676363
0.38500002 19455.54368188  1239.12363580
0.38600002 19211.86945202  1895.92342669
0.38700002 18974.29632678  1214.73450839
0.38800002 18743.63297895  1203.06013975
0.38900002 18519.32099821  1300.05639567
0.39000002 18302.65570203  1502.83113089
0.39100002 18091.25063070  1170.14214623
0.39200002 17886.91128726  1370.76351144
0.39300002 17688.49069788  1359.00680470
0.39400002 17497.48445664  1451.41640444
0.39500002 17311.16186883  1028.28306373
0.39600002 17130.85580188  1326.18526473
0.39700002 16956.44297438  1518.44954030
0.39800002 16787.77420835  1406.64766756
0.39900002 16624.61420313  1097.22458939
0.40000002 16466.70436854  1188.56677763
0.40100002 16314.47647546  1278.89187150
0.40200002 16167.69050336  977.33693723
0.40300002 16025.38539065  971.13840069
0.40400002 15888.63640638  1061.75817816
0.40500002 15756.82200406  1247.46765717
0.40600002 15629.79887226  1335.87897291
0.40700002 15507.32105289  1423.57214011
0.40800002 15389.79700670  1416.24613665
0.40900002 15276.39349078  1033.44806862
0.41000002 15167.92113198  935.10238209
0.41100002 15063.49867840  1582.57124614
0.41200002 14963.04927571  926.96094655
0.41300002 14867.32698133  923.26104929
0.41400002 14775.30430967  1103.71528423
0.41500002 14687.39506485  1466.38959276
0.41600002 14602.82322268  1096.08796303
0.41700002 14522.34431773  1001.60613505
0.41800002 14446.53478235  1361.94713114
0.41900002 14372.26084352  1086.54297126
0.42000002 14302.90325896  903.22838360
0.42100002 14236.96860784  1261.68021781
0.42200002 14174.57613758  1079.25227826
0.42300002 14114.78258262  987.47023627
0.42400002 14057.97636090  1075.43524257
0.42500002 14004.80310082  984.39765660
0.42600002 13953.74168477  1072.48463671
0.42700002 13906.86399019  982.10278153
0.42800002 13861.70832133  981.20107002
0.42900002 13820.72159564  980.58024368
0.43000002 13781.66595129  980.08322057
0.43100002 13744.37653574  1068.76277007
0.43200002 13710.77082717  1157.66898965
0.43300002 13679.27659916  1513.88561297
0.43400002 13650.33013729  1246.95771713
0.43500002 13623.36148971  1069.16146038
0.43600002 13599.10909112  1069.70597180
0.43700002 13576.48771983  1070.37034256
0.43800002 13555.91853663  1071.18873353
0.43900002 13538.18454126  1072.22426648
0.44000002 13521.79545640  983.91349301
0.44100002 13507.80150577  985.12401050
0.44200002 13495.48366440  1255.48490480
0.44300002 13484.91528497  1526.76218092
0.44400002 13476.65886245  1259.39383038
0.44500002 13468.65877232  901.05331457
0.44600002 13462.76282029  1805.35657976
0.44700002 13459.56842897  1808.96608258
0.44800002 13456.20902981  1268.78600955
0.44900002 13455.86643332  1544.06074640
0.45000002 13456.50881887  910.33286474
0.45100002 13458.06309845  912.45672132
0.45200002 13461.11544368  1372.02425662
0.45300002 13465.24837643  1375.47518684
0.45400002 13470.87406633  1011.32591846
0.45500002 13477.67787935  1474.99713702
0.45600002 13485.33808051  1294.18795692
0.45700002 13494.14862518  1297.86727628
0.45800002 13503.55455086  1022.69175238
0.45900002 13514.17454632  932.47808789
0.46000002 13526.39277113  935.35010445
0.46100002 13538.24068997  938.20012428
0.46200002 13552.03713295  1035.30792584
0.46300002 13566.34407800  1321.90462961
0.46400002 13580.74140287  947.25675775
0.46500002 13596.44845424  1235.50932959
0.46600002 13612.61012801  1144.27606159
0.46700002 13629.09465841  1626.49623362
0.46800002 13647.13747394  1056.08378348
0.46900002 13664.60797952  1541.36785314
0.47000002 13682.98439541  1353.38405070
0.47100002 13701.96086846  1067.10876301
0.47200002 13721.48509892  1362.95517948
0.47300002 13741.53928530  1270.13053634
0.47400002 13761.19383482  980.48510720
0.47500002 13781.68456110  1180.81478916
0.47600002 13803.05103288  1185.13001786
0.47700002 13823.66825807  991.15706108
