# SAXS profile: number of points = 501, q_min = 0, q_max = 0.5, delta_q = 0.001
#    q    intensity    error
0.00000000 1682732.95097188 302.89193117
0.00100000 1682645.66595307 656.23182531
0.00200000 1682383.76393199 832.77998952
0.00300000 1681947.49180890 1311.91909035
0.00400000 1681336.68215857 1765.40358335
0.00500000 1680552.02763556 1512.49688474
0.00600000 1679593.34985749 1939.93039806
0.00700000 1678461.42380943 2215.56917151
0.00800000 1677156.01834580 2716.99286443
0.00900000 1675678.49619128 2764.86963691
0.01000000 1674028.34325479 2762.14688564
0.01100000 1672207.21151916 4514.95966768
0.01200000 1670214.71703953 4233.99449333
0.01300000 1668052.52212770 4203.49254116
0.01400000 1665720.55479471 4872.23283877
0.01500000 1663220.61700046 4390.90262440
0.01600000 1660552.14957489 5504.73062192
0.01700000 1657717.56701286 6266.17268440
0.01800000 1654717.27709932 7073.91667791
0.01900000 1651552.12998093 4954.65661351
0.02000000 1648223.20267301 5711.09365561
0.02100000 1644732.98144577 7055.90481031
0.02200000 1641080.17846460 7360.24493481
0.02300000 1637268.03098112 6483.58169781
0.02400000 1633297.14117548 6737.35101456
0.02500000 1629169.64556059 7624.51428944
0.02600000 1624886.31623782 8555.02684628
0.02700000 1620448.70735599 9528.23883566
0.02800000 1615857.70626248 7731.87947905
0.02900000 1611116.43010370 8700.02912201
0.03000000 1606225.49702344 8215.84379492
0.03100000 1601186.77818131 7685.69688891
0.03200000 1596001.18356456 11850.30933377
0.03300000 1590673.12254494 8923.67662886
0.03400000 1585201.00639963 9986.76680111
0.03500000 1579589.09059130 9382.75963139
0.03600000 1573837.80228642 12228.72028890
0.03700000 1567950.28160346 10724.78042216
0.03800000 1561928.14584678 10964.73609129
0.03900000 1555773.75732019 10268.10727383
0.04000000 1549487.39552512 13341.08709368
0.04100000 1543073.11064788 13609.90546696
0.04200000 1536532.53046273 9910.63528127
0.04300000 1529867.31040282 11106.83718908
0.04400000 1523080.26010775 14393.10912646
0.04500000 1516174.01078865 11507.76127659
0.04600000 1509149.06391723 14895.30195330
0.04700000 1502009.59086381 14058.81042433
0.04800000 1494756.87586907 15381.04896834
0.04900000 1487394.05914833 12271.00155916
0.05000000 1479922.51397028 12453.54853497
0.05100000 1472346.42068366 12632.73287795
0.05200000 1464664.94235480 12808.49551778
0.05300000 1456883.75115798 11800.75893451
0.05400000 1449003.31578847 15540.56128655
0.05500000 1441027.84311846 14525.56133624
0.05600000 1432957.66373540 13476.96745632
0.05700000 1424798.38791448 13635.32120882
0.05800000 1416548.82521765 17551.04076395
0.05900000 1408213.34080706 15208.70479105
0.06000000 1399795.38123248 15369.75400399
0.06100000 1391296.45442514 15526.86915698
0.06200000 1382719.44062098 14373.36925712
0.06300000 1374067.68416391 25062.99573098
0.06400000 1365340.44450918 21299.31193044
0.06500000 1356544.34675603 14772.76862721
0.06600000 1347680.55482867 17607.44727266
0.06700000 1338750.34017621 13655.25410885
0.06800000 1329757.74239604 15139.29260584
0.06900000 1320706.79056275 15254.16414518
0.07000000 1311596.53914212 16762.20455518
0.07100000 1302431.94544585 22506.02507144
0.07200000 1293214.76363696 18408.91302277
0.07300000 1283948.28055052 22802.92253102
0.07400000 1274635.64986020 15773.61690624
0.07500000 1265277.30732516 15866.57817756
0.07600000 1255876.79610898 21758.06651262
0.07700000 1246437.74874321 14583.32234409
0.07800000 1236961.66485470 16123.79605753
0.07900000 1227449.82131167 20621.15796525
0.08000000 1217908.35549270 17757.10465609
0.08100000 1208337.41755212 14862.55093322
0.08200000 1198738.62448019 14924.29657510
0.08300000 1189115.52096772 14982.85626737
0.08400000 1179471.12842007 24061.21214917
0.08500000 1169807.32483304 19617.66975840
0.08600000 1160126.55285059 22709.47833829
0.08700000 1150431.07670740 18222.82911075
0.08800000 1140722.68931571 19797.24320283
0.08900000 1131005.13180402 18322.28399582
0.09000000 1121280.14172753 15305.47465356
0.09100000 1111549.40176222 15339.38246498
0.09200000 1101815.48564766 15370.32674699
0.09300000 1092082.22676278 18478.03214515
0.09400000 1082348.20198647 20050.50138412
0.09500000 1072618.49322536 16990.27773128
0.09600000 1062894.14056768 17011.62151946
0.09700000 1053179.98905939 18578.09588042
0.09800000 1043474.71385000 18594.72027509
0.09900000 1033782.74055247 17057.41602120
0.10000000 1024103.22907801 17066.68111518
0.10100000 1014440.10993558 21729.30817679
0.10200000 1004795.57048531 23286.13844129
0.10300000 995170.86192731 15524.66617636
0.10400000 985568.35743241 17074.97259581
0.10500000 975991.66190961 17070.09496994
0.10600001 966437.24754146 18613.58226348
0.10700001 956913.24263458 21702.79336423
0.10800001 947416.27936252 20137.33396555
0.10900001 937951.76164128 17023.82527503
0.11000001 928519.83287436 17005.84153955
0.11100001 919121.57788860 18529.49188248
0.11200001 909760.41684397 18504.52774975
0.11300001 900435.57275126 15397.44901897
0.11400001 891150.45469396 15372.34606727
0.11500001 881906.21428926 21483.23639169
0.11600001 872704.28415107 18379.15308972
0.11700001 863545.89128347 18341.71559466
0.11800001 854431.43679057 16776.76205154
0.11900001 845362.88421023 21303.14568551
0.12000001 836341.52230466 18215.51921384
0.12100001 827370.33290445 28767.66783028
0.12200001 818448.64827913 16610.41609936
0.12300001 809578.41806168 18069.79114248
0.12400001 800760.00827831 19518.52612145
0.12500001 791994.51418498 16465.56672577
0.12600001 783284.94149931 17905.89460646
0.12700001 774630.06766091 20822.05719999
0.12800001 766031.55135228 20751.79570415
0.12900001 757490.98566777 16248.18240838
0.13000001 749008.59319146 19133.42541493
0.13100001 740584.64997358 16129.93443675
0.13200001 732220.65009886 16068.58292390
0.13300001 723918.75998931 17460.92131410
0.13400001 715677.03148912 15941.70662800
0.13500001 707498.85722402 14432.97736786
0.13600001 699382.54645142 21558.46801086
0.13700001 691330.86690163 18603.71450555
0.13800001 683341.60349992 19946.74234677
0.13900001 675418.80547628 18438.93425905
0.14000001 667560.53791499 19766.46845986
0.14100001 659768.13341800 18268.98047596
0.14200001 652041.42139751 18182.17589324
0.14300001 644382.83586982 13918.66991130
0.14400001 636788.33632310 13850.14696834
0.14500001 629263.41204030 17915.13018588
0.14600001 621805.49564390 17824.05537347
0.14700001 614417.61641370 20460.10759181
0.14800001 607094.34595170 17639.12705382
0.14900001 599841.26761454 18895.00082134
0.15000001 592656.22382603 17450.76333393
0.15100001 585540.08912321 18690.44052672
0.15200001 578493.30636464 13276.42200754
0.15300001 571516.37286199 13202.02883610
0.15400001 564605.97726457 21003.34334541
0.15500001 557766.17203124 22187.93937052
0.15600001 550993.09709744 12975.88804904
0.15700001 544292.64742185 14189.70998800
0.15800001 537657.28320175 19234.69021440
0.15900001 531093.06326247 16570.10435591
0.16000001 524595.45990229 20270.36952744
0.16100001 518169.52116654 13850.67195459
0.16200001 511810.45650954 16267.89612810
0.16300001 505519.37645337 16166.51042216
0.16400001 499296.73360113 13593.35421403
0.16500001 493141.46978573 17190.91244834
0.16600001 487054.74477464 18301.08289896
0.16700001 481033.59201045 12122.04709100
0.16800001 475079.18173516 12043.25782563
0.16900001 469193.58179217 13160.88059070
0.17000001 463372.66450046 11885.50940567
0.17100001 457617.89956628 12987.19660296
0.17200001 451929.15293913 14073.07448710
0.17300001 446305.66881620 19802.58346054
0.17400001 440746.95145447 12726.56882427
0.17500001 435252.51881919 13788.80044740
0.17600001 429820.63068326 15976.43359705
0.17700001 424454.27429940 13599.51559087
0.17800001 419149.02744429 12379.56711028
0.17900001 413907.22170854 17880.79282238
0.18000001 408727.40964131 13316.33963511
0.18100001 403610.67681795 15426.00079665
0.18200001 398552.40034640 18598.44864072
0.18300001 393555.66946061 14120.77808730
0.18400001 388618.48740270 16176.24530231
0.18500001 383742.16413443 10706.40688514
0.18600001 378922.98838714 13817.42742432
0.18700001 374162.10747873 10551.37192940
0.18800001 369458.92832810 11521.57722426
0.18900001 364814.46648855 13516.37662202
0.19000001 360222.65227324 13416.49331783
0.19100001 355691.39791596 14341.47784161
0.19200001 351212.00744359 13217.86452470
0.19300001 346790.02333067 11100.74917135
0.19400001 342419.71688910 11017.35491152
0.19500001 338104.19964145 11928.31672702
0.19600001 333841.01909638 9865.00258048
0.19700001 329630.12389805 9790.01514242
0.19800001 325471.19435702 11658.37873283
0.19900001 321363.45120347 10604.99439091
0.20000001 317304.61388887 10523.40801697
0.20100001 313297.38295858 12340.78449799
0.20200001 309337.38780214 10361.25629414
0.20300001 305427.66314914 11215.30432092
0.20400001 301564.88366606 11127.74473324
0.20500001 297749.30114260 13800.68076027
0.20600001 293980.70366978 11866.53166454
0.20700001 290258.19900062 10867.26748427
0.20800001 286579.94153417 10781.13791014
0.20900001 282948.50495081 9804.16616000
0.21000001 279359.57183355 15030.94247305
0.21100001 275814.89957719 10525.09706542
0.21200001 272312.68598002 10440.46887404
0.21300001 268852.05693973 9493.16657934
0.21400001 265434.34679139 10272.30970647
0.21500001 262058.50847736 8490.69607609
0.21600001 258722.06108320 9263.54383505
0.21700001 255425.99183542 14199.13155746
0.21800001 252169.46474844 10768.89750124
0.21900001 248950.69199455 10679.98519153
0.22000001 245770.08660338 8962.00663174
0.22100001 242628.76890763 8887.49222532
0.22200001 239524.73082764 10415.73341254
0.22300001 236455.76262985 10328.38820005
0.22400001 233422.31069755 12604.80537370
0.22500001 230427.25189080 8592.63262933
0.22600001 227464.87147905 10068.73301215
0.22700001 224539.05420132 9215.08322020
0.22800001 221645.72880356 9897.59048778
0.22900001 218785.29560402 9812.52097188
0.23000001 215959.21733492 10476.18212835
0.23100001 213166.12146220 10385.45392879
0.23200001 210403.39052840 7353.59884675
0.23300001 207673.07272612 9476.12275666
0.23400001 204974.67291032 17340.85814835
0.23500001 202304.79977619 7877.74927587
0.23600001 199667.06054538 10647.24650717
0.23700001 197058.38078476 9145.47988478
0.23800001 194479.14506188 9760.90875233
0.23900001 191928.55898541 8291.31414034
0.24000001 189406.39115607 6847.04136416
0.24100001 186913.64573978 6784.96566129
0.24200001 184447.59842930 7395.42680884
0.24300001 182009.74147592 10658.49096501
0.24400001 179598.02744575 7920.27338501
0.24500001 177212.85910508 7193.07029134
0.24600001 174854.77294007 7126.20660828
0.24700001 172522.38590294 7059.61636511
0.24800001 170215.29545768 6993.29574471
0.24900001 167932.77017112 6927.22709727
0.25000001 165676.05170718 8109.01473443
0.25100001 163442.86754502 6795.95475403
0.25200001 161235.72798558 7342.67539984
0.25300001 159052.04715025 7271.85993974
0.25400001 156891.87457746 9001.67172976
0.25500001 154754.64961615 7725.35247434
0.25600001 152641.05721417 7649.60694421
0.25700001 150549.53484908 6991.52072918
0.25800001 148481.63642383 8652.76777200
0.25900001 146435.73466092 5710.99392199
0.26000001 144411.79508168 6784.46645395
0.26100001 142409.23304974 6156.35143604
0.26200001 140429.12046161 7201.90778365
0.26300001 138469.62071809 5483.39723990
0.26400001 136531.64598298 7055.27314001
0.26500001 134614.91107007 8056.70280878
0.26600001 132717.79577466 6378.41756675
0.26700001 130842.45683532 5259.86701368
0.26800001 128987.52709727 8327.43514346
0.26900001 127151.60463381 6179.56827763
0.27000001 125336.38006119 6623.40131777
0.27100001 123540.52241699 5544.49890846
0.27200001 121765.68652110 7978.08815841
0.27300001 120009.18703895 4932.37782072
0.27400001 118270.12477138 4878.64287770
0.27500001 116553.13866449 5307.83018598
0.27600001 114852.66008441 5249.34107759
0.27700001 113172.74049833 7078.95525319
0.27800001 111510.31251848 5133.37747974
0.27900001 109867.63603010 5075.88502482
0.28000001 108241.77925578 4562.39121156
0.28100001 106634.88001457 5412.78676572
0.28200001 105046.59009760 5351.07355284
0.28300001 103475.87672039 4848.87981262
0.28400001 101922.73847448 4792.91700361
0.28500001 100387.75723633 5167.96198713
0.28600001 98870.14649941  5107.63200991
0.28700001 97370.01231116  4206.38473094
0.28800001 95886.58838671  5403.68894431
0.28900001 94422.16172231  4928.83707520
0.29000001 92973.25354806  5275.76752231
0.29100001 91542.46016338  4410.51593944
0.29200001 90128.30687610  5941.70891206
0.29300001 88731.20158932  3913.04617532
0.29400001 87350.17714282  6957.44193877
0.29500001 85986.88264672  4581.38132429
0.29600001 84639.29574439  4901.88504508
0.29700001 83308.46843094  4841.05532969
0.29800001 81993.75789488  4412.90425880
0.29900001 80696.14358292  5083.85728639
0.30000001 79413.93030335  4302.64694752
0.30100001 78148.77020154  3894.15340349
0.30200001 76898.23158330  4194.02974910
0.30300001 75664.83703775  4485.41175194
0.30400001 74447.27993251  3405.96321816
0.30500001 73245.26815515  5379.13274797
0.30600001 72058.06955055  4313.75653787
0.30700001 70887.60287905  3275.00740806
0.30800001 69732.24615832  4848.13464369
0.30900001 68592.47682408  3508.50535566
0.31000001 67468.18476121  3147.39096812
0.31100001 66358.34414228  4658.35597934
0.31200001 65264.48081077  3677.00102297
0.31300001 64185.07630520  3325.42896082
0.31400001 63122.02991839  3280.76766034
0.31500001 62072.74499413  3236.47307723
0.31600002 61038.77106215  3773.11181185
0.31700002 60019.50552587  3721.80971388
0.31800002 59014.88062410  2823.86217157
0.31900002 58024.91486872  3342.23525469
0.32000002 57049.93392133  3296.34533805
0.32100002 56088.54134936  3250.89201054
0.32200002 55142.78385158  3473.16840535
0.32300002 54209.49296318  2898.03963104
0.32400002 53291.09383996  2857.73504249
0.32500002 52386.71372396  3842.56563360
0.32600002 51496.84400713  3031.10438179
0.32700002 50620.20991424  2739.56589028
0.32800002 49758.02766468  3192.22641599
0.32900002 48908.95138809  2905.19185002
0.33000002 48074.58637106  2625.59365899
0.33100002 47251.15905197  2588.41861544
0.33200002 46444.14651249  2783.86227379
0.33300002 45649.07144500  3659.22974032
0.33400002 44867.70564516  4058.28416779
0.33500002 44098.34662573  2444.81245271
0.33600002 43343.36803721  2191.00735804
0.33700002 42599.94269065  3239.72579505
0.33800002 41870.54331169  2554.94067387
0.33900002 41152.77827775  2518.55014987
0.34000002 40448.21226449  2689.60400190
0.34100002 39756.00409567  2039.48310669
0.34200002 39076.80973594  2613.65254297
0.34300002 38408.57456714  1981.88254153
0.34400002 37754.06792380  1953.77310759
0.34500002 37110.61344697  2696.45730076
0.34600002 36480.20077053  2278.55344804
0.34700002 35859.86930953  3182.20495324
0.34800002 35252.92893431  1845.49091712
0.34900002 34656.83262637  2001.43217896
0.35000002 34072.24838741  2332.07515133
0.35100002 33499.82038733  2122.54872027
0.35200002 32937.23787787  1744.02682824
0.35300002 32386.41094611  1719.71850269
0.35400002 31847.05405743  2204.61242154
0.35500002 31318.58582973  1839.65381877
0.35600002 30799.92294532  1979.20314221
0.35700002 30292.37010721  2114.71045735
0.35800002 29796.17557602  2085.88137000
0.35900002 29309.97994913  1741.01289144
0.36000002 28834.36982264  2029.79555981
0.36100002 28368.19888792  1848.47192709
0.36200002 27913.38053661  1823.86037065
0.36300002 27467.27135981  1799.65570474
0.36400002 27031.22483402  2367.93540762
0.36500002 26604.65999737  1606.65549334
0.36600002 26188.26642684  1585.83054859
0.36700002 25780.60699804  2561.56123266
0.36800002 25383.86903215  1966.99610448
0.36900002 24995.16999758  1803.40160075
0.37000002 24615.33414405  1917.78077401
0.37100002 24244.35865949  1352.83527728
0.37200002 23883.22154270  1870.77283206
0.37300002 23530.01349267  1716.04396531
0.37400002 23185.41751359  1565.01575630
0.37500002 22849.85645140  1804.22475087
0.37600002 22522.63249673  1401.02042083
0.37700002 22203.14954954  1510.70236692
0.37800002 21891.76807070  1244.54707378
0.37900002 21589.06935111  1599.75011470
0.38000002 21293.90214399  1825.41984777
0.38100002 21005.69470027  1925.80218135
0.38200002 20726.08246197  1309.78484323
0.38300002 20453.15197933  1413.72193178
0.38400002 20188.72810176  1632.25874435
0.38500002 19929.99163022  1269.34122706
0.38600002 19679.94100152  1256.66269219
0.38700002 19435.98210225  1244.29163313
0.38800002 19199.03639552  2240.52765350
0.38900002 18968.52950128  1331.59083407
0.39000002 18745.73599732  1099.43746833
0.39100002 18528.27860988  1307.35540065
0.39200002 18317.94561607  1403.79582879
0.39300002 18113.53917547  1284.61225919
0.39400002 17916.68809961  1167.72020222
0.39500002 17724.57396257  1263.40769191
0.39600002 17538.47036764  1462.18234383
0.39700002 17358.36336139  2176.21811772
0.39800002 17184.13731975  1645.55306770
0.39900002 17015.34099613  1123.01255895
0.40000002 16851.89796795  1115.00588188
0.40100002 16694.12415363  1308.65245441
0.40200002 16542.01411467  2099.92608128
0.40300002 16394.33206192  1092.84622703
0.40400002 16252.23468312  1086.05563416
0.40500002 16115.18117396  1472.12186999
0.40600002 15982.84242878  1463.62886476
0.40700002 15855.23189385  1164.40828546
0.40800002 15732.59146535  1061.71398534
0.40900002 15614.14775702  1152.32415907
0.41000002 15500.62711182  1051.17507739
0.41100002 15391.18452657  1331.64534834
0.41200002 15285.75438564  1041.64778197
0.41300002 15185.08375483  1320.19124420
0.41400002 15088.17729349  939.23908102
0.41500002 14995.47601175  1122.86129696
0.41600002 14906.04660345  1212.08523699
0.41700002 14820.83030354  1300.97254569
0.41800002 14740.23836661  1296.99363534
0.41900002 14661.22733609  1385.48604891
0.42000002 14587.23039045  1105.42037137
0.42100002 14516.67821238  1470.24923902
0.42200002 14449.65100867  1100.19647993
0.42300002 14385.27065796  914.90325720
0.42400002 14323.96836858  1004.46832944
0.42500002 14266.21121755  1093.93312800
0.42600002 14210.67361971  1547.32927040
0.42700002 14159.29911640  999.92975098
0.42800002 14109.78935023  1180.35448403
0.42900002 14064.36408784  1088.58183198
0.43000002 14020.90772038  1359.67759062
0.43100002 13979.27119622  1177.61386137
0.43200002 13941.33753905  1177.13689089
0.43300002 13905.56691289  1176.82818361
0.43400002 13872.36920407  1086.20656015
0.43500002 13841.16748424  995.73363600
0.43600002 13812.66938281  1177.04667723
0.43700002 13785.88168654  905.73246973
0.43800002 13761.10071241  1087.40222983
0.43900002 13739.19807691  1178.82325086
0.44000002 13718.70449979  998.24158023
0.44100002 13700.58697416  999.18385538
0.44200002 13684.23261015  1363.97595006
0.44300002 13669.56650666  1001.43248974
0.44400002 13657.26492308  1002.78472450
0.44500002 13645.23825854  1643.15966896
0.44600002 13635.33067699  1097.09875826
0.44700002 13628.19204212  1098.97745836
0.44800002 13620.84597582  1376.04602992
0.44900002 13616.63345453  1011.03508191
0.45000002 13613.32646194  1197.22405243
0.45100002 13610.96149445  1476.51717289
0.45200002 13610.23537428  1109.77864501
0.45300002 13610.43460165  1204.93183239
0.45400002 13612.24817013  1858.07196328
0.45500002 13615.27978412  1117.54221764
0.45600002 13619.15217640  1213.67080372
0.45700002 13624.18848380  1123.17815184
0.45800002 13629.90799215  1219.94497266
0.45900002 13636.74407118  940.93538551
0.46000002 13645.30118360  1132.28714588
0.46100002 13653.45392097  1135.42128188
0.46200002 13663.62442366  1138.72651344
0.46300002 13674.24956962  951.72781515
0.46400002 13685.05583955  1049.98595905
0.46500002 13697.17046554  1053.17548701
0.46600002 13709.76932881  960.36938700
0.46700002 13722.63410878  963.32896009
0.46800002 13737.20134366  1063.05337636
0.46900002 13751.15212968  1745.02128796
0.47000002 13766.02297560  1069.82652626
0.47100002 13781.50145036  1073.30338382
0.47200002 13797.62615777  1370.51827121
0.47300002 13814.21498550  1178.62887843
0.47400002 13830.47676826  1083.96366809
0.47500002 13847.57594780  988.71696954
0.47600002 13865.60070201  992.08377725
0.47700002 13882.91586608  1094.94562626
