# SAXS profile: number of points = 501, q_min = 0, q_max = 0.5, delta_q = 0.001
#    q    intensity    error
0.00000000 1664650.74656090 349.57665678
0.00100000 1664564.27731890 649.18008357
0.00200000 1664304.83754266 973.61836079
0.00300000 1663872.64689654 1197.98834844
0.00400000 1663267.56718357 1746.43101190
0.00500000 1662490.27020782 1945.11369313
0.00600000 1661540.58236410 2093.54121901
0.00700000 1660419.28037534 2191.75354119
0.00800000 1659126.11872757 2239.82035485
0.00900000 1657662.53807668 2983.79269609
0.01000000 1656027.85223252 3552.17989642
0.01100000 1654223.75909774 2977.60289602
0.01200000 1652250.00767208 4510.64271871
0.01300000 1650108.09389935 3811.74986502
0.01400000 1647798.08615502 4819.80961567
0.01500000 1645321.66270147 4343.64938295
0.01600000 1642678.27820321 5445.47873568
0.01700000 1639870.37460401 5313.18025206
0.01800000 1636898.26079582 6064.70832915
0.01900000 1633762.97649707 5391.41806572
0.02000000 1630465.39458435 7190.35271538
0.02100000 1627008.09931727 8590.60315388
0.02200000 1623389.79186676 7280.90354731
0.02300000 1619613.62106918 6413.67023137
0.02400000 1615680.12549621 7876.44097094
0.02500000 1611591.79717248 7542.24995523
0.02600000 1607348.84729803 6509.76312930
0.02700000 1602953.37016035 8752.12580193
0.02800000 1598405.73629384 7648.37179892
0.02900000 1593709.34668798 8606.03086725
0.03000000 1588864.86052358 7388.22194104
0.03100000 1583873.85388149 13684.67072721
0.03200000 1578737.63569523 7814.75165662
0.03300000 1573460.28724375 12839.43653581
0.03400000 1568040.19691585 10701.87483774
0.03500000 1562481.72565576 10968.62222061
0.03600000 1556785.23041992 8640.15842812
0.03700000 1550953.99796262 9724.48201696
0.03800000 1544989.30512492 13557.28177990
0.03900000 1538893.73292258 14773.38052021
0.04000000 1532667.49352619 10368.49607417
0.04100000 1526314.66309085 13462.09595265
0.04200000 1519836.70395458 12743.83135388
0.04300000 1513235.31036289 10986.08886319
0.04400000 1506513.81669473 14236.55622894
0.04500000 1499673.90398947 16556.40066934
0.04600000 1492716.59259487 11576.01771371
0.04700000 1485645.75655078 16044.97491697
0.04800000 1478463.23300780 14126.71684868
0.04900000 1471171.57691677 17654.05974475
0.05000000 1463772.33012476 12317.64473158
0.05100000 1456269.52669976 12494.79312114
0.05200000 1448662.57712959 12668.55482737
0.05300000 1440956.72514730 16340.45002493
0.05400000 1433153.12578490 11823.51383910
0.05500000 1425255.31577237 15563.78877427
0.05600000 1417264.00976369 13329.36863383
0.05700000 1409184.23806995 14711.88413218
0.05800000 1401015.29935986 12398.98597827
0.05900000 1392761.39792500 18802.27975016
0.06000000 1384426.00137475 22801.49730790
0.06100000 1376010.52742040 15356.27820363
0.06200000 1367518.02954049 23261.48276981
0.06300000 1358951.37374985 15655.12055756
0.06400000 1350310.39361397 21064.84312551
0.06500000 1341600.99138836 13281.85043604
0.06600000 1332824.91587447 16073.86923752
0.06700000 1323983.09350435 16205.55382290
0.06800000 1315080.04309427 16333.29489978
0.06900000 1306119.03934388 16457.10066624
0.07000000 1297099.50781863 19339.75456723
0.07100000 1288026.14667237 23648.16116053
0.07200000 1278900.87879496 26607.53402981
0.07300000 1269727.30220651 18322.16582934
0.07400000 1260507.95412172 14180.71514844
0.07500000 1251243.64561884 19969.84952011
0.07600000 1241937.52651369 17213.25492445
0.07700000 1232593.79478575 15863.48288271
0.07800000 1223213.08770730 15944.58334601
0.07900000 1213797.56775293 21848.35724432
0.08000000 1204352.72320539 16096.17490073
0.08100000 1194878.93065352 19106.11499757
0.08200000 1185377.58842546 20661.13233578
0.08300000 1175852.55940527 16297.31723822
0.08400000 1166306.39864939 22305.61092116
0.08500000 1156741.32730879 17906.35658736
0.08600000 1147159.67997491 17964.52143187
0.08700000 1137563.51759751 16517.42305114
0.08800000 1127955.06897644 15058.20087803
0.08900000 1118337.38347373 18117.06646323
0.09000000 1108712.68247681 22700.89324010
0.09100000 1099082.55363849 25784.47791974
0.09200000 1089449.26064303 15197.81790007
0.09300000 1079816.90114708 16747.96092381
0.09400000 1070184.15842140 16775.13747164
0.09500000 1060555.67536218 15272.00244304
0.09600000 1050932.55222214 16820.17628899
0.09700000 1041319.88554294 18368.88364455
0.09800000 1031716.46402451 16853.08923223
0.09900000 1022125.98977746 24531.02490817
0.10000000 1012548.05691842 21476.14529720
0.10100000 1002986.88371822 19949.41005541
0.10200000 993444.14196166 18418.45525831
0.10300000 983920.82814587 24558.66502578
0.10400000 974420.31625215 15347.12070298
0.10500000 964945.10137873 21479.67896730
0.10600001 955492.32298915 23003.47875836
0.10700001 946069.18986228 24522.11455518
0.10800001 936673.97209925 19909.00621392
0.10900001 927310.45605613 15300.62324506
0.11000001 917979.59724011 22926.54152021
0.11100001 908682.35643290 16792.45073736
0.11200001 899421.43340186 18294.23281663
0.11300001 890197.23831480 24355.79758698
0.11400001 881012.06109436 24315.93403111
0.11500001 871868.01540110 16687.55460056
0.11600001 862765.46761458 18169.84160361
0.11700001 853706.17556530 16621.66002105
0.11800001 844690.92743407 21108.82727077
0.11900001 835720.98526840 22564.46766507
0.12000001 826798.01401758 18007.66159355
0.12100001 817925.14973474 16464.83403979
0.12200001 809100.71475085 20899.07244660
0.12300001 800327.78521190 17863.31700755
0.12400001 791606.30954202 23748.19040522
0.12500001 782936.88850010 20716.51104588
0.12600001 774323.26665816 19176.11660243
0.12700001 765763.96931625 16172.93579413
0.12800001 757260.45464593 17583.58858558
0.12900001 748813.99857302 14601.87366039
0.13000001 740425.78608329 18914.17759702
0.13100001 732095.39175146 15945.03838396
0.13200001 723824.51724168 17328.35975963
0.13300001 715614.87987369 14383.85976356
0.13400001 707465.27123506 17191.40690151
0.13500001 699378.10154474 15694.04533861
0.13600001 691352.64704910 14207.29756674
0.13700001 683390.77004716 14146.18960702
0.13800001 675491.30576913 16900.79326731
0.13900001 667657.21164288 19629.12294797
0.14000001 659887.28018988 18143.60162448
0.14100001 652182.52592236 18058.93499450
0.14200001 644542.72583838 16590.53054558
0.14300001 636970.51920386 13758.56386376
0.14400001 629461.98441515 20536.19821023
0.14500001 622021.87182022 14984.50759900
0.14600001 614648.13153796 17618.88952169
0.14700001 607343.45194609 28314.35306550
0.14800001 600103.33399200 18777.23420649
0.14900001 592932.38112535 13340.97920476
0.15000001 585828.61950230 14595.92074358
0.15100001 578793.46011199 22434.03557249
0.15200001 571826.31111331 15748.09735117
0.15300001 564928.46023997 14354.83285209
0.15400001 558096.43934507 15570.89139253
0.15500001 551334.43302644 18061.71687833
0.15600001 544638.44375078 12826.23595566
0.15700001 538014.05267310 16576.21374520
0.15800001 531454.08336063 15210.21658368
0.15900001 524964.45773519 20158.63612853
0.16000001 518540.46774599 13775.02817589
0.16100001 512187.48614678 16180.00345114
0.16200001 505900.78100166 13606.20214733
0.16300001 499681.25308121 13521.37534669
0.16400001 493529.23206239 14657.81888424
0.16500001 487443.72596372 14564.81921942
0.16600001 481426.03458800 18089.58410371
0.16700001 475473.19584676 14378.31012127
0.16800001 469586.18658069 13094.41143107
0.16900001 463767.28496099 18921.70611985
0.17000001 458012.19578335 18796.82140253
0.17100001 452322.20144430 19838.85269216
0.17200001 446697.71566455 17387.70940334
0.17300001 441137.46843760 11513.68846995
0.17400001 435641.24994449 13722.70002132
0.17500001 430208.46257637 12493.25434324
0.17600001 424837.46967412 11279.43535257
0.17700001 419531.01849104 13441.77446732
0.17800001 414285.22358158 16685.33816783
0.17900001 409102.01137377 14359.48127747
0.18000001 403979.74687113 13161.66077475
0.18100001 398919.77405157 13068.61241524
0.18200001 393917.45551941 14056.94506423
0.18300001 388975.90484791 10735.73548095
0.18400001 384093.18632174 13856.16235113
0.18500001 379270.60416920 12697.98042746
0.18600001 374504.08625345 14706.77616197
0.18700001 369795.11706130 14599.51191133
0.18800001 365143.04232043 14492.52803441
0.18900001 360549.17872508 13358.34770291
0.19000001 356007.05156577 13259.48326206
0.19100001 351524.65484378 10123.91053786
0.19200001 347093.69196560 13062.87171436
0.19300001 342718.55719152 10970.42153408
0.19400001 338395.12550310 12867.47525529
0.19500001 334125.16627038 10805.60838780
0.19600001 329907.24976977 12673.38759880
0.19700001 325740.47662627 10641.94187429
0.19800001 321625.09992141 13440.71356091
0.19900001 317560.24084110 10479.48844302
0.20000001 313543.56629435 9453.33897055
0.20100001 309577.57139137 13132.28119908
0.20200001 305658.38904372 10238.02822490
0.20300001 301788.59369570 12005.15082463
0.20400001 297965.15471357 10078.67183456
0.20500001 294188.17529357 9999.45655087
0.20600001 290457.05845983 9018.69209147
0.20700001 286771.77576840 11631.46377497
0.20800001 283129.91480411 10651.34789842
0.20900001 279534.74184498 13208.01717654
0.21000001 275980.83405873 10481.75257305
0.21100001 272470.45367717 10397.47300384
0.21200001 269002.24273328 17189.24412327
0.21300001 265574.76570343 9377.44542031
0.21400001 262189.62072685 13528.98506911
0.21500001 258845.71578642 10063.92190557
0.21600001 255540.59977596 11644.98568235
0.21700001 252275.40923230 11549.16878069
0.21800001 249048.91553718 10635.63444087
0.21900001 245859.79837717 10547.38584908
0.22000001 242708.32470111 8850.35947869
0.22100001 239595.45971324 7978.52918570
0.22200001 236519.00375961 7911.56104985
0.22300001 233477.48541038 9413.81265688
0.22400001 230471.17082351 7778.40238311
0.22500001 227502.08958579 9254.78544198
0.22600001 224565.18485024 13763.60083033
0.22700001 221664.71988545 8339.02715644
0.22800001 218796.23202772 9018.78111068
0.22900001 215960.08501237 9685.81027086
0.23000001 213157.65982371 7385.91326219
0.23100001 210387.92365318 8053.65009832
0.23200001 207648.13113309 8708.76303159
0.23300001 204939.87044395 10070.74570991
0.23400001 202263.24822717 7842.75782093
0.23500001 199614.92290235 7773.00546545
0.23600001 196998.16225437 9804.59899913
0.23700001 194410.04514830 7634.48283407
0.23800001 191850.95576185 9628.99992513
0.23900001 189320.19678046 6815.52740647
0.24000001 186817.38408177 7428.79362940
0.24100001 184343.51399790 8699.17083704
0.24200001 181896.55867055 8619.16884031
0.24300001 179476.39389292 7225.71995993
0.24400001 177082.62422805 7158.56542304
0.24500001 174715.19858758 10959.88492585
0.24600001 172373.82707010 8302.38577358
0.24700001 170058.34833429 11387.10754314
0.24800001 167768.03070812 6892.74986772
0.24900001 165501.75768168 6826.94782733
0.25000001 163261.07074884 7376.13552538
0.25100001 161043.44748685 7304.93112359
0.25200001 158851.62953028 6631.26158846
0.25300001 156683.17509149 5969.62925341
0.25400001 154537.60534083 6502.17005234
0.25500001 152414.92271315 8779.09996363
0.25600001 150315.60278154 6953.60011367
0.25700001 148238.31250204 5736.82296526
0.25800001 146184.02367535 6815.09950619
0.25900001 144151.72819346 6746.30119865
0.26000001 142141.39076732 7234.28642540
0.26100001 140151.71283348 6609.55508997
0.26200001 138184.81165403 8177.08661654
0.26300001 136237.88107262 8092.53051863
0.26400001 134312.36653939 9076.15859837
0.26500001 132408.12204762 7396.31804757
0.26600001 130523.28353801 7318.44085428
0.26700001 128659.94021801 8792.62073057
0.26800001 126816.98495589 6652.18526065
0.26900001 124992.61632561 7087.08168103
0.27000001 123189.18219472 5508.40454251
0.27100001 121404.79786623 5448.64758608
0.27200001 119641.24861088 6859.03310746
0.27300001 117896.03720371 7752.84377341
0.27400001 116168.20217138 5750.32627962
0.27500001 114462.29102455 4738.73907268
0.27600001 112772.50420584 7497.11643441
0.27700001 111103.53267908 6022.92279158
0.27800001 109451.76657212 5954.72364218
0.27900001 107819.66840921 6792.63943126
0.28000001 106204.45686220 4924.16987547
0.28100001 104608.09040288 6637.38365020
0.28200001 103030.24724112 5248.36104287
0.28300001 101469.77314569 4322.61254060
0.28400001 99926.89918204  6407.81271334
0.28500001 98402.27959330  4221.45799436
0.28600001 96894.80919414  5839.85042654
0.28700001 95404.76657595  6182.22916674
0.28800001 93931.42211988  4071.92734163
0.28900001 92477.20721446  4827.31044509
0.29000001 91038.36560700  5563.35478558
0.29100001 89617.57175536  5887.87474303
0.29200001 88213.48287026  5040.07758237
0.29300001 86826.41942753  3829.04527801
0.29400001 85455.26104205  4537.67457613
0.29500001 84101.98050780  5974.60497809
0.29600001 82764.44809702  5530.73450589
0.29700001 81443.57683288  5096.73927947
0.29800001 80139.00939472  3594.23474150
0.29900001 78851.37368963  3903.14318241
0.30000001 77579.06394567  3852.96439326
0.30100001 76323.91499674  4494.71556694
0.30200001 75083.30868629  4095.04384961
0.30300001 73860.17180367  3704.82639306
0.30400001 72652.64360573  3656.24446255
0.30500001 71460.69243655  4264.05971956
0.30600001 70283.55314203  4207.52510804
0.30700001 69123.36992641  3512.84982597
0.30800001 67978.14805067  4411.10223585
0.30900001 66848.58955653  3730.15147386
0.31000001 65734.84060693  3679.83655140
0.31100001 64635.26421088  3327.42355911
0.31200001 63551.70898596  4475.62931724
0.31300001 62482.82658328  4414.41190711
0.31400001 61430.00422285  3483.08140435
0.31500001 60391.16194885  3148.79533310
0.31600002 59367.78371064  3669.81972383
0.31700002 58359.07161709  2783.72784794
0.31800002 57365.09750093  3842.88806354
0.31900002 56386.04397645  3518.48931073
0.32000002 55421.53396462  3202.25638410
0.32100002 54470.84845929  2894.03631567
0.32200002 53535.98204218  2593.81845276
0.32300002 52613.55443357  3579.82641317
0.32400002 51706.20689723  2772.74547616
0.32500002 50812.95154138  2733.22879283
0.32600002 49934.00427067  2694.18932800
0.32700002 49068.34540700  2655.57897918
0.32800002 48217.51910151  3093.39508444
0.32900002 47379.63177459  2814.35026068
0.33000002 46556.21585278  3467.27433982
0.33100002 45744.16246845  2733.67127857
0.33200002 44948.60399298  2245.18287577
0.33300002 44164.94040026  2433.92998072
0.33400002 43394.84534465  3925.06394730
0.33500002 42637.29783199  2363.81190375
0.33600002 41893.59064203  2753.03743942
0.33700002 41161.93890418  2921.67456178
0.33800002 40444.28178038  2673.56937370
0.33900002 39738.22270310  2431.97934460
0.34000002 39045.54270702  1997.17960405
0.34100002 38365.02229020  2361.75088403
0.34200002 37697.51917419  2133.49119870
0.34300002 37041.46227625  2675.87536156
0.34400002 36398.88128252  2448.73485425
0.34500002 35767.41370949  2970.12617510
0.34600002 35148.88962213  2378.34972892
0.34700002 34540.74552156  1983.32970178
0.34800002 33945.81382310  1954.76978158
0.34900002 33361.85579791  2276.94676605
0.35000002 32789.61625331  2416.92272850
0.35100002 32229.28478452  2042.04758066
0.35200002 31679.11890488  2516.11413819
0.35300002 31140.59408456  1984.27874905
0.35400002 30613.41551869  1793.18089894
0.35500002 30097.24636722  2250.07024499
0.35600002 29591.00020622  1743.05794971
0.35700002 29096.04673922  2187.44089746
0.35800002 28611.96358068  2157.05603652
0.35900002 28138.39926599  2431.15781173
0.36000002 27675.36301144  2247.93146708
0.36100002 27221.71806108  1921.58116895
0.36200002 26779.25584192  1458.13054966
0.36300002 26345.84849119  1438.48339576
0.36400002 25922.37449803  1419.25007099
0.36500002 25508.40045992  2100.61687738
0.36600002 25104.55061603  1658.40669225
0.36700002 24709.64229004  1773.16401473
0.36800002 24325.35942664  2019.61306206
0.36900002 23949.38385109  1329.19086670
0.37000002 23582.12655181  1443.57994525
0.37100002 23223.87825364  1555.07096153
0.37200002 22875.15761397  1279.86512913
0.37300002 22534.64126013  1896.29015187
0.37400002 22202.75341305  1748.46691410
0.37500002 21879.72646034  1234.01663082
0.37600002 21565.20017747  1707.31697893
0.37700002 21258.24742344  1325.87695461
0.37800002 20959.50317067  1310.70259287
0.37900002 20669.36092856  1178.15362874
0.38000002 20386.88179371  1398.13241965
0.38100002 20111.19003773  1728.55686563
0.38200002 19844.06536300  1824.06657458
0.38300002 19583.76756720  1692.03759796
0.38400002 19331.68245021  1116.40471439
0.38500002 19085.75008026  1215.57148020
0.38600002 18848.07356232  1969.43529983
0.38700002 18616.43311620  1625.21468804
0.38800002 18392.13365830  1609.77157471
0.38900002 18173.85845507  1594.75615498
0.39000002 17963.49930740  1053.55928429
0.39100002 17758.52562858  1566.30203465
0.39200002 17560.45603732  1242.22671893
0.39300002 17368.39025421  1437.06067772
0.39400002 17183.70912681  1527.20222100
0.39500002 17003.79403275  1010.02541340
0.39600002 16830.03183481  1102.45128757
0.39700002 16662.01182089  1293.13879869
0.39800002 16500.01829868  1382.53659875
0.39900002 16343.26513076  1176.71514517
0.40000002 16191.89945480  1168.73135802
0.40100002 16046.30397625  1161.11061073
0.40200002 15905.95106226  1346.12070218
0.40300002 15770.23527491  1242.37919382
0.40400002 15639.92705185  1330.17585878
0.40500002 15514.76583271  1322.78899757
0.40600002 15394.22879333  1033.79948360
0.40700002 15278.52352514  1122.05482085
0.40800002 15167.28750640  1209.66707239
0.40900002 15060.54853389  1481.95804595
0.41000002 14958.75901813  1014.42829088
0.41100002 14860.78072635  1102.07555088
0.41200002 14766.87073232  1006.28845373
0.41300002 14677.84804918  1184.94272916
0.41400002 14592.19528213  1180.87345916
0.41500002 14510.79022038  1086.56802319
0.41600002 14432.67474100  1263.86938696
0.41700002 14358.70062452  1080.34868618
0.41800002 14289.26808611  1257.31275847
0.41900002 14221.50271412  985.55018479
0.42000002 14158.36780556  1162.33126007
0.42100002 14099.00624516  1160.20727889
0.42200002 14042.79123972  980.11666102
0.42300002 13989.28881888  978.69069214
0.42400002 13938.87086179  1510.62520123
0.42500002 13891.97122464  1242.77580465
0.42600002 13847.10588764  1241.67004378
0.42700002 13806.42824474  975.01000885
0.42800002 13767.69767221  1328.92708078
0.42900002 13732.76122155  1240.06839707
0.43000002 13699.79644914  1062.83025889
0.43100002 13668.63097125  1062.87279469
0.43200002 13641.04245485  1063.18289931
0.43300002 13615.62821710  975.01518283
0.43400002 13592.59863406  886.91710290
0.43500002 13571.66311138  1065.10417145
0.43600002 13553.36691875  888.42324363
0.43700002 13536.58328642  1067.22427688
0.43800002 13521.86490657  1157.53930018
0.43900002 13509.90733502  1159.15010428
0.44000002 13499.35317586  982.28048039
0.44100002 13491.01864605  1162.79095221
0.44200002 13484.36549398  896.03612954
0.44300002 13479.58899311  897.74066949
0.44400002 13476.83435853  989.53660967
0.44500002 13474.36537746  901.43508647
0.44600002 13474.14785444  1174.47415339
0.44700002 13476.33839539  1177.29297802
0.44800002 13478.58705379  1089.33945731
0.44900002 13483.81125361  1092.18876330
0.45000002 13489.74111889  1460.12964791
0.45100002 13496.73679437  1281.11031724
0.45200002 13505.20272062  1284.74999570
0.45300002 13514.51341502  1104.40608862
0.45400002 13525.55894932  1015.43138624
0.45500002 13537.53328425  1574.14444490
0.45600002 13550.48697295  1114.66311122
0.45700002 13564.46257803  1118.25434793
0.45800002 13579.07162530  1215.39486342
0.45900002 13594.70326031  1031.83802636
0.46000002 13611.95090007  1129.51973922
0.46100002 13628.96167782  1322.28192465
0.46200002 13647.59560370  1326.95578344
0.46300002 13667.04943557  1046.34935438
0.46400002 13686.33804114  954.62212361
0.46500002 13707.06618934  1341.37356086
0.46600002 13727.96891189  961.64426786
0.46700002 13749.28807835  1254.76008950
0.46800002 13772.16513084  1453.30779431
0.46900002 13794.45743854  1069.76022506
0.47000002 13817.62357809  1464.32272809
0.47100002 13841.22750179  1371.94253500
0.47200002 13865.55479868  1180.51339151
0.47300002 13890.32492755  1185.12257899
0.47400002 13914.64774762  1586.26991841
0.47500002 13939.84709097  1293.89666831
0.47600002 13965.65309300  1299.01528402
0.47700002 13991.01220539  1404.41787174
