# SAXS profile: number of points = 501, q_min = 0, q_max = 0.5, delta_q = 0.001
#    q    intensity    error
0.00000000 1664650.74656090 324.60689558
0.00100000 1664564.11390042 798.99079365
0.00200000 1664304.19161804 1348.08643790
0.00300000 1663871.19007893 1497.48412442
0.00400000 1663264.97637086 1247.44877968
0.00500000 1662486.23381512 1945.10897055
0.00600000 1661534.75795518 1919.07272357
0.00700000 1660411.35415579 2191.74307858
0.00800000 1659115.80298129 2239.80642859
0.00900000 1657649.44245249 2735.12169697
0.01000000 1656011.69648157 3005.66135890
0.01100000 1654204.22831713 3275.32451467
0.01200000 1652226.82125474 3544.02668698
0.01300000 1650080.89048196 4158.20402741
0.01400000 1647766.59203212 3707.47499643
0.01500000 1645285.48171508 5133.29093153
0.01600000 1642637.15852695 4607.59743564
0.01700000 1639824.01415866 4870.27754053
0.01800000 1636846.37163836 5131.51360599
0.01900000 1633705.19262630 5391.22737893
0.02000000 1630401.46787281 6676.49431295
0.02100000 1626937.66709231 9664.01018068
0.02200000 1623312.60266204 6160.47160699
0.02300000 1619529.31047474 5830.30578310
0.02400000 1615588.53611019 8481.84020133
0.02500000 1611492.51573280 6913.30320823
0.02600000 1607241.61471919 7160.26172107
0.02700000 1602837.90195929 8751.49534553
0.02800000 1598281.75490355 8343.03114320
0.02900000 1593576.58500604 7888.20445796
0.03000000 1588723.02831785 8126.31866337
0.03100000 1583722.77008171 12162.99143389
0.03200000 1578576.90818312 11720.93408310
0.03300000 1573289.58804264 12838.04363027
0.03400000 1567859.39749028 9054.38843828
0.03500000 1562290.51975807 14341.82763366
0.03600000 1556583.39300548 8639.03823042
0.03700000 1550741.26062943 9723.14815382
0.03800000 1544765.40032306 9036.87801011
0.03900000 1538658.38313665 11078.34087162
0.04000000 1532420.53144433 13194.14138714
0.04100000 1526055.82660333 12498.39779939
0.04200000 1519565.76433881 14701.79945204
0.04300000 1512952.13715350 11982.58148246
0.04400000 1506217.93903871 11183.66871675
0.04500000 1499365.31669783 15518.43174888
0.04600000 1492394.99389206 11573.52371565
0.04700000 1485310.91676068 14971.93473726
0.04800000 1478114.96236921 13036.97457468
0.04900000 1470809.72395613 13237.28813177
0.05000000 1463396.60174660 15672.97833454
0.05100000 1455879.83777532 12491.44959001
0.05200000 1448258.69566210 14967.75431718
0.05300000 1440538.54654130 12835.19904803
0.05400000 1432720.33932010 13001.93768566
0.05500000 1424807.84339818 13165.22508715
0.05600000 1416801.46728181 14536.38373264
0.05700000 1408706.70206068 14706.89865601
0.05800000 1400522.63701274 17352.47628282
0.05900000 1392253.26426296 20048.44794177
0.06000000 1383902.39538595 18994.06126405
0.06100000 1375471.37778093 12791.88441114
0.06200000 1366962.92185536 14209.58023689
0.06300000 1358380.40522802 14344.49774989
0.06400000 1349723.41962246 21055.68633082
0.06500000 1340997.79925609 17258.64248375
0.06600000 1332205.54512772 20082.99953245
0.06700000 1323347.29120410 13498.14300198
0.06800000 1314427.65890487 24487.78843165
0.06900000 1305450.03330354 19190.11638802
0.07000000 1296413.96992623 19329.53319677
0.07100000 1287323.76660200 16683.71679659
0.07200000 1278181.79086945 16795.30951883
0.07300000 1268991.14532001 19720.12332227
0.07400000 1259754.73128334 15589.46553022
0.07500000 1250473.42419596 17106.47724482
0.07600000 1241150.21756127 21502.92852732
0.07700000 1231789.21498569 18735.51483841
0.07800000 1222391.49232627 18830.94182239
0.07900000 1212958.52002060 17466.60350755
0.08000000 1203496.44695930 17546.97901981
0.08100000 1194005.39006955 19092.14708298
0.08200000 1184486.63468512 17696.23115259
0.08300000 1174944.14807372 17765.15635263
0.08400000 1165380.84975771 14858.60653185
0.08500000 1155798.30703135 19382.73851884
0.08600000 1146199.19409733 14957.90018527
0.08700000 1136585.78299392 16503.22634403
0.08800000 1126959.84927881 18053.89763333
0.08900000 1117324.82797725 19609.05165203
0.09000000 1107682.78974834 19655.83202743
0.09100000 1098035.38682425 16668.17795508
0.09200000 1088384.87955080 15182.96978313
0.09300000 1078735.30517554 21294.23592483
0.09400000 1069085.43547481 19804.80862295
0.09500000 1059439.68284462 24409.49144005
0.09600000 1049799.50061547 24439.33352317
0.09700000 1040169.95741737 19877.64882075
0.09800000 1030549.38196903 16834.02494596
0.09900000 1020942.14586196 21439.78607125
0.10000000 1011347.28221919 24515.05927387
0.10100000 1001769.41434760 24523.31641660
0.10200000 992209.92951054 22994.46619798
0.10300000 982670.34315271 24527.45291888
0.10400000 973153.13191795 16859.87880365
0.10500000 963661.72854256 15322.22220473
0.10600001 954192.59840015 16846.27111743
0.10700001 944753.55802822 15305.00836027
0.10800001 935342.05291755 18351.41194189
0.10900001 925962.76442860 16806.22496538
0.11000001 916616.14633657 19840.15742132
0.11100001 907303.26287436 24388.31285410
0.11200001 898026.91619644 22832.33541918
0.11300001 888787.24475665 16718.08886097
0.11400001 879587.03466872 16690.16476869
0.11500001 870427.63368107 21203.61815491
0.11600001 861310.31088840 22673.99500189
0.11700001 852236.38230219 21118.41854802
0.11800001 843206.58688229 22576.85742711
0.11900001 834222.26582423 18019.20179054
0.12000001 825284.97317868 16476.81526565
0.12100001 816397.89350737 14940.08215498
0.12200001 807559.77232237 20859.26990179
0.12300001 798773.10329139 23771.48867393
0.12400001 790038.03584519 14813.21387006
0.12500001 781355.36161786 19197.90213957
0.12600001 772728.76095684 17664.58030789
0.12700001 764156.43507765 16138.98466941
0.12800001 755640.11724962 17545.96434946
0.12900001 747181.30832547 23312.05791850
0.13000001 738780.79803431 26130.67805814
0.13100001 730438.25558136 14462.67814225
0.13200001 722155.43777120 14407.00166269
0.13300001 713934.12665586 21525.11493343
0.13400001 705773.15847173 18579.47927271
0.13500001 697674.85306767 18502.33797571
0.13600001 689638.31006943 17006.48152818
0.13700001 681665.78750371 14110.48246668
0.13800001 673755.83453328 15452.59079370
0.13900001 665911.42325524 20976.21082174
0.14000001 658131.47898768 20879.22215556
0.14100001 650416.81072897 18010.04233849
0.14200001 642767.66629683 16544.84051082
0.14300001 635185.97718353 17836.02308060
0.14400001 627668.24778555 15016.96353662
0.14500001 620219.47633213 14941.08788964
0.14600001 612837.20584566 14864.36712900
0.14700001 605524.41249628 16131.17110991
0.14800001 598276.11668640 14708.61902267
0.14900001 591097.49281605 21279.51074536
0.15000001 583986.16336185 14550.01594667
0.15100001 576943.55418471 19731.47048415
0.15200001 569969.60973406 15696.96379277
0.15300001 563065.04886659 16908.84421538
0.15400001 556226.56925173 12932.26834539
0.15500001 549458.41829996 16714.52587349
0.15600001 542756.35380141 15338.29528232
0.15700001 536126.42090100 15247.43613006
0.15800001 529561.04088028 17682.04398956
0.15900001 523066.37143291 16319.67155900
0.16000001 516637.50142040 14972.15549789
0.16100001 510280.00041820 14879.76551458
0.16200001 503988.84720100 12322.52789576
0.16300001 497765.28585514 12245.02661010
0.16400001 491609.56376596 14600.80473315
0.16500001 485520.51334970 15716.29975912
0.16600001 479499.71547360 15614.90897162
0.16700001 473543.83225707 15513.29667720
0.16800001 467654.01074823 20153.55054477
0.16900001 461832.80970755 12954.41092398
0.17000001 456075.71536079 14038.01118168
0.17100001 450383.77273080 13943.88226219
0.17200001 444757.80861078 12695.61224632
0.17300001 439196.12848403 12609.32144425
0.17400001 433698.89581520 15938.43517392
0.17500001 428265.44117419 13567.44981716
0.17600001 422893.98241975 16841.75364529
0.17700001 417587.25372708 11149.58020111
0.17800001 412341.52208321 13285.64446903
0.17900001 407158.51629325 18688.57678059
0.18000001 402036.97354518 18556.01739047
0.18100001 396977.89691407 11921.24680745
0.18200001 391976.62582196 12911.71066450
0.18300001 387036.54279092 11750.42999421
0.18400001 382155.35065545 14846.73607433
0.18500001 377334.53220848 12633.16073516
0.18600001 372570.37797756 16720.95935359
0.18700001 367863.77948190 13485.88679294
0.18800001 363214.36494731 11326.84050603
0.18900001 358623.29532524 10220.76439967
0.19000001 354084.53749338 14202.33146990
0.19100001 349605.38382037 11075.49908275
0.19200001 345178.02357443 14989.35638199
0.19300001 340806.98616831 14876.22564919
0.19400001 336487.55537560 15747.61833571
0.19500001 332222.07144205 12697.52817054
0.19600001 328008.77619223 11631.19175342
0.19700001 323846.93850844 11541.90543388
0.19800001 319736.56500877 16225.03275815
0.19900001 315677.04934600 11364.37431354
0.20000001 311666.00888374 10336.40367314
0.20100001 307705.75390715 11188.18174084
0.20200001 303792.56601148 10175.53247949
0.20300001 299929.05225405 9177.82943276
0.20400001 296112.19525764 13658.17565182
0.20500001 292341.66714790 9936.69373603
0.20600001 288617.56306284 11650.04848371
0.20700001 284939.44408576 9779.12218327
0.20800001 281304.82770202 14110.25082453
0.20900001 277716.98764173 10497.70262910
0.21000001 274170.89644495 13016.26392403
0.21100001 270668.48419700 12050.16148610
0.21200001 267208.34125085 11098.49897853
0.21300001 263789.25200423 14394.98016240
0.21400001 260412.58259901 10077.96742303
0.21500001 257077.42454204 9162.23984385
0.21600001 253781.13827004 13216.92230598
0.21700001 250524.91498687 9830.59812887
0.21800001 247307.69176533 8936.46386446
0.21900001 244127.93067444 12084.33313975
0.22000001 240985.96051529 10385.29045945
0.22100001 237882.82407291 11090.09778266
0.22200001 234816.36191453 9425.52921293
0.22300001 231784.87137376 8566.76925106
0.22400001 228788.70604865 8493.78111370
0.22500001 225829.97147902 10717.89095321
0.22600001 222903.64762074 9107.84347248
0.22700001 220013.73789770 9781.81124951
0.22800001 217156.11766928 8205.24429416
0.22900001 214330.86858166 8133.85684733
0.23000001 211539.37484678 8795.80762210
0.23100001 208780.90421045 8718.69097216
0.23200001 206052.43245758 7921.68614048
0.23300001 203355.64016115 10706.67496085
0.23400001 200690.55084799 7781.77647717
0.23500001 198053.95423336 9815.55443604
0.23600001 195448.95425798 7643.03171775
0.23700001 192872.73152256 10328.33526154
0.23800001 190325.74927864 8187.81412124
0.23900001 187807.01616707 10817.68464290
0.24000001 185316.48860832 8039.02965608
0.24100001 182854.98446279 6637.63624997
0.24200001 180420.22078671 7233.94909462
0.24300001 178012.70470979 7818.31836068
0.24400001 175631.49536687 7099.90353606
0.24500001 173276.71731479 7033.30228851
0.24600001 170948.05396712 8233.71340882
0.24700001 168645.52226142 7528.33646988
0.24800001 166367.95940888 6213.84357788
0.24900001 164114.54362238 6769.72524468
0.25000001 161886.87456863 9752.06578537
0.25100001 159682.41787726 8450.39395384
0.25200001 157503.60248449 7770.44059619
0.25300001 155348.32617238 6510.64865791
0.25400001 153215.96699652 7618.66431935
0.25500001 151106.58652133 9283.98911511
0.25600001 149020.58070328 6319.21802370
0.25700001 146956.55939540 10236.99441183
0.25800001 144915.68808686 5629.97474855
0.25900001 142896.87087031 8359.46734144
0.26000001 140899.86303818 6067.85288884
0.26100001 138923.72566778 7643.58374791
0.26200001 136970.15852756 5403.47300959
0.26300001 135036.83442438 6416.95067548
0.26400001 133124.77764080 7937.56524242
0.26500001 131234.05593594 5759.86298758
0.26600001 129362.74312507 7253.36935025
0.26700001 127512.93832424 5638.62239952
0.26800001 125683.55449689 5071.33166393
0.26900001 123872.68288880 5016.84389440
0.27000001 122082.74715450 7940.26225068
0.27100001 120311.77888278 4908.72081071
0.27200001 118561.76285551 4855.10441869
0.27300001 116830.06148654 5281.88732977
0.27400001 115115.66481037 6173.07781760
0.27500001 113423.07849509 5165.28723912
0.27600001 111746.95561254 6036.01209307
0.27700001 110091.17082577 5049.88224477
0.27800001 108452.78458684 5900.37402470
0.27900001 106834.09076987 4935.73522717
0.28000001 105232.11890297 6209.74763036
0.28100001 103648.98418190 5699.65790992
0.28200001 102084.41937086 4333.48380740
0.28300001 100537.18440873 5139.46111023
0.28400001 99007.34134474  5925.58965995
0.28500001 97495.76320940  5019.08212758
0.28600001 96001.34499303  4546.14390732
0.28700001 94524.30452822  4083.45014890
0.28800001 93063.87358829  4437.75102211
0.28900001 91622.51908791  6775.48560726
0.29000001 90196.45879541  5118.19829661
0.29100001 88788.31045503  3888.92818201
0.29200001 87396.99089756  4609.31751812
0.29300001 86022.48878823  6069.74709621
0.29400001 84663.86412366  3746.37616481
0.29500001 83323.03473409  5179.36008425
0.29600001 81997.91576323  4748.90951623
0.29700001 80689.28344052  3967.49225458
0.29800001 79396.93216732  4273.14309153
0.29900001 78121.44509822  3867.01171542
0.30000001 76861.26795677  4858.40097754
0.30100001 75618.15479552  3768.05283184
0.30200001 74389.39246340  5071.49707128
0.30300001 73178.01414919  4004.30112381
0.30400001 71982.28496738  3293.18969316
0.30500001 70801.97024861  3249.81058826
0.30600001 69636.38623463  4489.45803309
0.30700001 68487.59361647  3164.12697488
0.30800001 67353.71549465  3746.21383317
0.30900001 66235.47908532  4927.91987726
0.31000001 65132.70895005  4557.66152456
0.31100001 64044.23967523  3596.72467045
0.31200001 62971.69458978  3252.17332107
0.31300001 61913.55866709  3207.74162642
0.31400001 60871.44997122  3451.41137678
0.31500001 59843.37529878  3403.89134816
0.31600002 58830.47112381  4755.56135846
0.31700002 57832.18207119  3586.17378003
0.31800002 56848.44501897  4624.33697902
0.31900002 55879.49268766  3486.88050881
0.32000002 54925.18564382  3173.57737677
0.32100002 53984.56214025  3128.94536980
0.32200002 53059.47886734  4113.17099656
0.32300002 52146.89029429  3041.20678597
0.32400002 51249.12299416  3247.91332355
0.32500002 50365.27788549  2709.14842574
0.32600002 49495.71272305  2427.76482403
0.32700002 48639.41369263  3110.97704709
0.32800002 47797.69144308  3066.46103974
0.32900002 46968.89988353  2789.95278520
0.33000002 46154.46501286  2291.56929640
0.33100002 45351.14091521  2936.03300188
0.33200002 44564.32652493  3116.38350146
0.33300002 43789.17915278  3729.52456505
0.33400002 43027.63497979  3026.99426417
0.33500002 42278.28896095  2343.90845099
0.33600002 41542.84369889  2309.98993327
0.33700002 40819.29463303  2483.44600308
0.33800002 40109.44788298  3263.30483430
0.33900002 39411.27343345  2612.96755238
0.34000002 38726.32313283  1980.85152205
0.34100002 38053.42977201  2537.78335168
0.34200002 37393.42000988  2501.05901581
0.34300002 36744.60901180  1896.02191480
0.34400002 36109.17759089  2055.51503171
0.34500002 35484.83575081  2025.82936896
0.34600002 34873.41924850  1996.67771364
0.34700002 34272.02536401  1788.99980873
0.34800002 33683.87018122  2116.02082500
0.34900002 33106.55282017  1911.90351592
0.35000002 32540.73437657  2055.92369528
0.35100002 31986.90607893  1857.79959305
0.35200002 31442.78098741  1664.89533214
0.35300002 30910.44628309  1641.34477537
0.35400002 30389.32698304  2103.70126004
0.35500002 29878.94766834  1755.08946917
0.35600002 29378.47196437  2831.79104677
0.35700002 28889.10923588  1706.47976339
0.35800002 28410.71485068  2600.85901420
0.35900002 27942.39691742  2263.33425751
0.36000002 27484.61726808  1637.12130512
0.36100002 27036.16902815  2055.28966687
0.36200002 26598.75965891  2317.28405125
0.36300002 26170.19503786  1428.89271675
0.36400002 25751.51186872  1409.89534160
0.36500002 25342.36141471  1808.68441984
0.36600002 24942.97969646  1373.11109733
0.36700002 24552.41555015  1897.41076359
0.36800002 24172.59138318  2006.92949465
0.36900002 23800.74924197  1585.12997460
0.37000002 23437.62701942  1434.73440596
0.37100002 23083.31000088  1416.85363497
0.37200002 22738.53691241  1526.66544062
0.37300002 22401.79214294  1508.08871850
0.37400002 22073.54841172  1614.12830407
0.37500002 21754.09340830  1349.62401898
0.37600002 21443.04232331  1212.60410083
0.37700002 21139.46162450  1558.18979016
0.37800002 20843.87437371  1540.46660856
0.37900002 20556.81184726  1640.43366312
0.38000002 20277.38934730  1506.50871293
0.38100002 20004.62236243  1375.51789880
0.38200002 19740.37984020  2041.35277598
0.38300002 19482.77686726  1234.42880079
0.38400002 19233.31422004  1221.79634371
0.38500002 18989.80372593  1209.46065660
0.38600002 18754.40709984  1197.56272209
0.38700002 18525.28404178  1293.80589877
0.38800002 18303.07913423  1495.17860531
0.38900002 18086.98275427  1375.51510363
0.39000002 17878.58719620  1258.29502648
0.39100002 17675.51523784  1247.18441427
0.39200002 17479.34365860  1133.44809324
0.39300002 17289.01931054  1226.13730759
0.39400002 17105.97100120  1317.58747879
0.39500002 16927.65353368  1106.05293429
0.39600002 16755.31126559  1396.89036639
0.39700002 16588.65332885  1089.37691572
0.39800002 16427.97034929  1278.17829358
0.39900002 16272.42750377  1659.78768402
0.40000002 16122.15123023  1066.72218669
0.40100002 15977.52259172  1541.51145268
0.40200002 15838.21652962  1340.38832841
0.40300002 15703.36679463  1141.94888741
0.40400002 15573.88763015  1135.33646203
0.40500002 15449.45461120  940.87183040
0.40600002 15329.51809344  935.86712395
0.40700002 15214.31295774  1210.45079627
0.40800002 15103.67658454  1389.91590355
0.40900002 14997.32289549  922.33540177
0.41000002 14895.78201958  1101.99000602
0.41100002 14798.14225006  1005.97775782
0.41200002 14704.41539035  910.93857659
0.41300002 14615.50319533  1089.14734972
0.41400002 14529.91399226  994.93590776
0.41500002 14448.50807941  1532.69780969
0.41600002 14370.33444545  898.86446215
0.41700002 14296.21900393  1254.92216363
0.41800002 14226.63037939  1430.63001874
0.41900002 14158.54663169  981.18732807
0.42000002 14095.05292854  1157.13342500
0.42100002 14035.39926939  977.28489744
0.42200002 13978.75987438  1419.12376969
0.42300002 13924.77076317  1416.98474000
0.42400002 13873.81915612  1238.23841836
0.42500002 13826.31294732  883.50143920
0.42600002 13780.79361304  1323.98980911
0.42700002 13739.45159606  1058.48740112
0.42800002 13699.80457130  969.74071253
0.42900002 13664.16814139  881.33888688
0.43000002 13630.34632700  1145.56251134
0.43100002 13598.21000037  1586.09528960
0.43200002 13569.65818051  969.48427465
0.43300002 13543.30142801  1410.67034359
0.43400002 13519.23831316  1323.19551260
0.43500002 13497.23661245  1059.26317954
0.43600002 13477.76462013  1148.50776653
0.43700002 13459.84769202  1061.17444233
0.43800002 13443.95262676  1062.34118691
0.43900002 13430.77951768  1063.71778821
0.44000002 13418.94720905  1065.19607993
0.44100002 13409.30294715  1333.55524129
0.44200002 13401.29546723  979.56773860
0.44300002 13395.15578515  1427.38786811
0.44400002 13390.98959700  983.23345776
0.44500002 13387.16300781  1791.20249533
0.44600002 13385.46973414  1076.99494585
0.44700002 13386.19823331  1169.41833308
0.44800002 13386.83175535  991.76347760
0.44900002 13390.59062946  1355.79736549
0.45000002 13394.89859320  1178.01441261
0.45100002 13400.30974133  1817.08208704
0.45200002 13407.18694399  1002.12023562
0.45300002 13414.84937910  1004.90641461
0.45400002 13424.25839715  916.20567903
0.45500002 13434.56254075  1562.17100628
0.45600002 13445.80818493  1198.22325319
0.45700002 13458.09476081  1201.94250005
0.45800002 13470.97503212  1020.22434241
0.45900002 13484.90913729  1023.50465203
0.46000002 13500.42984119  1120.26572132
0.46100002 13515.70269109  1123.96588906
0.46200002 13532.55924785  1315.77079803
0.46300002 13550.23934578  943.09670316
0.46400002 13567.78024461  1040.98798861
0.46500002 13586.70693733  1234.62411791
0.46600002 13605.80281767  1334.32114557
0.46700002 13625.34186600  1339.09866206
0.46800002 13646.44506996  1152.03294741
0.46900002 13666.94986432  1059.87201221
0.47000002 13688.28841546  1063.78538463
0.47100002 13710.18656825  1067.74938054
0.47200002 13732.60946805  1656.35876950
0.47300002 13755.52942669  1173.62182631
0.47400002 13778.07243413  981.68770746
0.47500002 13801.44162584  985.42297879
0.47600002 13825.50169106  1088.13616217
0.47700002 13849.03882153  1390.16658280
