# SAXS profile: number of points = 501, q_min = 0, q_max = 0.5, delta_q = 0.001
#    q    intensity    error
0.00000000 1682732.95097188 252.40994265
0.00100000 1682645.95123799 706.71131630
0.00200000 1682384.92106252 984.19520999
0.00300000 1681950.08026109 2119.25717662
0.00400000 1681341.29352542 1387.10661987
0.00500000 1680559.23690867 2117.50472232
0.00600000 1679603.70944075 2292.65915673
0.00700000 1678475.53443339 2215.58779753
0.00800000 1677174.44692181 2264.18559894
0.00900000 1675701.85248035 3267.61875202
0.01000000 1674057.11939186 2762.19436627
0.01100000 1672241.95877379 3010.03565685
0.01200000 1670256.07871238 4234.09934517
0.01300000 1668100.97187924 4553.91585408
0.01400000 1665776.74175782 5247.19696915
0.01500000 1663285.04801445 5987.82643948
0.01600000 1660625.35045569 4658.05431626
0.01700000 1657800.11391593 5818.87866087
0.01800000 1654809.66012369 5187.82851793
0.01900000 1651654.96571450 6441.45465694
0.02000000 1648336.97907682 5711.48789086
0.02100000 1644858.22257191 6513.63885670
0.02200000 1641217.47971602 7360.86073095
0.02300000 1637417.81699871 10020.99749617
0.02400000 1633459.89755724 6125.47489515
0.02500000 1629346.08544171 6989.89502578
0.02600000 1625076.65974203 10530.49723678
0.02700000 1620653.68896487 6806.74580541
0.02800000 1616077.63513089 10544.90705281
0.02900000 1611351.82994275 7976.19192444
0.03000000 1606476.89654494 8964.14149476
0.03100000 1601454.56520134 9224.37872000
0.03200000 1596285.98717171 9481.93920052
0.03300000 1590975.29884953 10548.16671765
0.03400000 1585521.07118727 9988.78320937
0.03500000 1579927.34259882 11091.09045721
0.03600000 1574194.74441491 8736.78123526
0.03700000 1568326.41364447 10727.35316544
0.03800000 1562323.77636238 10053.55396617
0.03900000 1556189.28378442 10270.84974862
0.04000000 1549923.26796155 11438.43424760
0.04100000 1543529.66351346 13613.93226342
0.04200000 1537010.17747401 12887.83093602
0.04300000 1530366.38999847 13130.54423568
0.04400000 1523601.32487544 13369.60224669
0.04500000 1516717.26118323 13604.95446497
0.04600000 1509714.90529771 11707.83963484
0.04700000 1502598.04707473 15146.18901893
0.04800000 1495368.70615675 15387.34470230
0.04900000 1488029.40419272 15624.30947130
0.05000000 1480581.65835312 15857.03029936
0.05100000 1473029.61453739 14936.52098721
0.05200000 1465372.53096906 18639.53946255
0.05300000 1457615.92232689 16529.36532975
0.05400000 1449760.52236483 15548.68232746
0.05500000 1441810.34463396 12111.20745990
0.05600000 1433765.61995703 12258.69662267
0.05700000 1425631.90050845 17364.19735873
0.05800000 1417408.30707029 20070.50256526
0.05900000 1409098.79343097 15218.26767984
0.06000000 1400707.13741281 15379.76508732
0.06100000 1392234.83118393 16832.11989560
0.06200000 1383684.48924522 14383.40093803
0.06300000 1375059.55159767 19800.85846880
0.06400000 1366359.54701140 14654.20682703
0.06500000 1357590.29471983 13440.14454643
0.06600000 1348753.90454401 14910.47511237
0.06700000 1339850.96746366 16399.77660925
0.06800000 1330886.09538537 15152.13890522
0.06900000 1321862.75298679 16655.47146742
0.07000000 1312780.28595339 25165.99926021
0.07100000 1303643.15907383 15487.28145519
0.07200000 1294453.83757215 17009.12422252
0.07300000 1285215.42035475 14265.89183437
0.07400000 1275930.61265557 17225.06407809
0.07500000 1266600.35739612 20214.94265157
0.07600000 1257227.62989496 20329.37172845
0.07700000 1247816.73901715 21899.18479657
0.07800000 1238368.58131122 22012.00256509
0.07900000 1228884.85184466 17695.94269657
0.08000000 1219371.20584992 14815.36084608
0.08100000 1209828.33867297 16368.97819025
0.08200000 1200257.34040756 19426.16596607
0.08300000 1190662.06264035 24003.74830937
0.08400000 1181045.40684036 16564.16260844
0.08500000 1171409.22949721 16622.29774690
0.08600000 1161756.00364534 16677.00821534
0.08700000 1152087.97235855 19769.83053402
0.08800000 1142407.07026765 18301.36212519
0.08900000 1132716.53234785 22937.51085741
0.09000000 1123018.64695548 19927.96682635
0.09100000 1113314.99565887 16900.12242809
0.09200000 1103607.73157574 15395.32857886
0.09300000 1093901.13544042 20051.20875487
0.09400000 1084193.58079576 16994.73517768
0.09500000 1074490.07698067 18567.18940293
0.09600000 1064791.72234180 15492.72028835
0.09700000 1055103.40179370 15510.02073554
0.09800000 1045423.87156361 17076.99974491
0.09900000 1035757.21978104 18643.63083273
0.10000000 1026102.61027964 23318.18291519
0.10100000 1016464.61726348 18662.29125068
0.10200000 1006844.93607619 20222.48149228
0.10300000 997244.35913474 15557.01273432
0.10400000 987666.12257491 17111.31637861
0.10500000 978113.10908806 18662.39899945
0.10600001 968582.26481349 17100.32068991
0.10700001 959081.21819494 26413.09799203
0.10800001 949607.44675979 18631.29898225
0.10900001 940165.33512133 27922.91176731
0.11000001 930755.71715970 15497.08342015
0.11100001 921379.57126615 18575.01303111
0.11200001 912039.67770867 17004.98059142
0.11300001 902736.14165556 16980.46762400
0.11400001 893471.81202798 20036.10632812
0.11500001 884248.23657256 18463.10404903
0.11600001 875066.15236494 19964.63520637
0.11700001 865927.38822092 19924.99014133
0.11800001 856832.37814823 16823.90453732
0.11900001 847782.77866357 21364.12702861
0.12000001 838779.94502722 21313.39940711
0.12100001 829827.17365711 22778.75698995
0.12200001 820922.85004339 16660.63002653
0.12300001 812070.00870175 16614.95316084
0.12400001 803268.44504068 18073.54086499
0.12500001 794519.15033842 19521.33644367
0.12600001 785825.58438798 20957.96932324
0.12700001 777186.41802905 16414.17792231
0.12800001 768602.87841564 14872.46639827
0.12900001 760076.73179094 16303.64666534
0.13000001 751608.63950637 20676.75464742
0.13100001 743198.38887534 14715.32879338
0.13200001 734847.69279234 19058.27581098
0.13300001 726558.47752600 18984.97391276
0.13400001 718329.14655337 20364.63226489
0.13500001 710162.71559868 18833.51610564
0.13600001 702057.65739097 24526.38541739
0.13700001 694016.73308143 17239.37646264
0.13800001 686038.00069382 15734.28228787
0.13900001 678124.83041550 15664.68432132
0.14000001 670276.13229674 21264.51129996
0.14100001 662492.49653207 15522.19992582
0.14200001 654774.22003818 15449.39845048
0.14300001 647123.46987454 16773.44113031
0.14400001 639536.60959571 13909.92191484
0.14500001 632018.39672542 19377.68495769
0.14600001 624566.75468997 17903.20686776
0.14700001 617184.54886367 15071.64739428
0.14800001 609866.79288976 14993.57581057
0.14900001 602618.49257688 13558.91672270
0.15000001 595437.63619177 14835.32940569
0.15100001 588325.40953072 20120.72995535
0.15200001 581281.80704214 14674.45991122
0.15300001 574307.71526098 14593.15973342
0.15400001 567399.42288421 14511.24092506
0.15500001 560561.51866841 14428.85417147
0.15600001 553789.76636188 14345.92457466
0.15700001 547090.09874224 15559.24314258
0.15800001 540454.97529680 15467.82212306
0.15900001 533890.53254776 16657.38540173
0.16000001 527391.99541215 22925.73112272
0.16100001 520964.78345380 15191.33380261
0.16200001 514604.02024220 16356.68955553
0.16300001 508310.70778653 13754.88840204
0.16400001 502085.38207934 12426.61379312
0.16500001 495926.78899811 22227.43973228
0.16600001 489836.38746197 13497.44229377
0.16700001 483811.06362348 13411.24331685
0.16800001 477851.93601685 16958.96600998
0.16900001 471961.33598955 12035.01463600
0.17000001 466134.83012959 16738.90254036
0.17100001 460373.74053459 11877.64306667
0.17200001 454678.43476860 12978.79653337
0.17300001 449047.87101069 16408.20998160
0.17400001 443481.72928103 13969.67513208
0.17500001 437979.26634252 16187.71444853
0.17600001 432538.93957528 12632.30032691
0.17700001 427163.55893448 14826.84783090
0.17800001 421849.14076274 12459.31496091
0.17900001 416597.66620953 11248.13751895
0.18000001 411407.62241554 11169.71747618
0.18100001 406280.29669330 12200.59788601
0.18200001 401210.86793058 12114.56272943
0.18300001 396202.84410478 12028.71891525
0.18400001 391253.70823845 13028.74909983
0.18500001 386365.23888973 14013.46787656
0.18600001 381533.33974337 12842.41282248
0.18700001 376759.33108316 13811.99773005
0.18800001 372042.62753481 13711.63168562
0.18900001 367384.43100590 11517.50245621
0.19000001 362778.47013304 11432.96402644
0.19100001 358232.59312422 13412.22892030
0.19200001 353738.48102550 11264.80246053
0.19300001 349300.87021750 12197.58696436
0.19400001 344915.11016190 12106.52093876
0.19500001 340583.45882393 11014.46957886
0.19600001 336304.11816811 11925.34459379
0.19700001 332076.54722607 12821.47609431
0.19800001 327900.57347617 14681.74887124
0.19900001 323775.58065134 10684.59466645
0.20000001 319699.26181965 10602.82651935
0.20100001 315674.01567791 12434.40006523
0.20200001 311695.97181245 11389.37134833
0.20300001 307767.73523265 11301.23177189
0.20400001 303886.36866544 9344.50627814
0.20500001 300051.75247685 11125.91950773
0.20600001 296263.67252167 12878.58245326
0.20700001 292521.71422490 9126.67791523
0.20800001 288823.51953007 10865.54131834
0.20900001 285172.46066872 9881.22622927
0.21000001 281563.12744995 8911.47340506
0.21100001 277997.88008907 9724.36630522
0.21200001 274474.99885823 13154.21494214
0.21300001 270993.52151775 11308.56018755
0.21400001 267554.61824512 14668.68263877
0.21500001 264157.52529640 9414.57464666
0.21600001 260799.56760358 11035.73422490
0.21700001 257481.94410768 10103.59196448
0.21800001 254203.55228544 10020.70450488
0.21900001 250962.85049535 9109.95190371
0.22000001 247760.09937062 10677.22198722
0.22100001 244596.54447263 11403.09144249
0.22200001 241469.90530909 8884.88558596
0.22300001 238378.49549181 8009.51782726
0.22400001 235322.55956227 8736.35043686
0.22500001 232304.56449065 9450.15013035
0.22600001 229319.15741351 8589.14944709
0.22700001 226370.55292951 10838.62258681
0.22800001 223454.18516956 9978.34711062
0.22900001 220570.65408831 8370.65671851
0.23000001 217721.27421419 10561.65951161
0.23100001 214905.01029186 9722.30312540
0.23200001 212118.99829827 10378.98307759
0.23300001 209365.12980047 7348.71640355
0.23400001 206643.20078511 10926.25975827
0.23500001 203949.90586775 10829.74051378
0.23600001 201288.65187504 9302.55548639
0.23700001 198656.42202674 8510.44152215
0.23800001 196053.61935275 7731.37484486
0.23900001 193479.45348347 9751.36491680
0.24000001 190933.71869126 8282.70510860
0.24100001 188417.40575325 6839.55215236
0.24200001 185928.06405635 11521.03303422
0.24300001 183466.29816945 6714.86683063
0.24400001 181031.17861382 9979.34419315
0.24500001 178622.69301869 7909.41322102
0.24600001 176240.73833486 7182.69163062
0.24700001 173885.07772719 8409.08275669
0.24800001 171554.82688040 6407.57308710
0.24900001 169249.01980046 6346.83854277
0.25000001 166969.17514159 7543.66768977
0.25100001 164712.81513291 6226.14470658
0.25200001 162482.59251366 6166.21467762
0.25300001 160276.04611566 6717.16941050
0.25400001 158092.85220678 9675.28301280
0.25500001 155932.80837207 8382.94817470
0.25600001 153796.49108243 6521.74051291
0.25700001 151682.57550621 6457.12754481
0.25800001 149592.04830979 6973.98162217
0.25900001 147523.83058560 6904.11559807
0.26000001 145477.77991180 6834.54642364
0.26100001 143452.99744344 7892.78429279
0.26200001 141451.00281136 5580.24232495
0.26300001 139469.54141298 9941.38938232
0.26400001 137509.86576947 8199.02613447
0.26500001 135571.71053503 8113.96725947
0.26600001 133653.19776041 6958.65407068
0.26700001 131756.60103193 5296.61561212
0.26800001 129880.66927572 5764.75377860
0.26900001 128023.63955538 5184.95764735
0.27000001 126187.81375675 6155.44184634
0.27100001 124371.38399305 5074.35270705
0.27200001 122576.18710347 5019.49509943
0.27300001 120799.53179459 5957.83319006
0.27400001 119040.55528297 5401.46545159
0.27500001 117303.69647384 7770.19722215
0.27600001 115583.53803437 4802.49623261
0.27700001 113884.24657611 5698.76796837
0.27800001 112202.59597331 5634.81463646
0.27900001 110540.81249804 5106.98577911
0.28000001 108896.19740662 6884.96240689
0.28100001 107270.71718217 4991.30670672
0.28200001 105664.06881890 7176.70389385
0.28300001 104075.07503753 4433.59840644
0.28400001 102503.90184171 4820.24621225
0.28500001 100951.21395530 4330.80728367
0.28600001 99416.02451144  5991.80408091
0.28700001 97898.49263353  7189.66563931
0.28800001 96397.93882863  5014.62101522
0.28900001 94916.78256879  5780.43233205
0.29000001 93451.18783104  4894.97345029
0.29100001 92003.92194064  5238.70356327
0.29200001 90573.58632295  4378.78023805
0.29300001 89160.57764874  5897.97249065
0.29400001 87763.73667486  4660.25463804
0.29500001 86384.95424773  4986.13979521
0.29600001 85022.14189970  5302.83124131
0.29700001 83676.27682694  4862.42867659
0.29800001 82346.80240190  4801.23054133
0.29900001 81034.69524700  4740.52989636
0.30000001 79738.11842343  3960.19383897
0.30100001 78458.85615807  3554.18635222
0.30200001 77194.42415882  3508.48674411
0.30300001 75947.51658513  3809.52761226
0.30400001 74716.56719250  3760.11142197
0.30500001 73501.35076132  3711.08337563
0.30600001 72301.24673368  5660.10336851
0.30700001 71118.17751472  4928.48993510
0.30800001 69950.42815966  4539.08349818
0.30900001 68798.43926684  3838.95309284
0.31000001 67662.36272979  3472.09430786
0.31100001 66540.78667920  3736.93075683
0.31200001 65435.43627472  3993.85204212
0.31300001 64344.88624341  3333.70871411
0.31400001 63270.73687039  3886.40519627
0.31500001 62210.64307765  3538.54154580
0.31600002 61166.18080532  3199.29723850
0.31700002 60136.57298012  4302.77200046
0.31800002 59121.88792198  4809.27020073
0.31900002 58122.22944577  3347.84057459
0.32000002 57137.50220325  3026.28794749
0.32100002 56166.68835137  3797.99164615
0.32200002 55211.83819199  4280.02189930
0.32300002 54269.51671943  5274.99727490
0.32400002 53342.52072939  3640.62721217
0.32500002 52429.75620370  3589.34127967
0.32600002 51531.49482630  3538.66791729
0.32700002 50646.79053622  2741.00443361
0.32800002 49776.83116696  2947.78408129
0.32900002 48920.13520055  3390.16552993
0.33000002 48078.11369565  3341.90984124
0.33100002 47247.58671881  3529.39489503
0.33200002 46433.62155118  2551.29545695
0.33300002 45631.64466132  3429.21825869
0.33400002 44843.65723435  2704.07265928
0.33500002 44068.01618050  2221.02812068
0.33600002 43306.63024177  2189.15026239
0.33700002 42557.31842887  2589.18737583
0.33800002 41822.17659840  2126.65778074
0.33900002 41098.71330653  2305.63792569
0.34000002 40388.88716888  3512.01585009
0.34100002 39691.30239608  2443.39669122
0.34200002 39006.94167785  2408.28869324
0.34300002 38333.93740995  2175.83439043
0.34400002 37674.76663932  3314.43775207
0.34500002 37026.69244556  1921.68542894
0.34600002 36391.83815861  2083.61479245
0.34700002 35767.33580084  2613.87702412
0.34800002 35156.34946685  1840.43498176
0.34900002 34556.35626168  2177.05054759
0.35000002 33968.20661460  2324.95401185
0.35100002 33392.13770256  2115.72594504
0.35200002 32826.25527561  2781.04047867
0.35300002 32272.23518602  2056.38692345
0.35400002 31729.70566748  1858.56759750
0.35500002 31198.24988496  2165.78260959
0.35600002 30676.85847626  1807.02043413
0.35700002 30166.69886493  2105.93734751
0.35800002 29667.80899768  2396.41738529
0.35900002 29179.33365681  1733.25250131
0.36000002 28701.58918840  1554.19112817
0.36100002 28233.28976369  2299.60156018
0.36200002 27776.41414215  2117.39615035
0.36300002 27328.52777026  1641.35145563
0.36400002 26890.77698775  2797.31320865
0.36500002 26462.66035999  1598.08013484
0.36600002 26044.71702126  1863.89026192
0.36700002 25635.72752512  1556.60144906
0.36800002 25237.70262666  2095.36035983
0.36900002 24847.87684037  1654.86867596
0.37000002 24467.00314203  1497.74766829
0.37100002 24095.17094071  1747.86378284
0.37200002 23733.09692344  1460.65351934
0.37300002 23379.16634569  1705.04268236
0.37400002 23034.00339854  1425.22902780
0.37500002 22697.79332213  1664.20228521
0.37600002 22370.19425518  1265.03454506
0.37700002 22050.32572887  1750.35493928
0.37800002 21738.68790323  1606.59780560
0.37900002 21435.78260230  1466.20759945
0.38000002 21140.59871688  1329.00380130
0.38100002 20852.27802096  1672.76982209
0.38200002 20572.72338833  1181.90301465
0.38300002 20299.99079293  1753.91928760
0.38400002 20035.64419402  1388.47020842
0.38500002 19777.34327906  1259.61905312
0.38600002 19527.55066740  1587.00411792
0.38700002 19283.89467347  1234.55499548
0.38800002 19047.60150111  1444.85588032
0.38900002 18817.48241207  1210.90505058
0.39000002 18595.35154944  1199.67916205
0.39100002 18378.54988949  1512.92229858
0.39200002 18168.92758382  1820.79916408
0.39300002 17965.24343557  1380.26971855
0.39400002 17769.21149540  1158.10841408
0.39500002 17577.93850732  1252.95551616
0.39600002 17392.86749574  1450.04343182
0.39700002 17213.63441866  1644.24643757
0.39800002 17040.46683007  1631.79518096
0.39900002 16872.69298408  1113.59778971
0.40000002 16710.38102875  1608.20714640
0.40100002 16553.83519326  1098.01594039
0.40200002 16402.77878055  1090.70282669
0.40300002 16256.33172437  1182.16049901
0.40400002 16115.42872624  1076.91357566
0.40500002 15979.68897115  973.16310445
0.40600002 15848.61565217  1161.06963769
0.40700002 15722.49124148  1635.76806627
0.40800002 15601.03501893  1244.26060689
0.40900002 15484.01447328  1428.40040284
0.41000002 15371.99982634  1042.45221762
0.41100002 15263.94119659  1226.30509384
0.41200002 15160.02508436  939.16359848
0.41300002 15061.00567108  1215.87504544
0.41400002 14965.53316752  1211.08582897
0.41500002 14874.35478956  1020.97576113
0.41600002 14786.48114198  1109.87332711
0.41700002 14702.92213420  921.87326150
0.41800002 14623.86871502  1286.75426921
0.41900002 14546.60827787  1374.65454740
0.42000002 14474.13047000  1005.44552074
0.42100002 14405.38364893  1367.79124228
0.42200002 14339.92326368  1273.81544387
0.42300002 14277.23182024  998.83518547
0.42400002 14217.70903805  1268.93059178
0.42500002 14161.69230664  995.42539940
0.42600002 14107.89688112  993.97192186
0.42700002 14058.27870993  1263.55815032
0.42800002 14010.64306921  1262.21889392
0.42900002 13966.99654496  1261.21984778
0.43000002 13925.30853844  1080.32548761
0.43100002 13885.48438069  1169.71325966
0.43200002 13849.34718055  1169.36968460
0.43300002 13815.42351428  899.38411340
0.43400002 13784.06319566  989.35118275
0.43500002 13754.76507994  989.51784674
0.43600002 13728.17858064  899.88214861
0.43700002 13703.17087779  1260.41771707
0.43800002 13680.31647869  990.93377109
0.43900002 13660.32555789  901.58152955
0.44000002 13641.77597458  1263.36493288
0.44100002 13625.51602386  1264.72045727
0.44200002 13611.04101752  1085.34446217
0.44300002 13598.40054969  1086.78422343
0.44400002 13587.95891920  997.69593092
0.44500002 13577.91929271  908.36284373
0.44600002 13570.02997433  1000.85760819
0.44700002 13564.77141891  1185.01848732
0.44800002 13559.45248027  1004.55208461
0.44900002 13557.32747014  1555.70340093
0.45000002 13555.95820898  917.06061630
0.45100002 13555.73589596  1286.71051222
0.45200002 13557.05750530  1013.32231126
0.45300002 13559.18605610  1292.73285986
0.45400002 13563.16883815  1388.52947561
0.45500002 13568.16936596  1020.86911148
0.45600002 13574.19928499  1116.61368610
0.45700002 13581.38708686  1399.56200563
0.45800002 13589.19629901  935.61620953
0.45900002 13598.10474579  1313.57698070
0.46000002 13608.75999385  1223.35953763
0.46100002 13619.12615954  1321.32768262
0.46200002 13631.32083608  1325.37338771
0.46300002 13644.29947659  1424.46493287
0.46400002 13657.25478020  1047.85292267
0.46500002 13671.67081377  1146.77980221
0.46600002 13686.30007840  1438.08804890
0.46700002 13701.43796131  1154.20918857
0.46800002 13718.26522492  1254.60400561
0.46900002 13734.54007004  1065.11363291
0.47000002 13751.71945889  1068.71492840
0.47100002 13769.43718514  1364.82667848
0.47200002 13787.87991742  1173.90015181
0.47300002 13806.86212622  1178.00153244
0.47400002 13825.48238942  1379.09193371
0.47500002 13844.97922290  1285.09103238
0.47600002 13865.34081809  992.06518256
0.47700002 13885.12950785  1294.23298277
