# SAXS profile: number of points = 501, q_min = 0, q_max = 0.5, delta_q = 0.001
#    q    intensity    error
0.00000000 1682732.95097188 328.13292544
0.00100000 1682645.84228530 757.19064701
0.00200000 1682384.48521537 984.19495502
0.00300000 1681949.10165062 1110.08644663
0.00400000 1681339.54844847 1639.30612203
0.00500000 1680556.51591225 1663.75101661
0.00600000 1679599.79113920 1939.93783774
0.00700000 1678470.20215082 2416.99719155
0.00800000 1677167.49536905 3622.68194295
0.00900000 1675693.02867525 3267.60154560
0.01000000 1674046.23888672 3038.39405478
0.01100000 1672228.80053513 3612.01436642
0.01200000 1670240.43343329 3908.36278559
0.01300000 1668082.64128356 3853.27107131
0.01400000 1665755.48724811 4497.54001495
0.01500000 1663260.63204004 4790.19083358
0.01600000 1660597.61891826 4657.97652929
0.01700000 1657768.82872825 5371.17124602
0.01800000 1654774.62149064 5659.32946015
0.01900000 1651615.96159598 6441.30254087
0.02000000 1648293.77776468 8826.61357921
0.02100000 1644810.64892611 5970.66292630
0.02200000 1641165.28775719 5662.02050000
0.02300000 1637360.81679565 5894.49920877
0.02400000 1633397.96758922 7350.29118931
0.02500000 1629278.82987834 8260.44404474
0.02600000 1625004.08920874 7239.39354854
0.02700000 1620575.47049047 9528.98420292
0.02800000 1615993.65392938 7732.52998866
0.02900000 1611261.85670500 8700.81442570
0.03000000 1606380.73912596 8216.63785831
0.03100000 1601352.06317056 9223.78830828
0.03200000 1596176.87949827 11061.50628440
0.03300000 1590859.34949691 8924.72136211
0.03400000 1585398.16554739 10820.34297912
0.03500000 1579797.32230098 11943.26830811
0.03600000 1574057.41912344 11356.82480382
0.03700000 1568181.52628963 10726.36213589
0.03800000 1562171.22896223 11880.31274607
0.03900000 1556028.86829611 13070.64309899
0.04000000 1549754.79872815 11437.19094460
0.04100000 1543353.00146210 11667.74923205
0.04200000 1536825.09714108 12886.27903736
0.04300000 1530172.81480046 12118.96925576
0.04400000 1523398.94460673 15424.41503048
0.04500000 1516505.99746566 12556.67024246
0.04600000 1509494.55622363 17027.09938574
0.04700000 1502368.55159573 16225.58111185
0.04800000 1495129.74441678 13187.04495932
0.04900000 1487780.94261126 17853.37214236
0.05000000 1480323.49456820 15854.26536510
0.05100000 1472761.64280116 11487.54134899
0.05200000 1465094.58567213 18636.00399821
0.05300000 1457327.85147675 12984.79176198
0.05400000 1449462.09072410 11958.06280612
0.05500000 1441501.47102615 14530.33550577
0.05600000 1433446.11021918 14707.15777715
0.05700000 1425301.73199193 14880.15077658
0.05800000 1417067.27960570 17557.46441411
0.05900000 1408746.82011456 13946.59417052
0.06000000 1400344.09874581 14094.46401235
0.06100000 1391860.52296946 19416.45520278
0.06200000 1383298.86219825 20915.47977410
0.06300000 1374662.36070259 17155.78706369
0.06400000 1365950.78113904 14649.82281284
0.06500000 1357169.90828383 16123.17926462
0.06600000 1348321.71476802 21681.01418789
0.06700000 1339406.83944682 21859.12064276
0.06800000 1330429.87626879 17900.93482312
0.06900000 1321394.36763748 22199.42641566
0.07000000 1312299.70952523 20963.98884138
0.07100000 1303150.34487722 23925.84145258
0.07200000 1293948.63860623 14168.73825650
0.07300000 1284697.53849302 18538.18634907
0.07400000 1275400.28233827 17217.90461847
0.07500000 1266057.14996939 14433.05218616
0.07600000 1256671.82870262 17417.47236236
0.07700000 1247248.04644207 14592.80282761
0.07800000 1237787.03185223 16134.55471684
0.07900000 1228290.25302762 23583.17396427
0.08000000 1218763.59098253 14807.97832510
0.08100000 1209207.62830861 19335.23088383
0.08200000 1199623.32792561 17922.37336022
0.08300000 1190014.90585823 17993.02622103
0.08400000 1180384.99967264 22574.86417837
0.08500000 1170735.44494032 15102.48794872
0.08600000 1161068.82075593 16667.14370450
0.08700000 1151387.43225845 16718.14630144
0.08800000 1141693.02976235 21338.24372838
0.08900000 1131988.96386049 21394.59242186
0.09000000 1122277.58268043 16850.99869553
0.09100000 1112560.28018779 21494.66562307
0.09200000 1102839.51838954 18461.53440529
0.09300000 1093119.26801406 18495.57888395
0.09400000 1083398.07425384 20069.95026879
0.09500000 1073680.86485331 27829.80932507
0.09600000 1063968.80083783 18576.89613589
0.09700000 1054266.86086829 27895.90245004
0.09800000 1044573.46791717 15511.91672790
0.09900000 1034893.20088856 15523.39874328
0.10000000 1025224.98590018 15532.15926682
0.10100000 1015573.21291607 18645.92506609
0.10200000 1005939.70871981 17095.94615382
0.10300000 996325.66546338 23314.02166855
0.10400000 986733.50172259 15541.05338326
0.10500000 977166.97819311 17090.65125270
0.10600001 967622.47223577 18636.40969217
0.10700001 958107.88218716 18625.61810620
0.10800001 948620.37482013 17060.93824406
0.10900001 939164.73285390 20145.08446786
0.11000001 929741.57840229 18576.23761085
0.11100001 920351.84714657 17008.10293590
0.11200001 910998.68115301 20073.85688423
0.11300001 901681.67541873 18502.50885071
0.11400001 892404.07521328 16933.36812447
0.11500001 883166.87712576 19977.23570127
0.11600001 873971.71532362 18405.84519147
0.11700001 864819.83463796 15307.31179399
0.11800001 855711.66438326 16801.89932151
0.11900001 846648.94047820 18287.61797571
0.12000001 837633.05971580 19763.95297497
0.12100001 828667.13527766 19713.99207694
0.12200001 819750.04088624 19661.70565694
0.12300001 810884.38525593 25640.16546981
0.12400001 802070.05620476 16542.69568867
0.12500001 793308.17445720 16492.87772412
0.12600001 784602.07776574 16441.33731435
0.12700001 775950.32635137 22347.37045207
0.12800001 767354.35109834 17817.96887225
0.12900001 758816.04793371 14796.91363212
0.13000001 750335.68205478 19167.32590154
0.13100001 741913.35290180 17627.86209588
0.13200001 733550.57749876 14634.33471097
0.13300001 725249.38087674 23324.02118856
0.13400001 717008.27418671 14519.41823681
0.13500001 708830.14406564 17352.16274485
0.13600001 700713.50617031 21599.49484613
0.13700001 692661.17453599 14338.08698898
0.13800001 684671.02914789 17130.46995708
0.13900001 676746.71288974 15632.84980497
0.14000001 668886.73067202 15561.65052298
0.14100001 661092.09032812 18305.64084453
0.14200001 653363.03241566 18219.02901822
0.14300001 645701.56745615 16736.58541789
0.14400001 638103.82544308 20818.13828707
0.14500001 630575.28730191 15190.55938767
0.14600001 623113.32090900 21983.43899872
0.14700001 615721.02430426 24604.21329194
0.14800001 608393.13223887 23115.89814999
0.14900001 601134.97413451 17583.19882302
0.15000001 593944.40567227 17488.69385019
0.15100001 586822.46771712 14717.50818479
0.15200001 579769.50968782 17297.42413775
0.15300001 572786.10398945 14554.49558918
0.15400001 565868.69365594 19734.67162255
0.15500001 559021.79341005 14389.22164144
0.15600001 552241.06241068 18207.38868698
0.15700001 545532.77610278 14222.04014423
0.15800001 538889.10011274 14137.75620874
0.15900001 532316.32668946 17885.82942099
0.16000001 525809.65529536 13968.13415225
0.16100001 519374.39177900 13882.87814758
0.16200001 513005.74648626 17560.18753117
0.16300001 506704.72155149 13711.43041247
0.16400001 500471.89478996 17341.35197315
0.16500001 494306.01169442 13539.04229951
0.16600001 488208.48325427 15898.51000779
0.16700001 482176.11086970 13365.92242438
0.16800001 476210.16782171 12071.92832427
0.16900001 470312.84291612 13192.27586671
0.17000001 464479.93712213 14296.69313970
0.17100001 458712.55826818 13018.26301839
0.17200001 453011.28411748 14106.77205358
0.17300001 447374.79909152 15179.42765002
0.17400001 441802.86884587 12757.05844039
0.17500001 436294.93863604 13821.82430876
0.17600001 430849.21736414 12582.95198740
0.17700001 425468.78679390 12496.01885833
0.17800001 420149.50776545 13537.21777959
0.17900001 414893.13655025 17923.38434556
0.18000001 409698.63568639 13347.98218115
0.18100001 404566.92076511 12149.14520446
0.18200001 399493.36140039 14255.92127499
0.18300001 394481.28430495 14153.98914949
0.18400001 389528.31410589 11890.35234979
0.18500001 384636.11229946 12877.61764815
0.18600001 379801.02460320 10653.41924342
0.18700001 375023.68102267 13748.36879583
0.18800001 370304.11240675 10498.12208273
0.18900001 365642.95331104 18757.48439110
0.19000001 361034.45680152 11378.00144370
0.19100001 356486.09468902 12320.16001458
0.19200001 351989.75911301 10190.10400782
0.19300001 347550.28264417 12136.45644341
0.19400001 343162.58472898 14052.50850869
0.19500001 338829.34645519 9961.58325652
0.19600001 334548.55417614 10874.50126738
0.19700001 330319.80365922 9810.49863230
0.19800001 326142.74797988 10708.89763601
0.19900001 322017.00326963 11592.61266557
0.20000001 317939.93947771 15337.42340527
0.20100001 313914.39375984 9511.60658046
0.20200001 309935.95638723 12268.81541346
0.20300001 306007.89146153 12172.99449769
0.20400001 302126.52971195 15793.66508719
0.20500001 298292.24289484 10138.95381523
0.20600001 294504.80000577 14630.99915586
0.20700001 290763.62192244 9979.00797608
0.20800001 287066.38356894 12599.34417041
0.20900001 283416.19643640 9820.37167074
0.21000001 279808.35920876 10627.12198512
0.21100001 276244.73084034 11419.95771280
0.21200001 272723.56311387 13070.27738012
0.21300001 269243.94871040 11235.55051085
0.21400001 265807.29662369 13715.65715421
0.21500001 262412.41848630 8502.16276092
0.21600001 259056.99637223 8432.30563058
0.21700001 255741.87170896 11707.86344038
0.21800001 252466.53168708 9952.23114965
0.21900001 249228.77187877 8224.54986087
0.22000001 246029.26979581 9787.04481523
0.22100001 242869.15114534 8896.29742710
0.22200001 239746.17327990 8821.46086295
0.22300001 236658.54250639 10337.24562548
0.22400001 233606.48073918 10249.48482709
0.22500001 230592.67953796 13289.05675018
0.22600001 227611.65201453 7750.17711759
0.22700001 224667.47742412 9988.71651863
0.22800001 221755.78908790 9140.77405847
0.22900001 218877.03979058 11326.88734482
0.23000001 216032.69405316 7485.53320295
0.23100001 213221.61372218 11130.16876267
0.23200001 210440.95141368 8825.89391970
0.23300001 207692.68682428 11664.02184370
0.23400001 204976.42474351 11560.67090230
0.23500001 202288.96709646 8593.23572868
0.23600001 199633.75256620 8516.37628727
0.23700001 197007.67095976 7736.49160451
0.23800001 194411.30118484 7666.61002484
0.23900001 191843.56289425 7597.00544995
0.24000001 189304.52687099 10265.03845512
0.24100001 186795.04966477 6780.66062356
0.24200001 184312.52399585 10077.28772615
0.24300001 181858.01040688 7321.60384531
0.24400001 179430.14093486 7912.86958953
0.24500001 177029.01288433 6532.37088444
0.24600001 174654.77931656 8412.24784372
0.24700001 172306.74553241 7691.77348443
0.24800001 169984.22415544 9523.36660883
0.24900001 167686.38606073 6917.06375223
0.25000001 165414.69402637 6227.86352472
0.25100001 163166.61534567 6784.46818704
0.25200001 160944.67357589 9161.77597675
0.25300001 158746.66387531 7257.89781575
0.25400001 156572.15306056 6587.77365170
0.25500001 154420.84934457 7708.68916399
0.25600001 152293.48094482 10567.64514274
0.25700001 150188.48463070 10462.13033437
0.25800001 148107.09959877 6329.35720082
0.25900001 146048.19607836 9682.99585814
0.26000001 144011.41634824 7329.46138184
0.26100001 141996.19375709 8370.67601805
0.26200001 140003.66584627 6075.45936687
0.26300001 138031.97031002 6012.67291121
0.26400001 136082.02889122 8654.81744701
0.26500001 134153.71293908 6958.55341942
0.26600001 132245.19685247 5826.06242302
0.26700001 130358.64073021 7336.58464747
0.26800001 128492.95045003 7258.56711440
0.26900001 126646.26621863 7180.84363440
0.27000001 124820.72160548 6088.75508805
0.27100001 123014.69900711 5018.99995700
0.27200001 121230.02982216 5957.24394738
0.27300001 119463.93502032 5400.96475786
0.27400001 117715.66634542 4855.77146655
0.27500001 115989.54775906 5282.16425493
0.27600001 114280.33762081 5223.18307815
0.27700001 112591.81854622 4695.07905558
0.27800001 110921.12694840 4642.04938249
0.27900001 109270.42252942 5966.16535247
0.28000001 107636.96886346 4990.58829755
0.28100001 106022.58943307 5381.70689433
0.28200001 104427.14158197 5762.81208095
0.28300001 102849.56407030 4819.53080044
0.28400001 101289.67632868 7794.24096240
0.28500001 99748.37810133  5135.04674771
0.28600001 98224.59614653  4228.56906425
0.28700001 96718.65140370  5849.54431377
0.28800001 95229.62140349  5366.66556821
0.28900001 93760.01641960  6525.69745169
0.29000001 92305.98367961  4432.07201617
0.29100001 90870.34387832  4378.13337530
0.29200001 89451.79428425  4717.68785386
0.29300001 88050.37219377  5047.92807682
0.29400001 86665.30438747  4601.92788081
0.29500001 85298.28094211  4544.69262373
0.29600001 83947.35002823  3739.85462079
0.29700001 82613.14854202  4062.08870610
0.29800001 81295.58358859  4375.32851586
0.29900001 79995.26770446  5039.70210396
0.30000001 78710.58058677  4264.53945807
0.30100001 77443.25047454  4911.45117760
0.30200001 76190.66517980  4501.72566526
0.30300001 74955.59388257  3759.77276714
0.30400001 73736.61353494  3373.45022893
0.30500001 72533.28850025  4993.91714967
0.30600001 71345.07253078  4599.61704382
0.30700001 70173.85874963  3890.43891327
0.30800001 69017.94492241  3518.88008847
0.30900001 67877.88313091  3471.95388652
0.31000001 66753.60863102  4982.48958411
0.31100001 65643.90827820  3993.77556873
0.31200001 64550.41689504  4242.89910339
0.31300001 63471.61634106  5082.17256105
0.31400001 62409.22275642  3243.71950634
0.31500001 61360.96971532  4944.46717377
0.31600002 60328.24450875  4589.77305954
0.31700002 59310.39794455  3112.01672750
0.31800002 58307.37528020  3069.00884319
0.31900002 57319.29474700  2751.32627813
0.32000002 56346.30696522  3526.99725149
0.32100002 55387.10371148  2942.71695953
0.32200002 54443.75178338  3429.13986845
0.32300002 53513.12023706  3380.95909667
0.32400002 52597.38935654  2820.53513780
0.32500002 51696.04793578  2780.73055014
0.32600002 50809.20463617  3239.84908704
0.32700002 49935.78845497  2948.20908999
0.32800002 49077.16062280  3148.54538885
0.32900002 48231.73054769  4297.44739530
0.33000002 47400.96318300  2588.80372683
0.33100002 46581.46072027  2783.70822446
0.33200002 45778.61000760  2515.30584598
0.33300002 44987.64830988  2704.65754447
0.33400002 44210.66826194  3110.22065951
0.33500002 43445.89156815  2189.67303873
0.33600002 42695.40754647  2158.25295368
0.33700002 41956.79710913  2978.09359984
0.33800002 41232.25077853  2935.32407193
0.33900002 40519.47603617  2479.79205085
0.34000002 39820.11758787  2240.47902219
0.34100002 39133.14162231  2810.54236442
0.34200002 38459.19549157  2770.21598245
0.34300002 37796.44559121  1950.29668487
0.34400002 37147.46394615  2499.09575533
0.34500002 36509.63604227  2273.82024040
0.34600002 35884.97477171  2241.37563039
0.34700002 35270.46639316  2025.23027621
0.34800002 34669.37887657  1996.43627716
0.34900002 34079.26733663  1968.07778190
0.35000002 33500.84014072  2469.34704373
0.35100002 32934.54788066  2086.73305255
0.35200002 32378.18058407  2400.19464038
0.35300002 31833.65478817  1859.40386424
0.35400002 31300.57418599  2166.78235065
0.35500002 30778.40519929  2465.35037323
0.35600002 30266.20735566  2431.13322099
0.35700002 29765.17772018  1758.22913121
0.35800002 29275.48185170  2049.43020410
0.35900002 28795.88630182  1865.97352074
0.36000002 28326.94407330  1687.29450365
0.36100002 27867.44410853  1664.52251544
0.36200002 27419.21197197  1940.86901137
0.36300002 26979.89093980  1767.72253811
0.36400002 26550.61467932  1599.01084480
0.36500002 26130.85557426  2008.41765457
0.36600002 25721.15869233  2265.51976493
0.36700002 25320.25888016  1537.44619203
0.36800002 24930.33814047  2069.84142216
0.36900002 24548.45849112  1634.92741295
0.37000002 24175.42452070  2287.11614512
0.37100002 23811.21377613  1461.53237081
0.37200002 23456.84651319  1968.61593687
0.37300002 23110.47342718  1555.79714482
0.37400002 22772.67633061  1537.15572513
0.37500002 22443.82112481  1265.83157140
0.37600002 22123.44436994  1626.40508990
0.37700002 21810.72176647  1484.00157929
0.37800002 21505.96917362  2200.70592979
0.37900002 21209.93481582  1934.34614684
0.38000002 20921.54294201  1434.79948293
0.38100002 20639.95327993  1655.73713055
0.38200002 20366.96911890  1521.10716071
0.38300002 20100.65094767  1389.35705932
0.38400002 19842.64710111  1260.50421681
0.38500002 19590.51920953  1361.14933916
0.38600002 19346.81944006  1796.93267472
0.38700002 19109.28463709  1334.59250228
0.38800002 18878.78259445  1432.05012155
0.38900002 18654.56882137  1636.93849163
0.39000002 18438.02925072  1081.39046679
0.39100002 18226.81546907  1071.73680036
0.39200002 18022.66596192  1487.41069231
0.39300002 17824.36147078  1264.10377540
0.39400002 17633.54108962  1253.74483087
0.39500002 17447.43302843  1140.01532809
0.39600002 17267.29574276  1233.92101224
0.39700002 17092.96958676  1326.58543248
0.39800002 16924.71743618  1114.23882520
0.39900002 16761.57267889  1005.69440838
0.40000002 16603.81101379  1098.59120778
0.40100002 16451.67826250  1289.64712010
0.40200002 16305.09792769  1084.20753807
0.40300002 16162.88458618  1469.20627849
0.40400002 16026.18674851  1070.94998021
0.40500002 15894.47197847  1161.56806722
0.40600002 15767.35205983  1251.37595552
0.40700002 15645.01751102  1148.97014045
0.40800002 15527.39411633  1333.64794384
0.40900002 15414.01069076  947.96170240
0.41000002 15305.47020449  1132.29873938
0.41100002 15200.85267549  1315.17783580
0.41200002 15100.26502387  1029.00760881
0.41300002 15004.42962945  1024.95263655
0.41400002 14912.07588398  1021.10444454
0.41500002 14824.00163256  1110.02129484
0.41600002 14739.03823982  1567.27570549
0.41700002 14658.22423779  1562.42019554
0.41800002 14581.97656061  1191.42045134
0.41900002 14507.26268052  1370.93638827
0.42000002 14437.31418251  1094.05972059
0.42100002 14371.06882104  1182.59530932
0.42200002 14307.93943801  1270.97432050
0.42300002 14247.50726880  1268.59810733
0.42400002 14190.15259336  1266.47117897
0.42500002 14136.21719615  903.30432164
0.42600002 14084.36674996  1262.94522632
0.42700002 14036.67517056  901.15458865
0.42800002 13990.74150242  1260.42596168
0.42900002 13948.84628713  1259.58087942
0.43000002 13908.78777271  1258.88444096
0.43100002 13870.44196930  988.68515042
0.43200002 13835.75654852  1078.35891649
0.43300002 13803.24250034  988.45024229
0.43400002 13773.16549558  1348.04863676
0.43500002 13745.03178553  988.81763351
0.43600002 13719.50977130  989.24529894
0.43700002 13695.62546228  899.80263551
0.43800002 13673.69511058  1440.66058512
0.43900002 13654.59141883  901.20307635
0.44000002 13636.84925943  992.28538339
0.44100002 13621.29623121  1715.87476756
0.44200002 13607.48456059  1175.48260947
0.44300002 13595.43170459  1086.54695332
0.44400002 13585.48422779  1269.56356125
0.44500002 13575.92667450  1543.99021386
0.44600002 13568.39276616  1273.66508932
0.44700002 13563.47282707  1093.75850061
0.44800002 13558.30411049  1004.46700763
0.44900002 13556.37492002  1372.58302570
0.45000002 13555.08507114  1100.40185823
0.45100002 13554.84691315  1286.62612997
0.45200002 13556.14407562  1289.59604703
0.45300002 13558.19255262  1477.30073055
0.45400002 13562.02645877  1018.16918465
0.45500002 13566.82613909  927.97095189
0.45600002 13572.57090280  1116.47973538
0.45700002 13579.39303623  1026.19478038
0.45800002 13586.86360673  1122.54672439
0.45900002 13595.35905929  1219.50376542
0.46000002 13605.51805297  1128.98594154
0.46100002 13615.38390697  1037.90076442
0.46200002 13626.98341259  1419.59106429
0.46300002 13639.29559660  1423.94252777
0.46400002 13651.58846625  1333.07767691
0.46500002 13665.21281791  1146.23810549
0.46600002 13679.15446449  1149.86977878
0.46700002 13693.43425722  1441.91869563
0.46800002 13709.38517442  1157.34635128
0.46900002 13724.75670270  1354.63355076
0.47000002 13740.96348848  970.79911647
0.47100002 13757.75016887  1266.26338556
0.47200002 13775.13739411  1172.81525332
0.47300002 13793.03081017  1176.82144450
0.47400002 13810.52332012  1574.39973312
0.47500002 13828.90521483  1382.33743079
0.47600002 13848.10818408  1387.16506255
0.47700002 13866.68247972  1193.08941711
