# SAXS profile: number of points = 501, q_min = 0, q_max = 0.5, delta_q = 0.001
#    q    intensity    error
0.00000000 1664650.74656090 274.66737318
0.00100000 1664564.23030241 699.11699333
0.00200000 1664304.65816151 823.83083188
0.00300000 1663872.23749057 1197.98805367
0.00400000 1663266.85269593 1621.68524300
0.00500000 1662489.14795406 2094.73640933
0.00600000 1661538.97485027 1919.07759408
0.00700000 1660417.07800891 2590.25074935
0.00800000 1659123.26731713 3135.74310762
0.00900000 1657658.90425369 2983.78615521
0.01000000 1656023.36514110 3005.68253751
0.01100000 1654218.33260677 3275.35244117
0.01200000 1652243.59754110 4188.43770340
0.01300000 1650100.56755184 4504.77474810
0.01400000 1647789.36050096 3707.52622549
0.01500000 1645311.62701539 5133.37250487
0.01600000 1642666.88454068 4188.80074283
0.01700000 1639857.50044893 7084.18471973
0.01800000 1636883.86775446 6064.65500293
0.01900000 1633746.96641816 5881.48934449
0.02000000 1630447.67419305 5649.50144664
0.02100000 1626988.57165466 5369.06252989
0.02200000 1623368.39202058 7840.86968969
0.02300000 1619590.24468286 6996.63017551
0.02400000 1615654.70655385 7270.44651101
0.02500000 1611564.26569584 8170.63120024
0.02600000 1607319.06199809 10415.42799813
0.02700000 1602921.34452158 6732.26995534
0.02800000 1598371.30957992 9038.79017019
0.02900000 1593672.52167156 9322.98467984
0.03000000 1588825.47905981 8865.64658067
0.03100000 1583831.89429658 10643.35081941
0.03200000 1578693.00165469 8595.98378992
0.03300000 1573412.90768795 11234.16867879
0.03400000 1567989.98231406 12347.92168046
0.03500000 1562428.62607100 10124.53796447
0.03600000 1556729.19589542 12959.77115475
0.03700000 1550894.95368788 9724.11180934
0.03800000 1544927.03634422 11749.17065514
0.03900000 1538828.40522176 9232.97085891
0.04000000 1532598.88122811 9425.48355632
0.04100000 1526242.79519197 12499.92907220
0.04200000 1519761.39599705 11762.95375073
0.04300000 1513156.66408168 10985.51789116
0.04400000 1506431.64944972 16269.46256964
0.04500000 1499588.19406233 10347.15901981
0.04600000 1492627.17948508 15784.53315683
0.04700000 1485552.66001287 11765.57761449
0.04800000 1478366.44003669 14125.79199180
0.04900000 1471071.00251235 13239.63963888
0.05000000 1463667.90210798 15675.88396154
0.05100000 1456161.17198399 18172.89227293
0.05200000 1448550.30738519 12667.57302841
0.05300000 1440840.50581837 15172.05123356
0.05400000 1433032.83515237 13004.77358547
0.05500000 1425130.83138299 15562.42940468
0.05600000 1417135.50473719 13328.16004400
0.05700000 1409051.49479736 14710.49829235
0.05800000 1400878.35889471 13637.55146061
0.05900000 1392620.07781272 15040.29754285
0.06000000 1384280.45737270 12666.16677671
0.06100000 1375860.63268111 19193.25672283
0.06200000 1367363.60285524 18090.22131138
0.06300000 1358792.66435294 13044.41018768
0.06400000 1350147.20225089 14480.32942134
0.06500000 1341433.27535119 22576.32308023
0.06600000 1332652.70645956 17411.10842453
0.06700000 1323806.26914276 13502.82457717
0.06800000 1314898.70053765 13609.20218760
0.06900000 1305932.97433646 15083.52655978
0.07000000 1296908.83700933 19336.91166533
0.07100000 1287830.86919280 18081.14625035
0.07200000 1278700.91913597 14001.77572048
0.07300000 1269522.64342113 15500.87220247
0.07400000 1260298.45783680 17014.02997814
0.07500000 1251029.54632106 17114.08499585
0.07600000 1241718.69508221 18644.40708072
0.07700000 1232370.17174157 14418.73168545
0.07800000 1222984.67822843 14492.36911664
0.07900000 1213564.41773876 23300.43791346
0.08000000 1204114.86353863 16092.99590613
0.08100000 1194636.25555049 14694.02663269
0.08200000 1185130.11286151 19181.33177675
0.08300000 1175600.18933288 17775.07569693
0.08400000 1166049.42608950 22300.69632073
0.08500000 1156479.40010398 17902.30195404
0.08600000 1146893.01019023 17960.34538284
0.08700000 1137292.10418732 19515.93342428
0.08800000 1127678.84354417 18065.41592200
0.08900000 1118056.43768870 22640.64392662
0.09000000 1108426.93087934 15130.02831724
0.09100000 1098792.18735660 15163.33289791
0.09200000 1089154.23082410 16713.07245729
0.09300000 1079517.08840328 16743.31082794
0.09400000 1069879.81512499 18294.94569845
0.09500000 1060246.62667466 18321.06257008
0.09600000 1050618.80546694 18343.80520575
0.09700000 1041001.60440830 18363.26916507
0.09800000 1031393.51612748 16847.81387809
0.09900000 1021798.69684822 19925.07552547
0.10000000 1012216.02155969 18402.08813735
0.10100000 1002650.43791104 15340.55242153
0.10200000 993103.06280863 16877.78734630
0.10300000 983575.57485185 16878.15765842
0.10400000 974070.64643635 21478.25876437
0.10500000 964591.17046320 23005.50049794
0.10600001 955133.97009322 18395.88112959
0.10700001 945706.78248207 18384.54071658
0.10800001 936307.17441844 24493.79683551
0.10900001 926939.63166573 21412.30649926
0.11000001 917604.69816406 21389.36652099
0.11100001 908303.38692162 18311.39714232
0.11200001 899038.31304153 15238.70012345
0.11300001 889810.22274993 16737.33107793
0.11400001 880621.15996582 22786.07358698
0.11500001 871473.22879006 18196.36187397
0.11600001 862366.98326771 16647.99539596
0.11700001 853304.07338188 22655.22421524
0.11800001 844285.14582668 21098.68678792
0.11900001 835311.66256375 15035.61063435
0.12000001 826385.11818123 14998.89060151
0.12100001 817508.77403599 20944.57577746
0.12200001 808681.01698309 16412.18201287
0.12300001 799904.81826591 16366.05335280
0.12400001 791180.14509143 19285.01694526
0.12500001 782507.47760468 17747.27042833
0.12600001 773890.84074555 20639.66969530
0.12700001 765328.62784606 16163.74138185
0.12800001 756822.08242589 21966.76197769
0.12900001 748372.80030549 18971.25138190
0.13000001 739981.94760564 15994.71055140
0.13100001 731648.75310056 24627.29819024
0.13200001 723375.26460895 17317.60465110
0.13300001 715163.15606326 15812.25812600
0.13400001 707011.30725134 18612.07354087
0.13500001 698921.78657673 17109.60614209
0.13600001 690893.98986004 14197.87216106
0.13700001 682930.01252737 15550.31711850
0.13800001 675028.50804240 14074.34505637
0.13900001 667192.45551099 18214.35489441
0.14000001 659420.75335267 18130.77446849
0.14100001 651714.06158078 15269.66118300
0.14200001 644072.81608736 19341.50757935
0.14300001 636498.82017445 15123.21268067
0.14400001 628988.87805816 15048.55961738
0.14500001 621547.46859764 17695.45726571
0.14600001 614172.50287298 16251.00519265
0.14700001 606866.71317366 17514.17416845
0.14800001 599625.52451198 17422.12043665
0.14900001 592453.73681138 14663.23067790
0.15000001 585349.04952232 18561.41923613
0.15100001 578313.13359304 13185.54006808
0.15200001 571345.36316469 19668.56505505
0.15300001 564447.02402700 16950.34493140
0.15400001 557614.54649311 19446.80822666
0.15500001 550852.34343906 19334.91816718
0.15600001 544156.14689531 16659.34122344
0.15700001 537531.66774687 14013.45123955
0.15800001 530971.66617085 13930.04231947
0.15900001 524482.29845683 16363.84848424
0.16000001 518058.60739653 13762.22755510
0.16100001 511706.05666818 16164.79509319
0.16200001 505419.66513329 13593.26253544
0.16300001 499200.78820791 18420.50995446
0.16400001 493049.47376041 20745.05758783
0.16500001 486964.78883817 13337.96619598
0.16600001 480948.12325801 16866.85147899
0.16700001 474996.35049295 15560.88117685
0.16800001 469110.45945095 11891.95070858
0.16900001 463292.89317489 16539.55706731
0.17000001 457539.32319501 14083.06103294
0.17100001 451850.79308301 13989.30121444
0.17200001 446228.00006663 18527.38743768
0.17300001 440669.37512276 12651.61835724
0.17400001 435175.12721396 13708.01715462
0.17500001 429744.34027441 14748.82645477
0.17600001 424375.43380804 11267.16829974
0.17700001 419071.25449901 13427.04362832
0.17800001 413827.74847136 16666.91335690
0.17900001 408647.04838305 13240.16499299
0.18000001 403527.34407682 13146.92149102
0.18100001 398470.13545297 13053.88225406
0.18200001 393470.48138504 15121.07131391
0.18300001 388531.93848994 11795.83020978
0.18400001 383652.19166162 14904.88835017
0.18500001 378832.71293328 10569.43319016
0.18600001 374069.45966221 11541.91372316
0.18700001 369363.94708364 16665.70207978
0.18800001 364715.20762640 14475.54727461
0.18900001 360124.98357757 10263.56251689
0.19000001 355586.54228497 16300.08786850
0.19100001 351107.91716426 13145.48103975
0.19200001 346680.79638850 10036.40952968
0.19300001 342309.70600231 10957.33420690
0.19400001 337990.34095353 10874.83973406
0.19500001 333724.68989038 10792.65698106
0.19600001 329511.10988236 11684.46450859
0.19700001 325348.70060023 13527.99961026
0.19800001 321237.81596684 10547.84418575
0.19900001 317177.53987051 12369.92463955
0.20000001 313165.67731430 9441.94561726
0.20100001 309204.40845619 9368.89401902
0.20200001 305290.26530446 10225.69791967
0.20300001 301425.40378490 10145.97957095
0.20400001 297607.22033392 11896.84919516
0.20500001 293835.21769418 13619.26298387
0.20600001 290109.41321312 9007.89770605
0.20700001 286429.62756607 10723.92576298
0.20800001 282793.13888031 12411.79145216
0.20900001 279203.61569923 8794.91431027
0.21000001 275655.23294775 8724.48853522
0.21100001 272150.62050990 10385.26816960
0.21200001 268688.21351033 11159.96547573
0.21300001 265266.70225288 8515.06154487
0.21400001 261887.37736607 9290.45515128
0.21500001 258549.63250593 10052.41018708
0.21600001 255250.56593543 8308.40631401
0.21700001 251991.58570378 9064.13776631
0.21800001 248771.24261908 9806.56284770
0.21900001 245588.50672854 9725.30532628
0.22000001 242443.41844804 8036.99970156
0.22100001 239337.03053502 10360.90054176
0.22200001 236267.11269701 10274.07588143
0.22300001 233232.20574702 10187.58322875
0.22400001 230232.56246049 10878.48909066
0.22500001 227270.12577437 7704.45762807
0.22600001 224340.00794014 11458.16644738
0.22700001 221446.29434727 10602.84907475
0.22800001 218584.66254004 9010.06021599
0.22900001 215755.40767271 10420.98668341
0.23000001 212959.96347479 9592.78200838
0.23100001 210197.18752538 12435.26620210
0.23200001 207464.48886609 13051.59161182
0.23300001 204763.26716443 10062.06742434
0.23400001 202093.77971449 8548.56728623
0.23500001 199452.65364343 8472.74912750
0.23600001 196843.02147733 8397.32369339
0.23700001 194262.18772010 6935.16042963
0.23800001 191710.37221138 10309.22575328
0.23900001 189186.90065384 11578.23886766
0.24000001 186691.35707709 8773.56074083
0.24100001 184224.84544028 9362.30708812
0.24200001 181785.20259454 7951.28513760
0.24300001 179372.44237543 6565.03170149
0.24400001 176986.00503128 9105.93038960
0.24500001 174626.05577775 9021.18246822
0.24600001 172292.04658261 9575.13094178
0.24700001 169984.00890013 6955.74597324
0.24800001 167701.09715173 6889.99990242
0.24900001 165442.23135980 11167.35114509
0.25000001 163208.91189527 6144.81582356
0.25100001 160998.74523229 6085.75285769
0.25200001 158814.33449494 8437.80599091
0.25300001 156653.32858353 7759.03973183
0.25400001 154515.12392458 8274.28527763
0.25500001 152399.80741524 6437.36816978
0.25600001 150307.86743275 6953.24227642
0.25700001 148237.98341436 5736.81022956
0.25800001 146190.96336987 9655.18263259
0.25900001 144166.08736322 6746.97320783
0.26000001 142162.98060913 5565.68095419
0.26100001 140180.58774288 6610.91683076
0.26200001 138220.89805178 7088.65909200
0.26300001 136281.23483966 5396.73715501
0.26400001 134362.89724895 5875.01796021
0.26500001 132465.76836985 5285.38440806
0.26600001 130588.06167637 5230.05211762
0.26700001 128731.77846541 5692.51951311
0.26800001 126895.88136291 6144.29886635
0.26900001 125078.44097069 7598.51564854
0.27000001 123281.93592774 5512.55202587
0.27100001 121504.48701306 5453.12163520
0.27200001 119747.73708329 6374.77108531
0.27300001 118009.31315749 5335.20130033
0.27400001 116288.20283566 6715.64403158
0.27500001 114588.96768196 6167.17853251
0.27600001 112905.80569871 4691.23644880
0.27700001 111243.35647463 5566.61782144
0.27800001 109598.04524631 5504.01409276
0.27900001 107972.40152377 6348.77751007
0.28000001 106363.55045806 4931.54625039
0.28100001 104773.47080995 4875.10982752
0.28200001 103201.80769687 5257.10033290
0.28300001 101647.49761346 5196.22032394
0.28400001 100110.62608088 5135.67536102
0.28500001 98591.99155830  5075.51596565
0.28600001 97090.43182487  5433.66627426
0.28700001 95606.12699368  4543.20336978
0.28800001 94138.51247927  4897.08565097
0.28900001 92689.99231634  4032.01485661
0.29000001 91256.71101997  4780.02674949
0.29100001 89841.30465757  6296.07892843
0.29200001 88442.63284672  4664.46467713
0.29300001 87060.89558231  4991.20138000
0.29400001 85694.91063318  4171.19997252
0.29500001 84346.72661536  4493.99380680
0.29600001 83014.17403507  5547.42244250
0.29700001 81698.14881109  3651.90742473
0.29800001 80398.30323762  5408.79610636
0.29900001 79115.45105555  4628.25410585
0.30000001 77847.68009294  4217.78750710
0.30100001 76597.00331053  5204.76662135
0.30200001 75360.78590493  3425.14788153
0.30300001 74141.91850434  4057.04597262
0.30400001 72938.52842711  4338.01918357
0.30500001 71750.63935777  4940.03175365
0.30600001 70577.45154152  3575.10097709
0.30700001 69421.06262349  3848.70389406
0.30800001 68279.56843690  4430.66140563
0.30900001 67153.59750411  3434.90667496
0.31000001 66043.28354170  4005.19512001
0.31100001 64947.03722402  3039.52148599
0.31200001 63866.77048883  3898.10852134
0.31300001 62800.98001426  4141.09681821
0.31400001 61751.15820181  3209.51659950
0.31500001 60715.13044539  4029.05624712
0.31600002 59694.56937986  2838.47690841
0.31700002 58688.47984320  3639.27280739
0.31800002 57697.04216554  3036.88395818
0.31900002 56720.29475317  3539.34656018
0.32000002 55758.07829153  3758.65223560
0.32100002 54809.57166785  2912.03268060
0.32200002 53876.74724435  2610.32852759
0.32300002 52956.15753354  3345.77019139
0.32400002 52050.55157404  3044.95741126
0.32500002 51158.91276903  2751.83804815
0.32600002 50281.48598186  2712.93770462
0.32700002 49417.21730786  2674.45992734
0.32800002 48567.62695982  2636.49375436
0.32900002 47730.86712549  3071.48144497
0.33000002 46908.50498999  3493.51107456
0.33100002 46097.30868037  2754.77529719
0.33200002 45302.43492029  2715.42807771
0.33300002 44519.42664226  3122.59273256
0.33400002 43749.85549997  2418.27337728
0.33500002 42992.61312362  3466.92448647
0.33600002 42249.14862710  2135.69456424
0.33700002 41517.62873894  3157.41581512
0.33800002 40799.92152595  2697.07894020
0.33900002 40093.67870133  2044.77771060
0.34000002 39400.82845084  2821.49345899
0.34100002 38719.86212959  2184.96192345
0.34200002 38051.86955259  2740.87629368
0.34300002 37395.11593014  2122.54688072
0.34400002 36751.79835978  2662.66791727
0.34500002 36119.45182877  2062.05960256
0.34600002 35499.92490486  2771.65676821
0.34700002 34890.61701682  2367.67738290
0.34800002 34294.45418721  1795.31476173
0.34900002 33709.07578946  1946.69921904
0.35000002 33135.39026664  1919.03621818
0.35100002 32573.43995750  1719.87771121
0.35200002 32021.52308920  2204.20164624
0.35300002 31481.15858556  1838.81456007
0.35400002 30952.02646580  2801.93232853
0.35500002 30433.78196907  2600.26245460
0.35600002 29925.35230972  1762.75296130
0.35700002 29428.10012058  1896.34686159
0.35800002 28941.58826143  1870.20552204
0.35900002 28465.44700045  1690.84763191
0.36000002 27999.77025166  2122.66268332
0.36100002 27543.38409738  2841.65107192
0.36200002 27098.10044732  2065.68829494
0.36300002 26661.71818824  1746.87585844
0.36400002 26235.17701877  2154.56401472
0.36500002 25818.06568088  1842.63543493
0.36600002 25410.87964454  1538.75588976
0.36700002 25012.59349040  1656.83427129
0.36800002 24624.86409323  1635.58355055
0.36900002 24245.32181289  1480.17696679
0.37000002 23874.39578179  1594.33222583
0.37100002 23512.40123447  1443.19125614
0.37200002 23159.82534370  1943.68843404
0.37300002 22815.33761253  2047.90480111
0.37400002 22479.49116304  1264.47143782
0.37500002 22152.35848058  1624.21100074
0.37600002 21833.62345446  1481.62975781
0.37700002 21522.40412720  1464.38444619
0.37800002 21219.28835890  1809.47490052
0.37900002 20924.66962855  1431.24747039
0.38000002 20637.73188778  1297.39107659
0.38100002 20357.41559827  1283.12796594
0.38200002 20085.62236894  1500.09477769
0.38300002 19820.59344099  1712.49935443
0.38400002 19563.68161868  1920.66453390
0.38500002 19312.86085439  1677.32204467
0.38600002 19070.21229952  1328.43105172
0.38700002 18833.56667362  1644.17044850
0.38800002 18604.18136290  1302.66484074
0.38900002 18380.70996618  1075.27158396
0.39000002 18165.15241273  1065.38623948
0.39100002 17954.94320545  1266.90085260
0.39200002 17751.57110674  1569.68274948
0.39300002 17554.11583565  1348.68278355
0.39400002 17364.01657568  1028.81803085
0.39500002 17178.67256267  1428.57847799
0.39600002 16999.42402580  1316.01047331
0.39700002 16825.75845798  1004.49782753
0.39800002 16658.22933011  996.99507264
0.39900002 16495.83927271  1286.67552423
0.40000002 16338.78052736  1474.16654293
0.40100002 16187.40146557  1073.71039008
0.40200002 16041.30643090  1260.60612560
0.40300002 15899.81755795  963.52898966
0.40400002 15763.75312309  1340.70726664
0.40500002 15632.75229077  952.03465962
0.40600002 15506.32541699  1041.32733272
0.40700002 15384.72490472  1318.16329229
0.40800002 15267.59737963  1405.00071543
0.40900002 15154.93120019  1025.23114427
0.41000002 15047.19218036  1020.42538606
0.41100002 14943.24311721  1108.19096208
0.41200002 14843.36637168  1287.36522641
0.41300002 14748.36271783  915.87336817
0.41400002 14656.67326664  1094.85354490
0.41500002 14569.25086245  1090.94555627
0.41600002 14485.15549430  1540.27908247
0.41700002 14405.19031384  903.20547548
0.41800002 14329.77743703  900.62655459
0.41900002 14255.98436329  898.12705744
0.42000002 14186.85286818  1254.25972151
0.42100002 14121.47979131  1340.83456972
0.42200002 14059.28806858  1605.71136640
0.42300002 13999.82793780  1246.54473865
0.42400002 13943.41970951  888.89304860
0.42500002 13890.57502205  887.60778597
0.42600002 13839.77294846  1329.65624903
0.42700002 13793.20167058  1062.62830706
0.42800002 13748.52782839  1680.96383459
0.42900002 13707.73537737  1149.39366586
0.43000002 13668.95901708  883.69824233
0.43100002 13631.98518601  1060.02321830
0.43200002 13598.58315514  971.55081956
0.43300002 13567.35896205  1413.17617645
0.43400002 13538.60696376  1060.07297550
0.43500002 13511.96974022  1148.78772175
0.43600002 13488.03119679  884.14048685
0.43700002 13465.61472210  1061.62911500
0.43800002 13445.27677505  1150.98297287
0.43900002 13427.79708684  1063.48157968
0.44000002 13411.74655774  887.18707684
0.44100002 13397.94935089  977.11249247
0.44200002 13385.88963449  889.49240837
0.44300002 13375.72768152  1247.15290813
0.44400002 13367.66842747  1070.75029178
0.44500002 13359.94757985  1340.67080317
0.44600002 13354.53156947  1074.50566100
0.44700002 13351.53813714  1256.11276747
0.44800002 13348.70268720  1078.84220231
0.44900002 13348.88800257  991.15498116
0.45000002 13349.82106020  1174.05006878
0.45100002 13351.89482530  1086.31021447
0.45200002 13355.45866694  1089.00415131
0.45300002 13360.01502280  1182.76218602
0.45400002 13366.27838700  1094.69825178
0.45500002 13373.59363626  914.75384807
0.45600002 13381.96725557  1192.53406850
0.45700002 13391.39176120  1379.98298639
0.45800002 13401.53551971  1014.96534069
0.45900002 13412.75499333  1665.86424912
0.46000002 13425.72383461  1021.22773188
0.46100002 13438.46045927  931.28535397
0.46200002 13452.91766155  1121.16621105
0.46300002 13468.24970497  1031.12924628
0.46400002 13483.54834680  1222.62080429
0.46500002 13500.30462220  1509.87414051
0.46600002 13517.32276487  1230.95505593
0.46700002 13534.89475647  950.14965694
0.46800002 13554.05478481  1144.23335917
0.46900002 13572.74096062  1052.56611138
0.47000002 13592.36540169  960.30066114
0.47100002 13612.51777014  1156.51956457
0.47200002 13633.47989600  1160.75453336
0.47300002 13654.93712834  1165.03929101
0.47400002 13676.09282176  1071.86382571
0.47500002 13698.14433055  1271.46181703
0.47600002 13720.92255072  1374.42487705
0.47700002 13743.33592071  1083.93695544
