# SAXS profile: number of points = 501, q_min = 0, q_max = 0.5, delta_q = 0.001
#    q    intensity    error
0.00000000 1664650.74656090 324.60689558
0.00100000 1664564.30470375 599.24316392
0.00200000 1664304.94496255 898.72469874
0.00300000 1663872.89316930 1497.48565720
0.00400000 1663268.00200518 1621.68636358
0.00500000 1662490.95136160 2094.73868163
0.00600000 1661541.55682832 2442.46618798
0.00700000 1660420.60911528 2391.00577650
0.00800000 1659127.86213354 2463.80497929
0.00900000 1657664.70663952 2735.14688288
0.01000000 1656030.53113756 3825.43069211
0.01100000 1654227.03914902 2977.60880011
0.01200000 1652253.89754696 5155.03238636
0.01300000 1650112.65501115 5544.37876537
0.01400000 1647803.34757892 6302.84808390
0.01500000 1645327.73393471 5133.42275846
0.01600000 1642685.16025634 5026.61681509
0.01700000 1639878.12585341 4427.67113842
0.01800000 1636906.98550233 6531.25916605
0.01900000 1633772.63513226 6371.71356452
0.02000000 1630476.13052418 6676.80005653
0.02100000 1627019.89585574 6442.99907970
0.02200000 1623402.74813479 5600.73973552
0.02300000 1619627.73101516 6996.79211647
0.02400000 1615695.47009263 6664.74411803
0.02500000 1611608.43545764 6913.80050387
0.02600000 1607366.81266920 8462.78665578
0.02700000 1602972.68119788 9425.47979714
0.02800000 1598426.49107905 7648.47111057
0.02900000 1593731.56903958 8606.15086796
0.03000000 1588888.55069180 8127.16531036
0.03100000 1583899.13586699 11404.07430298
0.03200000 1578764.50103964 10159.35003211
0.03300000 1573488.79455275 8827.27254438
0.03400000 1568070.42700821 9055.60713380
0.03500000 1562513.66958794 13500.11872865
0.03600000 1556818.94531587 12096.48376413
0.03700000 1550989.49367808 10608.76862739
0.03800000 1545026.70192972 10846.08794950
0.03900000 1538933.03198492 11080.31834342
0.04000000 1532708.72933838 9426.15912223
0.04100000 1526357.83200134 11539.26574497
0.04200000 1519881.91631822 13724.53434107
0.04300000 1513282.67923117 10986.43276119
0.04400000 1506563.06436241 13220.09150375
0.04500000 1499725.34926390 12417.72646889
0.04600000 1492770.22166653 15786.04582797
0.04700000 1485701.60690169 10697.05206719
0.04800000 1478521.29880441 11953.84525702
0.04900000 1471231.85294871 13241.08729288
0.05000000 1463834.93608524 15677.67289552
0.05100000 1456334.45531651 12495.35020870
0.05200000 1448729.80654431 14972.62324838
0.05300000 1441026.49433491 14006.77817790
0.05400000 1433225.23412492 15371.34135281
0.05500000 1425329.89230569 13170.04881928
0.05600000 1417340.95449894 12118.26572645
0.05700000 1409263.67276605 15938.77288298
0.05800000 1401097.33708851 16119.62561587
0.05900000 1392845.93355969 15042.73678503
0.06000000 1384513.08099185 15201.95433951
0.06100000 1376100.24594259 14077.50617385
0.06200000 1367610.19673586 12923.91696326
0.06300000 1359046.31405368 14351.52974742
0.06400000 1350407.90019146 15799.77317114
0.06500000 1341701.19149152 17267.69514224
0.06600000 1332927.86377725 16075.11078928
0.06700000 1324088.72558344 16206.84675960
0.06800000 1315188.21857498 17695.85830925
0.06900000 1306229.96095166 15086.95675535
0.07000000 1297213.23869037 15196.85380290
0.07100000 1288142.56959040 19476.71656445
0.07200000 1279020.19811694 21007.90773822
0.07300000 1269849.44143729 14095.32946040
0.07400000 1260632.79937520 14182.11965760
0.07500000 1251371.36574710 21398.45135727
0.07600000 1242067.97390741 15780.47434829
0.07700000 1232726.95212827 18749.77782102
0.07800000 1223349.14059917 14496.68799594
0.07900000 1213936.40768556 17480.68509058
0.08000000 1204494.36599385 16098.06795669
0.08100000 1195023.38593931 23518.06133871
0.08200000 1185525.00248123 20663.70176290
0.08300000 1176002.64833685 20744.68769025
0.08400000 1166459.49823221 16359.59523060
0.08500000 1156897.14386782 19401.16601345
0.08600000 1147318.37411162 25453.25932473
0.08700000 1137725.04093605 16519.76837012
0.08800000 1128119.33300193 18072.47256344
0.08900000 1118504.55716167 16609.79345401
0.09000000 1108882.67344456 19677.12396462
0.09100000 1099255.30680642 15169.72394662
0.09200000 1089624.85504357 16720.29418628
0.09300000 1079995.23642155 22841.90032371
0.09400000 1070365.26687101 18303.24692370
0.09500000 1060739.61997297 21384.51174378
0.09600000 1051119.36146831 19881.92365678
0.09700000 1041509.41102996 18372.22687430
0.09800000 1031908.70956970 19920.99857488
0.09900000 1022321.02091593 18401.77924178
0.10000000 1012745.72092264 21480.33775093
0.10100000 1003187.23342472 19953.39501126
0.10200000 993647.17918664 21492.58949674
0.10300000 984126.64218231 16887.61397425
0.10400000 974628.85666592 19955.52677904
0.10500000 965156.24508532 23018.97752831
0.10600001 955705.97887128 16872.98985091
0.10700001 946285.66758017 19928.77709704
0.10800001 936892.88913480 24509.11913321
0.10900001 927531.95305450 22956.41691856
0.11000001 918203.65288498 21403.32815619
0.11100001 908908.84683350 15269.66934560
0.11200001 899650.48051478 19823.79927139
0.11300001 890428.76848694 15226.33265799
0.11400001 881246.14951499 16721.64647438
0.11500001 872104.42338970 22761.92652228
0.11600001 863004.35165638 21204.01791873
0.11700001 853947.47395789 22672.30650133
0.11800001 844934.53180347 18098.49852364
0.11900001 835966.97301042 16552.14684524
0.12000001 827046.22580813 18013.06764661
0.12100001 818175.61460181 16469.87589780
0.12200001 809353.61351805 19412.34733477
0.12300001 800582.77567495 17869.00839495
0.12400001 791863.48377676 16332.18512243
0.12500001 783196.32355446 16282.65233394
0.12600001 774584.78852784 17707.00910016
0.12700001 766027.66720254 17649.27828409
0.12800001 757526.17467813 17589.75860502
0.12900001 749081.85860191 16067.80662432
0.13000001 740695.58277284 14554.66888752
0.13100001 732367.11553261 20301.21739952
0.13200001 724098.15751696 15890.33481579
0.13300001 715890.50540068 14389.39983691
0.13400001 707742.78156014 15764.97120250
0.13500001 699657.44601497 25691.42262897
0.13600001 691633.79679200 18476.99775250
0.13700001 683673.84095198 19812.86884503
0.13800001 675776.10232610 15498.92563771
0.13900001 667943.58631912 15429.49757160
0.14000001 660175.47760310 13962.71200980
0.14100001 652472.19313611 19456.72171696
0.14200001 644834.18396196 16598.03267803
0.14300001 637263.34137251 16517.86658748
0.14400001 629756.38733972 15066.92227781
0.14500001 622317.71746453 16354.51038644
0.14600001 614945.49156239 18983.36822006
0.14700001 607642.41946848 16187.59481831
0.14800001 600403.58865192 14760.92292341
0.14900001 593233.91829804 14682.54017061
0.15000001 586131.55596489 14603.46840590
0.15100001 579097.53390565 17164.45171487
0.15200001 572131.70079598 15756.50778342
0.15300001 565235.13032744 15668.31855205
0.15400001 558404.28971752 14281.19038347
0.15500001 551643.38286337 15490.14692183
0.15600001 544948.45781379 17966.95150207
0.15700001 538325.17627856 16585.79946394
0.15800001 531766.17786502 17755.67351696
0.15900001 525277.50343197 15127.99281289
0.16000001 518854.54975642 15036.40556170
0.16100001 512502.67612562 13699.19717950
0.16200001 506216.63786835 18565.49607023
0.16300001 499997.99784703 15989.93672600
0.16400001 493846.77169098 19556.33308221
0.16500001 487762.01162613 14574.32959546
0.16600001 481745.05412185 14481.25701061
0.16700001 475792.88996706 16785.97395058
0.16800001 469906.50872002 13103.34361435
0.16900001 464088.31228070 13017.67777414
0.17000001 458333.74066011 12931.88710336
0.17100001 452644.32551583 15181.69139470
0.17200001 447020.35400701 17400.26810141
0.17300001 441460.63250334 12674.33535771
0.17400001 435964.89332319 16021.71058627
0.17500001 430532.48007682 15912.48121515
0.17600001 425161.94958421 18060.88047134
0.17700001 419855.93230592 14573.20009864
0.17800001 414610.17445657 12245.51208096
0.17900001 409427.32623232 14370.89982954
0.18000001 404305.29797801 13172.26723032
0.18100001 399245.63694396 15259.16896479
0.18200001 394243.43986370 11904.18122901
0.18300001 389302.14203131 10744.73962764
0.18400001 384419.52557595 11734.40657255
0.18500001 379596.94290371 18004.28385248
0.18600001 374830.55349439 14719.59653113
0.18700001 370121.69015197 11481.17537094
0.18800001 365469.59310224 12433.27614476
0.18900001 360875.63949652 12341.94745391
0.19000001 356333.46894783 11229.84980449
0.19100001 351850.97992940 13173.30131100
0.19200001 347419.75345449 11063.58257153
0.19300001 343044.62502085 10980.85896579
0.19400001 338720.85114890 16842.89511927
0.19500001 334450.89331427 10816.14240090
0.19600001 330232.64249169 11710.05005613
0.19700001 326065.70574532 15494.64306926
0.19800001 321949.98212835 12493.26964691
0.19900001 317884.78542946 10490.19841494
0.20000001 313867.82360731 10409.42686190
0.20100001 309901.44807325 12207.01861654
0.20200001 305981.87968305 12112.29327972
0.20300001 302111.57692313 13866.92203619
0.20400001 298287.78244762 12841.28964132
0.20500001 294510.26575140 10920.44117024
0.20600001 290778.81382443 11737.28737482
0.20700001 287092.93636305 13435.95005690
0.20800001 283450.60271933 10663.41217836
0.20900001 279854.85438997 10578.51399600
0.21000001 276300.33648195 12242.86848826
0.21100001 272789.45240649 11277.11649559
0.21200001 269320.58467141 12046.71032185
0.21300001 265892.47400616 10242.17858292
0.21400001 262506.62965938 11005.59096878
0.21500001 259162.10511792 9236.53786308
0.21600001 255856.31293115 8328.12337965
0.21700001 252590.55137253 9911.65370448
0.21800001 249363.26027614 11468.21688232
0.21900001 246173.32395389 11373.20810441
0.22000001 243021.14894103 8056.15146831
0.22100001 239907.45042518 9586.70217228
0.22200001 236830.33459932 9506.37008032
0.22300001 233787.88906511 8640.80078843
0.22400001 230780.85958532 7788.85437931
0.22500001 227810.83294756 8495.06636232
0.22600001 224873.13820493 9188.31686155
0.22700001 221971.78444222 9868.86600299
0.22800001 219102.43998548 9784.01992024
0.22900001 216265.38072886 8953.38718559
0.23000001 213462.07435871 10355.04571685
0.23100001 210691.34628516 8065.26511722
0.23200001 207950.54442140 7994.65905838
0.23300001 205241.41847885 7924.37154225
0.23400001 202563.92773818 8568.45454857
0.23500001 199914.59662621 8492.37246634
0.23600001 197296.86627865 7715.29432074
0.23700001 194707.81092000 9036.38993220
0.23800001 192147.64087693 8955.04122663
0.23900001 189615.89489933 7508.78979318
0.24000001 187112.08137901 7440.51226798
0.24100001 184637.20302478 7372.56386551
0.24200001 182189.10782027 8633.03128242
0.24300001 179768.10598204 7237.46428919
0.24400001 177373.26263117 7822.16125205
0.24500001 175004.76594478 6457.67616884
0.24600001 172662.44022773 9595.71556958
0.24700001 170345.93430786 8871.61667843
0.24800001 168054.52912433 11925.99022349
0.24900001 165787.11473711 9325.52564513
0.25000001 163545.25550200 7388.97499314
0.25100001 161326.55167307 10976.65909513
0.25200001 159133.81328529 6643.04134987
0.25300001 156964.17265584 5980.33526112
0.25400001 154817.56307292 7698.30368802
0.25500001 152693.80991533 7622.47535161
0.25600001 150593.36300652 7546.98674414
0.25700001 148514.90274511 7471.78511062
0.25800001 146459.54829174 5689.95372035
0.25900001 144426.16673620 6195.88284614
0.26000001 142414.62747881 6133.08622256
0.26100001 140423.93257753 8277.99121713
0.26200001 138455.86878249 6008.29271011
0.26300001 136507.85601416 10270.85157250
0.26400001 134581.28271652 5349.60624112
0.26500001 132675.92536725 6881.90057444
0.26600001 130789.90614613 8381.01758243
0.26700001 128925.46074966 6737.64489760
0.26800001 127081.29186256 5127.73036930
0.26900001 125255.94360040 6594.72574263
0.27000001 123451.33493889 6021.95640329
0.27100001 121665.82728930 5956.75918597
0.27200001 119901.24803065 4909.95633921
0.27300001 118154.81254906 6313.01193325
0.27400001 116425.86935259 7203.85100711
0.27500001 114718.71827399 5224.29067744
0.27600001 113027.86087231 4696.30784150
0.27700001 111357.77327403 5572.34323835
0.27800001 109705.00536007 5050.27016077
0.27900001 108071.71244225 5900.71577861
0.28000001 106455.38212743 6281.93239665
0.28100001 104857.90110248 5322.58731187
0.28200001 103278.92022448 5699.44748234
0.28300001 101717.32746281 4766.47419051
0.28400001 100173.34484841 5995.37497294
0.28500001 98647.51046632  5924.76975903
0.28600001 97139.01072076  5854.56845325
0.28700001 95647.84827006  6611.17958535
0.28800001 94173.48049929  6123.63085932
0.28900001 92718.05699106  4436.55923702
0.29000001 91278.10568832  4382.71845208
0.29100001 89856.24954428  5116.41509124
0.29200001 88450.98328991  5053.64716949
0.29300001 87062.86702021  4991.31440254
0.29400001 85690.64341838  4170.99226583
0.29500001 84336.24751256  5616.79435022
0.29600001 82997.57457326  4067.29633450
0.29700001 81675.64685268  4746.17206328
0.29800001 80369.93640218  4325.51018193
0.29900001 79081.27929164  4626.25505756
0.30000001 77807.93823971  4566.93715118
0.30100001 76551.61021109  5201.68216009
0.30200001 75309.95242783  4449.68874985
0.30300001 74085.65456008  4053.96720945
0.30400001 72877.02378573  4667.77359446
0.30500001 71684.08228115  3948.35943897
0.30600001 70505.87771625  4545.51415156
0.30700001 69344.59202386  5125.95248508
0.30800001 68198.35052888  3793.19243600
0.30900001 67067.69607228  3430.51281651
0.31000001 65952.75522767  3692.03541244
0.31100001 64852.07432107  3642.09266631
0.31200001 63767.49686240  3892.04935527
0.31300001 62697.53983891  3838.97054610
0.31400001 61643.71429353  2912.66563827
0.31500001 60603.78647985  3159.88157667
0.31600002 59579.30190487  3116.29553368
0.31700002 58569.44550524  3911.26775603
0.31800002 57574.48621186  3856.91501395
0.31900002 56594.25293960  4618.09125853
0.32000002 55628.74787914  4017.78650581
0.32100002 54676.97938246  2640.89822922
0.32200002 53741.07503436  3124.50625044
0.32300002 52817.43436381  3080.31291795
0.32400002 51909.11185660  2783.62625512
0.32500002 51014.74057096  2744.08302525
0.32600002 50134.73781290  2950.93080740
0.32700002 49268.05313480  3878.38132642
0.32800002 48416.06442315  2628.26618167
0.32900002 47577.09036391  2590.57269299
0.33000002 46752.68429830  3017.65215093
0.33100002 45939.57522018  2974.12824059
0.33200002 45142.83623887  2480.37325460
0.33300002 44358.05441010  2444.57249430
0.33400002 43586.97400988  2628.29465726
0.33500002 42828.23635508  2590.25185742
0.33600002 42083.48022950  3190.98003952
0.33700002 41350.76253565  2306.13213582
0.33800002 40631.96803570  2066.13567246
0.33900002 39924.74192503  2239.77812806
0.34000002 39231.00643343  2407.99928892
0.34100002 38549.34374530  2373.09771335
0.34200002 37880.80652328  2143.86434672
0.34300002 37223.55708089  2304.88276361
0.34400002 36579.88887623  1893.00933900
0.34500002 35947.22942406  2052.22742501
0.34600002 35327.65916102  2022.68522106
0.34700002 34718.29991440  1812.29534136
0.34800002 34122.33897837  1964.93498313
0.34900002 33537.17748181  1936.77209130
0.35000002 32963.79907029  2603.31615487
0.35100002 32402.33320299  2224.09625639
0.35200002 31850.95758665  1686.50828409
0.35300002 31311.29633624  2327.68187988
0.35400002 30783.02952589  3114.47315980
0.35500002 30265.67822301  2262.66221112
0.35600002 29758.32206635  2549.69315541
0.35700002 29262.11931917  2042.78864643
0.35800002 28776.91208922  1859.56414728
0.35900002 28302.07046459  1833.97425297
0.36000002 27837.83914784  1658.16096738
0.36100002 27382.92741116  2230.33954328
0.36200002 26939.39844986  1613.53534658
0.36300002 26504.67160376  1881.30167955
0.36400002 26079.98662848  1713.45520265
0.36500002 25664.76299765  2113.49333297
0.36600002 25259.67840911  1668.65443475
0.36700002 24863.53316249  1784.20722426
0.36800002 24478.00377783  2032.28635992
0.36900002 24100.71567125  1471.34876143
0.37000002 23732.21013255  1716.90682337
0.37100002 23372.76047510  1825.88013481
0.37200002 23022.77883941  1416.93699079
0.37300002 22680.93847525  1399.64077961
0.37400002 22347.74298064  1382.76666243
0.37500002 22023.47710949  1366.33658460
0.37600002 21707.57106514  1595.83216245
0.37700002 21399.33601183  1577.34513215
0.37800002 21099.28551763  1679.29221390
0.37900002 20807.80322384  1186.04483994
0.38000002 20523.95568257  1407.53294739
0.38100002 20246.92148858  1624.20811876
0.38200002 19978.45307767  1147.76218369
0.38300002 19716.77915953  1362.82384007
0.38400002 19463.36720406  1573.61331300
0.38500002 19215.95354448  1335.12451552
0.38600002 18976.91130974  1432.09267983
0.38700002 18743.93241019  1309.07630155
0.38800002 18518.18452452  1188.58973002
0.38900002 18298.51593057  1284.55587918
0.39000002 18086.69640230  1272.94175310
0.39100002 17880.23934388  1577.03718484
0.39200002 17680.76377523  1354.96539611
0.39300002 17487.18749465  1860.28709382
0.39400002 17301.11842191  1332.61870958
0.39500002 17119.72739668  1220.29422665
0.39600002 16944.48312786  1009.04401807
0.39700002 16774.97514443  1301.90588264
0.39800002 16611.38279986  1093.61043844
0.39900002 16453.18024622  1480.78629232
0.40000002 16300.34762338  980.46595600
0.40100002 16153.14338534  1071.43805151
0.40200002 16011.29429431  1355.03590033
0.40300002 15874.01938726  1154.35874454
0.40400002 15742.22472662  956.34019745
0.40500002 15615.43206332  1331.37180080
0.40600002 15493.39662000  1324.22067185
0.40700002 15376.00355543  1505.61833949
0.40800002 15263.27421680  936.40191757
0.40900002 15154.86849128  1211.63179329
0.41000002 15051.43007150  1113.50484945
0.41100002 14951.84326982  1016.42635364
0.41200002 14856.29102984  1012.38200020
0.41300002 14765.62211104  1192.02872951
0.41400002 14678.35858294  1096.47343810
0.41500002 14595.28994231  1092.89536267
0.41600002 14515.50520804  907.94489378
0.41700002 14439.90745782  1086.45868861
0.41800002 14368.76353307  1173.99988010
0.41900002 14299.30951196  1081.02785033
0.42000002 14234.50782030  1258.47289603
0.42100002 14173.35823098  986.89098039
0.42200002 14115.47138244  1074.75204199
0.42300002 14060.25963283  983.65581052
0.42400002 14008.08992610  982.31735262
0.42500002 13959.44576690  1159.61121481
0.42600002 13912.86690660  980.23108435
0.42700002 13870.41901388  1068.57713147
0.42800002 13829.81906582  889.94889906
0.42900002 13793.15762754  978.62458005
0.43000002 13758.40744447  1067.37730012
0.43100002 13725.45856960  1245.17366044
0.43200002 13696.09008039  978.51720216
0.43300002 13668.83395293  978.82524575
0.43400002 13644.04742647  979.30155044
0.43500002 13621.26288762  1068.99676208
0.43600002 13601.15625646  1069.86700183
0.43700002 13582.47107845  1249.31574900
0.43800002 13565.96692933  1071.98275756
0.43900002 13552.16280808  983.88706649
0.44000002 13539.74679808  1164.35058108
0.44100002 13529.57808241  1166.11439019
0.44200002 13521.06386914  1168.01715769
0.44300002 13514.33795547  900.05495049
0.44400002 13509.81507899  1172.31425904
0.44500002 13505.51049711  903.51869508
0.44600002 13503.31353357  1267.55610147
0.44700002 13503.65966702  1088.93516715
0.44800002 13503.97339569  1091.39118156
0.44900002 13507.22824315  1823.47589924
0.45000002 13511.31113582  1188.25231415
0.45100002 13516.39477526  1099.69393103
0.45200002 13522.94996567  1010.77294309
0.45300002 13530.36775891  1289.98532327
0.45400002 13539.40613998  1386.09676927
0.45500002 13549.46440100  1112.14009074
0.45600002 13560.45183833  1022.52591933
0.45700002 13572.56538707  1305.40940080
0.45800002 13585.16494751  1028.87251606
0.45900002 13598.88838995  1032.15567772
0.46000002 13614.20347144  1035.56443614
0.46100002 13629.18867631  1038.95310204
0.46200002 13645.94965476  1042.48237328
0.46300002 13663.35842043  1046.06677025
0.46400002 13680.75543530  1049.65601052
0.46500002 13699.50273800  1053.35481545
0.46600002 13718.43273003  1153.17150994
0.46700002 13737.85307603  1157.27679798
0.46800002 13758.74613859  1064.72062040
0.46900002 13779.08508458  971.42554450
0.47000002 13800.27862268  1559.98356945
0.47100002 13821.94547639  1174.31254333
0.47200002 13844.28871643  1178.70279718
0.47300002 13867.05414714  1183.13711591
0.47400002 13889.43705139  1286.50916786
0.47500002 13912.59810325  1291.36741715
0.47600002 13936.59013597  1495.74460724
0.47700002 13959.90312225  1000.92510131
