# SAXS profile: number of points = 501, q_min = 0, q_max = 0.5, delta_q = 0.001
#    q    intensity    error
0.00000000 1646666.22097350 271.69992646
0.00100000 1646580.16556826 592.76887368
0.00200000 1646321.96680549 1111.26736278
0.00300000 1645891.85144239 1086.28866065
0.00400000 1645289.66086816 1357.36402179
0.00500000 1644516.09414669 2220.09681497
0.00600000 1643570.94724954 2416.04939082
0.00700000 1642455.01916897 2562.22993639
0.00800000 1641168.07268121 2658.69238999
0.00900000 1639711.45983277 2459.56729489
0.01000000 1638084.63186702 3783.97566300
0.01100000 1636289.23532438 3534.38490219
0.01200000 1634324.95978478 3505.62719244
0.01300000 1632193.36356846 4113.12745760
0.01400000 1629894.46350295 4767.44151709
0.01500000 1627429.99565864 4686.99859620
0.01600000 1624799.35565227 7457.82937583
0.01700000 1622005.01645749 4817.35511498
0.01800000 1619047.33453630 7382.85617770
0.01900000 1615927.18014637 6302.11628694
0.02000000 1612645.65242647 6095.80084192
0.02100000 1609205.07302442 5841.41467992
0.02200000 1605604.40108915 7755.06960959
0.02300000 1601846.60763646 7496.64246497
0.02400000 1597932.32700696 5992.24649951
0.02500000 1593863.95094162 9324.10453885
0.02600000 1589641.81797117 6438.04965725
0.02700000 1585267.83210101 9987.18779966
0.02800000 1580742.60377761 7563.85370595
0.02900000 1576069.34099951 7092.31236014
0.03000000 1571248.69022708 8036.93741993
0.03100000 1566282.45512295 9021.78735663
0.03200000 1561171.66468060 9273.36011532
0.03300000 1555920.43978263 8728.71406958
0.03400000 1550527.36535981 9768.32285248
0.03500000 1544996.65251762 9177.28053974
0.03600000 1539328.62616845 9397.60169706
0.03700000 1533526.56778483 9615.21202469
0.03800000 1527591.95475565 10723.69601867
0.03900000 1521527.09369781 10954.99558195
0.04000000 1515332.28199003 11183.15275930
0.04100000 1509011.71885737 14260.16140440
0.04200000 1502566.70033643 10660.71123347
0.04300000 1495999.06205202 11848.31312143
0.04400000 1489311.72970251 11058.14010660
0.04500000 1482507.01695014 13298.08855994
0.04600000 1475585.50773281 11443.16614442
0.04700000 1468551.29626881 12688.28378987
0.04800000 1461405.93164551 18260.26796553
0.04900000 1454152.12451723 13087.36972984
0.05000000 1446791.55587684 14388.34269320
0.05100000 1439328.11676056 12349.43581709
0.05200000 1431760.99201006 13659.00050030
0.05300000 1424096.02653239 19609.80319952
0.05400000 1416333.64964595 12853.22846993
0.05500000 1408477.75012801 16563.69911419
0.05600000 1400528.93292544 17961.78440294
0.05700000 1392492.43446249 12114.68474532
0.05800000 1384367.52015138 15927.14906302
0.05900000 1376158.23141225 13623.96712730
0.06000000 1367868.02246803 13767.59228935
0.06100000 1359498.37103816 16436.33607394
0.06200000 1351052.15079875 12767.44342184
0.06300000 1342532.60359384 14177.14495681
0.06400000 1333939.18188733 16907.67992114
0.06500000 1325278.23231141 14432.28062498
0.06600000 1316551.13994640 14554.47353309
0.06700000 1307758.73906200 17340.88169150
0.06800000 1298905.37667827 16132.40553349
0.06900000 1289994.97150537 16253.93740196
0.07000000 1281026.72716757 15007.22881153
0.07100000 1272005.19450717 19232.71944177
0.07200000 1262932.30904340 15212.02037506
0.07300000 1253811.58618334 19484.23296223
0.07400000 1244645.50223118 18202.94132320
0.07500000 1235435.20200808 15492.35815935
0.07600000 1226183.42706723 15578.66117123
0.07700000 1216894.51447881 15661.43313568
0.07800000 1207569.43132646 21464.54764843
0.07900000 1198209.72770038 15816.36914749
0.08000000 1188821.43382413 18777.43542812
0.08100000 1179404.56645095 14506.67684797
0.08200000 1169960.80880480 21849.01912970
0.08300000 1160493.50244840 17546.66258052
0.08400000 1151006.05158379 16142.86063119
0.08500000 1141499.70477370 17670.41625944
0.08600000 1131977.43401156 17726.76744892
0.08700000 1122441.00295427 19261.08851515
0.08800000 1112892.61795613 19314.25229170
0.08900000 1103335.70341148 16384.53596524
0.09000000 1093772.04649608 16422.98804962
0.09100000 1084203.25272033 20946.80782666
0.09200000 1074631.97955929 16490.22850116
0.09300000 1065061.83458665 19522.58434538
0.09400000 1055491.80689940 15040.75895519
0.09500000 1045926.37379789 16567.47453967
0.09600000 1036366.81254711 16587.05161454
0.09700000 1026817.93635386 19622.49168623
0.09800000 1017278.75127595 19638.56721674
0.09900000 1007752.74625696 16627.92109513
0.10000000 998239.78673173 21172.66687227
0.10100000 988743.80189990 24204.44940889
0.10200000 979266.36742445 19668.56591486
0.10300000 969809.31975270 15129.02609982
0.10400000 960375.01611205 22688.86082305
0.10500000 950966.30845049 15120.36501577
0.10600001 941580.14069431 21157.30675693
0.10700001 932224.46098166 19632.64807214
0.10800001 922896.30669136 16598.29085699
0.10900001 913600.57222983 18089.29218154
0.11000001 904337.64289989 15057.22246302
0.11100001 895108.50898258 16541.60602467
0.11200001 885916.21621993 18019.53668622
0.11300001 876760.76548041 22488.91469337
0.11400001 867644.71072622 14966.87196473
0.11500001 858569.53430568 16433.02166041
0.11600001 849536.66549135 16400.30609963
0.11700001 840547.08673007 16365.45254936
0.11800001 831601.68593788 17812.90895175
0.11900001 822701.77086909 19251.22234510
0.12000001 813848.91505589 31019.85285854
0.12100001 805046.46917036 19152.05640378
0.12200001 796292.99598782 16160.76711493
0.12300001 787590.64833072 20508.86144879
0.12400001 778940.14674329 16065.64128355
0.12500001 770342.04594010 17471.35842518
0.12600001 761799.74250062 14512.28577851
0.12700001 753311.80345004 15909.94603864
0.12800001 744879.94991037 15854.77048107
0.12900001 736505.20864321 17234.22269454
0.13000001 728188.80766989 15739.80181968
0.13100001 719930.28869461 15680.08242689
0.13200001 711731.47409546 19878.66100857
0.13300001 703594.00509774 15556.46418609
0.13400001 695516.73671603 18309.47895726
0.13500001 687501.83508758 16830.04571645
0.13600001 679548.82956302 20947.09365895
0.13700001 671659.68954476 15293.69185208
0.13800001 663832.85659131 17993.19042639
0.13900001 656071.16082988 15155.24452986
0.14000001 648373.93076728 15084.42021069
0.14100001 640741.78320844 13647.80062601
0.14200001 633175.01131792 14939.76509668
0.14300001 625675.30286647 17568.96333318
0.14400001 618239.57042977 17480.72467847
0.14500001 610872.35825098 16053.72633212
0.14600001 603571.52373435 13308.75272617
0.14700001 596340.01147189 18534.24843093
0.14800001 589172.56287820 17118.40962205
0.14900001 582074.26998973 14406.33886195
0.15000001 575043.60230594 14327.21202745
0.15100001 568081.16337844 12952.25113618
0.15200001 561186.86521635 16743.01091378
0.15300001 554361.91888124 17928.06530263
0.15400001 547602.63699077 14004.93810195
0.15500001 540913.33387600 20251.79617606
0.15600001 534289.85831695 16357.28478435
0.15700001 527738.07899096 15008.87167487
0.15800001 521250.60778755 13675.01034075
0.15900001 514833.50362538 21005.20793937
0.16000001 508482.07422872 15963.79547394
0.16100001 502201.60764609 14644.19957023
0.16200001 495986.83451919 16977.63014704
0.16300001 489839.54817358 13255.05879932
0.16400001 483759.49156634 13170.35277966
0.16500001 477746.04799209 14275.05258795
0.16600001 471800.19037637 13000.45485961
0.16700001 465919.00129140 12915.27532559
0.16800001 460103.60715165 12829.98969121
0.16900001 454356.26024381 22013.56184825
0.17000001 448672.38609354 11508.44724672
0.17100001 443053.77112169 11430.78783472
0.17200001 437500.39458717 15894.39008593
0.17300001 432011.17144994 22550.98421465
0.17400001 426585.65570890 14557.23618855
0.17500001 421223.67046303 15568.42759557
0.17600001 415923.29672733 14355.59326455
0.17700001 410687.25496935 18641.09538349
0.17800001 405511.37645402 15243.17336087
0.17900001 400398.19009872 16216.12746494
0.18000001 395345.88086831 13953.73352435
0.18100001 390355.80529504 15985.07098191
0.18200001 385422.82240995 10579.85697492
0.18300001 380550.57327982 18905.75337364
0.18400001 375737.03520150 13554.71418523
0.18500001 370983.21897328 13455.56198783
0.18600001 366285.46695587 14384.03096691
0.18700001 361645.15771893 14277.75150129
0.18800001 357061.37901883 11134.95963079
0.18900001 352535.40853328 14066.16346507
0.19000001 348061.36791643 12963.54626056
0.19100001 343646.54139342 11876.42503172
0.19200001 339282.84678528 12768.91054211
0.19300001 334975.17953815 10722.55600368
0.19400001 330718.47693338 11608.21908889
0.19500001 326515.61052219 10559.51534328
0.19600001 322364.05639926 14288.78747513
0.19700001 318263.59441389 13233.40088111
0.19800001 314214.14991645 13131.00994556
0.19900001 310215.03454502 11167.74177141
0.20000001 306263.95847330 11080.63054125
0.20100001 302363.33306035 10077.77036720
0.20200001 298509.05600806 9998.56130356
0.20300001 294704.03444007 9919.73826811
0.20400001 290945.05055407 10735.87287288
0.20500001 287232.25898781 9763.02494446
0.20600001 283565.26973450 10565.64244972
0.20700001 279943.58705161 11354.51242753
0.20800001 276365.31259813 8664.05295950
0.20900001 272833.02524890 10313.08884192
0.21000001 269342.00561957 11934.54483318
0.21100001 265894.39869648 11837.61918957
0.21200001 262488.39863279 11741.10662590
0.21300001 259122.96486737 10813.20183511
0.21400001 255799.54244214 9074.48919715
0.21500001 252517.05913656 8999.70841311
0.21600001 249273.10511588 8113.83995513
0.21700001 246068.91111109 10460.38990590
0.21800001 242902.91582173 8777.29727821
0.21900001 239773.86683408 8703.79177761
0.22000001 236682.46998347 10984.43395130
0.22100001 233629.22709639 8557.83899319
0.22200001 230612.20666261 10799.57014866
0.22300001 227629.50542807 7648.35174404
0.22400001 224682.11043949 9857.92806168
0.22500001 221771.29137188 7518.04713301
0.22600001 218892.51340549 9689.27756408
0.22700001 216049.72753605 7388.90103115
0.22800001 213238.89788191 8057.23213749
0.22900001 210459.73478366 8713.03343209
0.23000001 207714.20909371 7197.29768547
0.23100001 205000.85715604 7134.03016642
0.23200001 202317.18428561 9899.38029527
0.23300001 199664.79777027 7008.23473319
0.23400001 197043.80995149 7640.37409222
0.23500001 194450.67027193 7571.90945851
0.23600001 191888.75772872 8868.13935787
0.23700001 189355.26641958 9463.97666328
0.23800001 186850.36919860 6698.58605260
0.23900001 184373.45266688 6637.44460996
0.24000001 181924.24331967 7234.21787779
0.24100001 179503.63587408 11077.16989375
0.24200001 177109.39360856 6455.63770240
0.24300001 174742.18036199 8953.78974529
0.24400001 172400.51331805 6969.29108055
0.24500001 170084.92737938 7531.36094063
0.24600001 167795.35022203 6838.49982179
0.24700001 165531.11135942 6157.75763387
0.24800001 163291.55929249 7928.62203652
0.24900001 161075.77934592 7248.41041347
0.25000001 158885.25317608 8374.84209111
0.25100001 156717.46468560 8885.88066806
0.25200001 154575.39262318 8799.20464136
0.25300001 152455.99203541 7551.14564276
0.25400001 150359.38872398 6901.49626895
0.25500001 148285.30657399 6263.57164603
0.25600001 146234.14893372 6201.05937892
0.25700001 144204.50281295 6696.85742748
0.25800001 142197.85091304 6629.26412322
0.25900001 140212.76756764 6015.12801326
0.26000001 138249.07504133 5953.69669836
0.26100001 136305.97586023 5892.50761525
0.26200001 134385.15118387 6891.94280457
0.26300001 132484.18871220 7344.92376975
0.26400001 130604.12521188 5191.51422283
0.26500001 128744.95022325 5650.61613268
0.26600001 126904.82066966 9148.56895498
0.26700001 125085.96500866 7039.83844381
0.26800001 123287.05357671 6964.48598611
0.26900001 121506.59203829 6397.32237355
0.27000001 119746.50592257 7301.54354415
0.27100001 118005.20550530 6258.99639619
0.27200001 116284.41815670 5714.21657864
0.27300001 114581.41653188 5651.15573079
0.27400001 112895.71574319 6054.03304323
0.27500001 111231.40005409 4604.98018017
0.27600001 109583.07980385 5919.13033573
0.27700001 107955.08260882 4951.89987362
0.27800001 106344.12187840 5785.65222461
0.27900001 104752.41411611 4399.60160110
0.28000001 103177.22877265 5653.59651817
0.28100001 101620.48948302 6017.96567201
0.28200001 100082.01908327 4248.48191116
0.28300001 98560.53364307  6298.01839788
0.28400001 97056.37499406  5393.90829559
0.28500001 95569.96749895  5739.93251967
0.28600001 94100.61237086  5266.34102060
0.28700001 92648.27391230  4802.88674695
0.28800001 91212.41056713  4744.86982229
0.28900001 89795.03067010  4687.30082285
0.29000001 88392.93095140  4630.02194239
0.29100001 87008.48521334  4192.06901601
0.29200001 85640.46696179  5269.45818159
0.29300001 84289.11926093  4088.86536890
0.29400001 82953.31381767  5138.95803426
0.29500001 81635.08455234  4711.97730341
0.29600001 80332.27114272  4294.56341858
0.29700001 79045.86590982  3886.68541077
0.29800001 77775.38209625  4883.51647300
0.29900001 76521.43904668  4476.50439614
0.30000001 75282.74086100  4078.81909294
0.30100001 74060.62002558  4025.93549518
0.30200001 72852.76203910  3311.15819143
0.30300001 71662.02507889  4901.68274745
0.30400001 70486.78080284  4192.20148671
0.30500001 69326.77772699  4454.93894764
0.30600001 68181.14657342  4081.66453285
0.30700001 67052.15603224  4336.93365749
0.30800001 65937.85959909  3361.84193082
0.30900001 64838.92271423  4824.01607833
0.31000001 63755.25939670  3271.60129083
0.31100001 62685.70226732  3813.79830651
0.31200001 61631.88321133  3472.34046453
0.31300001 60592.23415038  3424.67323632
0.31400001 59568.63658906  2814.61821210
0.31500001 58558.52232500  3885.94372548
0.31600002 57563.58271767  4653.15242930
0.31700002 56582.96802525  2968.90847286
0.31800002 55616.89008150  3193.52197969
0.31900002 54665.17871539  2623.92870258
0.32000002 53728.04659534  3363.10723588
0.32100002 52804.35750137  3315.58576450
0.32200002 51896.09536445  2765.80253341
0.32300002 51000.00565421  2478.60039216
0.32400002 50118.77801606  2931.94865277
0.32500002 49251.19179827  2890.06007157
0.32600002 48397.74550135  4985.21001143
0.32700002 47557.42130143  2573.80776271
0.32800002 46731.39094296  3920.53022881
0.32900002 45918.10362197  2727.53548430
0.33000002 45119.16517464  3136.23331980
0.33100002 44331.03614247  3090.75998621
0.33200002 43559.29352409  2175.78681456
0.33300002 42799.05447310  2144.23273064
0.33400002 42052.29805468  2324.44088505
0.33500002 41317.51687670  2082.40294920
0.33600002 40596.55056453  2257.37130104
0.33700002 39887.35619620  2224.51796041
0.33800002 39191.62207548  2391.47289230
0.33900002 38507.44515664  2356.65575519
0.34000002 37836.28267280  2709.45633051
0.34100002 37177.06053228  2479.33828432
0.34200002 36530.63085691  2255.40125592
0.34300002 35895.27923102  2593.07509446
0.34400002 35273.11995859  1825.38404431
0.34500002 34661.90587536  1978.84830014
0.34600002 34063.48745901  2304.90598808
0.34700002 33474.90423280  1922.12909208
0.34800002 32899.54259038  2238.97847703
0.34900002 32334.77480314  2037.09090908
0.35000002 31781.38113443  2175.27673477
0.35100002 31239.84659893  1979.35677426
0.35200002 30707.95918327  1951.18381892
0.35300002 30187.64732210  1763.26056360
0.35400002 29678.56073167  1896.46012058
0.35500002 29179.95413738  1714.03058721
0.35600002 28691.18427602  1843.69558890
0.35700002 28213.39479539  2121.08312118
0.35800002 27746.44358812  2241.21908699
0.35900002 27289.44603006  1768.35618651
0.36000002 26842.80752369  1744.24571551
0.36100002 26405.38260144  1577.19357749
0.36200002 25979.04969898  1556.01525542
0.36300002 25561.27235635  1535.21009044
0.36400002 25153.34422171  1652.57479364
0.36500002 24754.68538069  1902.64520848
0.36600002 24365.90502756  1743.74607590
0.36700002 23985.80605521  2250.82814684
0.36800002 23616.20664281  1437.87280956
0.36900002 23254.46262967  1419.68501079
0.37000002 22901.42558511  1784.25015186
0.37100002 22557.18027710  1762.16700672
0.37200002 22222.20329673  1616.33203335
0.37300002 21895.19435276  1351.15250751
0.37400002 21576.55005412  1335.04909784
0.37500002 21266.69669931  1319.38592573
0.37600002 20964.96722526  1185.56895275
0.37700002 20670.72192113  1289.23298729
0.37800002 20384.42505008  1274.74008089
0.37900002 20106.45601094  1375.28165630
0.38000002 19835.98571250  1587.07729204
0.38100002 19572.09724402  1233.62934773
0.38200002 19316.68553727  1220.71800036
0.38300002 19067.76943773  1537.62500030
0.38400002 18826.96177055  1522.15993126
0.38500002 18591.92931621  1722.35641345
0.38600002 18365.01682023  1172.69820461
0.38700002 18144.22129992  1267.19247562
0.38800002 17930.23042393  1464.72059272
0.38900002 17722.28978875  1140.42940193
0.39000002 17521.91375064  1130.42631918
0.39100002 17326.73587499  1018.81211772
0.39200002 17138.38548221  1111.33865925
0.39300002 16955.84061728  1402.92631914
0.39400002 16780.53226915  1491.36987608
0.39500002 16609.72889368  1578.58870884
0.39600002 16444.91223835  1371.01239827
0.39700002 16285.68445734  972.25540817
0.39800002 16132.18357289  1062.06235584
0.39900002 15983.94694010  1054.94054803
0.40000002 15840.83608114  1333.95686959
0.40100002 15703.28020013  1325.67097730
0.40200002 15570.86757825  1411.88848455
0.40300002 15442.87001535  1310.17315418
0.40400002 15320.26303368  1396.05903509
0.40500002 15202.43065124  1018.41087758
0.40600002 15089.29000610  1013.32131837
0.40700002 14980.47504738  1375.20767451
0.40800002 14876.34898337  1460.26248540
0.40900002 14776.30701858  1272.24009458
0.41000002 14681.03124861  995.59418130
0.41100002 14589.58358602  1352.45446251
0.41200002 14501.98122510  1078.07733536
0.41300002 14419.05101443  1522.21928772
0.41400002 14339.46652731  1071.15820034
0.41500002 14263.93673635  1335.10454178
0.41600002 14191.57042174  1153.98760352
0.41700002 14123.12789150  1239.72822506
0.41800002 14059.21316605  1148.70806616
0.41900002 13996.70051582  1146.32982656
0.42000002 13938.75243321  1144.30193523
0.42100002 13884.32041501  1230.42853348
0.42200002 13833.08579839  877.70933550
0.42300002 13784.38052006  1052.02397114
0.42400002 13738.47439146  1226.15889754
0.42500002 13696.12984915  1312.77410825
0.42600002 13655.62432022  874.64277916
0.42700002 13619.24669021  961.79124684
0.42800002 13584.36901239  1048.98502484
0.42900002 13553.52578707  1049.04294563
0.43000002 13524.43578827  1049.22577817
0.43100002 13496.97338963  1049.52470051
0.43200002 13473.01698872  1050.08699386
0.43300002 13451.07500307  963.23152662
0.43400002 13431.46459474  964.04341697
0.43500002 13413.76070073  1228.16398796
0.43600002 13398.57957549  1141.76001263
0.43700002 13384.80208674  967.31969265
0.43800002 13373.10038279  968.68057213
0.43900002 13363.97015877  1411.23531564
0.44000002 13356.10440556  1060.20761796
0.44100002 13350.42619284  1062.15995824
0.44200002 13346.27565744  1064.23207136
0.44300002 13343.83427434  977.56934527
0.44400002 13343.50348325  979.74678969
0.44500002 13343.30518874  892.66715943
0.44600002 13345.14419628  1073.75035292
0.44700002 13349.39349160  1345.61892772
0.44800002 13353.49481463  989.29371023
0.44900002 13360.46490190  992.01456598
0.45000002 13368.21730124  1085.23193195
0.45100002 13376.83198869  1088.33910218
0.45200002 13386.77267083  1273.48374453
0.45300002 13397.70015388  1277.33679321
0.45400002 13410.00350070  1281.32589522
0.45500002 13423.30132192  1009.96923933
0.45600002 13437.41353460  1289.58863803
0.45700002 13452.56870827  1016.61066546
0.45800002 13468.15541565  1020.01079875
0.45900002 13484.88054705  1023.50248203
0.46000002 13503.00611141  933.73291686
0.46100002 13520.77962400  1124.38808682
0.46200002 13540.25166503  1034.40757498
0.46300002 13560.29060763  1321.31477943
0.46400002 13580.23117326  947.22116923
0.46500002 13601.44649492  1426.11173258
0.46600002 13622.85409249  1335.99336417
0.46700002 13644.69356525  1053.64328705
0.46800002 13667.84603732  1153.83961716
0.46900002 13690.40413863  1158.20824502
0.47000002 13713.76396821  1162.65296433
0.47100002 13737.65205188  1264.41355478
0.47200002 13761.94649699  976.41015024
0.47300002 13786.73153092  1372.33132163
0.47400002 13811.03525241  1082.43993921
0.47500002 13836.10400597  1185.47744742
0.47600002 13861.87451111  1388.54403559
0.47700002 13886.94195650  1294.40192112
