# SAXS profile: number of points = 501, q_min = 0, q_max = 0.5, delta_q = 0.001
#    q    intensity    error
0.00000000 1646666.22097350 296.39991978
0.00100000 1646579.99734727 543.37141203
0.00200000 1646321.28184932 740.84460029
0.00300000 1645890.31442299 1975.06844767
0.00400000 1645286.93868507 1480.75830108
0.00500000 1644511.83670938 2516.10320976
0.00600000 1643564.83000875 1898.31745594
0.00700000 1642446.69640799 2759.31056464
0.00800000 1641157.17204001 2437.11850337
0.00900000 1639697.71872874 2705.50135156
0.01000000 1638067.75752551 2973.09310829
0.01100000 1636268.73665089 3534.34062505
0.01200000 1634300.61926966 5099.01815568
0.01300000 1632164.82925068 3770.30092186
0.01400000 1629861.48948269 5867.50162225
0.01500000 1627392.07045329 4686.88937161
0.01600000 1624756.41857455 5800.38067361
0.01700000 1621956.56158284 5693.06778654
0.01800000 1618993.05392978 5998.36953472
0.01900000 1615867.01221427 6301.88163199
0.02000000 1612578.93659152 5079.62388004
0.02100000 1609131.86140416 6903.17599840
0.02200000 1605524.06128162 6092.96408938
0.02300000 1601759.17260270 6919.59994061
0.02400000 1597837.36079594 7190.26845144
0.02500000 1593761.05064215 6837.23521952
0.02600000 1589530.85154143 6437.60024319
0.02700000 1585148.59112670 8654.91170396
0.02800000 1580614.72579340 8938.37668427
0.02900000 1575932.69053866 9219.20666294
0.03000000 1571103.01753188 10958.44405099
0.03100000 1566127.40496422 9020.89426767
0.03200000 1561007.08558260 11590.47814429
0.03300000 1555746.07863410 10314.59697685
0.03400000 1550342.92198762 8139.30071599
0.03500000 1544801.98372030 18352.24841407
0.03600000 1539123.42601795 8542.13540916
0.03700000 1533310.72117333 11361.83296935
0.03800000 1527365.14530289 12509.12111895
0.03900000 1521289.23002829 10953.28296345
0.04000000 1515083.27090335 10249.53880261
0.04100000 1508751.33092364 17109.24088597
0.04200000 1502294.71667494 11627.76164651
0.04300000 1495715.30109658 12833.23787910
0.04400000 1489016.22216852 13066.11795634
0.04500000 1482199.46184467 12272.61211432
0.04600000 1475265.71032189 11440.68611539
0.04700000 1468219.38824366 12685.41610440
0.04800000 1461061.48671463 12886.56291241
0.04900000 1453795.04341294 10903.46333313
0.05000000 1446421.85983429 16597.69161449
0.05100000 1438945.87788757 16835.66755556
0.05200000 1431365.94139960 12517.29574086
0.05300000 1423687.78413778 13838.24590693
0.05400000 1415912.49267131 11681.27860928
0.05500000 1408043.52543328 11827.56616539
0.05600000 1400081.72284964 19153.11886235
0.05700000 1392032.14654595 18166.02036039
0.05800000 1383893.92236766 13472.20796330
0.05900000 1375671.39889209 19809.66906927
0.06000000 1367368.02366947 12511.41800109
0.06100000 1358985.11055965 13902.41833070
0.06200000 1350525.53531254 21696.19373895
0.06300000 1341992.82524896 14171.44489722
0.06400000 1333385.67741698 14300.56205909
0.06500000 1324711.78334825 15737.57672235
0.06600000 1315971.07776502 14548.06094537
0.06700000 1307165.68075508 13333.09056768
0.06800000 1298299.25078918 16124.87744959
0.06900000 1289375.65713119 18953.82304723
0.07000000 1280394.33455200 14999.82033170
0.07100000 1271360.06262417 24715.24077502
0.07200000 1262273.87147953 15204.08949423
0.07300000 1253140.06601720 16691.82646145
0.07400000 1243961.37845083 15394.02277976
0.07500000 1234738.08840357 16891.21784109
0.07600000 1225473.94183985 15569.64716099
0.07700000 1216172.52654570 18497.98499610
0.07800000 1206834.86132363 17161.19253282
0.07900000 1197463.14572565 24428.24931858
0.08000000 1188062.56143627 20208.94511805
0.08100000 1178633.49901297 21745.78907706
0.08200000 1169178.05308157 17467.52093271
0.08300000 1159698.79567923 17534.64661361
0.08400000 1150199.50132237 17598.05319626
0.08500000 1140681.82611132 19129.23512191
0.08600000 1131148.04712891 17713.77924973
0.08700000 1121600.56713757 20727.17945400
0.08800000 1112041.16852884 16330.32532678
0.08900000 1102473.35543965 23813.42559601
0.09000000 1092898.95355116 20885.29998346
0.09100000 1083319.96944965 20929.74279307
0.09200000 1073738.18659742 19472.24292888
0.09300000 1064158.13081327 19506.01945444
0.09400000 1054578.21677680 15027.74029534
0.09500000 1045002.92941815 19562.45575820
0.09600000 1035433.78789686 18078.67478652
0.09700000 1025875.53335043 22620.55657383
0.09800000 1016327.06909830 16601.70345429
0.09900000 1006792.19903549 16612.07206523
0.10000000 997270.86168522 19641.25054456
0.10100000 987766.28451208 15112.82486382
0.10200000 978280.58727550 16625.87936277
0.10300000 968815.48539129 16624.87451136
0.10400000 959373.13208007 16621.14029523
0.10500000 949956.98760443 16614.74849491
0.10600001 940563.56888192 22644.06898632
0.10700001 931200.58342097 19611.08520970
0.10800001 921865.61398876 18087.00419766
0.10900001 912563.44116558 18068.75698550
0.11000001 903294.03928982 15039.84646209
0.11100001 894058.74087942 16522.20630921
0.11200001 884860.61146677 14998.38807044
0.11300001 875699.17919261 19466.79366996
0.11400001 866577.65513011 16443.31178032
0.11500001 857497.41861855 17904.54694384
0.11600001 848459.32602607 16379.50806027
0.11700001 839465.17963387 17830.24125514
0.11800001 830515.34771664 16307.16962046
0.11900001 821611.15942204 16267.90172280
0.12000001 812754.48890364 17701.79360216
0.12100001 803947.88607370 20597.14581150
0.12200001 795190.73979596 14671.26984042
0.12300001 786485.39532994 20480.08065930
0.12400001 777831.79603624 16042.78154914
0.12500001 769230.84623563 14538.46367891
0.12600001 760685.88003416 15940.17336727
0.12700001 752195.62488587 15886.37234626
0.12800001 743761.54519910 15830.96523566
0.12900001 735385.06566972 15774.01040208
0.13000001 727066.88008716 21430.29730068
0.13100001 718807.00851392 15655.61738340
0.13200001 710606.82046116 14176.60673649
0.13300001 702468.35327157 14119.61456640
0.13400001 694390.04212289 18279.81872070
0.13500001 686374.79380759 15402.25109923
0.13600001 678421.31223941 16729.87034865
0.13700001 670531.69260143 13880.00669134
0.13800001 662705.00050030 13817.39991200
0.13900001 654943.78294512 16504.58410854
0.14000001 647246.72532631 15058.19577487
0.14100001 639615.43973489 19073.33331245
0.14200001 632049.29863575 23047.67876180
0.14300001 624550.85118821 21584.47843515
0.14400001 617116.08485670 18791.18567026
0.14500001 609750.17273602 18694.94117797
0.14600001 602451.05749606 17269.26037779
0.14700001 595220.89529839 17178.07584871
0.14800001 588055.50888600 15771.64949241
0.14900001 580959.47941143 20914.54224558
0.15000001 573930.89089047 15599.44235043
0.15100001 566970.81237334 14219.62864528
0.15200001 560079.11129272 12853.81621070
0.15300001 553256.72754732 16614.30031226
0.15400001 546500.33291157 13976.74667379
0.15500001 539814.17928346 13894.81763049
0.15600001 533193.69896309 15068.05464383
0.15700001 526645.08326731 16225.93578128
0.15800001 520161.03423918 18608.76187822
0.15900001 513747.66444395 13562.93898150
0.16000001 507399.64570306 17155.18283099
0.16100001 501122.65542883 13395.00921191
0.16200001 494911.92193494 16940.83588754
0.16300001 488768.48549712 12023.70531084
0.16400001 482692.51185253 14335.96827882
0.16500001 476683.35752295 17804.12424404
0.16600001 470741.58258054 11792.07720038
0.16700001 464864.86081303 12886.05455015
0.16800001 459053.80584298 12800.71598034
0.16900001 453310.71760384 12715.36622918
0.17000001 447631.65273106 18370.80389555
0.17100001 442017.67771038 15965.67927282
0.17200001 436469.02771465 16989.55770609
0.17300001 430984.52961451 17997.91480664
0.17400001 425563.91130956 16756.57979916
0.17500001 420206.86055154 15530.84629947
0.17600001 414911.31217417 12117.48544434
0.17700001 409680.31422439 14220.00437835
0.17800001 404509.75079149 17377.73971479
0.17900001 399401.48728022 12940.60879911
0.18000001 394354.54605810 11777.39907433
0.18100001 389369.26030647 11692.75943933
0.18200001 384441.64620429 15829.38553021
0.18300001 379574.60517167 13619.13747692
0.18400001 374766.14212260 12479.71312223
0.18500001 370017.71778958 13420.54325824
0.18600001 365325.36606417 13321.59010289
0.18700001 360690.13818088 11188.60861497
0.18800001 356111.76180178 12114.92270888
0.18900001 351591.19952997 13026.45455805
0.19000001 347122.43880712 14917.58751257
0.19100001 342712.84827921 13818.18269553
0.19200001 338354.23717635 13713.49788074
0.19300001 334052.16120450 11665.10202047
0.19400001 329800.84613549 9646.67520531
0.19500001 325603.20162911 13401.82841236
0.19600001 321456.96559549 11398.86453868
0.19700001 317361.73170746 10368.20826486
0.19800001 313317.52919006 12158.28729481
0.19900001 309323.73543761 11135.65500202
0.20000001 305377.83042225 10127.85622461
0.20100001 301482.15084651 12788.87344334
0.20200001 297633.17256328 9969.22358619
0.20300001 293833.30187509 11688.68930105
0.20400001 290079.48633757 9811.93908914
0.20500001 286371.69746432 8848.88586991
0.20600001 282709.61964893 12289.38774703
0.20700001 279093.04674318 10449.24416399
0.20800001 275519.68516308 8637.54253816
0.20900001 271992.33197185 8567.75886212
0.21000001 268506.28170070 9348.04663931
0.21100001 265063.54465224 10114.82534209
0.21200001 261662.25645461 9196.12043784
0.21300001 258301.69948485 10778.93042908
0.21400001 254983.04445179 9045.52392957
0.21500001 251705.25133876 9786.30063472
0.21600001 248466.03673711 8087.56987816
0.21700001 245266.00796649 11228.27837557
0.21800001 242104.65953395 9543.76613006
0.21900001 238980.27520584 12618.15912747
0.22000001 235893.27239229 10165.82105441
0.22100001 232844.35614748 11630.57613950
0.22200001 229831.85217647 8456.66340070
0.22300001 226853.52977941 8384.50685711
0.22400001 223910.21342979 11335.45509090
0.22500001 221003.69116646 9739.63313027
0.22600001 218129.21029629 8912.75995417
0.22700001 215290.32484335 9571.80829518
0.22800001 212483.60370884 10948.21819884
0.22900001 209708.57764550 7234.94627092
0.23000001 206966.80556231 8605.68018226
0.23100001 204257.57857885 10662.24610606
0.23200001 201577.80024620 9158.68778733
0.23300001 198929.37645187 8378.90573243
0.23400001 196311.98263649 7611.99748674
0.23500001 193722.80772746 10286.68157685
0.23600001 191164.35888060 8155.07193556
0.23700001 188634.58007847 7407.68031005
0.23800001 186133.48932323 6672.88590786
0.23900001 183660.11590834 6611.76448543
0.24000001 181214.59457687 8516.18027496
0.24100001 178797.27538062 7139.37554365
0.24200001 176406.49166044 7716.02031021
0.24300001 174042.60206972 7006.95549078
0.24400001 171704.39283697 6310.13673525
0.24500001 169392.32495260 8125.75021236
0.24600001 167105.91805192 6810.40201237
0.24700001 164844.87150176 8585.12131394
0.24800001 162608.62336524 6680.77560701
0.24900001 160396.04124682 9623.76293009
0.25000001 158208.79791103 7147.87382777
0.25100001 156044.25200767 7668.01490642
0.25200001 153905.01424810 7008.83468044
0.25300001 151788.91329071 7518.10523097
0.25400001 149695.21541560 5725.84226054
0.25500001 147624.10700732 6802.51917274
0.25600001 145576.13743944 7295.54847295
0.25700001 143549.49014014 6666.43863752
0.25800001 141545.75538778 6048.95814270
0.25900001 139563.59198949 7075.87444866
0.26000001 137602.93056058 8080.73247951
0.26100001 135662.74280079 7997.31906651
0.26200001 133744.74897933 5276.23059689
0.26300001 131846.70103821 5743.24256898
0.26400001 129969.43328435 5682.91373926
0.26500001 128113.00090246 6645.22167126
0.26600001 126275.81992504 5057.34682731
0.26700001 124459.81398972 5503.61323506
0.26800001 122663.75276529 6929.27572161
0.26900001 120885.94784278 4895.88111931
0.27000001 119128.79881260 8716.65462161
0.27100001 117390.11263171 6226.37186864
0.27200001 115672.08722661 5210.44941570
0.27300001 113972.06280661 5621.10240364
0.27400001 112289.07140686 6947.88662211
0.27500001 110627.54748859 5495.97681933
0.27600001 108982.09782668 5433.84765480
0.27700001 107356.64559310 6267.48126634
0.27800001 105748.36010722 4868.12598793
0.27900001 104159.55282993 5249.64171108
0.28000001 102586.91907350 4324.03884360
0.28100001 101033.00734683 4273.69641304
0.28200001 99497.29134116  5490.75828254
0.28300001 97978.75808342  4591.28482110
0.28400001 96477.23901211  5774.16302817
0.28500001 94993.60662892  5297.79369245
0.28600001 93526.94591053  7247.40338164
0.28700001 92077.43386832  5171.06893080
0.28800001 90644.22588829  5894.14106737
0.28900001 89229.61622665  5822.23273438
0.29000001 87830.50641810  4600.56214394
0.29100001 86448.72192905  4543.74503967
0.29200001 85083.49117184  5983.07138241
0.29300001 83734.77186829  4431.24433703
0.29400001 82401.86060885  4375.53900545
0.29500001 81086.41819911  3600.23713846
0.29600001 79786.56747186  4265.39009896
0.29700001 78502.81310311  4210.89109419
0.29800001 77235.17386981  3810.39748325
0.29900001 75984.00086026  3761.20822064
0.30000001 74748.06889709  4049.85056456
0.30100001 73529.10756072  4330.12934924
0.30200001 72323.99290869  5259.40101330
0.30300001 71136.05144739  3892.56491948
0.30400001 69963.78363298  4161.09622856
0.30500001 68806.59818986  4737.33450965
0.30600001 67663.76446811  4050.69145165
0.30700001 66537.76747717  3996.25850387
0.30800001 65426.35125532  3639.01382911
0.30900001 64330.22098975  2991.35541765
0.31000001 63249.53510756  3245.65004771
0.31100001 62182.81898046  4365.23409910
0.31200001 61132.04718347  3157.16472627
0.31300001 60095.23567826  3396.58288135
0.31400001 59074.42088517  3628.64647468
0.31500001 58067.42483743  4128.59410142
0.31600002 57075.35591580  2985.32663252
0.31700002 56097.69262490  3211.03207789
0.31800002 55134.46154312  2902.00252073
0.31900002 54185.76773589  3381.19206682
0.32000002 53251.52978675  2564.06128064
0.32100002 52330.84689472  3791.37003704
0.32200002 51425.42786777  2989.87451780
0.32300002 50532.50442822  2947.05579780
0.32400002 49654.07488050  2662.69989155
0.32500002 48789.37565639  3340.12081560
0.32600002 47938.93519666  3762.24781238
0.32700002 47101.35982274  2780.86441562
0.32800002 46278.32935775  2512.21922815
0.32900002 45467.99291139  2475.73233126
0.33000002 44672.04094962  2439.76363200
0.33100002 43886.72916410  2841.22698063
0.33200002 43117.96138435  2799.86495508
0.33300002 42360.68058924  3395.63231683
0.33400002 41616.83591645  3136.86915575
0.33500002 40884.90267292  3090.89878845
0.33600002 40166.83656817  2842.60715855
0.33700002 39460.48056130  2600.84039696
0.33800002 38767.53329755  1971.32916154
0.33900002 38086.28720527  2136.64081340
0.34000002 37417.89816546  3062.28093089
0.34100002 36761.60190217  2074.45729358
0.34200002 36117.99000713  1858.27067387
0.34300002 35485.44391931  2197.25879154
0.34400002 34865.96720777  2886.90222153
0.34500002 34257.59363713  2311.35995216
0.34600002 33662.01092134  2452.95085201
0.34700002 33076.16944518  2071.89135217
0.34800002 32503.57866499  2892.65612029
0.34900002 31941.53443585  2012.31676477
0.35000002 31390.83690500  2148.54593372
0.35100002 30852.09906763  2117.68818030
0.35200002 30322.81367181  1926.71167196
0.35300002 29805.12344003  1899.18255555
0.35400002 29298.61558968  1872.18162485
0.35500002 28802.65711449  1845.67435532
0.35600002 28316.42729228  2274.51712998
0.35700002 27841.28826124  1794.09270053
0.35800002 27376.92429189  1769.09693154
0.35900002 26922.44518353  1599.19331965
0.36000002 26478.29690351  1577.17982976
0.36100002 26043.41978609  1555.57353750
0.36200002 25619.51208190  1394.98249894
0.36300002 25204.37268665  1789.00645804
0.36400002 24798.76310813  1629.27881338
0.36500002 24402.64066344  1741.61654665
0.36600002 24016.14776285  1454.29789667
0.36700002 23638.30424634  2348.70202117
0.36800002 23271.11405234  1545.66746857
0.36900002 22911.81425977  1780.24805231
0.37000002 22561.07947342  1255.52413217
0.37100002 22218.96908017  1735.74594676
0.37200002 21886.40820784  1959.27135558
0.37300002 21561.61249283  1330.56716996
0.37400002 21245.22722464  1434.05290560
0.37500002 20937.54376728  1417.05302930
0.37600002 20638.08016190  1517.20853497
0.37700002 20346.01915724  1384.34320904
0.37800002 20061.68958204  1254.55781744
0.37900002 19785.81935317  1240.57093221
0.38000002 19517.48063984  1226.96647855
0.38100002 19255.72456267  1434.35899062
0.38200002 19002.33800395  1091.68437004
0.38300002 18755.62618173  1188.35653117
0.38400002 18516.63100817  1176.26904052
0.38500002 18283.68786915  1270.35069333
0.38600002 18058.62648595  1257.96398061
0.38700002 17839.87087566  1142.10858757
0.38800002 17627.82934811  1028.58389119
0.38900002 17421.74081655  1630.67501768
0.39000002 17223.27384927  1414.20308276
0.39100002 17030.02047490  1301.77482677
0.39200002 16843.56160051  1092.22080373
0.39300002 16662.82469230  1280.20488176
0.39400002 16489.33225243  1270.09087692
0.39500002 16320.36090804  1357.20127741
0.39600002 16157.36129980  1539.47345758
0.39700002 15999.87956134  1241.75071159
0.39800002 15848.17983993  1138.21633003
0.39900002 15701.69033601  1413.15219719
0.40000002 15560.28284567  1310.33148052
0.40100002 15424.43400294  1023.10275589
0.40200002 15293.74815337  1109.40854361
0.40300002 15167.44951121  1470.63597429
0.40400002 15046.49939658  1188.29734615
0.40500002 14930.34189676  1182.03522397
0.40600002 14818.85772290  1176.09869890
0.40700002 14711.71757245  1350.53573714
0.40800002 14609.31584161  1075.53788322
0.40900002 14510.94151229  981.66523982
0.41000002 14417.20270532  1066.58470668
0.41100002 14327.49211601  1062.52686567
0.41200002 14241.41271765  1058.70667159
0.41300002 14160.13113098  967.27860339
0.41400002 14082.14281332  876.61343167
0.41500002 14008.15591255  1311.16345554
0.41600002 13937.37104261  1133.31738003
0.41700002 13870.53804260  1478.46072002
0.41800002 13808.23271071  954.63221369
0.41900002 13747.34044545  1039.29898692
0.42000002 13690.93832416  1037.49935537
0.42100002 13638.15004644  1035.95392662
0.42200002 13588.47557503  1034.62657931
0.42300002 13541.31599291  1205.71883314
0.42400002 13497.04375138  1290.65486988
0.42500002 13456.29618559  1375.77178721
0.42600002 13417.31363972  1031.25477522
0.42700002 13382.54551708  1030.99135549
0.42800002 13349.24621941  1116.73124540
0.42900002 13319.92655301  1288.70295507
0.43000002 13292.53059665  945.29835818
0.43100002 13266.60532589  1289.51409878
0.43200002 13244.19439364  946.23151329
0.43300002 13223.94555075  1033.05467538
0.43400002 13205.85332436  1120.18656132
0.43500002 13189.80631155  1207.65872311
0.43600002 13176.22561466  863.70162997
0.43700002 13164.13019767  864.88339497
0.43800002 13154.08374878  1039.43574709
0.43900002 13146.49007633  954.43522477
0.44000002 13140.35921467  956.15828357
0.44100002 13136.33801899  1219.31495271
0.44200002 13133.75019345  1134.55906423
0.44300002 13133.11765439  1399.46508357
0.44400002 13134.28748838  1227.39922396
0.44500002 13135.81621272  1230.30060479
0.44600002 13139.37672865  1233.39335197
0.44700002 13145.31005488  1148.37434082
0.44800002 13151.08779061  974.29838514
0.44900002 13159.85129960  1154.77700627
0.45000002 13169.25883140  1247.26056303
0.45100002 13179.62966774  982.93682720
0.45200002 13191.34362312  1075.62221001
0.45300002 13203.98625904  1079.02980823
0.45400002 13218.08156471  1082.56093146
0.45500002 13233.15028561  1357.72128365
0.45600002 13249.02313192  1180.68675236
0.45700002 13265.92295840  1002.50584548
0.45800002 13283.32816684  1188.92434392
0.45900002 13301.90066204  917.83118918
0.46000002 13321.80667110  1197.56386746
0.46100002 13341.51465311  1294.39381299
0.46200002 13362.71488772  928.04059294
0.46300002 13384.63898117  1117.88510069
0.46400002 13406.44807627  1309.13971669
0.46500002 13429.46162695  1032.59135344
0.46600002 13452.76527758  1225.07612807
0.46700002 13476.47365722  1324.46789381
0.46800002 13501.53124541  1329.76587539
0.46900002 13525.98260908  1430.37272870
0.47000002 13551.22251944  1148.87269965
0.47100002 13577.04321138  1153.50564591
0.47200002 13603.24283761  965.15012507
0.47300002 13629.90239821  969.08610644
0.47400002 13656.19228612  1264.90487045
0.47500002 13683.11963658  1465.46218254
0.47600002 13710.82951491  1667.71682709
0.47700002 13737.85823917  1674.50762014
