# SAXS profile: number of points = 501, q_min = 0, q_max = 0.5, delta_q = 0.001
#    q    intensity    error
0.00000000 1682732.95097188 277.65093691
0.00100000 1682645.69786168 605.75246562
0.00200000 1682383.90033447 908.48733495
0.00300000 1681947.78165437 1412.83618692
0.00400000 1681337.20915851 1387.10325026
0.00500000 1680552.86644509 2419.99622347
0.00600000 1679594.55553264 1939.93179062
0.00700000 1678463.05875713 2819.81805590
0.00800000 1677158.14241757 2716.99630543
0.00900000 1675681.22227124 3518.93071720
0.01000000 1674031.75223563 3590.79826359
0.01100000 1672211.23317477 3310.97838584
0.01200000 1670219.55308471 5211.08523410
0.01300000 1668058.17550543 3853.21455536
0.01400000 1665727.22142408 4872.25233866
0.01500000 1663228.12803484 5189.27199054
0.01600000 1660560.80000856 5081.31627518
0.01700000 1657727.29146222 8056.55499791
0.01800000 1654728.13251963 5659.17046787
0.01900000 1651564.37957327 5450.16269852
0.02000000 1648236.63543237 8307.11301836
0.02100000 1644747.87746779 9769.80283511
0.02200000 1641096.51721996 7360.31821413
0.02300000 1637286.00174640 7662.49883696
0.02400000 1633316.62909215 7962.41892989
0.02500000 1629190.79743245 8259.99772022
0.02600000 1624909.19098969 7238.97077696
0.02700000 1620473.43762181 7486.58762471
0.02800000 1615884.35235669 9840.73615714
0.02900000 1611145.05683167 7250.15308863
0.03000000 1606256.22468773 11950.54686099
0.03100000 1601219.56176467 9223.02510014
0.03200000 1596036.25459649 9480.45578896
0.03300000 1590710.42694582 11357.67297199
0.03400000 1585240.69750458 8322.51404590
0.03500000 1579631.14532283 9383.00943651
0.03600000 1573882.26314362 9608.55166054
0.03700000 1567997.35290777 10725.10238990
0.03800000 1561977.78298251 13706.35568000
0.03900000 1555826.07844229 10268.45259325
0.04000000 1549542.56670068 12388.59339485
0.04100000 1543131.09669288 10693.89899592
0.04200000 1536593.44538439 12884.33663729
0.04300000 1529931.29497370 10097.54701553
0.04400000 1523147.38973982 10281.24535822
0.04500000 1516244.28418452 12554.50325639
0.04600000 1509222.55632187 12768.02342003
0.04700000 1502086.45104966 12978.02754065
0.04800000 1494837.05667211 10987.05287775
0.04900000 1487477.65079953 12271.69119031
0.05000000 1480009.59682025 16983.11091435
0.05100000 1472437.26426882 13782.01343558
0.05200000 1464759.45729514 11644.83822816
0.05300000 1456981.82641611 15342.01934737
0.05400000 1449105.28110925 17932.67869000
0.05500000 1441133.76011600 16947.73380956
0.05600000 1433067.48776605 17153.81862903
0.05700000 1424912.26648988 17355.43221597
0.05800000 1416666.80711716 13791.25201123
0.05900000 1408335.37381978 13942.52085201
0.06000000 1399921.66367456 24337.63926001
0.06100000 1391427.24302953 16822.35615436
0.06200000 1382854.43430217 14374.77251650
0.06300000 1374207.09385046 21107.82194845
0.06400000 1365484.22861886 15976.16622199
0.06500000 1356692.75378394 17460.63655797
0.06600000 1347833.40321002 13545.72633605
0.06700000 1338908.02135526 17753.92119404
0.06800000 1329920.21952184 19270.54488291
0.06900000 1320874.06038208 22190.68525336
0.07000000 1311768.68885825 22352.53950488
0.07100000 1302608.96960182 14068.17753062
0.07200000 1293396.56158665 18411.50091671
0.07300000 1284134.94076019 21380.84776547
0.07400000 1274827.35857241 15775.98930166
0.07500000 1265473.98447273 15869.04450911
0.07600000 1256078.71957308 17409.25186944
0.07700000 1246644.75963461 18961.46768312
0.07800000 1237173.78303448 14660.51001648
0.07900000 1227667.43550299 16205.21090872
0.08000000 1218130.90713507 14800.29121599
0.08100000 1208565.39103291 17838.42600859
0.08200000 1198971.94393103 17912.64168288
0.08300000 1189354.06804922 25475.96533325
0.08400000 1179714.98890554 21057.91354039
0.08500000 1170056.50763358 19621.84855417
0.08600000 1160380.93100572 16657.26904667
0.08700000 1150691.09020641 15189.12310397
0.08800000 1140987.93159188 16755.40856232
0.08900000 1131275.59792844 18326.66554724
0.09000000 1121556.05508244 18371.08904524
0.09100000 1111830.98264628 19946.24876577
0.09200000 1102102.23230128 15374.32686299
0.09300000 1092374.44393018 18482.97645985
0.09400000 1082645.93995348 16970.47590634
0.09500000 1072921.31170465 18540.08113769
0.09600000 1063202.28355713 17016.55334824
0.09700000 1053493.35272591 15486.35301313
0.09800000 1043793.28110622 17050.36404854
0.09900000 1034106.46624634 17062.75749540
0.10000000 1024432.36590604 21728.21150268
0.10100000 1014774.30995347 18631.25720701
0.10200000 1005134.96287225 21741.07026955
0.10300000 995515.27731823 18636.04686805
0.10400000 985917.50999777 21739.48211819
0.10500000 976345.88852056 17076.29039365
0.10600001 966796.43924566 18620.50029603
0.10700001 957276.99577521 15507.88806132
0.10800001 947784.88299240 18595.54027945
0.10900001 938324.99527341 17030.59946577
0.11000001 928897.74859268 18559.37789046
0.11100001 919504.09698724 15447.66955656
0.11200001 910147.23308131 16969.69595969
0.11300001 900826.50515252 18484.96075602
0.11400001 891545.74416505 23068.74721645
0.11500001 882305.55986190 21492.96445030
0.11600001 873107.52774444 18387.64540020
0.11700001 863953.16545914 19879.56327344
0.11800001 854842.47525172 22888.40835287
0.11900001 845777.61340233 16746.39753415
0.12000001 836759.85338012 24299.50728678
0.12100001 827791.98162174 22722.89096595
0.12200001 818873.37889665 16619.03600765
0.12300001 810006.54733758 18079.34698837
0.12400001 801191.00394643 15022.33203181
0.12500001 792428.37608319 14976.89701369
0.12600001 783721.54916077 20901.85470109
0.12700001 775069.28655360 19345.73030407
0.12800001 766473.09030533 16314.38049603
0.12900001 757934.81009211 29559.45898679
0.13000001 749454.36982690 23562.84649799
0.13100001 741032.39211523 19074.17467216
0.13200001 732670.12082738 14616.76959955
0.13300001 724369.64035090 17471.79654894
0.13400001 716129.20991271 14501.61718442
0.13500001 707952.32339140 14442.22807811
0.13600001 699836.95922410 20134.31026623
0.13700001 691785.92749232 20047.95712405
0.13800001 683797.22461555 17108.60736665
0.13900001 675874.93460996 17032.04915537
0.14000001 668016.79851226 24018.54512324
0.14100001 660224.36564849 15469.05761671
0.14200001 652497.48736365 13996.07176408
0.14300001 644838.58307233 16714.21686160
0.14400001 637243.15317814 18018.05100602
0.14500001 629717.57814278 13790.81561187
0.14600001 622258.48600031 13720.80026358
0.14700001 614868.91284905 17745.11766198
0.14800001 607544.31901230 16294.33940466
0.14900001 600289.50827566 18909.12040283
0.15000001 593102.27404608 17463.89728328
0.15100001 585983.80533014 17368.56080952
0.15200001 578934.69235271 13286.55181645
0.15300001 571954.99668952 19818.24157050
0.15400001 565041.64857247 18392.10652898
0.15500001 558198.72310871 14368.03581089
0.15600001 551422.09501470 15583.18914056
0.15700001 544718.00102276 23237.67102038
0.15800001 538078.69444952 15399.81296200
0.15900001 531510.36409844 19134.37401070
0.16000001 525008.16314500 16482.63205996
0.16100001 518577.34919250 12601.43018022
0.16200001 512213.49007851 13775.98246597
0.16300001 505917.05755848 12445.56020347
0.16400001 499689.10948379 17314.22846101
0.16500001 493528.11315088 14746.62071716
0.16600001 487435.58132362 12210.26188864
0.16700001 481408.16372007 12131.48629853
0.16800001 475447.16967207 12052.58632027
0.16900001 469554.86553343 15565.74452742
0.17000001 463727.13557921 11894.60158927
0.17100001 457965.17612661 14178.60252241
0.17200001 452269.03877849 12910.02032158
0.17300001 446637.81187688 16320.14641669
0.17400001 441071.24113707 11578.12062664
0.17500001 435568.61857114 16098.61690269
0.17600001 430128.26688378 14845.87783265
0.17700001 424753.33457696 14743.18893950
0.17800001 419439.33282484 11261.94661827
0.17900001 414188.33409965 14538.01121358
0.18000001 408999.36135412 12214.76650381
0.18100001 403872.96876381 14333.45233849
0.18200001 398804.81281300 17515.50820614
0.18300001 393798.22142998 14129.48085237
0.18400001 388850.64403915 12948.72705821
0.18500001 383963.80354633 14997.62687504
0.18600001 379134.22715516 11698.18713154
0.18700001 374362.31200317 15835.52654588
0.18800001 369648.00907088 13623.37801796
0.18900001 364992.27170106 12482.73628195
0.19000001 360389.07160351 12390.17686715
0.19100001 355846.01320724 13322.87536399
0.19200001 351354.77791712 12206.06556159
0.19300001 346920.78139161 17162.17186640
0.19400001 342538.24925404 11021.16869054
0.19500001 338210.29299605 11932.05970075
0.19600001 333934.62522418 9867.76864169
0.19700001 329710.93186390 12730.13968086
0.19800001 325539.05802783 12632.54374377
0.19900001 321418.34954170 9642.55094196
0.20000001 317346.23511568 10524.78838502
0.20100001 313325.49694938 9493.76300626
0.20200001 309352.14520514 11303.72792005
0.20300001 305428.84828167 10280.73551908
0.20400001 301552.25743944 9272.73235455
0.20500001 297722.75940329 10119.59707044
0.20600001 293940.01709143 13690.25694314
0.20700001 290203.51431826 9959.78508219
0.20800001 286510.85107469 11676.75028751
0.20900001 282865.16020167 9801.27826431
0.21000001 279261.82545420 8838.63719345
0.21100001 275702.64277443 10520.81334563
0.21200001 272185.76471962 14783.77050964
0.21300001 268710.54524100 10350.73069202
0.21400001 265278.08024415 10266.26219080
0.21500001 261887.40348904 11030.69795646
0.21600001 258536.18039563 10098.42368369
0.21700001 255224.98436515 12518.78607499
0.21800001 251953.61076735 8276.67650503
0.21900001 248719.95110993 13132.41403953
0.22000001 245524.24856605 8953.04214728
0.22100001 242367.99841847 8877.94020185
0.22200001 239248.81173893 10403.73507040
0.22300001 236164.83229063 11109.19423625
0.22400001 233116.28581741 7867.67501837
0.22500001 230106.15236394 9360.71872081
0.22600001 227128.75792881 8507.10803051
0.22700001 224187.92500614 7667.22739779
0.22800001 221279.56601553 9881.23948771
0.22900001 218404.27635319 11302.42183578
0.23000001 215563.04939617 10456.96402074
0.23100001 212755.21166898 8884.65805948
0.23200001 209977.68515800 8806.46453202
0.23300001 207232.69632795 8728.64158215
0.23400001 204519.46275743 11534.89824507
0.23500001 201835.07063113 10717.44275741
0.23600001 199182.62191602 7789.03679842
0.23700001 196559.47162052 7718.89081562
0.23800001 193966.05593993 8344.42012122
0.23900001 191401.10311985 6890.44003823
0.24000001 188864.90289057 10241.19984365
0.24100001 186357.98696111 8117.75429601
0.24200001 183878.11954213 7372.59355178
0.24300001 181426.19027741 7968.23865390
0.24400001 179001.01002014 6578.28742942
0.24500001 176602.42410822 9774.94463679
0.24600001 174230.71820590 9037.34778085
0.24700001 171885.03336386 9591.18531542
0.24800001 169564.94376084 8866.55132870
0.24900001 167269.44133689 8154.38565094
0.25000001 165000.16649291 8075.93353105
0.25100001 162754.32180374 6767.32502075
0.25200001 160534.56384658 7310.74438344
0.25300001 158338.83117563 6635.98072852
0.25400001 156166.40921219 7168.03852197
0.25500001 154017.27937008 7688.54294991
0.25600001 151892.20792617 5855.44489259
0.25700001 149789.15945256 6376.52481959
0.25800001 147709.94831171 8033.94446879
0.25900001 145653.15407514 7384.61526101
0.26000001 143618.33104402 7309.45530434
0.26100001 141605.24279745 6678.10356631
0.26200001 139614.64066379 6609.35740176
0.26300001 137644.99249414 7085.96454889
0.26400001 135696.91112397 5933.34771965
0.26500001 133770.51911725 8006.16594801
0.26600001 131863.92909034 5809.26567097
0.26700001 129979.31365302 5225.16865611
0.26800001 128115.56036833 5686.40941603
0.26900001 126270.75652687 5113.96588134
0.27000001 124447.12734586 7082.28635240
0.27100001 122642.92171673 6004.59773141
0.27200001 120860.12871733 8908.60050934
0.27300001 119095.89112168 7342.26203512
0.27400001 117349.42951574 6776.92987525
0.27500001 115625.20384946 5265.57203250
0.27600001 113917.90837762 4733.28931710
0.27700001 112231.03456040 6552.04810772
0.27800001 110562.17432678 5552.43265747
0.27900001 108913.46279040 5031.80221906
0.28000001 107281.58574154 5878.49476893
0.28100001 105669.16858315 4916.78664688
0.28200001 104075.55273736 5301.60890736
0.28300001 102499.85347876 8732.98792972
0.28400001 100941.80942940 6041.36758029
0.28500001 99402.27908416  4690.79377200
0.28600001 97880.25032045  5477.86846846
0.28700001 96376.27377211  5828.83731363
0.28800001 94889.01322833  4524.78280996
0.28900001 93421.16175775  6095.73109323
0.29000001 91969.17192894  4415.89999919
0.29100001 90535.37356106  3965.44954968
0.29200001 89118.57049362  4308.43749446
0.29300001 87718.92938956  4255.24546611
0.29400001 86335.76006241  4584.42907632
0.29500001 84970.63929434  4904.50553223
0.29600001 83621.67914212  3725.34598213
0.29700001 82289.24425804  4781.82821020
0.29800001 80973.58689606  3631.66554421
0.29900001 79675.04267867  3943.91479930
0.30000001 78392.31829959  3539.41333878
0.30100001 77127.03472494  3843.24032228
0.30200001 75876.31782464  4138.29457007
0.30300001 74643.19003259  5105.59443993
0.30400001 73426.08595371  4367.01666884
0.30500001 72224.64578294  3978.13367806
0.30600001 71038.39398134  4252.71365703
0.30700001 69869.18458879  4196.34342507
0.30800001 68715.24434404  4140.43724397
0.30900001 67577.04357023  3456.56594227
0.31000001 66454.83191395  3410.12986112
0.31100001 65347.02843859  4281.53750601
0.31200001 64255.49511851  3318.47520251
0.31300001 63178.62458087  3868.42736624
0.31400001 62118.20797837  3228.59401254
0.31500001 61072.01788859  4052.73929897
0.31600002 60041.23202668  3996.94500526
0.31700002 59025.29407932  2815.50666089
0.31800002 58024.29591550  2776.46269102
0.31900002 57038.10223811  4380.52645930
0.32000002 56067.11161391  3779.48417285
0.32100002 55109.94614838  3992.71578750
0.32200002 54168.46259764  4199.13941940
0.32300002 53239.88456117  2846.20436341
0.32400002 52326.04855246  2805.98448649
0.32500002 51426.58668649  3269.18827046
0.32600002 50541.80181840  2479.07549658
0.32700002 49670.24651560  3176.90911757
0.32800002 48813.50725107  3613.42004537
0.32900002 47969.98966602  2374.51460091
0.33000002 47141.28227882  2574.62125358
0.33100002 46323.61415431  2998.99092237
0.33200002 45522.69035157  2501.24433981
0.33300002 44733.68242264  2913.50487416
0.33400002 43958.56274166  2871.59324708
0.33500002 43195.56875939  3483.29082971
0.33600002 42446.98904523  2145.69539785
0.33700002 41710.22650987  2326.17944262
0.33800002 40987.49167338  2709.47826538
0.33900002 40276.57151093  2054.10524434
0.34000002 39578.93425628  2024.46258308
0.34100002 38893.78388096  1995.25120759
0.34200002 38221.60609592  1966.50172677
0.34300002 37560.58718087  3101.00222451
0.34400002 36913.30059608  2292.31607558
0.34500002 36277.24780010  2447.62602499
0.34600002 35654.32273377  2598.13062066
0.34700002 35041.44551357  2926.66166790
0.34800002 34442.03308839  2524.25672460
0.34900002 33853.55551191  1955.04292341
0.35000002 33276.69991990  2803.22933402
0.35100002 32712.03033787  1727.19528364
0.35200002 32157.17892340  2213.53951603
0.35300002 31614.13576151  2350.19496382
0.35400002 31082.54407460  1820.66010540
0.35500002 30561.99884917  2774.41838694
0.35600002 30051.15837925  1770.16356817
0.35700002 29551.59109103  1745.61256843
0.35800002 29063.37455023  1565.06279366
0.35900002 28585.09121582  1852.31399852
0.36000002 28117.46019247  1827.07264985
0.36100002 27659.30211079  1952.47022848
0.36200002 27212.40946790  2518.91680171
0.36300002 26774.37790638  1608.06921323
0.36400002 26346.26959792  1875.19582746
0.36500002 25927.76714333  2135.15172539
0.36600002 25519.22535727  1685.80010695
0.36700002 25119.36845445  1941.22488611
0.36800002 24730.65309893  1916.37839941
0.36900002 24349.85215542  2162.26697383
0.37000002 23977.93109613  1334.37192871
0.37100002 23614.66019928  1317.69810154
0.37200002 23261.37280428  1561.76864406
0.37300002 22915.94380873  1414.14295943
0.37400002 22579.12800287  1397.08361136
0.37500002 22251.16674256  1505.95903648
0.37600002 21931.72950398  1984.38297952
0.37700002 21619.84242233  1348.42963576
0.37800002 21315.83359808  1332.98571720
0.37900002 21020.55038004  1198.17142842
0.38000002 20732.92812076  1421.86427788
0.38100002 20452.07472718  1289.09433112
0.38200002 20179.86463193  1391.19993363
0.38300002 19914.23572408  1147.06003205
0.38400002 19656.81074751  1589.25322423
0.38500002 19405.29231164  1123.56647807
0.38600002 19162.15940555  1557.30876867
0.38700002 18925.19931639  1542.02531335
0.38800002 18695.22949499  1199.95336198
0.38900002 18471.46766433  1188.63900051
0.39000002 18255.43497895  1391.88570591
0.39100002 18044.66826512  1273.23185311
0.39200002 17840.90471823  1472.40993615
0.39300002 17643.03442496  1876.86609105
0.39400002 17452.51845644  1240.87412104
0.39500002 17266.79387288  1333.34188603
0.39600002 17086.97913796  1424.54151822
0.39700002 16912.96975164  1615.52694722
0.39800002 16744.90621087  1102.40095262
0.39900002 16582.02612026  1193.90593722
0.40000002 16424.47000024  1284.31149252
0.40100002 16272.55270044  1177.48196919
0.40200002 16126.14780415  1559.72108952
0.40300002 15984.04776347  1065.49667440
0.40400002 15847.48637037  962.73484261
0.40500002 15715.87500890  1244.22588341
0.40600002 15588.89333465  1522.72317308
0.40700002 15466.57845132  946.55464607
0.40800002 15349.13146843  941.66926021
0.40900002 15235.76332189  1030.69943756
0.41000002 15127.18005303  932.59069446
0.41100002 15022.63976368  1021.23909952
0.41200002 14922.02176822  1016.86122158
0.41300002 14826.09004737  1381.05035335
0.41400002 14733.76637688  1008.89470046
0.41500002 14645.57681150  1370.82605451
0.41600002 14560.53531413  1183.98998517
0.41700002 14479.64764810  1180.23613572
0.41800002 14403.34581520  1901.02568750
0.41900002 14328.54951697  992.96852858
0.42000002 14258.55318628  990.47044402
0.42100002 14192.09147485  1167.86726280
0.42200002 14128.93096577  1255.07299716
0.42300002 14068.31399570  984.21929378
0.42400002 14010.82029407  982.50881968
0.42500002 13956.75232323  1248.57112200
0.42600002 13904.73144654  979.65790049
0.42700002 13856.88438265  978.57322147
0.42800002 13810.73325696  977.59279992
0.42900002 13768.60101234  1154.49724959
0.43000002 13728.45456333  1420.07140732
0.43100002 13689.92734831  1508.08246815
0.43200002 13655.02495643  1064.27269554
0.43300002 13622.39900530  1507.59096936
0.43400002 13592.04810126  975.56929870
0.43500002 13563.74903509  975.77615182
0.43600002 13538.02353830  1064.90098199
0.43700002 13514.00011300  1331.80477425
0.43800002 13491.88957630  1332.66145605
0.43900002 13472.55645109  1600.53978224
0.44000002 13454.66746811  979.02892471
0.44100002 13438.94952229  1069.20287466
0.44200002 13424.92718059  1159.71238945
0.44300002 13412.74702387  982.61789354
0.44400002 13402.55706221  1252.46901682
0.44500002 13392.86475977  985.58096438
0.44600002 13385.17033315  987.22328471
0.44700002 13380.07060083  1258.79710178
0.44800002 13374.74797873  1080.94718287
0.44900002 13372.63983009  1534.51049323
0.45000002 13371.23214876  995.02028751
0.45100002 13370.82695967  1631.77579949
0.45200002 13371.97461189  1090.35086153
0.45300002 13373.94013326  1001.84190286
0.45400002 13377.59172056  1095.62481384
0.45500002 13382.29693059  1189.95389946
0.45600002 13387.88004658  1101.28706483
0.45700002 13394.57113146  1380.31062051
0.45800002 13401.92901486  1291.81199897
0.45900002 13410.36073968  925.31493489
0.46000002 13420.47368997  1392.03869947
0.46100002 13430.26273893  1489.14760307
0.46200002 13441.81730215  1026.88768147
0.46300002 13453.96927143  936.39630567
0.46400002 13466.26461316  1314.98080180
0.46500002 13479.73989386  1036.45724956
0.46600002 13493.74459770  1039.76053926
0.46700002 13507.96285009  1232.73674813
0.46800002 13523.86063589  1046.54400491
0.46900002 13539.20840122  954.51423753
0.47000002 13555.39418877  1436.53296724
0.47100002 13572.20856773  1057.00365335
0.47200002 13589.61023688  1446.27433801
0.47300002 13607.47196301  1064.24043267
0.47400002 13624.97540459  970.77954359
0.47500002 13643.35155652  1266.37595150
0.47600002 13662.59022788  1075.31421485
0.47700002 13681.16424192  1177.12742717
