# SAXS profile: number of points = 501, q_min = 0, q_max = 0.5, delta_q = 0.001
#    q    intensity    error
0.00000000 1664650.74656090 249.69761198
0.00100000 1664563.97070901 798.99072492
0.00200000 1664303.60878004 823.83031243
0.00300000 1663869.87990666 1098.15415986
0.00400000 1663262.65145369 1621.68114679
0.00500000 1662482.60920910 2393.97505202
0.00600000 1661529.54975773 2093.52731793
0.00700000 1660404.26116724 2590.23075507
0.00800000 1659106.51289077 2463.77327566
0.00900000 1657637.71610636 2735.10234849
0.01000000 1655997.29128439 4371.83303776
0.01100000 1654186.76784036 3870.79720528
0.01200000 1652206.08326473 4188.34260471
0.01300000 1650056.58602963 3811.63088184
0.01400000 1647738.49216175 4078.15294889
0.01500000 1645253.18462396 6317.77251028
0.01600000 1642600.59325583 4607.49487005
0.01700000 1639782.74495632 6641.12041499
0.01800000 1636800.19919549 5131.36885538
0.01900000 1633653.93971249 5391.05824431
0.02000000 1630344.70453410 7189.82047223
0.02100000 1626875.31648545 6442.42654537
0.02200000 1623244.28198692 5600.19302728
0.02300000 1619454.94803378 7579.04950178
0.02400000 1615507.75082163 6663.96977600
0.02500000 1611405.05904917 6284.48001731
0.02600000 1607147.34744151 9763.42058227
0.02700000 1602736.56843764 8750.94206447
0.02800000 1598173.16823415 9037.66968083
0.02900000 1593460.55730312 8604.68740451
0.03000000 1588599.34028925 8864.38472627
0.03100000 1583591.13746330 8361.36159054
0.03200000 1578437.21834191 10157.24396785
0.03300000 1573141.64743848 10429.92960334
0.03400000 1567702.98513063 8230.44105169
0.03500000 1562125.48872053 13496.76484580
0.03600000 1556409.41598442 8638.07265791
0.03700000 1550558.33495276 8838.18291797
0.03800000 1544573.26802118 9035.75403609
0.03900000 1538456.99839549 10153.81665963
0.04000000 1532209.72691235 14134.63538575
0.04100000 1525835.45560496 10574.04019762
0.04200000 1519335.69789128 12739.63041785
0.04300000 1512712.28122365 11980.68182341
0.04400000 1505968.13420922 11181.81391581
0.04500000 1499105.46036594 14481.35942001
0.04600000 1492124.93717141 13675.32568490
0.04700000 1485030.82839102 12830.66695403
0.04800000 1477824.36399349 15206.81341304
0.04900000 1470508.58099990 17646.10379338
0.05000000 1463084.94118566 11192.60032127
0.05100000 1455557.81419026 13624.02177548
0.05200000 1447926.00278706 11511.01225858
0.05300000 1440195.08387643 13998.69686787
0.05400000 1432366.09671070 15362.12710362
0.05500000 1424442.79211312 16751.44801669
0.05600000 1416425.61025572 19376.70325250
0.05700000 1408320.05045669 12252.38501090
0.05800000 1400125.07038723 16108.43968695
0.05900000 1391844.89125559 15031.92552764
0.06000000 1383483.14851967 12658.87140036
0.06100000 1375041.25697863 14066.67271625
0.06200000 1366521.84168131 15496.35840902
0.06300000 1357928.60867412 19554.17287917
0.06400000 1349260.39937730 13155.28950916
0.06500000 1340524.35498400 22561.02594974
0.06600000 1331721.04007894 13383.79707900
0.06700000 1322852.33633757 17541.02280074
0.06800000 1313922.03127293 21758.54985638
0.06900000 1304933.72201367 13701.80472265
0.07000000 1295887.06630340 16561.43748290
0.07100000 1286786.70827138 16676.75652030
0.07200000 1277634.07383500 19586.13126944
0.07300000 1268433.07303157 14079.60777036
0.07400000 1259186.49158838 19832.18817194
0.07500000 1249894.92886388 18523.44371400
0.07600000 1240561.90612222 37254.07578734
0.07700000 1231190.93019396 15845.42801456
0.07800000 1221783.29016265 18821.57246762
0.07900000 1212340.86830415 14548.09110201
0.08000000 1202869.03109558 20460.80317877
0.08100000 1193368.57613840 16146.27759271
0.08200000 1183840.67916644 17686.58057669
0.08300000 1174288.94573111 16275.64555168
0.08400000 1164716.52490505 16335.15002854
0.08500000 1155125.14840944 17881.33813682
0.08600000 1145517.27884001 17938.80142889
0.08700000 1135895.48033778 17992.58525344
0.08800000 1126261.07728066 22553.37913174
0.08900000 1116617.82297643 21104.07784551
0.09000000 1106967.72910290 16621.12123327
0.09100000 1097312.61696736 24228.66372093
0.09200000 1087654.30427538 18207.33390907
0.09300000 1077997.33117332 18239.71570058
0.09400000 1068340.19720529 18268.61823079
0.09500000 1058687.21184920 18294.11588063
0.09600000 1049040.11944692 22895.30168319
0.09700000 1039403.79493883 15279.23650392
0.09800000 1029776.54488491 15292.18241054
0.09900000 1020162.91399158 24483.91108709
0.10000000 1010562.33069506 24496.03204803
0.10100000 1000978.21779602 26035.44466937
0.10200000 991413.04491923 18380.79871737
0.10300000 981867.94359428 18380.56876872
0.10400000 972345.25403448 16845.88231866
0.10500000 962848.91721455 16840.22835440
0.10600001 953374.83305356 15301.66679051
0.10700001 943931.13104069 15291.68504245
0.10800001 934515.16624547 15279.32368718
0.10900001 925131.74541852 16791.14196963
0.11000001 915781.11995653 21346.85891097
0.11100001 906464.38649057 18274.32289188
0.11200001 897184.54770063 18248.73455933
0.11300001 887941.29927238 19738.93601215
0.11400001 878738.01122184 18189.87768875
0.11500001 869575.63372327 22695.92510888
0.11600001 860455.67791681 18121.19743028
0.11700001 851379.35986722 21097.18153108
0.11800001 842347.07497112 18043.07519568
0.11900001 833360.72779453 18000.59256822
0.12000001 824421.73963047 16459.58080705
0.12100001 815532.77788511 20893.95075369
0.12200001 806693.26284156 22325.23710091
0.12300001 797905.44467619 16325.14616722
0.12400001 789169.40214536 23675.08317987
0.12500001 780486.11241626 19176.54468568
0.12600001 771858.73478466 17644.69150866
0.12700001 763286.01247761 19051.61976927
0.12800001 754769.61044701 18986.23044560
0.12900001 746310.99363990 20374.29108665
0.13000001 737910.40873951 14499.94021518
0.13100001 729568.41074320 17334.54625637
0.13200001 721286.16073762 17267.59150206
0.13300001 713065.66438163 17199.14463570
0.13400001 704905.43964037 15701.76940826
0.13500001 696808.50454063 14214.89416284
0.13600001 688773.30885605 14154.29216438
0.13700001 680802.30819799 16911.13013305
0.13800001 672893.93013200 18238.79083629
0.13900001 665051.49982604 22345.73144794
0.14000001 657273.43937732 15291.46728827
0.14100001 649561.13579955 22137.04455210
0.14200001 641914.26544186 13769.06164315
0.14300001 634335.14961190 15071.80386568
0.14400001 626819.90455015 14996.66692375
0.14500001 619374.02711636 18990.00856719
0.14600001 611994.73408266 16193.38142774
0.14700001 604684.80884681 13424.00338970
0.14800001 597439.96926063 17358.61912582
0.14900001 590264.63774150 25233.81445400
0.15000001 583156.74400438 15850.20104990
0.15100001 576117.69668962 21016.77456691
0.15200001 569147.61281354 15674.32599651
0.15300001 562246.98803009 19481.85905457
0.15400001 555412.45972630 12913.34029803
0.15500001 548648.39451223 14122.21034121
0.15600001 541950.49850221 15315.52181049
0.15700001 535324.75839204 12687.19737269
0.15800001 528763.80362662 15133.22077406
0.15900001 522273.78040604 17548.39984994
0.16000001 515849.39941512 13703.53994230
0.16100001 509496.30022882 17333.06495198
0.16200001 503209.98805018 17224.87870408
0.16300001 496991.05600916 13448.57861049
0.16400001 490840.21944639 17007.61440674
0.16500001 484756.19002076 14484.51564165
0.16600001 478740.31989588 14390.93469551
0.16700001 472789.46587901 15488.58363349
0.16800001 466904.70649088 11836.03486840
0.16900001 461088.45675189 15285.08306306
0.17000001 455336.55594168 18687.01313824
0.17100001 449650.05149524 13921.16625167
0.17200001 444029.28507234 16131.58468846
0.17300001 438472.94769391 11444.14447525
0.17400001 432981.01918177 15912.05320639
0.17500001 427552.91999609 18059.83619356
0.17600001 422186.75812472 14571.77664489
0.17700001 416885.55858766 14470.09842201
0.17800001 411645.25554721 11052.67563348
0.17900001 406467.52862201 15364.47330763
0.18000001 401351.45820806 11986.36186556
0.18100001 396297.77277910 11900.82267871
0.18200001 391301.99615454 16111.86045275
0.18300001 386367.20580842 12796.48246087
0.18400001 381491.44723478 14820.94342522
0.18500001 376676.07998773 15763.89469221
0.18600001 371917.40172217 12518.74033340
0.18700001 367216.08295326 14497.69163994
0.18800001 362571.96998097 11306.80741806
0.18900001 357986.37095249 12243.13446503
0.19000001 353452.82498130 11139.06630559
0.19100001 348978.93196833 12060.71245869
0.19200001 344556.63111932 14962.37241335
0.19300001 340191.06716183 14849.34078328
0.19400001 335876.71879260 10806.83393782
0.19500001 331616.56162167 10724.48010963
0.19600001 327408.28324490 12577.38979521
0.19700001 323251.50341810 11520.68412626
0.19800001 319146.13884765 10479.16396429
0.19900001 315091.73740376 10398.02782573
0.20000001 311085.53618572 13130.92110298
0.20100001 307130.15282330 14889.67051259
0.20200001 303221.77263297 10156.41375437
0.20300001 299363.09809236 10992.61348151
0.20400001 295550.91338979 14541.10562607
0.20500001 291785.07675829 10819.39115760
0.20600001 288065.62756847 10733.32579054
0.20700001 284392.04761010 13309.54845728
0.20800001 280761.96034821 11442.45423488
0.20900001 277178.54950484 9604.23719435
0.21000001 273636.86373267 12990.91071982
0.21100001 270138.81829082 9449.45631052
0.21200001 266682.90207621 9372.57103655
0.21300001 263268.08021253 10141.08692921
0.21400001 259895.56456252 10896.12205941
0.21500001 256564.40052010 11637.76175780
0.21600001 253272.27916550 12366.01961490
0.21700001 250019.80240214 8993.21271760
0.21800001 246806.53065864 8107.59491547
0.21900001 243630.76029138 8039.81546975
0.22000001 240492.47792679 9566.79122427
0.22100001 237393.05126823 10276.74567532
0.22200001 234330.27157337 9406.01754571
0.22300001 231302.31157773 10103.28544745
0.22400001 228309.47950411 10017.07888691
0.22500001 225354.29779602 9931.36437350
0.22600001 222431.45605530 7573.79143683
0.22700001 219544.77650947 9760.96122520
0.22800001 216690.35597043 8931.97689549
0.22900001 213868.39819950 8116.30609550
0.23000001 211079.94765183 7313.92053202
0.23100001 208324.54053136 9424.60265935
0.23200001 205599.07323940 7904.25674451
0.23300001 202905.43872854 9258.57560706
0.23400001 200243.15644409 7058.57159849
0.23500001 197609.48199646 7694.91359288
0.23600001 195007.10064224 10398.75413358
0.23700001 192433.60896630 7556.86818153
0.23800001 189889.41975531 8849.79682628
0.23900001 187373.31762575 9443.61565502
0.24000001 184885.44964377 8020.33118491
0.24100001 182426.30269861 9270.90514167
0.24200001 179994.02450853 9185.09550514
0.24300001 177588.94175469 7149.73113325
0.24400001 175210.19449625 8370.66743802
0.24500001 172857.78573593 8291.98837400
0.24600001 170531.49342667 6318.19213034
0.24700001 168231.06776765 7509.83522041
0.24800001 165955.70770689 8677.82436651
0.24900001 163704.51617982 9208.37947074
0.25000001 161479.01956136 6687.65391151
0.25100001 159276.66332211 6622.72397425
0.25200001 157099.81029671 6558.13189110
0.25300001 154946.60779935 7084.15924374
0.25400001 152816.18549112 8183.30712021
0.25500001 150708.67635588 8102.09882422
0.25600001 148624.81064604 6302.43539363
0.25700001 146562.60169933 10209.55131742
0.25800001 144523.61550808 6737.69127377
0.25900001 142506.66325902 6113.53614307
0.26000001 140511.46980941 8251.53645498
0.26100001 138537.19915047 7622.31705792
0.26200001 136585.35622595 7004.78032549
0.26300001 134653.81016618 5332.29113489
0.26400001 132743.43702967 5804.20705877
0.26500001 130854.42200294 6265.31002197
0.26600001 128984.76904958 5682.42426937
0.26700001 127136.66216736 6644.16227927
0.26800001 125308.99555156 6573.08367270
0.26900001 123499.75228650 7002.43628601
0.27000001 121711.54183549 8410.87649656
0.27100001 119942.12733458 7340.45854025
0.27200001 118193.73157847 10648.07378181
0.27300001 116463.68694142 5265.32353580
0.27400001 114750.83229523 4733.47205619
0.27500001 113059.88558528 4680.67948475
0.27600001 111385.43999525 6016.48482608
0.27700001 109731.10635583 7321.25976255
0.27800001 108094.29734066 4976.12121358
0.27900001 106477.25166472 5366.45373788
0.28000001 104876.69774096 6630.82952850
0.28100001 103295.24083367 5243.26667288
0.28200001 101732.24361991 6045.94752448
0.28300001 100186.63519316 4694.74594735
0.28400001 98658.34725870  5904.70236291
0.28500001 97148.35303367  4584.43099665
0.28600001 95655.43100213  6176.94974933
0.28700001 94180.06710130  4882.29490962
0.28800001 92721.16786230  5225.30166221
0.28900001 91281.30640729  6353.17922667
0.29000001 89857.02041739  3922.25912688
0.29100001 88450.46209942  4261.54346567
0.29200001 87060.64974290  3826.31573732
0.29300001 85687.64653323  4912.47300829
0.29400001 84330.68301754  4851.12277022
0.29500001 82991.49346717  4421.78698124
0.29600001 81668.09844384  5821.30233264
0.29700001 80361.01301452  4310.56494215
0.29800001 79070.26011272  3546.30133393
0.29900001 77796.29540489  5951.41688021
0.30000001 76537.78519126  4146.81739797
0.30100001 75296.53500866  3752.02651710
0.30200001 74069.38159686  3703.09890824
0.30300001 72859.63121051  5315.83894478
0.30400001 71665.60750183  3606.57186827
0.30500001 70486.88926200  3882.41804435
0.30600001 69322.98742632  4469.25321096
0.30700001 68175.95547255  4094.64807954
0.30800001 67043.79691855  3107.48013429
0.30900001 65927.14056653  3372.17339963
0.31000001 64826.21015482  3931.38570097
0.31100001 63739.34618355  4474.50231393
0.31200001 62668.52728741  4119.20249363
0.31300001 61612.06519300  3192.12124878
0.31400001 60571.67802428  3148.21311437
0.31500001 59545.42848865  3669.18947720
0.31600002 58534.16172258  5009.93913904
0.31700002 57537.59923301  3842.36105871
0.31800002 56555.61147781  3247.42336482
0.31900002 55588.33016879  3735.53596422
0.32000002 54635.75859846  3156.85428129
0.32100002 53696.95992191  2852.91961574
0.32200002 52773.46236656  3579.62412182
0.32300002 51862.73303617  2772.58183940
0.32400002 50966.59209519  2484.62148229
0.32500002 50084.41011716  3673.69165605
0.32600002 49216.66156234  3379.70830952
0.32700002 48361.97033760  4044.99539058
0.32800002 47521.98147629  3048.77286598
0.32900002 46694.81838462  2311.39361949
0.33000002 45882.22495789  2278.05257703
0.33100002 45080.51117949  2469.51051935
0.33200002 44295.37940614  2655.06516733
0.33300002 43521.94655215  2398.49458807
0.33400002 42762.06454681  3223.19076785
0.33500002 42014.30433106  2329.27314242
0.33600002 41280.58435265  3130.10045677
0.33700002 40558.61542947  2056.32189965
0.33800002 39850.36528887  2634.30852217
0.33900002 39153.85125812  2595.90046135
0.34000002 38470.43390772  2164.53906633
0.34100002 37799.11109293  3490.37008362
0.34200002 37140.72088834  1910.89018020
0.34300002 36493.40276519  2259.67160624
0.34400002 35859.47263266  2412.44613562
0.34500002 35236.72783204  2560.30076553
0.34600002 34626.86746361  2162.79424421
0.34700002 34026.95367200  1953.82777238
0.34800002 33440.25465248  1750.59741397
0.34900002 32864.41353632  1725.38179237
0.35000002 32299.95083693  2040.71099053
0.35100002 31747.60099323  1676.27341184
0.35200002 31204.79447097  2313.21152369
0.35300002 30673.79705413  1954.53444086
0.35400002 30153.98506606  1926.83973698
0.35500002 29645.04402973  2057.95905402
0.35600002 29145.81864930  2653.28972641
0.35700002 28657.70416754  1538.91878669
0.35800002 28180.67127844  1669.28214224
0.35900002 27713.53259782  1945.49008052
0.36000002 27256.90772149  1771.15394763
0.36100002 26809.63462272  1601.33955186
0.36200002 26373.42638241  1579.63644800
0.36300002 25946.03854795  1558.31914900
0.36400002 25528.38798819  1677.21517027
0.36500002 25120.35635925  2206.57220712
0.36600002 24722.01635225  1497.04177112
0.36700002 24332.37635577  1611.77668615
0.36800002 23953.63313165  1723.58375363
0.36900002 23582.77874620  1701.49756714
0.37000002 23220.65903047  1421.45270988
0.37100002 22867.15324501  1658.78337497
0.37200002 22523.36825617  1512.21901635
0.37300002 22187.50541349  1493.66293519
0.37400002 21860.09626977  1352.59352077
0.37500002 21541.47971706  1457.92741631
0.37600002 21231.24959626  1921.00355447
0.37700002 20928.47689662  1898.63151400
0.37800002 20633.51478488  1290.31690820
0.37900002 20347.14555255  1391.74482172
0.38000002 20068.39220898  1605.67213671
0.38100002 19796.33840655  1247.76326888
0.38200002 19532.74982633  1458.80348989
0.38300002 19275.81708869  1110.28711691
0.38400002 19026.88401667  1538.32364562
0.38500002 18783.92220430  1631.38372073
0.38600002 18549.04305800  1722.83520085
0.38700002 18320.48816779  1706.00393901
0.38800002 18098.77109736  1372.88234663
0.38900002 17883.11637941  1255.39482931
0.39000002 17675.16663186  1243.97828648
0.39100002 17472.53612361  1335.60072456
0.39200002 17276.73529094  1731.38810921
0.39300002 17086.77549154  1009.82847939
0.39400002 16904.06753696  1702.66228333
0.39500002 16726.12056917  1390.94425243
0.39600002 16554.10328842  1182.95627704
0.39700002 16387.75868352  1467.52385964
0.39800002 16227.25364491  1165.44141199
0.39900002 16072.00101050  1253.61613821
0.40000002 15921.93657680  1245.01588961
0.40100002 15777.54983621  1046.52493022
0.40200002 15638.45408579  945.34459428
0.40300002 15503.71342551  1033.47758591
0.40400002 15374.44055426  1120.79676951
0.40500002 15250.10714724  1485.97051083
0.40600002 15130.38252606  1016.08088668
0.40700002 15015.22179426  1102.71794082
0.40800002 14904.84333405  1097.29461824
0.40900002 14798.55214806  1183.14430030
0.41000002 14697.02067825  906.07136775
0.41100002 14599.50289574  992.47425388
0.41200002 14505.82036501  1347.95342129
0.41300002 14416.89090797  1342.93345171
0.41400002 14331.38549236  1248.98030484
0.41500002 14249.97375325  1333.79760650
0.41600002 14171.81037016  1329.67017099
0.41700002 14097.67081109  1060.70880209
0.41800002 14028.14102670  881.66870530
0.41900002 13960.05285270  1143.32838281
0.42000002 13896.61553944  877.57131290
0.42100002 13836.87851345  1138.63678683
0.42200002 13780.26948865  961.79395454
0.42300002 13726.23961133  1222.18443291
0.42400002 13675.25623527  958.97738894
0.42500002 13627.74128071  1306.21906365
0.42600002 13582.17304436  956.93204719
0.42700002 13540.81824681  1043.18468717
0.42800002 13501.07030173  1303.19087263
0.42900002 13465.33230573  955.36537236
0.43000002 13431.57915996  955.18679722
0.43100002 13399.35429804  1041.93383959
0.43200002 13370.76015637  1128.96018730
0.43300002 13344.43459915  1042.46728029
0.43400002 13320.27377127  956.06269524
0.43500002 13298.25396740  1304.55877602
0.43600002 13278.74211214  1131.54806271
0.43700002 13260.84404159  958.36124430
0.43800002 13244.95667945  1046.61652641
0.43900002 13231.71348418  1135.28107074
0.44000002 13219.89188415  961.94547854
0.44100002 13210.26380238  1051.00863792
0.44200002 13202.24586492  1491.39177481
0.44300002 13196.14363028  1142.52216965
0.44400002 13191.92184550  968.61690741
0.44500002 13188.17744310  1235.20475786
0.44600002 13186.49246521  1149.40067020
0.44700002 13187.25091144  974.80163357
0.44800002 13187.90690895  977.02612965
0.44900002 13191.71227521  1246.61686909
0.45000002 13196.10448583  981.98816185
0.45100002 13201.55118377  895.06521268
0.45200002 13208.48447721  1256.52318787
0.45300002 13216.26769756  1350.04180929
0.45400002 13225.69774924  1263.71547983
0.45500002 13236.15674981  1267.49443043
0.45600002 13247.44461929  1271.35732037
0.45700002 13259.84148056  1093.14138347
0.45800002 13272.85893923  1187.98729566
0.45900002 13286.94818622  1191.83930879
0.46000002 13302.62651654  1011.86433394
0.46100002 13318.05728120  1015.23555466
0.46200002 13335.12254951  1111.34916595
0.46300002 13352.89294541  1022.29753235
0.46400002 13370.64429416  1492.16397395
0.46500002 13389.65760775  1123.12453337
0.46600002 13409.08857440  1033.23736907
0.46700002 13428.82284208  1131.24408983
0.46800002 13450.11334723  1324.70172635
0.46900002 13470.82443579  1044.66248451
0.47000002 13492.40389100  1048.56221809
0.47100002 13514.59422509  1148.19997978
0.47200002 13537.25964999  1248.60920300
0.47300002 13560.41606134  1156.97475319
0.47400002 13583.21955524  1161.36532702
0.47500002 13606.84738904  1262.98763451
0.47600002 13631.18922296  1560.49861621
0.47700002 13655.01292841  1272.78381538
