# SAXS profile: number of points = 501, q_min = 0, q_max = 0.5, delta_q = 0.001
#    q    intensity    error
0.00000000 1682732.95097188 429.09690250
0.00100000 1682645.92257962 504.79378876
0.00200000 1682384.80229917 1135.60977751
0.00300000 1681949.81207651 1110.08691552
0.00400000 1681340.83087978 1387.10623818
0.00500000 1680558.50815258 1815.00326064
0.00600000 1679602.69796915 2469.01606653
0.00700000 1678474.12429803 2417.00283944
0.00800000 1677172.58745360 2943.43801525
0.00900000 1675699.53906717 3770.32412407
0.01000000 1674054.32298350 3314.62770263
0.01100000 1672238.52610407 3612.03537365
0.01200000 1670252.02839178 3582.69075798
0.01300000 1668096.23148145 3853.30246467
0.01400000 1665771.30290988 4122.78415747
0.01500000 1663278.75769064 5189.42995507
0.01600000 1660618.36157886 4658.03471246
0.01700000 1657792.16722826 4476.03905231
0.01800000 1654800.77287482 6602.65538087
0.01900000 1651645.27382937 6441.41685859
0.02000000 1648326.17040816 5711.45043883
0.02100000 1644846.54000645 7599.19135937
0.02200000 1641204.66551589 6794.58762393
0.02300000 1637404.02889070 6484.12024955
0.02400000 1633444.91896141 6125.41872541
0.02500000 1629329.97758481 7625.26464335
0.02600000 1625059.37567310 7239.63984975
0.02700000 1620635.32438820 12252.00361353
0.02800000 1616058.08632762 9841.79419708
0.02900000 1611331.13779929 10151.38663423
0.03000000 1606455.11965656 9711.02164469
0.03100000 1601431.51855977 8455.55880706
0.03200000 1596261.78476403 8691.64581836
0.03300000 1590949.99865862 12170.76805082
0.03400000 1585494.52987164 9156.23133248
0.03500000 1579899.63083747 10237.75008059
0.03600000 1574165.81533546 11357.60688252
0.03700000 1568296.25864857 11621.07581403
0.03800000 1562292.44430189 11881.23458877
0.03900000 1556156.96601733 10270.63645135
0.04000000 1549889.86073194 12391.37001076
0.04100000 1543495.24999497 15558.43284134
0.04200000 1536974.67814665 11896.18456075
0.04300000 1530329.91163558 10100.17788562
0.04400000 1523563.96907377 14397.68017640
0.04500000 1516679.05289742 12558.10314150
0.04600000 1509675.73930648 17029.14313101
0.04700000 1502558.30088810 14063.94635040
0.04800000 1495328.15293122 16485.99365313
0.04900000 1487988.06522019 14507.88431120
0.05000000 1480539.76858570 12458.74273280
0.05100000 1472987.32422951 12638.23183063
0.05200000 1465329.75145910 12814.30927367
0.05300000 1457572.58718131 16528.87390918
0.05400000 1449717.06041846 16744.23282868
0.05500000 1441766.42670260 15744.09011404
0.05600000 1433721.83768073 18387.48342629
0.05700000 1425588.06549105 19844.18679793
0.05800000 1417364.42443118 15052.41089029
0.05900000 1409055.09426284 22826.69359320
0.06000000 1400663.68204434 14097.68061840
0.06100000 1392191.73106208 14242.12207432
0.06200000 1383641.75970136 15690.49828844
0.06300000 1375017.61141231 18480.23756143
0.06400000 1366317.78331839 18650.23861451
0.06500000 1357549.74638836 14783.71742972
0.06600000 1348713.95065768 14910.03342214
0.06700000 1339812.22929200 16399.30245400
0.06800000 1330848.51455678 16529.13932451
0.06900000 1321826.50509130 16655.01474392
0.07000000 1312745.29120898 16776.88560729
0.07100000 1303610.00298076 16894.78642994
0.07200000 1294422.15316765 14173.92324119
0.07300000 1285185.51376693 14265.55987123
0.07400000 1275902.84052587 22966.25220576
0.07500000 1266574.58865526 15882.84608621
0.07600000 1257204.27930052 17424.85212799
0.07700000 1247795.76212801 16059.13221158
0.07800000 1238349.90809049 16141.89180895
0.07900000 1228869.15358778 20645.00274860
0.08000000 1219358.35938954 14815.20476158
0.08100000 1209818.39790384 20833.07378935
0.08200000 1200250.87830307 19426.06137691
0.08300000 1190658.76274396 18002.76133759
0.08400000 1181045.43085467 19575.82893528
0.08500000 1171412.86307294 16622.34930734
0.08600000 1161763.57050217 18193.21836826
0.08700000 1152099.44681088 16728.48475323
0.08800000 1142422.62037322 18301.61123789
0.08900000 1132736.52461426 18350.33256066
0.09000000 1123042.93454154 18395.44413193
0.09100000 1113344.14637022 19973.39492426
0.09200000 1103641.64992770 21554.12243585
0.09300000 1093939.98579305 16967.00997697
0.09400000 1084237.67960132 16995.42642649
0.09500000 1074539.24088758 20115.37553489
0.09600000 1064846.42251673 20141.57102871
0.09700000 1055163.45949819 15510.90358383
0.09800000 1045489.59819535 17078.07338949
0.09900000 1035828.88781487 15537.43404783
0.10000000 1026180.62659352 15546.63722401
0.10100000 1016548.64391068 24885.11197332
0.10200000 1006935.29025921 20224.29625613
0.10300000 997341.14608908 17114.37487196
0.10400000 987769.68410309 18668.84790783
0.10500000 978223.62244893 17109.13196161
0.10600001 968699.56676444 21766.68028940
0.10700001 959205.64786980 18646.95867207
0.10800001 949739.10489994 15528.23509590
0.10900001 940304.59028108 24824.04235178
0.11000001 930902.52777199 23249.29172544
0.11100001 921533.99657743 18578.12624554
0.11200001 912201.91713317 17008.00554564
0.11300001 902906.20538985 21615.57557471
0.11400001 893649.95977940 15415.46253202
0.11500001 884434.72692113 15389.16497307
0.11600001 875260.79609941 16896.91046440
0.11700001 866130.74193261 18396.61782504
0.11800001 857044.15557209 16828.06278723
0.11900001 848003.20542870 15264.05841668
0.12000001 839009.23259653 21319.22560452
0.12100001 830065.17169841 21266.27070073
0.12200001 821169.95138893 25755.99673871
0.12300001 812326.39704825 18131.12603635
0.12400001 803534.02049852 24106.02175077
0.12500001 794794.07845347 21030.25230683
0.12600001 786109.72274139 16472.93001631
0.12700001 777480.09640835 19405.90412088
0.12800001 768906.16921478 16366.16858306
0.12900001 760389.52137847 19275.87527546
0.13000001 751931.15223650 14775.44783789
0.13100001 743530.65412832 17666.28917484
0.13200001 735189.74272015 16133.73966454
0.13300001 726910.50295812 16071.99197809
0.13400001 718691.18454439 16008.84689047
0.13500001 710534.67272305 17393.88960835
0.13600001 702439.64859327 21652.70318883
0.13700001 694408.56259033 18686.53530044
0.13800001 686439.90153076 17174.72714619
0.13900001 678537.10226338 14249.27981950
0.14000001 670698.42945321 21277.90867788
0.14100001 662925.09858560 16944.36631899
0.14200001 655217.03445277 15459.84665708
0.14300001 647576.40255040 22380.24152776
0.14400001 639999.82292827 20879.99520794
0.14500001 632491.83995672 15236.72914331
0.14600001 625050.46214522 15160.59967452
0.14700001 617678.15324565 20568.68347344
0.14800001 610370.86361418 17734.32627899
0.14900001 603132.70387226 14927.53512513
0.15000001 595961.92332897 22947.51494051
0.15100001 588859.93749954 14768.60792934
0.15200001 581826.36976917 16023.49897954
0.15300001 574862.30402006 18591.04778930
0.15400001 567964.06326310 15846.19811284
0.15500001 561136.25051385 17069.76554620
0.15600001 554374.36700714 15666.62035101
0.15700001 547684.43913447 14278.13400212
0.15800001 541059.04145612 14194.68462257
0.15900001 534504.57626023 15393.73252289
0.16000001 528015.68372092 16577.05317290
0.16100001 521597.98551509 16477.28114022
0.16200001 515246.84664904 13857.56459479
0.16300001 508962.90136155 13772.53676102
0.16400001 502746.93383954 16175.88335994
0.16500001 496597.64859570 14838.33844058
0.16600001 490516.38819080 19659.89776689
0.16700001 484500.18598928 13430.34578973
0.16800001 478550.19537011 13344.37282797
0.16900001 472668.16430889 13258.34263490
0.17000001 466850.55792073 13172.18911372
0.17100001 461098.19843991 13085.96748966
0.17200001 455411.39680731 15363.30419679
0.17300001 449789.23137987 22305.04903747
0.17400001 444231.40673138 19823.82746159
0.17500001 438737.16800188 16215.72649518
0.17600001 433304.86428564 13805.09362814
0.17700001 427937.52991708 12568.52584728
0.17800001 422630.89983529 14751.93225552
0.17900001 417387.00656202 16904.17456421
0.18000001 412204.49217507 13429.62298941
0.18100001 407084.52170775 13336.08956110
0.18200001 402022.29462078 14346.16626123
0.18300001 397021.31138789 12053.56758314
0.18400001 392079.08409970 10880.19509775
0.18500001 387197.50005276 12963.37291418
0.18600001 382372.27975513 11798.09724923
0.18700001 377604.67110307 11713.29745101
0.18800001 372894.14680636 12685.85947371
0.18900001 368242.27470817 12593.88639005
0.19000001 363642.20114227 10418.34955498
0.19100001 359102.06345388 13444.78189098
0.19200001 354613.36790832 12319.26898324
0.19300001 350181.52159661 13247.36758797
0.19400001 345801.14132147 16183.49417858
0.19500001 341474.69195400 14055.09898500
0.19600001 337200.40741839 13949.98151412
0.19700001 332977.45256528 17800.97545537
0.19800001 328806.20534235 9814.86569331
0.19900001 324685.65166669 10714.62701137
0.20000001 320613.67144831 9666.50265102
0.20100001 316592.45481446 14389.12775138
0.20200001 312618.44863815 9519.23221094
0.20300001 308693.94243882 10390.63859360
0.20400001 304816.15004662 11247.71646835
0.20500001 300985.06589768 9300.43897584
0.20600001 297200.21021284 10150.87365963
0.20700001 293461.42982077 10071.59674752
0.20800001 289766.07044819 9084.16673796
0.20900001 286117.84666665 11716.52637485
0.21000001 282511.08917918 12518.06695329
0.21100001 278948.34043515 9757.61340970
0.21200001 275427.74798714 9679.90866062
0.21300001 271948.19274049 11348.39861956
0.21400001 268511.18868182 10391.38349326
0.21500001 265115.91506188 11166.68287034
0.21600001 261759.53223038 9372.30049462
0.21700001 258443.17474380 12676.63832053
0.21800001 255166.00133687 10058.64424828
0.21900001 251926.48013729 10807.64650889
0.22000001 248724.73797659 9894.27054453
0.22100001 245561.90351360 8994.93295102
0.22200001 242435.94631088 8109.48278755
0.22300001 239345.02902980 12062.99003351
0.22400001 236289.35231198 11962.14902644
0.22500001 233271.39061563 9489.48061898
0.22600001 230286.01380793 8625.36305505
0.22700001 227337.16993042 7774.93157929
0.22800001 224420.51813353 9250.61419493
0.22900001 221536.53707487 10700.21524674
0.23000001 218686.61355574 9850.73897348
0.23100001 215869.67872879 9014.71821004
0.23200001 213082.72154471 7447.24147019
0.23300001 210327.91483665 7382.51015992
0.23400001 207604.72972137 8049.87377567
0.23500001 204910.16571223 7253.82020929
0.23600001 202247.50563887 10784.84874828
0.23700001 199613.71467320 9264.07293615
0.23800001 197009.36330024 9887.90041172
0.23900001 194433.38317463 8399.52255044
0.24000001 191885.90219106 8324.01083078
0.24100001 189367.41300807 11685.86360948
0.24200001 186875.90823200 9536.27804816
0.24300001 184411.83412731 8774.31548283
0.24400001 181974.37852451 10700.09396339
0.24500001 179563.57760357 6625.89632701
0.24600001 177179.00349464 8533.82710701
0.24700001 174820.43524015 7153.65254844
0.24800001 172487.55359886 7086.65147486
0.24900001 170178.96667346 8934.39617302
0.25000001 167896.17681692 8217.67876307
0.25100001 165636.62710728 6887.17128095
0.25200001 163403.27562100 6821.27006351
0.25300001 161193.51089613 9826.35688912
0.25400001 159006.82844757 8514.81606621
0.25500001 156843.30941493 7829.61837643
0.25600001 154703.67075129 6560.20946859
0.25700001 152586.22153492 5905.08705279
0.25800001 150491.97291843 7015.93610941
0.25900001 148420.02878172 9261.41023418
0.26000001 146370.19094665 6876.47189604
0.26100001 144341.48298630 5672.62054977
0.26200001 142335.55391849 6176.65165455
0.26300001 140350.10068649 7225.22352522
0.26400001 138386.34448939 5500.85745374
0.26500001 136443.95621363 5444.11411053
0.26600001 134521.33044073 7003.85340082
0.26700001 132620.43141364 5864.47575462
0.26800001 130740.18995125 7913.05037125
0.26900001 128878.83527191 7307.43030572
0.27000001 127038.66785215 5680.53430182
0.27100001 125217.80540223 6130.66404261
0.27200001 123417.99591450 6064.76060624
0.27300001 121636.88164426 5499.20367938
0.27400001 119873.29680252 5439.25109983
0.27500001 118131.82172584 5868.78918108
0.27600001 116406.91764566 5320.37842279
0.27700001 114702.92775188 6218.04600771
0.27800001 113016.44800518 5202.71243015
0.27900001 111349.91589471 7015.04503337
0.28000001 109700.37387342 6011.03227089
0.28100001 108070.07099727 8228.45559518
0.28200001 106458.44744751 5422.99356964
0.28300001 104864.62092004 4467.23306263
0.28400001 103288.52474180 5298.70157005
0.28500001 101730.71971424 4800.67289054
0.28600001 100190.58467544 8626.40974886
0.28700001 98668.04267997  5114.95157463
0.28800001 97162.33363592  4633.18609873
0.28900001 95675.99471891  5826.66835418
0.29000001 94205.45454919  4934.48194286
0.29100001 92753.08916400  4468.84404745
0.29200001 91317.53067942  5217.42736234
0.29300001 89899.22946043  4361.01182756
0.29400001 88497.18351801  4307.60061165
0.29500001 87113.23322162  5028.17605957
0.29600001 85745.25810308  4583.94171518
0.29700001 84394.01684423  4904.13655097
0.29800001 83059.32173037  5960.33720953
0.29900001 81741.86229217  5517.57596592
0.30000001 80439.88692381  3995.04717320
0.30100001 79155.48019314  5020.04079150
0.30200001 77885.62247300  3539.90170898
0.30300001 76633.28460085  5241.71691485
0.30400001 75396.96245130  3794.35231499
0.30500001 74176.32760961  3404.69359847
0.30600001 72970.74693879  4032.36366674
0.30700001 71782.32763818  5306.14991022
0.30800001 70609.14013930  4254.55394052
0.30900001 69451.56981784  4521.29740920
0.31000001 68310.08413262  4142.66524836
0.31100001 67183.04692030  3144.16674473
0.31200001 66072.18478643  4653.13383389
0.31300001 64976.10200556  3672.44945923
0.31400001 63896.40977357  3321.01605522
0.31500001 62830.80478897  2978.18028801
0.31600002 61780.66445033  3231.43780708
0.31700002 60745.39383053  3766.82204978
0.31800002 59725.16848293  3429.41933667
0.31900002 58719.92816468  3382.26802243
0.32000002 57729.55142745  3613.58144270
0.32100002 56753.05581065  3289.40727054
0.32200002 55792.55291116  5135.98370143
0.32300002 54844.56194922  3198.53500433
0.32400002 53911.86017597  3416.66430044
0.32500002 52993.30677528  3109.64738882
0.32600002 52089.31752696  3065.97737482
0.32700002 51198.77985538  3526.57212343
0.32800002 50323.07552635  2731.78828431
0.32900002 49460.53575554  3182.78562659
0.33000002 48612.75552065  3861.79748143
0.33100002 47776.30285900  2855.11199406
0.33200002 46956.41438405  3518.20951433
0.33300002 46148.65710950  2774.45739681
0.33400002 45354.75601228  3646.52255607
0.33500002 44573.10700097  2471.13316916
0.33600002 43805.78435866  3100.13550587
0.33700002 43050.50519069  2837.45893149
0.33800002 42309.36905783  2581.71782217
0.33900002 41579.89077722  2544.68943608
0.34000002 40863.91820064  2717.24636944
0.34100002 40160.34640664  3296.36138917
0.34200002 39469.97166564  2233.80315221
0.34300002 38790.80516793  2602.08733390
0.34400002 38125.47588199  2762.19085847
0.34500002 37471.22596858  2139.23239186
0.34600002 36830.22414017  2492.11723447
0.34700002 36199.53704970  2456.50070053
0.34800002 35582.34117771  2607.82990842
0.34900002 34976.03119997  2203.49006996
0.35000002 34381.72886807  2715.29716596
0.35100002 33799.30973668  2319.98473021
0.35200002 33227.11364883  1759.37575103
0.35300002 32666.71463367  2081.52315505
0.35400002 32117.70425295  1881.29461572
0.35500002 31579.99959847  2192.28367596
0.35600002 31052.13009731  2161.69413911
0.35700002 30535.60400543  1967.71441531
0.35800002 30030.23253704  1617.12809872
0.35900002 29535.25323213  1913.88450009
0.36000002 29051.05488952  2045.04910581
0.36100002 28576.17121744  1551.68617060
0.36200002 28112.80724626  1683.81666977
0.36300002 27658.41617386  1661.16455409
0.36400002 27214.02326389  1638.96462870
0.36500002 26779.32296381  2793.35131067
0.36600002 26354.74331579  1740.99442591
0.36700002 25939.08985800  1575.02161078
0.36800002 25534.40960884  1837.32853044
0.36900002 25138.00827346  1395.15952526
0.37000002 24750.39085161  2066.03897421
0.37100002 24371.80735473  1359.94691481
0.37200002 24003.01496766  1477.26562616
0.37300002 23642.32840805  2254.76896709
0.37400002 23290.49489867  1572.10848013
0.37500002 22947.56020335  1811.93943949
0.37600002 22613.17832074  1662.40788300
0.37700002 22286.56701993  1895.47261484
0.37800002 21968.10778014  1498.66438376
0.37900002 21658.39041458  1728.33963696
0.38000002 21356.40049963  1342.57018101
0.38100002 21061.30695587  1810.21941861
0.38200002 20774.87253992  1193.51648396
0.38300002 20495.45497121  2124.96887208
0.38400002 20224.17792874  1167.94633072
0.38500002 19959.15975146  1271.19894479
0.38600002 19702.56279603  1486.85397184
0.38700002 19452.05368888  1698.16436749
0.38800002 19208.96594101  1120.84321576
0.38900002 18971.99686696  1553.80661702
0.39000002 18743.06165242  1209.20867979
0.39100002 18519.51413440  1197.84223096
0.39200002 18303.09550705  1618.45129689
0.39300002 18092.59811830  1283.12711934
0.39400002 17889.73681086  1271.96034751
0.39500002 17691.83577554  1155.98460434
0.39600002 17500.01555425  1458.97636588
0.39700002 17314.10526550  1343.74777332
0.39800002 17134.23541589  1128.03244205
0.39900002 16959.64360754  1119.33653113
0.40000002 16790.68631254  1312.94777842
0.40100002 16627.56664751  1102.90654798
0.40200002 16469.87984496  995.60428380
0.40300002 16316.85528840  1087.68162506
0.40400002 16169.37787698  1276.97667834
0.40500002 16027.01624811  1073.64986933
0.40600002 15889.50105413  1261.07031091
0.40700002 15756.92829372  964.32405727
0.40800002 15629.01650153  1150.60824936
0.40900002 15505.63511449  1144.31592567
0.41000002 15387.24318898  1233.21066381
0.41100002 15272.86243570  1038.24923757
0.41200002 15162.57362466  1315.05007278
0.41300002 15057.37606451  1028.56940770
0.41400002 14955.74477455  1117.19418759
0.41500002 14858.35224938  1112.59346915
0.41600002 14764.35895986  1477.61711472
0.41700002 14674.67454886  1104.12256537
0.41800002 14589.62560313  916.95801261
0.41900002 14506.41164963  1553.63676129
0.42000002 14428.10736494  1093.36202792
0.42100002 14353.40349428  999.42753266
0.42200002 14282.20885696  1087.44743390
0.42300002 14213.67604167  994.38882299
0.42400002 14148.49570883  1082.35997301
0.42500002 14086.85864518  1080.18037210
0.42600002 14027.49415785  1347.69156508
0.42700002 13972.39605915  1076.43344341
0.42800002 13919.35140321  1164.42339681
0.42900002 13870.21474862  1073.55467242
0.43000002 13823.32221847  1161.78117090
0.43100002 13778.27422093  1071.39865419
0.43200002 13736.90778492  981.43342320
0.43300002 13697.96130738  891.73732337
0.43400002 13661.51165116  1158.83778073
0.43500002 13627.21337826  1158.58573632
0.43600002 13595.82266624  1069.44746161
0.43700002 13566.04433967  891.28915535
0.43800002 13538.47945565  980.65980584
0.43900002 13513.78554369  1159.48285460
0.44000002 13490.72409285  1160.13487334
0.44100002 13469.97161025  982.36507609
0.44200002 13451.01899687  1072.58430564
0.44300002 13434.09789766  894.71096238
0.44400002 13419.40397615  1164.46883522
0.44500002 13405.16557484  986.48618140
0.44600002 13393.25447860  1347.02663302
0.44700002 13383.97901868  989.34377595
0.44800002 13374.84038628  1080.95465125
0.44900002 13368.83553150  902.39644114
0.45000002 13363.75469410  1084.86965748
0.45100002 13359.91426839  1086.96267639
0.45200002 13357.65953756  1089.18361031
0.45300002 13356.36405238  1273.39580910
0.45400002 13356.91722757  1002.77060838
0.45500002 13358.68724513  1096.48110105
0.45600002 13361.53163412  1282.30625170
0.45700002 13365.58526019  1652.78835161
0.45800002 13370.39257511  1196.71704415
0.45900002 13376.41788962  1107.56745375
0.46000002 13384.15043647  1018.06545120
0.46100002 13391.86374198  1020.86182143
0.46200002 13401.41554374  1116.87402435
0.46300002 13411.75026834  1026.80364921
0.46400002 13422.32478979  936.20719846
0.46500002 13434.28793841  1314.67947996
0.46600002 13446.68820819  1318.71677508
0.46700002 13459.64847310  944.86736759
0.46800002 13474.33571986  1042.71151910
0.46900002 13488.59974600  1426.41949075
0.47000002 13503.92343274  1049.45745932
0.47100002 13519.80195421  1244.36263084
0.47200002 13536.53257896  1056.45873520
0.47300002 13553.91428935  1156.42002198
0.47400002 13570.97684755  1257.01179008
0.47500002 13588.98612800  970.25365553
0.47600002 13608.00128137  1265.74829918
0.47700002 13626.47739606  1270.12401829
