# SAXS profile: number of points = 501, q_min = 0, q_max = 0.5, delta_q = 0.001
#    q    intensity    error
0.00000000 1646666.22097351 296.39991978
0.00100000 1646580.00524886 543.37141464
0.00200000 1646321.31943483 889.01354065
0.00300000 1645890.39646119 1185.04112767
0.00400000 1645287.08067783 1850.94803609
0.00500000 1644512.06423330 1776.07309967
0.00600000 1643565.15239663 1898.31782830
0.00700000 1642447.13332274 2562.21763447
0.00800000 1641157.75767438 2437.11937304
0.00900000 1639698.45559511 2459.54778853
0.01000000 1638068.62930985 4594.78270361
0.01100000 1636269.81813733 2945.28580088
0.01200000 1634301.93909201 3505.57781305
0.01300000 1632166.34035063 4113.05935909
0.01400000 1629863.25644227 5134.06948539
0.01500000 1627394.09285135 5468.04439547
0.01600000 1624758.70190181 5800.38882509
0.01700000 1621959.14440572 6131.00584088
0.01800000 1618995.97566246 5998.38035974
0.01900000 1615870.17294612 6786.65503261
0.02000000 1612582.50125034 5587.59861959
0.02100000 1609135.72960561 6903.19259299
0.02200000 1605528.37658840 7754.70241124
0.02300000 1601763.78760123 6919.61987741
0.02400000 1597842.39584158 6591.10018338
0.02500000 1593766.57917946 7458.82793121
0.02600000 1589536.80641129 8368.91166854
0.02700000 1585154.96531156 9320.71162293
0.02800000 1580621.55831637 8250.84491279
0.02900000 1575939.97188846 9928.42227875
0.03000000 1571110.78243476 8766.79856895
0.03100000 1566135.65730075 10524.43210132
0.03200000 1561015.81707316 8499.73151545
0.03300000 1555755.35399723 10314.65847251
0.03400000 1550352.73162041 10581.15788153
0.03500000 1544812.36475128 10844.58330134
0.03600000 1539134.34416749 9396.41560539
0.03700000 1533322.25133789 13983.89957892
0.03800000 1527377.24702671 12509.22023207
0.03900000 1521301.90850595 10040.59306112
0.04000000 1515096.55911779 13976.76640553
0.04100000 1508765.21459037 13307.30980970
0.04200000 1502309.22500644 10658.88444592
0.04300000 1495730.49720543 12833.36826172
0.04400000 1489031.95360216 17086.64246112
0.04500000 1482215.88969034 11250.01912548
0.04600000 1475282.75755971 15601.11588644
0.04700000 1468237.08016878 16914.09195018
0.04800000 1461079.84135907 15034.51226711
0.04900000 1453814.13481928 14174.68847428
0.05000000 1446441.48529495 11065.27787777
0.05100000 1438966.18383658 12346.33043246
0.05200000 1431387.00604578 13655.43267404
0.05300000 1423709.57748499 16144.86736132
0.05400000 1415934.89539503 19858.48783399
0.05500000 1408066.67361399 17741.64091517
0.05600000 1400105.52841972 13167.99310926
0.05700000 1392056.61685451 15744.16107154
0.05800000 1383919.12561847 13472.45331696
0.05900000 1375697.23735322 13619.40328590
0.06000000 1367394.62885990 16265.15987018
0.06100000 1359012.36369329 21485.98647406
0.06200000 1350553.50496542 15315.27746220
0.06300000 1342021.51327404 14171.74784278
0.06400000 1333415.19467079 16901.03838286
0.06500000 1324741.86080460 15737.93404254
0.06600000 1316001.90819782 14548.40177583
0.06700000 1307197.15092844 16000.09387615
0.06800000 1298331.46362034 17469.05066072
0.06900000 1289408.53307067 16246.54827734
0.07000000 1280427.87554099 16363.86901571
0.07100000 1271394.24273154 17850.37600402
0.07200000 1262308.76683422 15204.50980880
0.07300000 1253175.69910459 15301.27600302
0.07400000 1243997.55724228 23791.45439722
0.07500000 1234775.01622651 16891.72301374
0.07600000 1225511.54754207 15570.12494146
0.07700000 1216210.73628217 15652.63290988
0.07800000 1206873.73184448 20022.03615026
0.07900000 1197502.52610785 17244.03718476
0.08000000 1188102.52080637 21653.16945747
0.08100000 1178674.23644698 21746.54068276
0.08200000 1169219.21904188 18923.81394820
0.08300000 1159740.64780508 20457.82598741
0.08400000 1150241.87218743 16132.14301465
0.08500000 1140724.74142856 22073.02478286
0.08600000 1131191.42624806 20666.86832789
0.08700000 1121644.64180777 14805.70996710
0.08800000 1112085.73193379 16330.97974041
0.08900000 1102518.41227909 17860.79911784
0.09000000 1092944.52117479 17902.43209782
0.09100000 1083366.00192877 16445.49668191
0.09200000 1073784.76262794 16477.22795674
0.09300000 1064205.11464640 18006.35138597
0.09400000 1054625.67483946 19536.94154459
0.09500000 1045050.76200120 15048.73168015
0.09600000 1035482.11328226 18079.51854779
0.09700000 1025924.35435652 16589.19758985
0.09800000 1016376.15606987 18111.82395274
0.09900000 1006841.76987714 19633.41543582
0.10000000 997320.68955972 18131.29098886
0.10100000 987816.34613095 16624.94988729
0.10200000 978330.99839710 16626.73609982
0.10300000 968866.16791174 22671.46939562
0.10400000 959424.13597596 15110.93085252
0.10500000 950008.41887825 16615.64802794
0.10600001 940615.13201229 19625.93565291
0.10700001 931252.42657994 21120.80602873
0.10800001 921917.75339276 18088.02717282
0.10900001 912615.71284906 19575.60796195
0.11000001 903346.56228400 16544.79306699
0.11100001 894111.33718678 24033.71387493
0.11200001 884913.34786718 19499.06653821
0.11300001 875752.14859729 17970.43493528
0.11400001 866630.68524254 16444.31802675
0.11500001 857550.39111890 22382.06626213
0.11600001 848512.60294177 16380.53657117
0.11700001 839518.43374601 17831.37237253
0.11800001 830568.51086299 16308.21347888
0.11900001 821664.32707724 17747.95030083
0.12000001 812807.58911291 14752.45843731
0.12100001 804001.12502217 20598.50979343
0.12200001 795243.87553858 20541.15027288
0.12300001 786538.38127446 16092.57603907
0.12400001 777884.74198463 16043.87355938
0.12500001 769283.75488008 17447.35638281
0.12600001 760738.57755881 18839.69176104
0.12700001 752248.09500714 18776.11333623
0.12800001 743813.92451779 15832.08012952
0.12900001 735437.23898532 15775.12951975
0.13000001 727118.74081278 15716.67232347
0.13100001 718858.63747177 15656.74186216
0.13200001 710658.26380625 18430.92294065
0.13300001 702519.50902268 16944.77135645
0.13400001 694441.05148486 16874.91834666
0.13500001 686425.37498734 16803.69397195
0.13600001 678471.64886701 16731.11164994
0.13700001 670581.68784265 16657.24991146
0.13800001 662754.54211142 16582.11942557
0.13900001 654992.88038172 17881.30647767
0.14000001 647295.44862009 17797.38919914
0.14100001 639663.68387244 13624.83710907
0.14200001 632097.12745654 14914.33242578
0.14300001 624598.14210034 14840.45255629
0.14400001 617162.97862200 16107.95450184
0.14500001 609796.68357327 16025.45760026
0.14600001 602496.96023800 17270.57617995
0.14700001 595266.28414844 15857.89455783
0.14800001 588100.37265902 17087.25713376
0.14900001 581003.70909720 19608.87610719
0.15000001 573974.41727448 13000.52116467
0.15100001 567013.74372489 18099.07955370
0.15200001 560121.48685737 17996.70422194
0.15300001 553298.49400630 16615.55455908
0.15400001 546541.34994524 17789.92178024
0.15500001 539854.51756516 13895.85593791
0.15600001 533233.42481659 13813.41252180
0.15700001 526684.10195518 13730.65518602
0.15800001 520199.30199953 13647.42933210
0.15900001 513785.19690689 16030.09890013
0.16000001 507436.46654167 15930.96861906
0.16100001 501158.64510049 13395.97121588
0.16200001 494947.10028733 18152.18575993
0.16300001 488802.88342550 13227.00664991
0.16400001 482726.09308640 15531.71277830
0.16500001 476716.07102128 11870.23072884
0.16600001 470773.60957285 18868.60716252
0.16700001 464895.92682344 15229.99128182
0.16800001 459083.96863101 13965.33498515
0.16900001 453340.13990130 16184.24375866
0.17000001 447660.13239499 13778.97952576
0.17100001 442045.33498785 11404.77018123
0.17200001 436495.85060309 13592.48142966
0.17300001 431010.33172026 16874.05528372
0.17400001 425588.74549187 15640.38713546
0.17500001 420230.81485262 13312.91284327
0.17600001 414934.40959682 12118.16000460
0.17700001 409702.41664314 15314.67705744
0.17800001 404530.90626460 15206.31748471
0.17900001 399421.73563840 10784.38737162
0.18000001 394373.74528544 10707.24769026
0.18100001 389387.62690015 12756.33925981
0.18200001 384459.04324783 14774.76172994
0.18300001 379590.91046670 10476.70962379
0.18400001 374781.54449652 13520.24485642
0.18500001 370032.13161486 12388.67635173
0.18600001 365338.73292763 11272.52713704
0.18700001 360702.62404601 14240.54027013
0.18800001 356123.13135082 12115.30950096
0.18900001 351601.58783666 10020.64572679
0.19000001 347131.83066055 13923.45838566
0.19100001 342721.23316556 10857.40917970
0.19200001 338361.73966124 12734.24467386
0.19300001 334058.56548319 14581.65707236
0.19400001 329806.16728621 11576.19701877
0.19500001 325607.63815246 11487.43801686
0.19600001 321460.37980789 9499.15467222
0.19700001 317364.09684553 11310.85694610
0.19800001 313318.90167798 13093.59751991
0.19900001 309324.08500920 12063.63988549
0.20000001 305377.25869451 11048.54974173
0.20100001 301480.68380288 10048.35166606
0.20200001 297630.59355250 9969.13720222
0.20300001 293829.79626692 14385.90750517
0.20400001 290075.02131215 14271.69172312
0.20500001 286366.23544771 10618.46051230
0.20600001 282703.21636251 10533.52233957
0.20700001 279085.69119351 13061.21096525
0.20800001 275511.29804321 14683.37532330
0.20900001 271983.05662271 8567.46668861
0.21000001 268496.06011569 10197.48084525
0.21100001 265052.27547929 10957.26158630
0.21200001 261650.14969439 10031.66721352
0.21300001 258288.64612022 8291.06593242
0.21400001 254969.11093519 8222.75421640
0.21500001 251690.27587755 10601.19492116
0.21600001 248450.20867526 9704.46560967
0.21700001 245249.39385895 8821.62111419
0.21800001 242087.14622041 8747.81944228
0.21900001 238961.97166551 8674.31998159
0.22000001 235873.97171727 12510.75605142
0.22100001 232824.26092456 8528.35308092
0.22200001 229810.90300701 9993.32758979
0.22300001 226831.74202629 9145.85627097
0.22400001 223887.57950789 9067.44739884
0.22500001 220980.30405065 7491.23266156
0.22600001 218104.98959258 8169.12277149
0.22700001 215265.43712988 8098.28612779
0.22800001 212457.85622214 8027.72047698
0.22900001 209682.10612427 10127.64620475
0.23000001 206939.62566742 9321.59587902
0.23100001 204229.56310120 7107.18913204
0.23200001 201549.20060547 7044.14489430
0.23300001 198900.06485062 7679.53186708
0.23400001 196281.99439513 8994.62281856
0.23500001 193692.13667002 10970.72313986
0.23600001 191133.12915975 7474.26136930
0.23700001 188602.64387291 7406.42617520
0.23800001 186100.96887159 8673.23606449
0.23900001 183627.02280556 9915.85970052
0.24000001 181180.85610235 6549.68825790
0.24100001 178762.96753089 9084.73443964
0.24200001 176371.65045722 8357.37105224
0.24300001 174007.22469270 7642.39767001
0.24400001 171668.51589998 7570.58190930
0.24500001 169355.90122649 7499.07966105
0.24600001 167069.03413275 6189.90800743
0.24700001 164807.60010075 9196.26452066
0.24800001 162570.81403635 6072.02019150
0.24900001 160357.82166599 6614.76045665
0.25000001 158170.16086309 7146.12820586
0.25100001 156005.29082166 6486.70029924
0.25200001 153865.65802762 5839.20199840
0.25300001 151749.15462339 6937.97167762
0.25400001 149655.16334686 8014.03437638
0.25500001 147583.70822494 6800.65759676
0.25600001 145535.44468281 5610.39165796
0.25700001 143508.55150325 7219.91556773
0.25800001 141504.46809281 6047.19373006
0.25900001 139522.11679963 7073.77165644
0.26000001 137561.22187164 7001.17871842
0.26100001 135620.85832760 5329.89998447
0.26200001 133702.69225839 5802.02860509
0.26300001 131804.37208210 8351.12541028
0.26400001 129926.95455187 6713.97569416
0.26500001 128070.42612329 5621.01126853
0.26600001 126233.09120709 7077.88975890
0.26700001 124416.95920403 5001.56199668
0.26800001 122620.85945867 4947.75191329
0.26900001 120842.91700332 6362.37988130
0.27000001 119085.77913100 5324.92086583
0.27100001 117347.05949145 4787.76025382
0.27200001 115629.01248181 7102.51242781
0.27300001 113928.99332191 5618.97821655
0.27400001 112245.98030437 5556.17628801
0.27500001 110584.48319582 4578.19782097
0.27600001 108939.14877534 4979.06403042
0.27700001 107313.79266129 5817.48097549
0.27800001 105705.54326925 4866.15491470
0.27900001 104116.85780906 5247.48988193
0.28000001 102544.37526026 6051.14387050
0.28100001 100990.61976309 4699.09375998
0.28200001 99455.08737607  5066.24239072
0.28300001 97936.63876248  5006.52121050
0.28400001 96435.31776646  4534.87103261
0.28500001 94951.95755294  4073.43917182
0.28600001 93485.50242068  4427.00617667
0.28700001 92036.19659441  4771.15665728
0.28800001 90603.24708940  5498.71132613
0.28900001 89188.91389800  5043.63331967
0.29000001 87790.06782077  4598.44397012
0.29100001 86408.62061998  4541.63731476
0.29200001 85043.70049345  4111.43789497
0.29300001 83695.35082582  4060.06166075
0.29400001 82362.70094346  4737.91459605
0.29500001 81047.64586131  5037.92190522
0.29600001 79748.15882651  3908.05870829
0.29700001 78464.77625576  4208.85079760
0.29800001 77197.52707345  3808.54017846
0.29900001 75946.76129102  4442.88574585
0.30000001 74711.23550038  3373.21244253
0.30100001 73492.75254498  3662.14403268
0.30200001 72288.04991817  4271.13963161
0.30300001 71100.62954384  3242.18886069
0.30400001 69928.77633181  3519.16583550
0.30500001 68772.08261841  3472.30261579
0.30600001 67629.73118022  3737.21912195
0.30700001 66504.21298499  3686.99374244
0.30800001 65393.37147975  3637.17949390
0.30900001 64297.72340379  3886.79756378
0.31000001 63217.67912495  4718.56779329
0.31100001 62151.42222926  3199.55536785
0.31200001 61101.18832206  3442.44111305
0.31300001 60064.96516350  3677.77799109
0.31400001 59044.72490430  2789.86338382
0.31500001 58038.28289965  3301.21768764
0.31600002 57046.79676894  4068.86297220
0.31700002 56069.77060766  3209.43382154
0.31800002 55107.13699167  2636.87662990
0.31900002 54159.02109681  3639.48639003
0.32000002 53225.39457191  2819.08315698
0.32100002 52305.40001886  3284.25622269
0.32200002 51400.59342909  4233.61007825
0.32300002 50508.23425550  3191.11039136
0.32400002 49630.46603782  2661.43386730
0.32500002 48766.44627137  2861.61520271
0.32600002 47916.60250115  2585.34041037
0.32700002 47079.75054532  3706.11813842
0.32800002 46257.39848234  2282.80272320
0.32900002 45447.70000016  2474.62738219
0.33000002 44652.41575280  2438.69180182
0.33100002 43867.73669950  3495.38142574
0.33200002 43099.63366331  2583.39216412
0.33300002 42343.06852412  2333.52661687
0.33400002 41599.86320112  3135.58983727
0.33500002 40868.61050400  2471.73368033
0.33600002 40151.26368298  2435.57577035
0.33700002 39445.56526570  2599.85732978
0.33800002 38753.29266974  2561.78653325
0.33900002 38072.77890920  2524.22536122
0.34000002 37405.07326327  2104.59654683
0.34100002 36749.47654145  2450.82270662
0.34200002 36106.54106964  2043.44978861
0.34300002 35474.64372471  2562.68838404
0.34400002 34855.91230322  1984.17290183
0.34500002 34248.20104258  1777.48171829
0.34600002 33653.34446393  2452.31932723
0.34700002 33068.20601147  1898.77647911
0.34800002 32496.24143443  2211.53181556
0.34900002 31934.88355809  1844.23961283
0.35000002 31384.84531207  1817.65340234
0.35100002 30846.80936497  2117.32509509
0.35200002 30318.15981681  1605.34663833
0.35300002 29801.18108179  1740.68706943
0.35400002 29295.33406926  1871.97193569
0.35500002 28800.07242178  1537.92394017
0.35600002 28314.49425458  1667.86536306
0.35700002 27839.97357240  1794.00798198
0.35800002 27376.31949186  1769.05784936
0.35900002 26922.44838306  2180.71842232
0.36000002 26478.97947597  1720.60416785
0.36100002 26044.70440201  1555.65026762
0.36200002 25621.42612415  2511.15609337
0.36300002 25206.87167336  1376.29525856
0.36400002 24801.91058518  1357.90466886
0.36500002 24406.43450571  1741.88731318
0.36600002 24020.55059271  2247.96333370
0.36700002 23643.30714977  1957.66592473
0.36800002 23276.68073850  1546.03720788
0.36900002 22917.97865879  1271.94787581
0.37000002 22567.86849185  2009.44310570
0.37100002 22226.33897655  1240.22977364
0.37200002 21894.28492953  1347.48382982
0.37300002 21570.09239823  1210.08224086
0.37400002 21254.24451110  1912.88209661
0.37500002 20947.11639657  1417.70090488
0.37600002 20648.17012263  1517.95029847
0.37700002 20356.64949959  1615.91091383
0.37800002 20072.84586847  1255.25547585
0.37900002 19797.47224958  1241.30156885
0.38000002 19529.64713003  1116.11938635
0.38100002 19268.38151542  1435.30180708
0.38200002 19015.48530505  1201.68365078
0.38300002 18769.21871693  1405.43916410
0.38400002 18530.73056990  1177.16471522
0.38500002 18298.25492577  1165.41591143
0.38600002 18073.63654984  1259.00958171
0.38700002 17855.32451864  1143.09792984
0.38800002 17643.67000449  1544.26229030
0.38900002 17438.05068811  1530.18902038
0.39000002 17239.99120581  1314.46319176
0.39100002 17047.12075385  1002.37074782
0.39200002 16861.06103832  1192.75151436
0.39300002 16680.66956225  1182.99314140
0.39400002 16507.53705979  1173.68594056
0.39500002 16338.94743919  1746.96034297
0.39600002 16176.29176186  2119.25608413
0.39700002 16019.19595970  956.34604410
0.39800002 15867.76165619  1139.62269614
0.39900002 15721.64335262  943.29864585
0.40000002 15580.49435374  1405.75016967
0.40100002 15444.99577614  1117.59994731
0.40200002 15314.57231225  1388.64891021
0.40300002 15188.52478169  920.42464538
0.40400002 15067.88440122  1098.44882489
0.40500002 14951.93643749  1092.68756662
0.40600002 14840.71764301  996.62844054
0.40700002 14733.77813685  991.87799117
0.40800002 14631.61370399  987.41449760
0.40900002 14533.43331486  1161.94804858
0.41000002 14439.91778714  979.24307113
0.41100002 14350.38342800  975.53911166
0.41200002 14264.50930801  972.05503285
0.41300002 14183.39088810  1145.02520065
0.41400002 14105.51612948  965.87526273
0.41500002 14031.69637850  1050.69347461
0.41600002 13961.08349853  960.59239563
0.41700002 13894.32165358  871.17400896
0.41800002 13832.19532820  956.28886933
0.41900002 13771.31826990  1388.14894738
0.42000002 13715.04629174  1212.54730011
0.42100002 13662.34017692  1037.79140901
0.42200002 13612.71279390  1381.96266832
0.42300002 13565.64013460  1466.71708085
0.42400002 13521.42785880  1120.58838690
0.42500002 13480.69478364  861.41643749
0.42600002 13441.77226012  1119.22922027
0.42700002 13407.02138018  1291.09622009
0.42800002 13373.68380280  946.65625284
0.42900002 13344.39600965  946.78494175
0.43000002 13316.97848755  1119.22551002
0.43100002 13291.03040177  1378.01409736
0.43200002 13268.58700377  1034.15372008
0.43300002 13248.31581278  1121.20502037
0.43400002 13230.15685732  863.26777585
0.43500002 13214.06315970  950.61974876
0.43600002 13200.40424766  1211.40115521
0.43700002 13188.22842260  866.46664843
0.43800002 13178.10831157  1562.00125219
0.43900002 13170.42825129  1043.09796693
0.44000002 13164.15383126  870.80881721
0.44100002 13159.98929303  1221.51026407
0.44200002 13157.36903720  961.73793535
0.44300002 13156.55243676  963.84907719
0.44400002 13157.59980760  878.26982878
0.44500002 13159.00140520  1056.40468287
0.44600002 13162.37678982  1412.05984893
0.44700002 13168.16685759  1150.37111120
0.44800002 13173.75419947  975.97762612
0.44900002 13182.34565484  1156.75088603
0.45000002 13191.56336791  1338.61395620
0.45100002 13201.73641468  1074.09332560
0.45200002 13213.25157014  987.62453542
0.45300002 13225.65393349  990.73378311
0.45400002 13239.54651575  993.95900178
0.45500002 13254.38233625  997.25977424
0.45600002 13270.02255424  1455.45614273
0.45700002 13286.67585391  912.79467442
0.45800002 13303.86084353  915.97086249
0.45900002 13322.14014704  919.22771371
0.46000002 13341.82499702  1568.39831186
0.46100002 13361.24720942  1203.71481815
0.46200002 13382.19688748  1022.33297967
0.46300002 13403.83792977  1026.19788054
0.46400002 13425.34146628  1404.62641748
0.46500002 13448.04851888  1128.02236323
0.46600002 13471.10339551  1038.01592134
0.46700002 13494.49572178  1326.23910240
0.46800002 13519.24349503  951.07882495
0.46900002 13543.38966868  1050.28991859
0.47000002 13568.32223628  1054.46221257
0.47100002 13593.83578623  1154.93234314
0.47200002 13619.70553949  1159.58178459
0.47300002 13646.05016689  1164.28105542
0.47400002 13671.95524309  1363.77760014
0.47500002 13698.62014151  1564.93043914
0.47600002 13725.94295758  1276.71864471
0.47700002 13752.60895697  1084.66831985
0.47800002 13779.70509164  1089.07904354
