# SAXS profile: number of points = 501, q_min = 0, q_max = 0.5, delta_q = 0.001
#    q    intensity    error
0.00000000 1646666.22097350 345.79990640
0.00100000 1646580.02373218 740.96102828
0.00200000 1646321.38850560 1111.26697243
0.00300000 1645890.55573927 1086.28780548
0.00400000 1645287.36419237 1357.36212704
0.00500000 1644512.50376381 1480.06131197
0.00600000 1643565.78781970 2761.19063595
0.00700000 1642447.99548180 2956.40651474
0.00800000 1641158.87175834 2215.56457041
0.00900000 1639699.85513933 2705.50487663
0.01000000 1638070.37722346 2973.09786304
0.01100000 1636271.95078994 2945.28963966
0.01200000 1634304.43612043 4780.34068524
0.01300000 1632169.28942727 3770.31122487
0.01400000 1629866.65614680 4767.36018057
0.01500000 1627398.02249671 4296.33097070
0.01600000 1624763.14724725 4971.77545283
0.01700000 1621964.17133861 4817.23380497
0.01800000 1619001.60798421 6459.81670653
0.01900000 1615876.46449196 5332.39257343
0.02000000 1612589.45618905 5587.62271845
0.02100000 1609143.37510770 5310.17337861
0.02200000 1605536.76306229 6646.92250106
0.02300000 1601772.97892218 8072.93618123
0.02400000 1597852.37600772 7190.33601990
0.02500000 1593777.34131182 11188.31744699
0.02600000 1589548.48790497 9656.50750569
0.02700000 1585167.51254228 7323.47424337
0.02800000 1580635.07360597 7563.33917406
0.02900000 1575954.45444598 8510.15444475
0.03000000 1571126.22635563 13150.32711906
0.03100000 1566152.15905947 13531.55527690
0.03200000 1561033.38697057 10817.96186996
0.03300000 1555773.99478773 8727.89251312
0.03400000 1550372.52216777 8953.40172863
0.03500000 1544833.29039260 9176.31016868
0.03600000 1539156.41880717 11105.01407490
0.03700000 1533345.47236444 10488.08351602
0.03800000 1527401.78279667 10722.36101146
0.03900000 1521327.70210887 10040.76329891
0.04000000 1515123.65506510 13977.01636566
0.04100000 1508793.63140175 12357.02041413
0.04200000 1502339.02505869 11628.10459342
0.04300000 1495761.68197562 10859.23031521
0.04400000 1489064.42022278 12061.42236396
0.04500000 1482249.88866129 11250.27717768
0.04600000 1475318.25427311 14561.39184659
0.04700000 1468274.10239065 11628.73143176
0.04800000 1461118.31943140 12887.06417700
0.04900000 1453854.08649604 16355.85923440
0.05000000 1446483.08581809 15491.83457051
0.05100000 1439009.44724233 11224.27421136
0.05200000 1431431.75709466 12517.87129914
0.05300000 1423756.05075037 11532.42454869
0.05400000 1415983.02612425 14018.23261235
0.05500000 1408116.47245520 20107.90416468
0.05600000 1400157.04648013 15562.74629785
0.05700000 1392109.89071708 14533.62793749
0.05800000 1383974.20637543 15922.62398782
0.05900000 1375754.10166068 17334.50249055
0.06000000 1367453.22300849 17517.07660512
0.06100000 1359072.81268664 13903.31552351
0.06200000 1350615.73979279 19144.97900647
0.06300000 1342085.58234036 20614.43550858
0.06400000 1333481.07218058 14301.58516797
0.06500000 1324809.76921356 14427.17906161
0.06600000 1316071.74191592 19839.78243766
0.06700000 1307268.92523353 17334.38675983
0.06800000 1298405.06466969 17470.04096289
0.06900000 1289484.16874696 18955.41816805
0.07000000 1280505.48272406 13637.38402963
0.07100000 1271473.94767335 15105.11120585
0.07200000 1262390.53865530 16587.81245502
0.07300000 1253259.44091543 22257.88871356
0.07400000 1244083.43163936 15395.53318804
0.07500000 1234862.94479997 18300.66969973
0.07600000 1225601.47345267 21233.54652301
0.07700000 1216302.73508770 18499.96546812
0.07800000 1206967.88887349 17163.08418466
0.07900000 1197598.78464386 21556.77913468
0.08000000 1188200.98017238 15880.30684497
0.08100000 1178774.68634767 18848.60811904
0.08200000 1169322.04536240 16013.86616269
0.08300000 1159845.47493966 18998.26977114
0.08400000 1150349.02730690 22000.42617991
0.08500000 1140834.11964446 22075.14125144
0.08600000 1131303.06944652 16239.85632439
0.08700000 1121758.34711057 20730.09522804
0.08800000 1112201.65551010 17817.47135805
0.08900000 1102636.55060333 14885.59413232
0.09000000 1093064.93339442 17904.40445007
0.09100000 1083488.59354438 16447.35762272
0.09200000 1073909.62772111 19475.35201381
0.09300000 1064332.28216725 16507.79447215
0.09400000 1054755.00763569 19539.33743475
0.09500000 1045182.40221260 16555.69002921
0.09600000 1035616.11518891 21095.50125805
0.09700000 1026060.41120576 22624.63313073
0.09800000 1016514.73137368 18114.29336477
0.09900000 1006982.41197126 18125.68426780
0.10000000 997463.75509092 25689.68022048
0.10100000 987961.74493437 19650.56003095
0.10200000 978478.62206637 16629.24496420
0.10300000 969016.16016507 21163.31393354
0.10400000 959576.43214407 16624.66246900
0.10500000 950162.85340715 18129.10809597
0.10600001 940771.90584236 21139.14571895
0.10700001 931411.59293664 21124.41592187
0.10800001 922079.02497762 16583.59204467
0.10900001 912779.27363149 18073.03046852
0.11000001 903512.46093178 18052.17981912
0.11100001 894279.39712459 24038.23132627
0.11200001 885083.78271818 16502.38790567
0.11300001 875924.80984151 19471.80943953
0.11400001 866805.66475060 17942.87810517
0.11500001 857727.68651334 22386.69367214
0.11600001 848692.09216413 17873.45630266
0.11700001 839700.19823931 26752.84957583
0.11800001 830752.61297752 17794.72180808
0.11900001 821850.70034560 26627.96394542
0.12000001 812996.12709838 17707.05648229
0.12100001 804191.85502784 17660.05396834
0.12200001 795436.89505969 20546.13596735
0.12300001 786733.58998632 17559.89455582
0.12400001 778082.01089705 18965.74990923
0.12500001 769483.23372994 18906.20394361
0.12600001 760940.33489528 20294.27968799
0.12700001 752452.07626985 17336.49665426
0.12800001 744020.10367092 14396.78968454
0.12900001 735645.47425364 15779.59616647
0.13000001 727329.17351393 18579.62461316
0.13100001 719071.14523198 18508.89215074
0.13200001 710872.88636506 17018.29770183
0.13300001 702736.27507771 18362.49973344
0.13400001 694659.78246736 16880.23350979
0.13500001 686646.26348365 16809.10132260
0.13600001 678694.45889188 19526.04050299
0.13700001 670806.67272558 22217.11804828
0.13800001 662981.63787114 19352.43492204
0.13900001 655221.88248249 19263.52425342
0.14000001 647526.51000967 16434.22359909
0.14100001 639896.77692639 14992.78219049
0.14200001 632332.03827545 20345.28429110
0.14300001 624835.12263764 13496.43928557
0.14400001 617401.74598910 14771.33746955
0.14500001 610037.42047852 16031.78416643
0.14600001 602739.60893932 15948.49080489
0.14700001 595510.90349328 14542.37694936
0.14800001 588346.74228499 24984.14558985
0.14900001 581251.84078656 13078.16703474
0.15000001 574224.56503362 22110.51791986
0.15100001 567265.65101492 15520.38894410
0.15200001 560375.20582037 19290.91737065
0.15300001 553553.96563491 14065.80693053
0.15400001 546798.66841291 16526.99053271
0.15500001 540113.48789164 15166.38745574
0.15600001 533494.06281125 12563.78577215
0.15700001 526946.42382625 17484.08316775
0.15800001 520463.25724735 14895.65912548
0.15900001 514050.70730342 13570.93931337
0.16000001 507703.73961109 13487.15047939
0.16100001 501427.65464241 14621.63109958
0.16200001 495217.66871151 14529.68708589
0.16300001 489074.95804187 15640.61789654
0.16400001 482999.65548733 13149.66624143
0.16500001 476991.20715132 13064.78978068
0.16600001 471050.17578690 12979.78820662
0.16700001 465173.94019029 15239.09900014
0.16800001 459363.51100695 11644.86555385
0.16900001 453621.04734554 12724.07097885
0.17000001 447942.32917137 11489.72128579
0.17100001 442328.92131505 11412.08670882
0.17200001 436780.62553162 12467.90354457
0.17300001 431296.64412367 11256.84294323
0.17400001 425876.40513849 16768.88424426
0.17500001 420519.65412181 18872.92296831
0.17600001 415224.55858655 13229.05506136
0.17700001 409993.85797474 18609.62209242
0.17800001 404823.30371259 14130.35808349
0.17900001 399715.36584185 16188.47308123
0.18000001 394668.49204141 11786.77507157
0.18100001 389683.56615401 15957.54278778
0.18200001 384755.95270162 12673.86168068
0.18300001 379889.02992673 14678.91280979
0.18400001 375080.63966546 13531.03471515
0.18500001 370332.19442528 14465.17619762
0.18600001 365639.75856535 11281.81528353
0.18700001 361004.66221363 11198.36515093
0.18800001 356426.18823617 13136.08778807
0.18900001 351905.41289605 13038.09616382
0.19000001 347436.61770241 14931.08935124
0.19100001 343026.86738146 9879.17424738
0.19200001 338668.05809708 11765.32889422
0.19300001 334365.83865668 12649.06027408
0.19400001 330114.14168219 12552.59083062
0.19500001 325916.34327684 12456.52322868
0.19600001 321769.75564284 13311.61542000
0.19700001 317674.23117826 13208.89515661
0.19800001 313629.73966399 9361.84817140
0.19900001 309635.42851639 13933.59494174
0.20000001 305689.23668324 11059.83710590
0.20100001 301793.11821684 14630.93106264
0.20200001 297943.70028921 10886.86332312
0.20300001 294143.33214232 10800.94366677
0.20400001 290388.96841395 9822.40732087
0.20500001 286680.75839419 13287.65377964
0.20600001 283018.16645845 9666.48593230
0.20700001 279401.03355400 9589.04392484
0.20800001 275827.16040097 12970.77283099
0.20900001 272299.14065615 11150.65033697
0.21000001 268812.45301231 10209.49744803
0.21100001 265369.06090634 10970.35749647
0.21200001 261967.19155385 10880.80781557
0.21300001 258605.85074524 9131.37302150
0.21400001 255286.50503037 8232.99017646
0.21500001 252007.93824959 8981.56334384
0.21600001 248768.07716446 12146.10194180
0.21700001 245567.35520751 8833.05818444
0.21800001 242405.24277015 9555.61512179
0.21900001 239280.00996274 8685.86477233
0.22000001 236192.16555437 7829.77065834
0.22100001 233142.48781542 10092.73877475
0.22200001 230129.19774414 10007.16863709
0.22300001 227149.86746981 9158.68308945
0.22400001 224205.78707467 9080.33480590
0.22500001 221298.37206488 10502.82123485
0.22600001 218422.98354289 11155.95441200
0.22700001 215583.27122262 9584.83269182
0.22800001 212775.57664675 10232.37796483
0.22900001 209999.59650449 10142.98099084
0.23000001 207256.97329762 8617.74535726
0.23100001 204546.64073795 7830.04577775
0.23200001 201865.84503240 7760.73277930
0.23300001 199216.52454577 11887.25058185
0.23400001 196598.25847655 9702.12451468
0.23500001 194007.95711311 8241.45840795
0.23600001 191448.57374431 8847.79625407
0.23700001 188917.80043682 7418.80237405
0.23800001 186415.61484929 10692.80017351
0.23900001 183941.20616247 9932.82560259
0.24000001 181494.61593682 10497.64908233
0.24100001 179076.31552462 10400.75289764
0.24200001 176684.36389435 9660.21805287
0.24300001 174319.57730826 7656.11619753
0.24400001 171980.26392583 7584.32999789
0.24500001 169666.99865233 10017.14007429
0.24600001 167379.71907718 6821.56077369
0.24700001 165117.59667260 7985.08735283
0.24800001 162880.17296765 6083.57474814
0.24900001 160666.43291876 7229.98982338
0.25000001 158478.12954751 8353.38260363
0.25100001 156312.39203702 6499.46956838
0.25200001 154172.21186494 7606.08643220
0.25300001 152054.85675038 5793.29031627
0.25400001 149960.11292566 9177.55934525
0.25500001 147887.96660855 6246.78800509
0.25600001 145838.78157568 5622.08529574
0.25700001 143810.96031155 6122.03287012
0.25800001 141806.17533667 6060.08718974
0.25900001 139822.88423243 7089.02056600
0.26000001 137860.98163214 5936.98345490
0.26100001 135919.78597100 6409.97740969
0.26200001 134000.62387784 5286.32486211
0.26300001 132101.41610145 7323.70285520
0.26400001 130223.06594287 6211.64053940
0.26500001 128365.49594071 6146.14023647
0.26600001 126527.12393475 7094.37617472
0.26700001 124710.01798295 5514.67725616
0.26800001 122912.79825548 10415.01645303
0.26900001 121133.89828146 6868.29235758
0.27000001 119375.55711435 7278.92493950
0.27100001 117635.81733772 7199.31236176
0.27200001 115916.67401942 4746.78802573
0.27300001 114215.35904085 6102.52692235
0.27400001 112531.25905864 6498.68051819
0.27500001 110868.54436509 4589.95795394
0.27600001 109221.95829944 4538.17258212
0.27700001 107595.42839227 6281.42140682
0.27800001 105986.03040796 6209.72181549
0.27900001 104396.06615168 5700.02548165
0.28000001 102822.31664611 5200.75302210
0.28100001 101267.21623191 5140.32413922
0.28200001 99730.42935172  5503.62400426
0.28300001 98210.66152054  6275.66156819
0.28400001 96708.12367958  5374.55422787
0.28500001 95223.26130590  4085.07810338
0.28600001 93755.55061842  4843.41197420
0.28700001 92304.89021834  5183.84288003
0.28800001 90870.62581460  4333.16599707
0.28900001 89454.84433069  4280.41450383
0.29000001 88054.57347747  5381.01523991
0.29100001 86671.70587491  4935.08716612
0.29200001 85305.36424698  5248.83931057
0.29300001 83955.56004722  4442.92844801
0.29400001 82621.50598223  4387.20217533
0.29500001 81304.94180390  3970.93354567
0.29600001 80003.95841275  3920.59416761
0.29700001 78719.14639431  3518.74601040
0.29800001 77450.41301258  3821.01630686
0.29900001 76198.11071111  4457.58968762
0.30000001 74961.15993639  5415.19445016
0.30100001 73741.03941679  4676.65694121
0.30200001 72534.84362620  3626.37967877
0.30300001 71345.80905581  3253.36904696
0.30400001 70172.41186633  4815.58199230
0.30500001 69014.19048515  3801.30179188
0.30600001 67870.26499267  3750.51102105
0.30700001 66743.10981589  4008.59136532
0.30800001 65630.67747404  3041.98204494
0.30900001 64533.45078299  3300.88616383
0.31000001 63451.63377368  3552.02262682
0.31100001 62383.85224586  3503.47730800
0.31200001 61331.94081096  2879.53475741
0.31300001 60294.09637599  3407.82248852
0.31400001 59272.35572642  3080.68083474
0.31500001 58264.13532145  3590.23618850
0.31600002 57270.99815265  3812.53052754
0.31700002 56292.25434860  2685.14065956
0.31800002 55327.98910875  3706.42216589
0.31900002 54378.08147821  2871.16283800
0.32000002 53442.88586942  3859.91261468
0.32100002 52521.10117364  3551.47702952
0.32200002 51614.63131220  3000.87480658
0.32300002 50720.51112635  4190.52882768
0.32400002 49841.08304575  2915.70349624
0.32500002 48975.34340429  2873.87328705
0.32600002 48123.76311136  2360.47069239
0.32700002 47285.24557883  3257.00786970
0.32800002 46461.05698811  2522.13859803
0.32900002 45649.58786027  2485.62017669
0.33000002 44852.65194145  2672.32112922
0.33100002 44066.20706709  2852.84638062
0.33200002 43296.31903561  3676.50710501
0.33300002 42537.96289308  2557.38245024
0.33400002 41793.08096909  2940.14338541
0.33500002 41059.92771732  2276.36250045
0.33600002 40340.87884566  2039.23152222
0.33700002 39633.43771667  2210.35692613
0.33800002 38939.36488158  4158.14027580
0.33900002 38257.06252221  1951.11028103
0.34000002 37587.49028823  2114.86024122
0.34100002 36930.14186427  2273.41964083
0.34200002 36285.45682712  2053.57552639
0.34300002 35651.73858729  2943.40767716
0.34400002 35031.21888500  3081.87162736
0.34500002 34421.68368500  2501.07965500
0.34600002 33825.00947915  1936.65100945
0.34700002 33238.01050206  2429.03392253
0.34800002 32664.34306961  1709.97844068
0.34900002 32101.18635354  2022.37483606
0.35000002 31549.31141897  2823.82125230
0.35100002 31009.42096047  1964.75700511
0.35200002 30478.99647346  2098.02182162
0.35300002 29960.18549460  2545.41748018
0.35400002 29452.58159225  2195.69006170
0.35500002 28955.48991530  2164.71252860
0.35600002 28468.07814269  1676.91222242
0.35700002 27991.69506851  2555.36196384
0.35800002 27526.31504028  2371.66741620
0.35900002 27070.55986301  1607.99133203
0.36000002 26625.23652764  1730.10795151
0.36100002 26189.16081364  2417.52154922
0.36200002 25764.12660942  1543.14243636
0.36300002 25347.71201659  1522.38365583
0.36400002 24940.92297076  1502.06715706
0.36500002 24543.56278671  1751.67415906
0.36600002 24155.90285551  1329.78251519
0.36700002 23776.84110421  1706.22619846
0.36800002 23408.45516755  1684.35547137
0.36900002 23047.81323623  1790.81517328
0.37000002 22695.91324711  1389.33039523
0.37100002 22352.59157983  1372.00213616
0.37200002 22018.77022486  1355.14527768
0.37300002 21692.73200699  1338.65855556
0.37400002 21375.05628558  1442.81636762
0.37500002 21066.11689112  1663.38066852
0.37600002 20765.30379433  1409.13358224
0.37700002 20471.98967035  1508.99043009
0.37800002 20186.47714419  1262.36140801
0.37900002 19909.25827598  1702.24166324
0.38000002 19639.61444846  1234.64442079
0.38100002 19376.48335886  1776.43607850
0.38200002 19121.84808821  1098.55022471
0.38300002 18873.71782983  1413.26405805
0.38400002 18633.48729680  1076.08394237
0.38500002 18399.13217742  1065.30980354
0.38600002 18172.80366307  1265.91756314
0.38700002 17952.70409690  1462.78639911
0.38800002 17739.18390756  1242.09771605
0.38900002 17531.84339489  1230.73546463
0.39000002 17331.98589147  1016.52102069
0.39100002 17137.23821454  1612.27144761
0.39200002 16949.40324020  1199.00084202
0.39300002 16767.24749631  1486.41656097
0.39400002 16592.36609674  983.09773781
0.39500002 16421.97905345  1658.29152338
0.39600002 16257.55326051  1452.20601380
0.39700002 16098.68897118  961.09177711
0.39800002 15945.42969639  1240.63421631
0.39900002 15797.52392061  1516.56236823
0.40000002 15654.65330754  941.62744106
0.40100002 15517.36550935  1122.83662146
0.40200002 15385.19058893  1116.04177820
0.40300002 15257.41232939  1294.43892336
0.40400002 15135.04364605  1287.23552309
0.40500002 15017.30446065  1097.46466198
0.40600002 14904.36236163  909.91136529
0.40700002 14795.62289411  996.04138043
0.40800002 14691.77156177  991.47425082
0.40900002 14591.83847165  1256.35735194
0.41000002 14496.52048738  983.08158343
0.41100002 14405.27561736  1068.29529040
0.41200002 14317.66268563  886.97924540
0.41300002 14234.71842689  883.97605619
0.41400002 14155.23652609  1145.51257015
0.41500002 14079.66997029  1054.28573733
0.41600002 14007.34177753  1051.39112364
0.41700002 13938.84419028  1048.75868657
0.41800002 13874.97646059  1133.65500543
0.41900002 13812.41301219  1044.21847320
0.42000002 13754.50770908  955.45692328
0.42100002 13699.99139993  867.20949671
0.42200002 13648.72970862  952.61313515
0.42300002 13599.94869786  864.95677817
0.42400002 13553.98225271  1296.09961433
0.42500002 13511.57655198  1208.74569562
0.42600002 13470.96775614  1207.94173593
0.42700002 13434.51246448  862.49574109
0.42800002 13399.48720725  1034.70845118
0.42900002 13368.50719253  1034.72250573
0.43000002 13339.43451436  1034.87337866
0.43100002 13311.81358707  948.86611745
0.43200002 13287.74542616  1208.25474886
0.43300002 13265.73876051  1468.11937820
0.43400002 13245.95250044  1210.01781826
0.43500002 13228.15874738  1124.65811000
0.43600002 13212.82315691  1125.93077867
0.43700002 13198.99904231  1127.32656163
0.43800002 13187.24044240  868.37982428
0.43900002 13177.95509475  1304.61761621
0.44000002 13170.01611804  1132.55558974
0.44100002 13164.24570228  1221.90534399
0.44200002 13159.97235801  874.48020463
0.44300002 13157.50873556  1051.54814798
0.44400002 13156.96727317  966.05036781
0.44500002 13156.77202604  1320.28213538
0.44600002 13158.47276365  1235.18589686
0.44700002 13162.70573717  1149.89402769
0.44800002 13166.64977467  1152.80607565
0.44900002 13173.55727826  978.13667427
0.45000002 13181.25031061  1426.73860124
0.45100002 13189.82476531  1162.55120991
0.45200002 13199.69183036  986.61101262
0.45300002 13210.53442856  1169.52866839
0.45400002 13222.81319368  992.70274756
0.45500002 13236.06245589  1176.95072936
0.45600002 13250.12320771  1362.44398340
0.45700002 13265.18916229  1002.45039250
0.45800002 13280.77003388  1097.25727220
0.45900002 13297.54171199  1101.03650594
0.46000002 13315.62930657  1012.85339121
0.46100002 13333.44956559  1663.21457764
0.46200002 13352.92471505  1112.83279849
0.46300002 13372.95433678  1209.98496574
0.46400002 13392.93164335  1307.81983696
0.46500002 13414.07936765  1031.40861146
0.46600002 13435.62251365  1035.28194186
0.46700002 13457.48940893  1511.54528205
0.46800002 13480.70019859  1043.20403431
0.46900002 13503.31334338  1237.57872658
0.47000002 13526.71997839  1242.36165530
0.47100002 13550.73087618  1055.33097066
0.47200002 13575.07755095  1444.72769684
0.47300002 13599.91330705  966.95388196
0.47400002 13624.34099636  1164.88121040
0.47500002 13649.46737520  1266.94362182
0.47600002 13675.36613036  1076.31974231
0.47700002 13700.49884980  1277.02355832
