# SAXS profile: number of points = 501, q_min = 0, q_max = 0.5, delta_q = 0.001
#    q    intensity    error
0.00000000 1664650.74656090 274.66737318
0.00100000 1664563.85902690 749.05375435
0.00200000 1664303.16769619 748.93644918
0.00300000 1663868.88586928 1397.64991392
0.00400000 1663260.89660428 1621.67943581
0.00500000 1662479.84651912 1795.47830531
0.00600000 1661525.58893483 2442.44271517
0.00700000 1660398.87084849 1992.47872783
0.00800000 1659099.46074797 2687.74123989
0.00900000 1657628.83844620 3729.66504594
0.01000000 1655986.32891213 3552.09082889
0.01100000 1654173.51271917 4168.51743355
0.01200000 1652190.31199355 3543.94837461
0.01300000 1650038.11004203 3811.58820231
0.01400000 1647717.06225580 5190.30897620
0.01500000 1645228.69067599 6317.67845351
0.01600000 1642572.75879955 5026.27286662
0.01700000 1639751.37356037 4870.06179794
0.01800000 1636765.03553814 6530.69278566
0.01900000 1633614.85151021 8331.43611864
0.02000000 1630301.49671382 6676.08493104
0.02100000 1626827.81548248 8589.65125519
0.02200000 1623192.22200343 8960.02147253
0.02300000 1619398.20608361 5829.83380727
0.02400000 1615446.13466906 6057.92328124
0.02500000 1611338.39013595 7541.06401024
0.02600000 1607075.37539160 7810.38668164
0.02700000 1602659.23770016 9423.63674929
0.02800000 1598090.25432538 9732.37009516
0.02900000 1593371.82019029 7170.17352007
0.03000000 1588504.75473010 8125.20219392
0.03100000 1583490.44375818 8360.82992775
0.03200000 1578330.24320966 9375.28207647
0.03300000 1573028.40626732 10429.17881434
0.03400000 1567583.13060396 9875.77417848
0.03500000 1561998.97761211 9278.27435547
0.03600000 1556276.17023383 12955.99971594
0.03700000 1550418.08022803 11488.59850581
0.03800000 1544425.96854729 10841.87080096
0.03900000 1538302.46799518 11075.77828248
0.04000000 1532047.88026996 10364.30439030
0.04100000 1525666.18432942 12495.20662902
0.04200000 1519158.82539889 9798.57487841
0.04300000 1512527.67268848 9982.68310312
0.04400000 1505775.95121461 11180.38695701
0.04500000 1498905.25738346 11376.69143216
0.04600000 1491916.72122529 13673.41738566
0.04700000 1484814.57266365 13897.86504649
0.04800000 1477600.13597757 11946.39765522
0.04900000 1470276.15171942 13232.48598141
0.05000000 1462844.31402208 14547.98738039
0.05100000 1455308.68191400 13621.68989727
0.05200000 1447668.59972112 13810.75908494
0.05300000 1439929.01581824 13996.11068622
0.05400000 1432091.76237365 17722.13638583
0.05500000 1424159.81630856 13159.23731656
0.05600000 1416134.25603544 14529.53814493
0.05700000 1408020.01220033 19599.63948471
0.05800000 1399816.32174588 13627.21252848
0.05900000 1391527.60124123 18785.62349415
0.06000000 1383157.23730437 16452.65610638
0.06100000 1374706.53696946 14063.24853039
0.06200000 1366178.64653153 14201.42769452
0.06300000 1357576.70449615 14336.01066976
0.06400000 1348899.91360369 18412.48468178
0.06500000 1340155.04833273 13267.53559912
0.06600000 1331343.16406037 20069.99913726
0.06700000 1322465.87784674 13489.15258532
0.06800000 1313527.07402493 19033.00819354
0.06900000 1304530.23820129 16437.08177090
0.07000000 1295475.11742905 16556.17277604
0.07100000 1286366.28875880 16671.30788316
0.07200000 1277205.22106778 15383.93760845
0.07300000 1267996.00004740 15482.23188601
0.07400000 1258741.23502437 15576.92351343
0.07500000 1249441.46636289 19941.08673784
0.07600000 1240100.36311220 15755.47585197
0.07700000 1230721.51911608 18719.27518347
0.07800000 1221305.84909585 17366.96998859
0.07900000 1211855.66022735 14542.26860481
0.08000000 1202376.26911199 14608.87235503
0.08100000 1192868.07589478 16139.50582409
0.08200000 1183332.68755146 19152.24044674
0.08300000 1173773.75652015 20705.37003676
0.08400000 1164193.86095815 19296.51415113
0.08500000 1154595.46237752 14894.28216388
0.08600000 1144980.65044289 19424.59764678
0.08700000 1135351.94014011 14986.64631359
0.08800000 1125710.93869107 16531.06591104
0.08900000 1116061.34811948 18080.19468876
0.09000000 1106404.67518330 21143.39433597
0.09100000 1096743.38057945 21189.08310828
0.09200000 1087078.95748662 19714.17782032
0.09300000 1077416.02482681 16710.72333034
0.09400000 1067753.19785438 19780.12891987
0.09500000 1058094.68857592 21331.18992431
0.09600000 1048442.12834529 18305.80042142
0.09700000 1038800.74375926 16797.40881628
0.09800000 1029168.65621430 21396.41736871
0.09900000 1019550.27732556 16822.58036691
0.10000000 1009944.92122724 19890.86615898
0.10100000 1000356.62871471 19897.09428093
0.10200000 990787.29758217 26023.02959502
0.10300000 981238.04967156 21430.24001292
0.10400000 971711.79401006 19895.79991836
0.10500000 962211.82977235 21418.83633848
0.10600001 952734.64388848 16820.53092932
0.10700001 943287.56503832 21393.76298181
0.10800001 933869.04277529 22903.13935192
0.10900001 924482.98958089 16779.36705063
0.11000001 915129.90848612 16760.60506284
0.11100001 905811.22217489 22826.44387332
0.11200001 896529.34751383 16715.79047133
0.11300001 887284.59501143 18207.08074684
0.11400001 878079.90498435 21205.63070383
0.11500001 868916.63191176 18142.98012863
0.11600001 859795.55071246 18107.29515070
0.11700001 850718.48898388 21080.80514982
0.11800001 841685.89749010 16526.50337559
0.11900001 832699.38395502 17986.30754061
0.12000001 823760.61724797 14951.25590733
0.12100001 814872.18245625 17894.59396972
0.12200001 806033.28342076 20819.84069161
0.12300001 797246.42651462 20760.29792455
0.12400001 788511.79569918 19219.97592576
0.12500001 779829.72304353 20634.29544403
0.12600001 771204.17095222 19098.87219364
0.12700001 762633.54034394 16106.82113112
0.12800001 754119.33610260 18969.87279370
0.12900001 745663.15713955 21810.64837431
0.13000001 737265.62346695 17384.72422078
0.13100001 728926.76155749 15876.02561508
0.13200001 720647.88920162 17252.31128077
0.13300001 712431.00287400 25775.75489913
0.13400001 704274.86654438 14261.56671989
0.13500001 696181.99190227 21303.16995662
0.13600001 688151.42041381 18383.96606317
0.13700001 680184.74115131 16895.78976689
0.13800001 672281.56461172 18222.19266808
0.13900001 664444.60061053 16744.00472500
0.14000001 656672.03864149 15277.47569949
0.14100001 648965.62219912 15205.26524525
0.14200001 641324.78448386 19258.98418641
0.14300001 633752.07226319 16426.85448788
0.14400001 626243.74144613 19069.12282652
0.14500001 618804.61262051 16262.18598679
0.14600001 611432.46155620 14830.29505466
0.14700001 604129.85681548 16094.02014482
0.14800001 596892.81976604 18676.77721163
0.14900001 589725.58705630 13268.82633480
0.15000001 582625.88682999 15835.77235122
0.15100001 575595.51051250 13123.57825892
0.15200001 568633.80258731 15660.17566221
0.15300001 561741.99878009 14273.86486257
0.15400001 554916.65953624 16772.35682599
0.15500001 548162.25605541 14109.69713674
0.15600001 541474.11949206 14026.88772744
0.15700001 534858.18761115 13943.75360912
0.15800001 528307.41774550 13860.14575873
0.15900001 521827.76679086 17533.41379176
0.16000001 515414.00640121 16181.42349477
0.16100001 509071.65476777 17318.61851271
0.16200001 502796.52927708 15981.38843749
0.16300001 496589.03894024 17102.52730847
0.16400001 490449.78218460 15780.22248677
0.16500001 484377.43104509 13267.09846268
0.16600001 478373.36132746 13181.57859372
0.16700001 472434.90207565 14286.43211330
0.16800001 466562.57017166 15375.57022599
0.16900001 460758.68092542 12924.28161022
0.17000001 455019.65167509 15172.63100155
0.17100001 449345.93257597 17389.68841185
0.17200001 443738.28558605 11515.00905473
0.17300001 438195.16469557 13724.27320639
0.17400001 432716.75481185 15902.34149034
0.17500001 427302.28199904 13536.93693305
0.17600001 421949.92898411 14563.60248671
0.17700001 416662.51370005 13349.86756947
0.17800001 411436.50525851 16570.60603195
0.17900001 406273.11908677 16454.06210020
0.18000001 401171.45237498 15248.52762504
0.18100001 396132.17926845 11895.84990535
0.18200001 391151.11672753 13958.22825978
0.18300001 386231.06730806 11725.97575740
0.18400001 381370.41335473 14816.24125876
0.18500001 376570.18281843 12607.57031637
0.18600001 371826.49113148 11472.70692587
0.18700001 367140.43409079 11388.69680355
0.18800001 362511.77119836 12332.65103884
0.18900001 357941.78492381 13261.74375801
0.19000001 353423.73955736 13163.26780176
0.19100001 348965.56772853 10050.20882545
0.19200001 344559.19054707 9974.98903767
0.19300001 340209.22961222 9900.08904952
0.19400001 335911.12582615 13755.56125258
0.19500001 331666.67666351 9751.00075469
0.19600001 327474.55162394 12579.93549512
0.19700001 323333.84166318 11523.61866145
0.19800001 319244.63306496 9529.45274734
0.19900001 315206.36086113 9456.19127273
0.20000001 311216.43028188 9383.17581646
0.20100001 307277.27629583 13965.75286770
0.20200001 303385.29765151 9238.08275011
0.20300001 299542.99010248 14665.62548858
0.20400001 295747.14645152 11822.49273820
0.20500001 291997.74577849 9925.00384813
0.20600001 288294.41757788 10741.85050670
0.20700001 284637.23847462 11544.88693825
0.20800001 281023.53231973 10572.10578561
0.20900001 277456.69233454 10487.86346602
0.21000001 273931.23253167 9536.91631142
0.21100001 270449.52041536 11180.38370251
0.21200001 267009.84540967 9384.06146055
0.21300001 263611.16941362 10154.30272586
0.21400001 260254.93157735 13429.15510428
0.21500001 256940.04271178 10822.31511067
0.21600001 253663.89764413 11559.46436216
0.21700001 250427.49491187 10645.67331203
0.21800001 247230.11766196 10557.96267394
0.21900001 244070.30160940 11276.04846750
0.22000001 240948.01058567 15176.11116430
0.22100001 237864.41624856 10297.15106629
0.22200001 234817.24949310 8640.10110364
0.22300001 231805.05677748 8567.51530361
0.22400001 228827.80273156 10812.11419033
0.22500001 225887.95869737 10720.64302673
0.22600001 222980.35320359 9110.97766274
0.22700001 220108.94659499 10538.81686134
0.22800001 217269.72206285 8955.85836695
0.22900001 214462.75538299 7398.96541062
0.23000001 211689.29641153 8068.53791430
0.23100001 208948.76439870 10179.98428294
0.23200001 206237.91415284 7208.01544053
0.23300001 203558.57188165 12146.34055863
0.23400001 200910.70564164 9206.73352146
0.23500001 198291.32334964 7019.51317857
0.23600001 195703.08432474 11131.59196288
0.23700001 193143.49543791 8963.79004724
0.23800001 190613.08077283 11616.91475717
0.23900001 188110.59881933 10835.17100449
0.24000001 185636.16338891 6710.74762393
0.24100001 183190.37053196 9309.73507080
0.24200001 180771.39617243 10542.58832346
0.24300001 178379.03100837 7181.54012810
0.24400001 176013.05228109 7762.17597277
0.24500001 173673.30056510 7690.25411281
0.24600001 171359.27891995 6983.74774275
0.24700001 169070.97591391 6918.38466168
0.24800001 166807.80441116 6230.27178949
0.24900001 164568.52890393 6788.45213843
0.25000001 162354.69424276 7335.18543290
0.25100001 160163.74249177 7265.02770313
0.25200001 157998.11077274 8394.44002249
0.25300001 155855.99126345 7719.54761249
0.25400001 153736.31380373 7056.49713744
0.25500001 151639.40834669 7569.83962281
0.25600001 149565.84866959 9225.22198241
0.25700001 147513.97600841 7421.42848412
0.25800001 145484.87587420 7347.71400368
0.25900001 143477.54320261 7274.31178455
0.26000001 141492.03362464 8309.12006776
0.26100001 139526.81971148 6031.74470153
0.26200001 137584.21739144 5427.69763291
0.26300001 135661.43016026 5909.41217740
0.26400001 133759.64813198 6912.03014429
0.26500001 131878.92597204 6840.56021386
0.26600001 130017.52504965 5207.20212464
0.26700001 128177.25869517 5152.72604337
0.26800001 126357.26101650 6628.07044027
0.26900001 124555.35915600 6557.83996989
0.27000001 122774.36140638 6488.01143555
0.27100001 121011.93698587 6912.20216774
0.27200001 119270.18440028 6837.75999525
0.27300001 117546.62791838 5314.28329968
0.27400001 115840.06613727 6211.92384059
0.27500001 114155.13950400 5671.22759895
0.27600001 112486.30301377 6075.94794484
0.27700001 110837.53303569 5546.31041559
0.27800001 109205.82804281 4570.26411989
0.27900001 107593.79682494 4970.83364857
0.28000001 105998.06976693 4467.81885213
0.28100001 104421.07767944 4858.71297438
0.28200001 102862.32628500 6113.10834045
0.28300001 101320.69455742 4316.26179244
0.28400001 99796.16570482  6399.42942871
0.28500001 98289.72314759  5903.28105165
0.28600001 96800.10784733  6250.86726011
0.28700001 95327.70298871  5765.41974965
0.28800001 93871.44934883  4883.19302626
0.28900001 92434.22719232  4825.06688783
0.29000001 91012.25659041  6356.29630114
0.29100001 89607.69837431  4317.29911203
0.29200001 88219.75766736  4652.71023961
0.29300001 86848.29582739  4596.01203274
0.29400001 85492.69704947  4161.35722587
0.29500001 84154.59555274  4857.40348524
0.29600001 82832.11755853  4059.18811311
0.29700001 81525.58466054  5101.87132957
0.29800001 80235.25741002  3598.55146519
0.29900001 78961.51618622  4263.92207591
0.30000001 77702.77941647  4209.93678808
0.30100001 76461.22244525  5195.54031111
0.30200001 75233.47481902  3761.29775164
0.30300001 74023.15454066  4725.63840959
0.30400001 72828.05153653  4331.44857019
0.30500001 71648.14563706  4275.24505256
0.30600001 70482.76524803  4544.02409067
0.30700001 69334.13775625  3523.56104759
0.30800001 68200.02474764  4425.49981539
0.30900001 67081.33369430  4055.06681380
0.31000001 65978.12737586  3077.87978781
0.31100001 64888.89636086  3644.16059216
0.31200001 63815.36932286  3295.74490472
0.31300001 62756.00464857  4729.29273423
0.31400001 61712.40808520  4373.86713013
0.31500001 60682.78232273  3451.63682194
0.31600002 59668.13226959  3404.66378851
0.31700002 58667.88265367  3637.99557561
0.31800002 57682.01758136  2760.08467195
0.31900002 56710.79231346  2994.32997593
0.32000002 55753.87530410  3758.36891221
0.32100002 54810.52441116  3706.28783617
0.32200002 53882.54295780  3654.85306189
0.32300002 52966.96057846  2831.61384660
0.32400002 52065.89391720  3299.67618325
0.32500002 51178.67139527  4504.74686952
0.32600002 50305.60476404  2960.98803662
0.32700002 49445.33357418  2919.25263245
0.32800002 48599.79614894  3357.76007493
0.32900002 47766.87839204  2364.46059237
0.33000002 46948.25766146  2797.17732393
0.33100002 46140.51361170  2527.57745534
0.33200002 45349.14977976  2265.19013877
0.33300002 44569.37061962  3126.09580330
0.33400002 43802.85535473  2641.31230297
0.33500002 43048.56808477  3471.43669475
0.33600002 42307.92847184  2566.39906264
0.33700002 41579.06367569  2318.86449101
0.33800002 40863.84189073  2909.09704197
0.33900002 40160.15441202  3277.06875522
0.34000002 39469.39171407  2422.63137814
0.34100002 38790.74585464  2785.95149922
0.34200002 38124.76689497  2157.67128461
0.34300002 37469.91778139  2513.48220381
0.34400002 36828.28397768  2096.45016472
0.34500002 36197.61327166  2630.11870488
0.34600002 35579.75976431  2222.31190013
0.34700002 34971.90719462  2190.64037042
0.34800002 34376.97698012  2519.48876220
0.34900002 33792.86282114  1951.53792035
0.35000002 33220.25798841  2098.85599911
0.35100002 32659.42517824  2069.30127730
0.35200002 32108.35180079  2550.20596256
0.35300002 31568.76000933  2346.82173025
0.35400002 31040.24452072  2314.05033862
0.35500002 30522.66513054  2118.88351372
0.35600002 30014.67575978  1928.74315568
0.35700002 29517.91244872  1743.62317093
0.35800002 29031.78917816  1563.36192129
0.35900002 28555.89615665  1696.22031205
0.36000002 28090.37979213  2281.64120669
0.36100002 27634.12667401  1800.63977937
0.36200002 27188.71453484  1628.46813420
0.36300002 26752.40051648  2044.95359234
0.36400002 26325.66207379  1873.72908686
0.36500002 25908.43942486  2133.56008770
0.36600002 25500.94280954  1544.20966498
0.36700002 25102.25331105  1385.64444841
0.36800002 24714.15163297  1641.51402922
0.36900002 24334.20135613  1350.54823924
0.37000002 23962.77360095  1466.88125547
0.37100002 23600.06402184  1316.88363480
0.37200002 23246.95329875  1560.80051841
0.37300002 22901.76685260  1541.74701755
0.37400002 22565.15723337  1523.14818541
0.37500002 22237.23863732  1630.43441412
0.37600002 21917.78415060  1611.28597816
0.37700002 21605.71506314  1225.04410211
0.37800002 21301.57652189  1332.09415090
0.37900002 21006.01816609  1317.07740141
0.38000002 20718.04870615  1539.24750154
0.38100002 20436.71567698  1522.33102290
0.38200002 20163.94038960  1274.26027329
0.38300002 19897.92057131  1260.73230712
0.38400002 19639.75600671  1361.03515574
0.38500002 19387.88785120  1234.81463574
0.38600002 19143.98052934  1111.30812238
0.38700002 18906.28823849  1540.48443865
0.38800002 18675.64331397  1416.64099069
0.38900002 18450.99738380  1403.19841752
0.39000002 18234.16821730  1390.26422159
0.39100002 18022.80297633  1589.61129782
0.39200002 17818.17865021  1155.41984931
0.39300002 17619.49092263  1457.83674801
0.39400002 17428.09670921  1342.39921263
0.39500002 17241.49354218  1024.14476493
0.39600002 17060.94134205  1117.57701556
0.39700002 16886.03652552  1209.71571400
0.39800002 16717.21672715  1100.57801538
0.39900002 16553.53392002  1092.53329048
0.40000002 16395.20493274  1183.40594811
0.40100002 16242.62563974  1371.20252147
0.40200002 16095.25827987  1362.14177276
0.40300002 15952.49746768  1063.39353158
0.40400002 15815.14779657  1537.23243866
0.40500002 15682.96844661  1719.16708257
0.40600002 15555.32781705  949.65280823
0.40700002 15432.55366505  1038.91956196
0.40800002 15314.27570675  1221.39011686
0.40900002 15200.49694940  1121.79672802
0.41000002 15091.54759914  930.39395357
0.41100002 14986.54865395  1296.63625098
0.41200002 14885.53068467  1014.37453657
0.41300002 14789.39927051  1010.26391204
0.41400002 14696.73593742  1189.33341209
0.41500002 14608.21478669  1093.86317506
0.41600002 14523.09416129  1271.78741597
0.41700002 14442.10854819  1086.62429865
0.41800002 14365.78088070  1083.46724536
0.41900002 14291.03880235  900.33548721
0.42000002 14221.02972241  987.86387648
0.42100002 14154.85347661  896.00226753
0.42200002 14091.79358516  1072.94921442
0.42300002 14031.48481805  1338.60371507
0.42400002 13974.31718853  1158.12159188
0.42500002 13920.81237700  978.49394835
0.42600002 13869.22257529  977.15612285
0.42700002 13822.04405881  887.37527063
0.42800002 13776.72522339  1152.49200318
0.42900002 13735.25656441  1240.29372654
0.43000002 13696.04143318  1062.53894474
0.43100002 13658.43970990  973.57362866
0.43200002 13624.50184525  1061.89372414
0.43300002 13592.93766607  1238.86039759
0.43400002 13563.66899283  1062.03533247
0.43500002 13536.65070827  1062.35639793
0.43600002 13512.34761852  1240.02819971
0.43700002 13489.69243614  1240.78196908
0.43800002 13469.07332874  975.63237280
0.43900002 13451.26544170  1331.67534184
0.44000002 13435.06101422  1066.47519385
0.44100002 13421.14100131  978.80385961
0.44200002 13408.86016514  1069.22256024
0.44300002 13398.67738845  1070.82234763
0.44400002 13390.37962639  893.80788242
0.44500002 13382.69163564  1074.36253542
0.44600002 13377.31168502  1255.72830738
0.44700002 13374.31870330  988.62968540
0.44800002 13371.54056157  1530.97460915
0.44900002 13371.86662974  902.60104028
0.45000002 13372.86229059  1357.01126525
0.45100002 13375.05801532  1360.24346462
0.45200002 13378.91539819  1000.00707883
0.45300002 13383.68342077  1093.71466098
0.45400002 13390.18106730  1005.26789127
0.45500002 13397.79198553  1191.33171981
0.45600002 13406.44696698  1102.81437977
0.45700002 13416.18114034  1474.70670084
0.45800002 13426.71947039  1294.20155109
0.45900002 13438.32151991  1112.69307458
0.46000002 13451.65130369  1488.29077078
0.46100002 13464.93765034  1119.74426807
0.46200002 13479.79402694  936.17173954
0.46300002 13495.60817112  1033.22381055
0.46400002 13511.41965457  1130.90587869
0.46500002 13528.62001435  1134.78070059
0.46600002 13546.23664087  1328.47949033
0.46700002 13564.30145265  1047.43540782
0.46800002 13584.03650796  1051.20071499
0.46900002 13603.28917263  1150.83831855
0.47000002 13623.49253832  1443.74969018
0.47100002 13644.29816760  1062.61799166
0.47200002 13665.81314323  1163.50738616
0.47300002 13687.91607847  1167.85305517
0.47400002 13709.69521322  1269.86057931
0.47500002 13732.37488347  1078.54077447
0.47600002 13755.75913278  1181.06953512
0.47700002 13778.81183550  1383.11719760
