# SAXS profile: number of points = 501, q_min = 0, q_max = 0.5, delta_q = 0.001
#    q    intensity    error
0.00000000 1682732.95097188 252.40994265
0.00100000 1682645.69248752 656.23183565
0.00200000 1682383.88691110 908.48732770
0.00300000 1681947.74780155 1009.16868463
0.00400000 1681337.17101878 1513.20351142
0.00500000 1680552.78057358 2419.99609981
0.00600000 1679594.45306314 2116.28909702
0.00700000 1678462.91457414 2618.40225556
0.00800000 1677157.94084101 3169.82864202
0.00900000 1675681.03109559 3267.57815032
0.01000000 1674031.48056674 3038.36726842
0.01100000 1672210.91984875 4213.97170149
0.01200000 1670219.18873634 3908.31307300
0.01300000 1668057.75168815 3502.92143304
0.01400000 1665726.69111535 4872.25078750
0.01500000 1663227.64710262 4790.09583695
0.01600000 1660560.26248597 4657.87174450
0.01700000 1657726.70211594 6266.20721509
0.01800000 1654727.45613624 7073.96019329
0.01900000 1651563.67404982 5945.62949486
0.02000000 1648235.93535470 6749.52646060
0.02100000 1644747.21431915 7055.96586934
0.02200000 1641095.82126263 7360.31509276
0.02300000 1637285.30941257 8841.34107327
0.02400000 1633315.95684844 11024.88321143
0.02500000 1629190.28730544 6989.22665174
0.02600000 1624908.60124380 7238.96814964
0.02700000 1620473.09554448 7486.58604431
0.02800000 1615884.02860381 8434.91501613
0.02900000 1611144.82936285 11600.24330403
0.03000000 1606256.24426081 8962.91025496
0.03100000 1601219.73254370 12297.36811178
0.03200000 1596036.61341936 10270.49608039
0.03300000 1590711.29399516 8923.89077071
0.03400000 1585241.76968112 12483.77951225
0.03500000 1579632.57631785 10236.01956722
0.03600000 1573884.15903649 10482.06898360
0.03700000 1567999.60599410 13406.39725126
0.03800000 1561980.57786673 9137.58680340
0.03900000 1555829.40757573 11201.97225331
0.04000000 1549546.47337767 11435.65350344
0.04100000 1543135.65570168 12638.28160619
0.04200000 1536598.64020403 13875.48636477
0.04300000 1529937.11469370 13126.86105339
0.04400000 1523154.33659367 16450.06759918
0.04500000 1516251.96834836 14646.99469482
0.04600000 1509231.14620208 14896.11210549
0.04700000 1502095.98241284 15141.12820690
0.04800000 1494847.90584031 12085.84588105
0.04900000 1487489.67657154 12271.79040294
0.05000000 1480022.92351019 14718.82865971
0.05100000 1472451.79796288 14930.66192687
0.05200000 1464775.51533215 11644.96588956
0.05300000 1456999.15838819 12981.86310643
0.05400000 1449124.55274194 17932.91717646
0.05500000 1441154.60144342 19369.11874695
0.05600000 1433090.49392169 17154.09401272
0.05700000 1424937.05184448 14876.34351566
0.05800000 1416693.53379327 18806.60753923
0.05900000 1408364.37012087 12675.27992310
0.06000000 1399952.91160188 15371.48368753
0.06100000 1391460.67861454 14234.64340743
0.06200000 1382890.60557997 16988.81188367
0.06300000 1374245.97524063 14512.03817706
0.06400000 1365525.81553291 14645.26505650
0.06500000 1356737.04246817 16118.03681849
0.06600000 1347880.70599415 17610.06224776
0.06700000 1338958.43609995 23217.54036853
0.06800000 1329974.05546419 23400.89460127
0.06900000 1320931.27876804 16643.73489172
0.07000000 1311829.36094782 15368.08168317
0.07100000 1302673.28908980 21103.30827169
0.07200000 1293464.63900684 14163.43846064
0.07300000 1284207.17486026 18531.11040152
0.07400000 1274903.81491401 14342.66858994
0.07500000 1265554.74994377 15870.05730816
0.07600000 1256163.83158031 18861.30081541
0.07700000 1246734.73469154 14586.79707984
0.07800000 1237268.25339149 17593.95538832
0.07900000 1227766.92839812 19153.16498137
0.08000000 1218235.77104935 20722.19143765
0.08100000 1208675.38615623 16353.37874197
0.08200000 1199087.39283134 14928.63874128
0.08300000 1189475.31948384 16486.12870177
0.08400000 1179841.74321846 15042.98293213
0.08500000 1170189.27177254 19624.07500888
0.08600000 1160520.09203706 15144.78791215
0.08700000 1150836.36974945 19748.35303224
0.08800000 1141139.94915413 21327.90665133
0.08900000 1131434.60614393 18329.24148045
0.09000000 1121721.72168068 21436.10310829
0.09100000 1112003.80602586 16880.21856853
0.09200000 1102282.37855511 19989.89187436
0.09300000 1092561.97946098 20026.66202462
0.09400000 1082841.27207732 20059.63550798
0.09500000 1073124.53849664 15452.99408068
0.09600000 1063413.40061542 15472.66570629
0.09700000 1053712.84550660 20136.45342430
0.09800000 1044021.42709318 26356.32216618
0.09900000 1034343.36072634 17066.66625450
0.10000000 1024677.80721056 27942.96511671
0.10100000 1015029.09061353 17082.94039847
0.10200000 1005399.06740897 15533.41632210
0.10300000 995788.51112526 23301.45225645
0.10400000 986200.83129023 20192.46297062
0.10500000 976638.97568965 17081.41648848
0.10600001 967099.67043371 21730.73061715
0.10700001 957590.26796449 15512.96307103
0.10800001 948108.93299360 18601.89814077
0.10900001 938659.75778606 21683.04142538
0.11000001 929243.34756322 18566.28295822
0.11100001 919860.96087183 21635.13081814
0.11200001 910515.26156718 16976.55785113
0.11300001 901206.21286712 18492.75235869
0.11400001 891937.04971086 21540.28076473
0.11500001 882709.21901481 16895.05524750
0.11600001 873522.95469701 18396.39429223
0.11700001 864380.72599446 24479.26331301
0.11800001 855282.62544266 16793.47514151
0.11900001 846230.40319742 19801.79236752
0.12000001 837225.70806026 28871.72990246
0.12100001 828271.15349920 15157.36282307
0.12200001 819365.86468592 16629.03100722
0.12300001 810512.43011618 19598.19148357
0.12400001 801710.85281370 16535.28711838
0.12500001 792961.83144546 14986.97932051
0.12600001 784268.93385020 17928.38867266
0.12700001 775631.10530821 19359.75330085
0.12800001 767049.33297745 16326.64582189
0.12900001 758525.29044448 16270.36824689
0.13000001 750059.99658641 26529.62332973
0.13100001 741652.94009002 24964.03914018
0.13200001 733305.87234643 19018.28869583
0.13300001 725020.68881853 18944.79149194
0.13400001 716796.01223119 15966.63192521
0.13500001 708634.52408894 14456.14497300
0.13600001 700535.09847771 17275.19634300
0.13700001 692499.61230557 22935.58824105
0.13800001 684527.33135526 15699.63508496
0.13900001 676621.23930788 15629.95136509
0.14000001 668779.58933940 16973.62677792
0.14100001 661003.82793005 16895.25863872
0.14200001 653293.60400602 19618.40785361
0.14300001 645651.48869802 13946.07281368
0.14400001 638073.58976435 13878.10123200
0.14500001 630564.81562694 24856.86620457
0.14600001 623122.92479920 17861.81948199
0.14700001 615750.51995834 15036.62840676
0.14800001 608443.65068016 13598.71623427
0.14900001 601206.54865394 16232.57757952
0.15000001 594036.97509211 14800.43193275
0.15100001 586936.57910213 14720.37009846
0.15200001 579904.99771012 17301.46642309
0.15300001 572943.24166731 17205.48635918
0.15400001 566047.85325286 19740.91981379
0.15500001 559223.30962807 14394.40866914
0.15600001 552465.17070505 16913.72199938
0.15700001 545779.20594216 15521.96134958
0.15800001 539158.36948966 16716.60603503
0.15900001 532608.55302801 15339.12705122
0.16000001 526124.86844097 15247.09940712
0.16100001 519712.67177301 16417.72407630
0.16200001 513367.56600558 13807.02133950
0.16300001 507090.05618050 16216.74076221
0.16400001 500880.90424065 16115.84385477
0.16500001 494738.66293238 13550.89261747
0.16600001 488664.78220862 15913.36938394
0.16700001 482656.48512396 14595.53279927
0.16800001 476714.62561540 16918.60286193
0.16900001 470841.03735308 12006.44701942
0.17000001 465032.42001275 14313.69856388
0.17100001 459289.26512989 20144.42811984
0.17200001 453612.10032856 12948.35801534
0.17300001 447999.71157552 12862.07232674
0.17400001 442452.14169824 16260.11697531
0.17500001 436968.43193427 14996.75729224
0.17600001 431546.93172361 12603.32873623
0.17700001 426190.66008952 12517.22027803
0.17800001 420895.67823555 12431.15444384
0.17900001 415663.56613524 13467.50017890
0.18000001 410493.22327335 16717.33730745
0.18100001 405385.53413998 12173.72816527
0.18200001 400336.01103657 12088.14642427
0.18300001 395347.82781034 12002.76061932
0.18400001 390418.92150086 10834.12558346
0.18500001 385550.80590419 16135.30198936
0.18600001 380739.29907155 12815.68541221
0.18700001 375985.56637900 11663.07282010
0.18800001 371289.34035871 11578.65862613
0.18900001 366652.04845329 14629.41742449
0.19000001 362066.66280022 11410.53141728
0.19100001 357541.49767621 14416.07386747
0.19200001 353068.15203772 11243.45583291
0.19300001 348651.45554487 13189.48518650
0.19400001 344286.90524273 13091.51019048
0.19500001 339975.99655563 13993.41267949
0.19600001 335717.69982223 10912.50434841
0.19700001 331510.96608034 13784.22662103
0.19800001 327356.03167052 14657.36701074
0.19900001 323252.17573421 15516.10516853
0.20000001 319196.81002956 10586.16270494
0.20100001 315192.45558935 11460.39822687
0.20200001 311235.51526017 11372.54626511
0.20300001 307328.28582860 12225.51978810
0.20400001 303467.85628237 9331.63702175
0.20500001 299654.12082767 11111.17532548
0.20600001 295886.75912209 11943.46959651
0.20700001 292165.64617235 10027.12545061
0.20800001 288488.15335639 15374.97685991
0.20900001 284857.93401387 8973.02534560
0.21000001 281269.14985100 9792.38591497
0.21100001 277724.46105527 9714.80210696
0.21200001 274222.00725514 10513.67225519
0.21300001 270760.81423017 12167.99156675
0.21400001 267342.16352545 9483.96369943
0.21500001 263965.30005840 10262.97135148
0.21600001 260627.41704480 9331.76510848
0.21700001 257329.44761225 11780.54266867
0.21800001 254070.79293888 10015.47113119
0.21900001 250849.92615524 10761.46234088
0.22000001 247666.80295308 9852.18588731
0.22100001 244522.70001137 8956.86692493
0.22200001 241415.27488516 12113.01199012
0.22300001 238343.13616356 8008.32975377
0.22400001 235306.07833784 7941.58051943
0.22500001 232306.85306764 10237.76349881
0.22600001 229340.04801146 7809.02900407
0.22700001 226409.85312211 12389.14774871
0.22800001 223511.92391806 9213.16193959
0.22900001 220646.58750388 9895.99991754
0.23000001 217815.21706081 8302.02739089
0.23100001 215016.84048388 13468.65552488
0.23200001 212248.40035830 13352.54749803
0.23300001 209511.93964622 8824.64331526
0.23400001 206807.14092158 8018.94726849
0.23500001 204130.97413395 10116.73155656
0.23600001 201486.49180137 7162.84512232
0.23700001 198870.89025068 7809.66022952
0.23800001 196284.66007900 7740.48593633
0.23900001 193726.68806390 9763.82554025
0.24000001 191197.09216204 8294.13025030
0.24100001 188696.47254622 7534.65050517
0.24200001 186222.89414757 8145.38977531
0.24300001 183776.28457690 9416.69726716
0.24400001 181356.30228395 7331.32886663
0.24500001 178962.90056010 7264.10447736
0.24600001 176595.52365784 7197.15090714
0.24700001 174254.14555259 7778.70542545
0.24800001 171938.36427716 6421.89820955
0.24900001 169646.61953445 8906.44794690
0.25000001 167380.65405686 6301.88192337
0.25100001 165137.80357558 6866.43019752
0.25200001 162920.80848519 6801.12947197
0.25300001 160727.44788859 6123.71605427
0.25400001 158556.93206678 7884.24382003
0.25500001 156409.42120489 8408.57088180
0.25600001 154285.60480549 7137.25241598
0.25700001 152183.84163940 7067.41794012
0.25800001 150105.13145485 5831.58463294
0.25900001 148048.52597900 5773.89278637
0.26000001 146013.97348462 6859.73679888
0.26100001 144000.21903664 7922.89242628
0.26200001 142009.16299904 6722.71409447
0.26300001 140038.27122486 6100.06738320
0.26400001 138088.94204761 6586.84284735
0.26500001 136160.77119264 5976.09653043
0.26600001 134252.34586701 6452.16804768
0.26700001 132365.30353607 7449.51963552
0.26800001 130498.80940012 5265.62720847
0.26900001 128650.85604873 7294.50388315
0.27000001 126824.02432945 7217.55556614
0.27100001 125016.20142487 5610.72738546
0.27200001 123229.35641645 7064.73933768
0.27300001 121460.96308441 5491.25040091
0.27400001 119709.90585301 6913.24739018
0.27500001 117980.73048177 5861.28296772
0.27600001 116267.93251817 5797.11938971
0.27700001 114575.74223239 7644.49388353
0.27800001 112900.91391411 5197.39381801
0.27900001 111245.83824570 5606.79051294
0.28000001 109607.56511193 6929.93863218
0.28100001 107988.30218967 7308.64863811
0.28200001 106387.57143438 5419.38314536
0.28300001 104804.32689683 5357.59744454
0.28400001 103238.53866444 4854.79251048
0.28500001 101691.05178934 5235.05559390
0.28600001 100160.80864379 4743.11531783
0.28700001 98647.99457531  4687.75292410
0.28800001 97151.73438002  5053.83346166
0.28900001 95674.83303611  4994.22652088
0.29000001 94213.37155584  4934.89663568
0.29100001 92769.87409813  6907.64515232
0.29200001 91343.04989518  4014.52723292
0.29300001 89933.20181487  4362.65982655
0.29400001 88539.42233321  4701.44354844
0.29500001 87163.52590382  5418.08502666
0.29600001 85803.48755259  3822.54555142
0.29700001 84459.78653802  4530.42316436
0.29800001 83132.50928877  4101.34253991
0.29900001 81822.27956031  5154.80385632
0.30000001 80527.24713342  5817.28860831
0.30100001 79249.68366231  3949.01192384
0.30200001 77986.40239036  3544.48215644
0.30300001 76740.63939701  4199.24798660
0.30400001 75510.39116394  6218.28100673
0.30500001 74295.78582819  4433.22975025
0.30600001 73095.98504456  3702.67729773
0.30700001 71913.21037642  3986.86857202
0.30800001 70745.34009221  3279.04666852
0.30900001 69593.11607023  3883.29606057
0.31000001 68456.65170521  4151.55383922
0.31100001 67334.49415364  3781.50537070
0.31200001 66228.25953495  3731.30031886
0.31300001 65136.66982575  3067.93729405
0.31400001 64061.15075975  3329.57846838
0.31500001 62999.66192274  3284.80252818
0.31600002 61953.54159514  3535.06925080
0.31700002 60922.11269929  3487.18189602
0.31800002 59905.41680719  2866.47432995
0.31900002 58903.72685616  4241.06853445
0.32000002 57916.49502868  2788.67936767
0.32100002 56943.11114568  2750.35239857
0.32200002 55985.47239669  2983.74589266
0.32300002 55040.30554176  2942.45487359
0.32400002 54110.20163455  2637.87245459
0.32500002 53194.17530246  2601.19529546
0.32600002 52292.55266807  3077.93979579
0.32700002 51403.99491593  2781.98433658
0.32800002 50530.37849294  2493.67429671
0.32900002 49669.73087169  2704.51697403
0.33000002 48823.64846215  2424.09426094
0.33100002 47988.82177673  2867.81212518
0.33200002 47170.39448138  2827.39357910
0.33300002 46363.98485528  2555.11932637
0.33400002 45571.17203742  2976.93695432
0.33500002 44790.68580347  2934.68587282
0.33600002 44024.27547217  2893.05539966
0.33700002 43269.82652495  3510.04849393
0.33800002 42529.41035589  2162.62061901
0.33900002 41800.60418484  2558.19709726
0.34000002 41085.09479664  2521.80323805
0.34100002 40381.91751961  3107.38870030
0.34200002 39691.74887440  2858.99680682
0.34300002 39012.82099010  2415.67399011
0.34400002 38347.52623192  2579.82994943
0.34500002 37693.30646062  2347.53923755
0.34600002 37052.14535213  3278.55923676
0.34700002 36421.34294705  2471.55244944
0.34800002 35803.72439330  2061.75756684
0.34900002 35197.08814301  2217.41665803
0.35000002 34602.29539267  2003.99203258
0.35100002 34019.38480771  1975.84596321
0.35200002 33446.66677028  2479.40152511
0.35300002 32885.50658523  2270.08662710
0.35400002 32335.70197572  2755.00193882
0.35500002 31797.18389993  2377.15758095
0.35600002 31268.40915502  1674.42338956
0.35700002 30751.02947788  2311.86250565
0.35800002 30244.56229969  2280.13765977
0.35900002 29748.60055118  2570.27920936
0.36000002 29263.27051667  2218.44864295
0.36100002 28787.35015595  1875.78382501
0.36200002 28322.59883768  1542.16557976
0.36300002 27867.09279981  1521.54333894
0.36400002 27421.40186199  2101.85055228
0.36500002 26985.41886839  1629.64952265
0.36600002 26559.38777074  1754.51323924
0.36700002 26142.46151039  1443.06394373
0.36800002 25736.27509150  1566.95318317
0.36900002 25338.50436435  2109.43058825
0.37000002 24949.39155963  2082.65055909
0.37100002 24569.29801700  1645.16027315
0.37200002 24198.97472225  1489.32596983
0.37300002 23836.72890902  1738.41272168
0.37400002 23483.34861019  1453.03226409
0.37500002 23138.84895223  1435.53425700
0.37600002 22802.96322605  1547.40915782
0.37700002 22474.71250184  1401.74788514
0.37800002 22154.65148010  1385.44119594
0.37900002 21843.33756947  1743.09842062
0.38000002 21539.77302018  1600.29751234
0.38100002 21243.02973511  1460.67079378
0.38200002 20955.03637755  1324.25358661
0.38300002 20674.00242012  1309.90485539
0.38400002 20401.06432835  1413.79382493
0.38500002 20134.51845874  1282.36754139
0.38600002 19876.32647641  1499.96704860
0.38700002 19624.26707533  1598.98535705
0.38800002 19379.62632732  1243.88137475
0.38900002 19141.09967864  1231.72982267
0.39000002 18910.59953029  1330.92805800
0.39100002 18685.66266018  1208.58871812
0.39200002 18467.69739284  1524.13913804
0.39300002 18255.78709091  2265.72584320
0.39400002 18051.43086021  1283.45679497
0.39500002 17852.06745860  1060.41285728
0.39600002 17658.87372528  1472.22037223
0.39700002 17471.51400516  1355.96426618
0.39800002 17290.36551132  1448.75979483
0.39900002 17114.47486711  1129.55539475
0.40000002 16944.23223683  1834.55211120
0.40100002 16779.82449455  1315.37050445
0.40200002 16620.84549080  1105.20317327
0.40300002 16466.60608391  1596.60220154
0.40400002 16317.92812141  1189.57701641
0.40500002 16174.52868549  1083.53172798
0.40600002 16035.86807090  1468.48468817
0.40700002 15902.27898436  1167.86342395
0.40800002 15773.25972544  1064.45848301
0.40900002 15648.93582212  1058.65055853
0.41000002 15529.58788334  1053.13905221
0.41100002 15414.30726610  1143.12508102
0.41200002 15303.16082240  1137.63702944
0.41300002 15197.08342447  1415.60838806
0.41400002 15094.61776520  1127.56800049
0.41500002 14996.44224137  1122.93364824
0.41600002 14901.71240666  932.10215520
0.41700002 14811.36700069  1207.27458143
0.41800002 14725.66075386  925.50782223
0.41900002 14641.83847262  1291.41021448
0.42000002 14562.94219183  919.64984299
0.42100002 14487.78983742  917.07714016
0.42200002 14416.02489178  1097.63618727
0.42300002 14347.05426713  1368.70904194
0.42400002 14281.44601887  1183.57489490
0.42500002 14219.51174368  1181.21489652
0.42600002 14159.75651955  997.62569286
0.42700002 14104.36713084  1086.60049525
0.42800002 14051.17307736  1085.03163645
0.42900002 14001.80086971  993.42781878
0.43000002 13954.79930760  1082.61338159
0.43100002 13909.59638985  1532.28121092
0.43200002 13868.17269236  990.81164496
0.43300002 13829.18838380  1710.53239225
0.43400002 13792.67832264  1349.95845480
0.43500002 13758.44533468  1529.66402480
0.43600002 13727.11434772  989.79362695
0.43700002 13697.48941835  989.91760718
0.43800002 13669.98568991  1260.23604047
0.43900002 13645.47532652  990.66155565
0.44000002 13622.63308408  1351.70583182
0.44100002 13602.21190455  1082.19203041
0.44200002 13583.45349274  1083.14463284
0.44300002 13566.93067655  1174.62491364
0.44400002 13552.43526199  1085.55011593
0.44500002 13538.59765257  1177.45189364
0.44600002 13527.13464994  1088.39330551
0.44700002 13518.27412280  1090.11367692
0.44800002 13509.63755344  909.87413234
0.44900002 13504.15236478  1002.68336060
0.45000002 13499.58212344  1187.22080611
0.45100002 13496.23063978  1006.54892882
0.45200002 13494.59365859  1100.34921907
0.45300002 13493.94406063  1654.08774134
0.45400002 13495.13233012  1105.25139022
0.45500002 13497.52828744  1015.55407648
0.45600002 13501.08792764  1295.69946982
0.45700002 13505.78353353  1020.63211000
0.45800002 13511.36518079  1395.38630518
0.45900002 13518.07353307  1119.29654159
0.46000002 13526.56044116  1122.43403860
0.46100002 13535.07126053  1219.37462765
0.46200002 13545.34798797  1222.94180106
0.46300002 13556.52676927  1226.59460022
0.46400002 13567.90252923  1040.99737089
0.46500002 13580.67593232  1518.86286826
0.46600002 13593.95981012  1047.48262281
0.46700002 13607.67238973  1528.41383525
0.46800002 13623.21518368  1341.75052703
0.46900002 13638.34779435  1153.80427809
0.47000002 13654.52692832  1061.16161053
0.47100002 13671.26555080  1161.51077625
0.47200002 13688.92884186  1068.35250210
0.47300002 13707.15750335  1169.49473362
0.47400002 13725.12499241  1075.70672227
0.47500002 13744.05933449  1275.72364789
0.47600002 13763.84885598  984.80343232
0.47700002 13783.28098871  988.26129373
