# SAXS profile: number of points = 501, q_min = 0, q_max = 0.5, delta_q = 0.001
#    q    intensity    error
0.00000000 1700912.83420644 306.16431016
0.00100000 1700825.04256870 714.34653484
0.00200000 1700561.63971147 765.25276210
0.00300000 1700122.83352268 1428.10323103
0.00400000 1699508.52726500 1657.02087705
0.00500000 1698719.35412816 2599.04071469
0.00600000 1697755.16943384 2317.43590062
0.00700000 1696616.70921535 2850.31618994
0.00800000 1695303.76648955 2975.25823580
0.00900000 1693817.80421897 2794.79949643
0.01000000 1692158.13452951 3629.67935529
0.01100000 1690326.45696996 3651.10530602
0.01200000 1688322.52531492 3621.45197558
0.01300000 1686147.83376413 4957.27484991
0.01400000 1683802.47010828 5682.83358854
0.01500000 1681288.08081321 4438.60073099
0.01600000 1678604.29147040 5992.61758844
0.01700000 1675753.29725329 5429.44092666
0.01800000 1672735.64690122 5720.75616982
0.01900000 1669552.32211668 6511.25435006
0.02000000 1666204.08550855 5773.39741745
0.02100000 1662693.75769483 6035.57861408
0.02200000 1659019.85662933 7440.70439503
0.02300000 1655185.71090453 8342.13636268
0.02400000 1651191.76563692 9287.95410522
0.02500000 1647040.51676992 7065.80413964
0.02600000 1642732.24863524 7318.37250240
0.02700000 1638269.09989187 8256.87664163
0.02800000 1633651.46183580 9948.93785883
0.02900000 1628882.68322111 8795.96689325
0.03000000 1623963.50501347 9061.71677450
0.03100000 1618895.46930924 9324.83833229
0.03200000 1613679.82351564 10384.03014259
0.03300000 1608321.00931368 9842.92503076
0.03400000 1602817.15370382 12622.18566781
0.03500000 1597172.54216171 9487.20533854
0.03600000 1591387.74527543 9715.42263389
0.03700000 1585465.98424341 9037.15652813
0.03800000 1579408.77405183 12011.40428255
0.03900000 1573218.52076048 9439.31156170
0.04000000 1566895.57878881 11563.68990731
0.04100000 1560443.75939822 12780.03498204
0.04200000 1553865.01986704 14031.40178036
0.04300000 1547160.85949335 12253.51457597
0.04400000 1540334.28750766 13516.43400061
0.04500000 1533387.55648617 11638.41209451
0.04600000 1526321.47515238 11836.62359005
0.04700000 1519140.04374854 14219.15147079
0.04800000 1511844.92459287 12223.26678406
0.04900000 1504438.80773985 12411.62074158
0.05000000 1496923.25938250 12596.60981428
0.05100000 1489302.65220985 12778.21735122
0.05200000 1481575.97294359 16489.94134731
0.05300000 1473748.60119973 11937.36422621
0.05400000 1465821.95560753 18139.54754656
0.05500000 1457799.34885219 13470.06661176
0.05600000 1449681.58285657 16113.21154536
0.05700000 1441473.92774742 15048.98850815
0.05800000 1433175.40328934 13951.96320247
0.05900000 1424790.38993150 19234.67116245
0.06000000 1416322.34213325 12959.35003596
0.06100000 1407772.99746305 13092.28948823
0.06200000 1399144.80066820 19832.87847653
0.06300000 1390441.56029469 16017.88752352
0.06400000 1381662.13453192 16165.44773003
0.06500000 1372813.23706573 16309.02201924
0.06600000 1363896.24557061 17819.30528212
0.06700000 1354912.53212505 13820.10847444
0.06800000 1345866.14702377 22287.54443797
0.06900000 1336760.67567694 15439.58652693
0.07000000 1327595.37348469 18380.55880663
0.07100000 1318375.31750559 15662.29950555
0.07200000 1309102.26093829 14334.67042881
0.07300000 1299779.63694194 25969.59836292
0.07400000 1290410.47990517 14517.11857927
0.07500000 1280995.17938722 20444.68402131
0.07600000 1271537.42261081 14686.25791966
0.07700000 1262040.79048827 19195.64132338
0.07800000 1252506.50654563 16326.42307847
0.07900000 1242936.60974179 20881.33602307
0.08000000 1233336.32946845 20979.05194841
0.08100000 1223706.61747856 18061.91052142
0.08200000 1214048.47334419 15114.90420240
0.08300000 1204365.88078767 18210.01297214
0.08400000 1194661.48959079 18278.32164870
0.08500000 1184937.49200274 18342.83323731
0.08600000 1175196.48772386 23004.47232729
0.08700000 1165440.48780409 19998.95970982
0.08800000 1155671.33335868 18513.85562989
0.08900000 1145892.69247456 17016.50728251
0.09000000 1136106.35820055 20160.20827330
0.09100000 1126314.47617263 17097.45455156
0.09200000 1116518.76855396 18690.52506380
0.09300000 1106723.74064462 17165.28602403
0.09400000 1096927.90158145 15631.22333216
0.09500000 1087135.84584146 17220.23260753
0.09600000 1077349.02096185 20378.05768942
0.09700000 1067572.45450972 17262.64740099
0.09800000 1057804.66083355 17279.23994715
0.09900000 1048050.01197350 15720.75091883
0.10000000 1038307.49108214 22022.50292151
0.10100000 1028581.56960494 17311.02863062
0.10200000 1018874.24750076 22038.25101004
0.10300000 1009186.01855688 20466.29341908
0.10400000 999520.25309362 17316.68919951
0.10500000 989880.30461296 15739.09758386
0.10600001 980262.62192915 17306.53740449
0.10700001 970674.87795083 18869.92051534
0.10800001 961114.60315554 23571.33675170
0.10900001 951586.42011226 15701.17667084
0.11000001 942091.00827528 17254.39762872
0.11100001 932629.33448509 17234.99091259
0.11200001 923204.28704708 20342.80742276
0.11300001 913815.60473206 21876.74660726
0.11400001 904466.78705728 18722.46337362
0.11500001 895159.18125589 28036.38687711
0.11600001 885893.13198288 20211.65275799
0.11700001 876670.98934668 18620.49269065
0.11800001 867492.69565456 17033.21988141
0.11900001 858360.49979802 15450.48972411
0.12000001 849275.63520103 15414.35350499
0.12100001 840240.84686585 18451.68986640
0.12200001 831255.30359910 18403.99328872
0.12300001 822321.57902774 26001.80955392
0.12400001 813439.56150892 19827.59024601
0.12500001 804610.39896295 16727.85098266
0.12600001 795837.14726543 19708.90788078
0.12700001 787119.00959057 15112.68569634
0.12800001 778456.96786941 15063.14303819
0.12900001 769852.88826104 16513.34523151
0.13000001 761307.29510899 17951.62686482
0.13100001 752820.04393669 22358.75635886
0.13200001 744392.86480878 19305.82985890
0.13300001 736027.78830116 16273.57516652
0.13400001 727723.04375448 16210.03156386
0.13500001 719481.91238689 16145.17487518
0.13600001 711302.53441364 20464.17487998
0.13700001 703187.80883945 18922.78482814
0.13800001 695135.82356993 18841.65738636
0.13900001 687150.30366158 14430.15705739
0.14000001 679229.63402495 15802.27818084
0.14100001 671374.68389133 15730.30958546
0.14200001 663585.55642154 15657.30194225
0.14300001 655864.61401194 17000.01159704
0.14400001 648208.01948697 18328.08261553
0.14500001 640620.95243781 19641.43932827
0.14600001 633100.72580091 16751.84599495
0.14700001 625650.44024229 13889.44042863
0.14800001 618265.69336709 19345.53445815
0.14900001 610950.90827618 15121.03569326
0.15000001 603703.88007692 19143.45094048
0.15100001 596526.16622685 23121.35529393
0.15200001 589417.79492429 16232.56683818
0.15300001 582379.46002526 14798.26277756
0.15400001 575407.59235635 14716.04986898
0.15500001 568506.69584744 14633.36304171
0.15600001 561672.58061452 13227.38989774
0.15700001 554911.02948422 15781.67042338
0.15800001 548214.77533368 18304.89221236
0.15900001 541589.74273334 14297.96988303
0.16000001 535031.25822055 19381.50824389
0.16100001 528544.50709731 16696.72176736
0.16200001 522125.20132193 20425.53883992
0.16300001 515773.56464701 15225.63634715
0.16400001 509490.76675236 13870.88677967
0.16500001 503275.09676065 12531.55050097
0.16600001 497128.32538613 17434.29119442
0.16700001 491047.21796766 13611.82952474
0.16800001 485032.91443287 13525.14345757
0.16900001 479087.43125579 14660.07608865
0.17000001 473207.02919592 13351.53695922
0.17100001 467392.57524361 19293.96641714
0.17200001 461644.28539073 13177.63674876
0.17300001 455961.27958365 15470.76694687
0.17400001 450343.59024616 14185.82376269
0.17500001 444789.86199548 11742.45291125
0.17600001 439298.80405045 17495.07569759
0.17700001 433873.39383947 13901.30419518
0.17800001 428509.41512705 12656.02617355
0.17900001 423208.79035869 12569.30166735
0.18000001 417970.30671325 18156.63098125
0.18100001 412795.06460546 19157.81985329
0.18200001 407678.22301217 16786.15162547
0.18300001 402623.22550481 17779.84247820
0.18400001 397627.69888724 12137.58608192
0.18500001 392693.47886104 15338.60800894
0.18600001 387816.32384228 14141.72291701
0.18700001 382997.31475944 11880.57726513
0.18800001 378236.13424401 10722.99491244
0.18900001 373534.28023197 11710.30023855
0.19000001 368884.70326490 15852.82087184
0.19100001 364295.94324952 12590.06839358
0.19200001 359759.31894822 11456.53605324
0.19300001 355279.76972040 17575.69103857
0.19400001 350852.61732367 10262.43954166
0.19500001 346479.79708255 17317.06107651
0.19600001 342159.72919224 12132.98457052
0.19700001 337891.96571637 13046.00941283
0.19800001 333676.27591495 11952.28476812
0.19900001 329512.10638262 10873.90002453
0.20000001 325396.76700846 9810.71298897
0.20100001 321332.97230275 13630.94532931
0.20200001 317316.90464597 11594.76024377
0.20300001 313350.97502503 11506.24834676
0.20400001 309432.34861041 10466.54968646
0.20500001 305560.82443940 11330.19590576
0.20600001 301736.27384732 13116.47644413
0.20700001 297958.20868718 13944.44482570
0.20800001 294224.17640874 11068.71403972
0.20900001 290537.81853199 10982.33005966
0.21000001 286893.38312856 10896.21120631
0.21100001 283293.47910938 9909.60636771
0.21200001 279736.25868465 9831.33127624
0.21300001 276220.76711382 9753.35574788
0.21400001 272748.13585722 8796.12779725
0.21500001 269317.78792761 12216.25543795
0.21600001 265926.88536299 12118.28873893
0.21700001 262576.28583721 8586.24495283
0.21800001 259265.47962482 10220.24569003
0.21900001 255992.86322753 11826.87084030
0.22000001 252758.19268032 10054.72138024
0.22100001 249563.19888096 10803.59139039
0.22200001 246405.33909057 9890.71077877
0.22300001 243283.00889518 8174.30948540
0.22400001 240196.15982336 8917.28285511
0.22500001 237147.81402593 8843.24240320
0.22600001 234132.25441933 8769.42400397
0.22700001 231153.73249875 11067.64123542
0.22800001 228207.65623158 12542.29337961
0.22900001 225294.77103850 10881.73795577
0.23000001 222416.20717504 7706.72194308
0.23100001 219570.98521492 8405.17771153
0.23200001 216756.07998404 9090.75042447
0.23300001 213973.85996586 10514.67597601
0.23400001 211223.55351658 12657.57204312
0.23500001 208502.14679293 9595.26924923
0.23600001 205812.94622852 9511.64575982
0.23700001 203152.96822820 8703.07357053
0.23800001 200522.79982263 12220.86261322
0.23900001 197921.26490397 7837.68246092
0.24000001 195348.42872824 7768.03063581
0.24100001 192805.10365693 6998.82559380
0.24200001 190289.00197975 8323.24134030
0.24300001 187800.55760517 8935.55095353
0.24400001 185338.94719384 9535.68928420
0.24500001 182904.28617769 6749.16847922
0.24600001 180496.11544987 10699.81023002
0.24700001 178114.30456506 7951.02293191
0.24800001 175758.33473465 8533.94634675
0.24900001 173426.85473396 6503.50736019
0.25000001 171121.53363616 9019.81646467
0.25100001 168839.64440444 7020.35274646
0.25200001 166584.04011218 10114.98339415
0.25300001 164352.34102134 11271.28408049
0.25400001 162143.97517824 6822.20807839
0.25500001 159958.86300560 8599.38888203
0.25600001 157797.81987484 7299.72749278
0.25700001 155659.15970421 6024.00976557
0.25800001 153544.03443929 6561.70462222
0.25900001 151451.25638120 6497.25920617
0.26000001 149380.77050460 7602.73467456
0.26100001 147331.66733874 7527.17524049
0.26200001 145305.32313895 5732.29526907
0.26300001 143299.61090446 6809.59783239
0.26400001 141315.82065863 5617.30413698
0.26500001 139353.55482804 7228.26923096
0.26600001 137411.20964936 6603.98304825
0.26700001 135490.66117203 5446.72483686
0.26800001 133590.97687768 9163.67349256
0.26900001 131710.14732871 5867.68734116
0.27000001 129850.67379049 6861.95918118
0.27100001 128010.59231659 5222.83241368
0.27200001 126191.85141222 5684.31221586
0.27300001 124391.73213361 5112.50043264
0.27400001 122609.25678002 5057.63208153
0.27500001 120848.95433878 5003.14694640
0.27600001 119105.49148741 4948.83340551
0.27700001 117382.75564029 6363.31948441
0.27800001 115677.85915590 8714.01354262
0.27900001 113992.82221341 6702.77826338
0.28000001 112324.81368320 6628.28756915
0.28100001 110676.24821101 5149.76607299
0.28200001 109046.45401780 5091.92441136
0.28300001 107434.40535055 4576.70588455
0.28400001 105840.12291642 6786.99820325
0.28500001 104264.37983910 4472.94210681
0.28600001 102706.10180055 4863.64768097
0.28700001 101165.57041218 5681.45870327
0.28800001 99641.88074454  4319.47573473
0.28900001 98137.78204498  5976.59120943
0.29000001 96649.31362826  4218.74273956
0.29100001 95179.14237878  5002.61596023
0.29200001 93725.78225480  6178.87248763
0.29300001 92289.76077363  4883.97437133
0.29400001 90870.02606688  4423.09872818
0.29500001 89468.39652658  4766.87639259
0.29600001 88082.78572653  3924.08828987
0.29700001 86713.89785916  4263.72255957
0.29800001 85361.48375220  4211.30900027
0.29900001 84026.47825847  3781.19170063
0.30000001 82706.94208350  4481.06233422
0.30100001 81405.00491972  4793.94096667
0.30200001 80117.66768534  4369.61780242
0.30300001 78847.96637510  3955.01418061
0.30400001 77593.98250094  4614.90232772
0.30500001 76355.84018743  3855.20655358
0.30600001 75132.87120280  5535.79021230
0.30700001 73926.95154137  4440.05291978
0.30800001 72736.33560206  4045.59517772
0.30900001 71561.39642400  3993.12610951
0.31000001 70402.53560981  3284.27844169
0.31100001 69258.02643887  4213.65852804
0.31200001 68129.72574499  3838.42893021
0.31300001 67016.31178194  3787.76212125
0.31400001 65919.23283621  3737.62067878
0.31500001 64836.21280019  3995.20762191
0.31600002 63768.74298707  3032.20387260
0.31700002 62716.21847580  4487.34564441
0.31800002 61678.62109823  4131.85102301
0.31900002 60656.10936704  3493.79206497
0.32000002 59648.40940592  4595.31367822
0.32100002 58654.67008141  3966.22897871
0.32200002 57676.78649756  3073.88448194
0.32300002 56711.48307062  3307.41384929
0.32400002 55761.48805384  3262.04720561
0.32500002 54825.79952858  2680.98172390
0.32600002 53904.61761194  3701.63026669
0.32700002 52996.79253730  4432.65193772
0.32800002 52103.83197508  4114.11876757
0.32900002 51224.12696547  2535.59440486
0.33000002 50359.24192900  3250.43742423
0.33100002 49505.75827320  2465.38687875
0.33200002 48668.69388370  2674.10151207
0.33300002 47843.76950818  4314.55133856
0.33400002 47032.79998119  2599.73814207
0.33500002 46234.05564729  2563.21616647
0.33600002 45449.81540803  2756.98593321
0.33700002 44677.49420868  2265.14906365
0.33800002 43919.42332004  2679.96333790
0.33900002 43173.05380520  2642.19101801
0.34000002 42440.16875858  2170.81473481
0.34100002 41719.68214143  2568.26375426
0.34200002 41012.45860176  2532.10931399
0.34300002 40316.42817430  2080.32779232
0.34400002 39634.42158428  2051.08141413
0.34500002 38963.43598655  2022.20242347
0.34600002 38305.72553219  2193.19441922
0.34700002 37658.41723877  2162.34642026
0.34800002 37024.55258782  2713.52958768
0.34900002 36401.70831398  2293.30773240
0.35000002 35790.85402124  2261.26626416
0.35100002 35192.01479319  2415.58000981
0.35200002 34603.43649881  2381.92766421
0.35300002 34026.63292924  1987.49572353
0.35400002 33461.31136196  2672.72237163
0.35500002 32907.37086463  2284.42979362
0.35600002 32363.31539945  2079.66674607
0.35700002 31830.51771926  2905.80810022
0.35800002 31309.14712747  1854.59741794
0.35900002 30798.15487530  1829.41048624
0.36000002 30298.01406207  2953.14757051
0.36100002 29807.28172518  2427.80321151
0.36200002 29328.00063592  1596.90971027
0.36300002 28857.89411160  1733.20520244
0.36400002 28397.79030142  2332.16863897
0.36500002 27947.55103357  1687.75268686
0.36600002 27507.35872236  1665.70818633
0.36700002 27076.26831417  1942.99310626
0.36800002 26656.20948983  1770.50551818
0.36900002 26244.46916641  1893.53854005
0.37000002 25841.63483489  2013.32186536
0.37100002 25447.88984033  1987.98924850
0.37200002 25064.08041498  1542.56890221
0.37300002 24688.41108896  1662.02391324
0.37400002 24321.62231423  1504.90045198
0.37500002 23963.87096878  1621.87486400
0.37600002 23614.81575598  1335.41789426
0.37700002 23273.59319511  1319.61279668
0.37800002 22940.57077587  1304.17151039
0.37900002 22616.44521760  2191.53364540
0.38000002 22300.09600296  2039.12087511
0.38100002 21990.68628813  1890.09957600
0.38200002 21690.19143374  1619.93202397
0.38300002 21396.64011021  1232.44652873
0.38400002 21111.43769232  1828.77837673
0.38500002 20832.51314801  1568.06333894
0.38600002 20562.15616160  1193.63322173
0.38700002 20298.04128590  1772.01908821
0.38800002 20041.37478498  1403.29712893
0.38900002 19790.98661545  1620.88188060
0.39000002 19548.71775061  1261.18558543
0.39100002 19311.94945974  1476.20548664
0.39200002 19082.40705873  1237.39874435
0.39300002 18858.87134271  1114.55934916
0.39400002 18643.15965738  1767.37161925
0.39500002 18432.44041318  1313.86441490
0.39600002 18227.94249685  1194.02142983
0.39700002 18029.41269711  1183.99158791
0.39800002 17837.08558656  1281.05954752
0.39900002 17650.19844467  1270.81434823
0.40000002 17469.04190235  1260.91550425
0.40100002 17293.71485028  1147.09216037
0.40200002 17124.06521527  1242.17974957
0.40300002 16959.09762547  1027.72136480
0.40400002 16799.88037185  1428.82989332
0.40500002 16645.93029054  1317.85836354
0.40600002 16496.82258834  1107.84417341
0.40700002 16352.83458729  1401.11093382
0.40800002 16213.62570239  994.70598397
0.40900002 16079.07943020  1087.74977499
0.41000002 15949.58514632  1278.27956212
0.41100002 15824.27577117  1271.32237569
0.41200002 15703.20244725  1459.22015655
0.41300002 15587.20931099  1161.55889289
0.41400002 15474.98691159  1252.31337516
0.41500002 15367.11505749  1342.47123503
0.41600002 15262.72417912  954.68344264
0.41700002 15162.88048067  1235.92644654
0.41800002 15067.66378105  1420.50407027
0.41900002 14974.42898102  1132.06688461
0.42000002 14886.25296240  1034.07361103
0.42100002 14801.83389525  1405.43419495
0.42200002 14720.92558794  1214.25560466
0.42300002 14642.86770947  1117.54371654
0.42400002 14568.29082451  1021.60144248
0.42500002 14497.33371889  1204.29356910
0.42600002 14428.76714174  924.16257922
0.42700002 14364.51431397  1198.86242145
0.42800002 14302.59500158  920.37203197
0.42900002 14244.59965352  1102.53206543
0.43000002 14188.98891568  1100.78181224
0.43100002 14135.27868101  1099.15932232
0.43200002 14085.43872099  1372.27393242
0.43300002 14038.09733688  1279.43225191
0.43400002 13993.35670154  1186.98653846
0.43500002 13950.93817761  1094.86968006
0.43600002 13911.42065973  1003.08303420
0.43700002 13873.72235655  1549.55612344
0.43800002 13838.24988669  1002.37367804
0.43900002 13805.84557204  1457.89736150
0.44000002 13775.13930380  1002.34805894
0.44100002 13746.93611809  1275.99067095
0.44200002 13720.54275813  1367.59516423
0.44300002 13696.31739362  1003.39225981
0.44400002 13674.30126807  1186.58754877
0.44500002 13653.01149186  1004.72516330
0.44600002 13634.04198615  1371.24383774
0.44700002 13617.90052304  915.12295852
0.44800002 13601.84330361  1099.30102790
0.44900002 13589.19180580  1008.99753940
0.45000002 13577.49295039  1102.22092995
0.45100002 13567.07132847  1011.83222763
0.45200002 13558.44073571  1105.55530999
0.45300002 13550.79779985  1015.09031129
0.45400002 13545.10177135  924.45323971
0.45500002 13540.70292007  1296.65777308
0.45600002 13537.47768389  1020.79355313
0.45700002 13535.58768924  1115.87390199
0.45800002 13534.51182886  1397.77677537
0.45900002 13534.67742329  1027.28206511
0.46000002 13536.78059505  1591.31631827
0.46100002 13538.77978205  1125.88498004
0.46200002 13542.79429359  1034.60181909
0.46300002 13547.69847040  942.91985823
0.46400002 13552.88015126  945.31343535
0.46500002 13559.52532460  947.81086511
0.46600002 13566.74189741  1235.45540944
0.46700002 13574.43194283  1048.21768431
0.46800002 13584.07967717  1051.20405564
0.46900002 13593.33132042  1054.16289386
0.47000002 13603.70985138  1153.32257586
0.47100002 13614.71831229  1445.88315330
0.47200002 13626.68480099  966.81333245
0.47300002 13639.28881324  1163.70417670
0.47400002 13651.70305369  1069.95227755
0.47500002 13665.13706820  1073.25991621
0.47600002 13679.60410336  2055.42901197
0.47700002 13693.66702607  1080.01956954
