# SAXS profile: number of points = 501, q_min = 0, q_max = 0.5, delta_q = 0.001
#    q    intensity    error
0.00000000 1682732.95097188 277.65093691
0.00100000 1682645.52944563 656.23177207
0.00200000 1682383.23771994 984.19422523
0.00300000 1681946.28302298 1009.16780576
0.00400000 1681334.55799068 1765.40135297
0.00500000 1680548.71602791 2117.49146601
0.00600000 1679588.59018280 1763.56809149
0.00700000 1678454.93682698 3021.21901185
0.00800000 1677147.54020065 2490.56420235
0.00900000 1675667.84874311 2764.85206862
0.01000000 1674015.20027638 4143.18779958
0.01100000 1672191.24679096 3611.93325033
0.01200000 1670195.82205223 3256.88199580
0.01300000 1668030.33802377 3853.15025078
0.01400000 1665694.96037304 4122.59520968
0.01500000 1663191.20959715 4390.82498885
0.01600000 1660518.84285013 4234.32323856
0.01700000 1657679.99208328 4923.30979734
0.01800000 1654675.21710164 5187.40703903
0.01900000 1651505.44050250 5945.41985408
0.02000000 1648171.54991231 6230.08874049
0.02100000 1644676.22378217 7055.66131992
0.02200000 1641018.08452077 6227.66391369
0.02300000 1637200.37657872 5893.92162397
0.02400000 1633223.66191991 7961.96571491
0.02500000 1629090.29544619 6988.79768665
0.02600000 1624800.65259469 7238.48723839
0.02700000 1620356.81980744 9527.69853685
0.02800000 1615759.20438934 9137.11871985
0.02900000 1611011.12935636 11599.28066394
0.03000000 1606113.42078878 7468.42774996
0.03100000 1601067.51834221 8453.63688583
0.03200000 1595874.72340649 10269.45431811
0.03300000 1590539.33805008 12167.62649702
0.03400000 1585059.65308106 9153.71991890
0.03500000 1579440.00927634 10234.77173273
0.03600000 1573680.75225133 8733.92857862
0.03700000 1567785.38073875 11617.29020854
0.03800000 1561755.03036553 11877.14755560
0.03900000 1555592.35682947 10266.91003054
0.04000000 1549297.68984994 9528.18123410
0.04100000 1542874.90457354 9720.11234950
0.04200000 1536325.74752106 9909.30153123
0.04300000 1529651.85530581 11105.27298500
0.04400000 1522856.27561420 14390.99247290
0.04500000 1515941.12182887 15689.99133996
0.04600000 1508907.24941014 12765.35592343
0.04700000 1501758.74252149 17300.26151845
0.04800000 1494497.14481866 13181.46543061
0.04900000 1487125.19270113 12268.78341087
0.05000000 1479644.47397430 14715.06497890
0.05100000 1472059.26718625 14926.68166461
0.05200000 1464368.66683079 19790.94345450
0.05300000 1456577.96727750 12978.11029345
0.05400000 1448688.58089254 16732.35388960
0.05500000 1440703.86126978 13312.10429913
0.05600000 1432624.55435016 15923.62266466
0.05700000 1424455.98334480 17349.87468701
0.05800000 1416197.18223381 15040.01477758
0.05900000 1407852.51739642 13937.74057320
0.06000000 1399425.42850418 12804.74326904
0.06100000 1390917.49663103 14229.08665548
0.06200000 1382331.41735681 16981.94225602
0.06300000 1373670.70825745 17143.41124060
0.06400000 1364934.55159281 14638.92375045
0.06500000 1356129.44659038 14768.25036420
0.06600000 1347256.75543678 13539.93102565
0.06700000 1338317.90919750 15015.92764393
0.06800000 1329316.99590458 15134.27470680
0.06900000 1320257.33987938 15248.97298955
0.07000000 1311138.70809204 16756.35347409
0.07100000 1301965.75085228 21091.84615170
0.07200000 1292740.17049778 15571.05608310
0.07300000 1283465.61361352 17095.76277436
0.07400000 1274144.96606642 28668.26308001
0.07500000 1264778.81964693 15860.32714179
0.07600000 1255370.75365735 21749.29932673
0.07700000 1245924.23689314 16035.04568067
0.07800000 1236440.62058476 16117.00424515
0.07900000 1226921.70350968 20612.28558576
0.08000000 1217373.10206013 20707.51743745
0.08100000 1207795.40498221 14855.88417829
0.08200000 1198189.70972349 19392.70136188
0.08300000 1188560.14886907 16473.44443646
0.08400000 1178909.30177145 19540.42259406
0.08500000 1169239.23764459 15083.18687370
0.08600000 1159552.49482729 19671.80899837
0.08700000 1149851.35400555 16695.84244416
0.08800000 1140137.42769367 25875.42013672
0.08900000 1130414.37662841 22890.89220190
0.09000000 1120684.14620270 19886.54110855
0.09100000 1110948.73424407 15331.09325284
0.09200000 1101209.89222399 16898.06659016
0.09300000 1091472.18068976 21545.66185929
0.09400000 1081734.07837581 21580.59587783
0.09500000 1072000.08393632 23155.20290138
0.09600000 1062271.68658736 17001.65914304
0.09700000 1052554.13435848 21661.56510347
0.09800000 1042845.54168534 15486.25702216
0.09900000 1033150.38789482 20146.43351128
0.10000000 1023467.94016019 31011.08004522
0.10100000 1013802.30675784 17062.29362520
0.10200000 1004155.46659814 21719.88376414
0.10300000 994528.40933564 15514.64391546
0.10400000 984923.90243455 24820.08350901
0.10500000 975345.72246994 15507.99771691
0.10600001 965789.98387030 18601.11596459
0.10700001 956264.38581055 20138.92891286
0.10800001 946766.77824758 21671.49257398
0.10900001 937301.57400413 17012.02436886
0.11000001 927869.34714950 21628.63550010
0.11100001 918471.20990928 16973.34875812
0.11200001 909109.83118288 20032.23607317
0.11300001 899785.29368410 18463.59509568
0.11400001 890500.80412748 27650.05127004
0.11500001 881257.55869389 19934.04691631
0.11600001 872056.56373981 18365.51209722
0.11700001 862899.41312105 19855.31643100
0.11800001 853786.46996686 18288.10704803
0.11900001 844719.78583354 15204.95686118
0.12000001 835700.73288825 16684.76591805
0.12100001 826731.89001928 19667.95259008
0.12200001 817812.62178073 18106.37229924
0.12300001 808945.29422045 19560.29813582
0.12400001 800130.05673304 22503.65890593
0.12500001 791367.71093768 19443.90557394
0.12600001 782661.64295623 19382.61650119
0.12700001 774010.53967339 17833.20367449
0.12800001 765415.88529473 14810.79807847
0.12900001 756879.48435416 16235.06570459
0.13000001 748401.50540096 19117.91735659
0.13100001 739982.29639988 17581.98019123
0.13200001 731623.20582177 17515.06037304
0.13300001 723326.25692569 17446.63013953
0.13400001 715089.88080177 17376.68492272
0.13500001 706917.18463653 18747.44462047
0.13600001 698806.56673226 15796.52318580
0.13700001 690760.48354051 18588.36548858
0.13800001 682777.46897143 18506.68416917
0.13900001 674860.90583156 17006.49562895
0.14000001 667009.12511927 14107.24366158
0.14100001 659223.39204929 15445.60480418
0.14200001 651503.49195953 16769.70067399
0.14300001 643851.83864049 20860.80055591
0.14400001 636264.60562463 19374.25815515
0.14500001 628747.07563276 13769.56160590
0.14600001 621296.45485769 15069.54622347
0.14700001 613915.80262392 21806.29033795
0.14800001 606600.76244202 14913.28044823
0.14900001 599355.68422422 16182.60423756
0.15000001 592178.39550287 20119.26193650
0.15100001 585070.53530897 21343.37413516
0.15200001 578031.94120222 21225.33388251
0.15300001 571063.39254021 13191.56499018
0.15400001 564161.45805870 17051.78087451
0.15500001 557330.50035457 14345.68775614
0.15600001 550566.25857732 15559.00320170
0.15700001 543874.62038938 16756.77784506
0.15800001 537248.30130291 23064.07066353
0.15900001 530693.24540688 14010.30234004
0.16000001 524204.56395169 17723.35714379
0.16100001 517787.54551883 13840.46174505
0.16200001 511438.13812781 18756.99460128
0.16300001 505156.34138043 14912.21590152
0.16400001 498943.35104422 14818.61822559
0.16500001 492797.45548895 14724.78866519
0.16600001 486720.38748096 13411.58091024
0.16700001 480708.92476133 15748.02511872
0.16800001 474764.06572851 14442.32356138
0.16900001 468888.16911072 16739.30842765
0.17000001 463077.20306374 14253.51698335
0.17100001 457332.06390780 12979.08458659
0.17200001 451653.17808890 15236.52068234
0.17300001 446039.40919128 13969.95495559
0.17400001 440490.68613180 12719.16916273
0.17500001 435006.08840797 19523.07416978
0.17600001 429584.04141290 12546.00252200
0.17700001 424227.45815151 13592.24840114
0.17800001 418932.30539472 12373.16622424
0.17900001 413700.34077138 13403.89167411
0.18000001 408530.42630434 17746.56255692
0.18100001 403423.51815848 12114.80882256
0.18200001 398375.03003066 13122.47410909
0.18300001 393388.04303769 13029.01260089
0.18400001 388460.68992008 11857.76311998
0.18500001 383594.23164718 17123.64730969
0.18600001 378784.87942636 13812.39128083
0.18700001 374033.38810460 12657.29045145
0.18800001 369339.70650109 11517.85929141
0.18900001 364705.03573760 15591.14101442
0.19000001 360122.77898442 10317.51810539
0.19100001 355600.87508665 12289.56682368
0.19200001 351131.22841151 21347.02403995
0.19300001 346718.28318518 12107.40302093
0.19400001 342357.53358002 11015.35416346
0.19500001 338051.01771711 11926.44046865
0.19600001 333797.13018269 14795.55849453
0.19700001 329595.28646861 10767.87851779
0.19800001 325445.22828525 17486.17294214
0.19900001 321346.66163467 12532.52039604
0.20000001 317296.67487729 10523.14471964
0.20100001 313297.99420287 14239.39450951
0.20200001 309346.80432123 12245.49382782
0.20300001 305445.84281660 11215.97187834
0.20400001 301591.64517889 12056.12658587
0.20500001 297784.47844864 12882.15714659
0.20600001 294023.93993831 12781.22127326
0.20700001 290309.74825195 9057.66457361
0.20800001 286639.43746495 9884.76146823
0.20900001 283016.40780348 11589.52244740
0.21000001 279435.29735632 9728.54033735
0.21100001 275898.26753413 10528.27838681
0.21200001 272403.91421966 11314.29711199
0.21300001 268950.83609360 10359.98669610
0.21400001 265540.62485149 11132.79122322
0.21500001 262172.19195801 8494.37942103
0.21600001 258843.08322720 9267.87703312
0.21700001 255553.95480890 9192.27618908
0.21800001 252304.46214774 10774.66256545
0.21900001 249092.84596012 9864.07716641
0.22000001 245919.06080953 9782.66070155
0.22100001 242784.57437612 8893.19937990
0.22200001 239686.91581439 10422.78602702
0.22300001 236624.54019520 8745.64341916
0.22400001 233597.51301049 8672.30808060
0.22500001 230608.59418119 9381.15805490
0.22600001 227652.18613213 9301.86876523
0.22700001 224732.50036810 8454.43706365
0.22800001 221845.13950028 9906.49517286
0.22900001 218990.65304833 9066.21346495
0.23000001 216170.02540325 7490.29173445
0.23100001 213382.69787666 8168.29006102
0.23200001 210625.41779935 11778.17392037
0.23300001 207900.37733498 10216.22502541
0.23400001 205207.02027227 7233.54780671
0.23500001 202542.35394800 7886.99963576
0.23600001 199909.47655380 9238.81689590
0.23700001 197305.56654361 8452.57087052
0.23800001 194731.24195304 7679.22688964
0.23900001 192185.22602845 8302.40215713
0.24000001 189667.66984666 8227.78390713
0.24100001 187179.19340014 6794.60504182
0.24200001 184717.77410861 10099.44477711
0.24300001 182283.59078899 7338.73771231
0.24400001 179876.05258635 8593.57881882
0.24500001 177495.09165388 7204.52611104
0.24600001 175140.37420511 7786.74140551
0.24700001 172811.70194454 7714.31473974
0.24800001 170508.46396332 6368.49143030
0.24900001 168229.48483601 6939.46657777
0.25000001 165976.43271441 7498.81558479
0.25100001 163746.52367122 11141.31399767
0.25200001 161542.34814486 6743.58564234
0.25300001 159362.02315469 9107.54005417
0.25400001 157204.57870049 6614.38296176
0.25500001 155070.17760089 6550.16461176
0.25600001 152959.54944348 6486.25000103
0.25700001 150870.85685588 6422.57268023
0.25800001 148805.44486854 7515.41934867
0.25900001 146762.06758835 7440.83717879
0.26000001 144740.73400442 5666.60000439
0.26100001 142740.35622404 6731.63551804
0.26200001 140762.59202842 8329.62677741
0.26300001 138805.06977388 6046.34912545
0.26400001 136868.93501316 7616.75659389
0.26500001 134954.24859699 5384.67477382
0.26600001 133059.10863507 7993.52632950
0.26700001 131185.45732942 7910.48345129
0.26800001 129332.41460086 7827.84476414
0.26900001 127497.82943728 6196.39480387
0.27000001 125684.31932471 6641.78816902
0.27100001 123889.78721071 6571.11462462
0.27200001 122116.31130972 5500.72950326
0.27300001 120361.23263730 8409.63972235
0.27400001 118623.42556489 8807.78976502
0.27500001 116907.52903019 5323.96912399
0.27600001 115208.13711382 6701.65765307
0.27700001 113529.07181416 7574.66002992
0.27800001 111867.48106281 5617.98516486
0.27900001 110225.64085519 5092.42484852
0.28000001 108600.40634437 4577.50734406
0.28100001 106994.28552425 4978.44434107
0.28200001 105406.64986540 6711.76874784
0.28300001 103836.43449529 4865.77555075
0.28400001 102283.61805983 4809.88736692
0.28500001 100749.08987435 4754.34977620
0.28600001 99231.68450279  4699.11664205
0.28700001 97731.82291403  5488.61943464
0.28800001 96248.34941759  5424.07598817
0.28900001 94784.13930527  5772.35435692
0.29000001 93335.31473723  5296.31268546
0.29100001 91904.39018082  4025.41248046
0.29200001 90490.14369485  6363.26720583
0.29300001 89092.72258805  4714.78710254
0.29400001 87711.37800818  4269.35152664
0.29500001 86347.80512647  4600.61127492
0.29600001 85000.01845796  5301.45140218
0.29700001 83668.48914209  4487.97797003
0.29800001 82353.38399644  4432.25933651
0.29900001 81055.09909002  4012.22759489
0.30000001 79772.13216339  4682.22551899
0.30100001 78506.43796794  4267.61016997
0.30200001 77254.93347550  3862.36058195
0.30300001 76020.92057057  3813.20955634
0.30400001 74802.32231717  3422.20640802
0.30500001 73599.17977861  4729.48351648
0.30600001 72410.91417851  5335.23640926
0.30700001 71239.43961057  3949.51471899
0.30800001 70082.85243826  4872.51054645
0.30900001 68941.77466597  3205.79267374
0.31000001 67816.45678293  3796.36543045
0.31100001 66705.18816252  4370.52413533
0.31200001 65609.84920303  5852.72687526
0.31300001 64529.02375833  4255.04402808
0.31400001 63464.17232043  3598.41874094
0.31500001 62413.34770470  3550.07138553
0.31600002 61377.58661608  3210.35481996
0.31700002 60356.56631219  3742.71085423
0.31800002 59350.15050572  4543.84773786
0.31900002 58358.47343671  2801.20685760
0.32000002 57381.38486484  3868.07933689
0.32100002 56418.00527459  4087.48467569
0.32200002 55470.11283593  3493.78522240
0.32300002 54534.75158815  3710.54467376
0.32400002 53614.16733021  3136.42893733
0.32500002 52707.61154007  4123.84372217
0.32600002 51815.37478375  3049.85310419
0.32700002 50936.12307285  3007.26884862
0.32800002 50071.64076986  3706.55338351
0.32900002 49220.04581600  3410.94933657
0.33000002 48382.94393749  2642.43460828
0.33100002 47556.90592057  2842.00083239
0.33200002 46747.26559019  3736.04164289
0.33300002 45949.37180045  4604.12727243
0.33400002 45165.05745304  2950.40751784
0.33500002 44392.92426584  2237.40348895
0.33600002 43634.81571941  2426.31404298
0.33700002 42888.48020051  2174.44604914
0.33800002 42155.98552276  2786.72155495
0.33900002 41435.13733234  2747.14973523
0.34000002 40727.39627002  2499.84770144
0.34100002 40031.85400478  2669.72447001
0.34200002 39349.20747682  3441.67859495
0.34300002 38677.65884405  2993.65093631
0.34400002 38019.67386963  3148.02914550
0.34500002 37372.69730969  2327.57169868
0.34600002 36738.67673598  2103.47303614
0.34700002 36114.76811614  2262.22918194
0.34800002 35503.99811592  2044.49782834
0.34900002 34904.11752681  1832.46625695
0.35000002 34315.86185985  2529.42229749
0.35100002 33739.56385042  1781.44905568
0.35200002 33173.04006283  2107.81506542
0.35300002 32618.23724947  1905.23132798
0.35400002 32074.60256057  1707.97266725
0.35500002 31542.04956475  2189.64918450
0.35600002 31019.23607736  2159.40422180
0.35700002 30507.51170521  2785.03087548
0.35800002 30006.93314894  1939.04811193
0.35900002 29516.46643870  1753.27818950
0.36000002 29036.59520842  2358.49755752
0.36100002 28566.00973430  1706.24784225
0.36200002 28106.53505226  1683.44099669
0.36300002 27656.06401740  1661.02328356
0.36400002 27215.40614225  1937.05662393
0.36500002 26784.36646661  1911.60032527
0.36600002 26363.17980465  1596.42242869
0.36700002 25950.82549388  1432.48563512
0.36800002 25549.32296923  2262.64814933
0.36900002 25155.89771435  1814.99810606
0.37000002 24771.21054843  1516.36972555
0.37100002 24395.30160374  1633.50947277
0.37200002 24029.17823346  1344.43258585
0.37300002 23671.08984306  1991.92230465
0.37400002 23321.54454246  1705.38802545
0.37500002 22980.89737227  1555.34720783
0.37600002 22648.75699411  1408.86599556
0.37700002 22324.19882512  1645.51677335
0.37800002 22007.61078091  1501.35927860
0.37900002 21699.70785769  1360.57174713
0.38000002 21399.47717398  1345.27819627
0.38100002 21106.03408470  1814.06371552
0.38200002 20821.25528538  1315.79929009
0.38300002 20543.18822242  1301.61646743
0.38400002 20273.27952355  1756.17292192
0.38500002 20009.52182921  1390.26164256
0.38600002 19754.01039305  1490.73646493
0.38700002 19504.79200871  1362.21473842
0.38800002 19262.65661146  2023.15691975
0.38900002 19026.67958670  1558.28513198
0.39000002 18798.56385086  1543.55015092
0.39100002 18575.93642580  1092.26511358
0.39200002 18360.23626608  1407.03677291
0.39300002 18150.48103259  1179.96282783
0.39400002 17948.21143807  1276.11789371
0.39500002 17750.84836196  1159.84048692
0.39600002 17559.49486406  1359.36835930
0.39700002 17373.99041944  1244.67273262
0.39800002 17194.53567917  1029.09300916
0.39900002 17020.35437442  1429.70983519
0.40000002 16851.66249581  1114.99030186
0.40100002 16688.71767413  1006.32972343
0.40200002 16531.24163083  1099.24496432
0.40300002 16378.31436637  1091.77848739
0.40400002 16230.96785106  1281.84074677
0.40500002 16088.76382760  1077.78633988
0.40600002 15951.22593833  1071.20462864
0.40700002 15818.62766543  1064.91006489
0.40800002 15690.71591627  1058.88801378
0.40900002 15567.26093604  1148.86391151
0.41000002 15448.71727086  1523.86154380
0.41100002 15334.25012024  1137.18804280
0.41200002 15223.87573693  1131.74297591
0.41300002 15118.42511607  1220.51051745
0.41400002 15016.56969951  1215.21596051
0.41500002 14918.92992544  1210.22365290
0.41600002 14824.71703891  1020.01470419
0.41700002 14734.76404153  1108.64369902
0.41800002 14649.50426439  1381.08207997
0.41900002 14565.91567736  1284.71382362
0.42000002 14487.19441403  1372.29955589
0.42100002 14412.34192058  1003.53141548
0.42200002 14340.71625982  1091.90218776
0.42300002 14271.88388862  1179.99941583
0.42400002 14206.33528163  1086.78470054
0.42500002 14144.37172907  1084.59047558
0.42600002 14084.57630376  902.11715500
0.42700002 14029.08653212  1080.80087765
0.42800002 13975.63397284  989.26529765
0.42900002 13926.13934556  988.05963339
0.43000002 13878.88842334  986.99719700
0.43100002 13833.33491681  1254.96020312
0.43200002 13791.59583467  895.76419191
0.43300002 13752.29388003  984.80181142
0.43400002 13715.37114364  1073.91361144
0.43500002 13680.71834275  984.19092422
0.43600002 13648.82743063  1163.08488462
0.43700002 13618.69617317  1163.17289527
0.43800002 13590.69928357  984.44234926
0.43900002 13565.58097443  984.86122542
0.44000002 13542.09664912  985.39070937
0.44100002 13520.97168497  986.08451172
0.44200002 13501.61260880  1166.33686048
0.44300002 13484.34369346  1526.69746532
0.44400002 13469.11108431  1078.87584898
0.44500002 13454.55951722  1260.15410410
0.44600002 13442.25830635  1442.08553945
0.44700002 13432.58576638  1083.20376754
0.44800002 13422.98328166  994.44176355
0.44900002 13416.72501640  996.19187968
0.45000002 13411.19865589  1179.44792169
0.45100002 13406.89047772  908.98721747
0.45200002 13404.34925724  1001.90813272
0.45300002 13402.71459725  1186.54237953
0.45400002 13402.94776264  1097.70147378
0.45500002 13404.34935730  1008.54329344
0.45600002 13406.81581171  1286.65217443
0.45700002 13410.54548633  1381.95677786
0.45800002 13415.04271145  1293.07602824
0.45900002 13420.71002345  1111.23484261
0.46000002 13428.17948993  1299.98211803
0.46100002 13435.59257947  1303.52125384
0.46200002 13444.76528146  1120.48679166
0.46300002 13454.88375991  1123.75194489
0.46400002 13465.10610867  1033.11031515
0.46500002 13476.75625003  1130.43036783
0.46600002 13488.93756638  1133.88014557
0.46700002 13501.51776304  1137.36791027
0.46800002 13515.93070966  1616.43780983
0.46900002 13529.89650299  1335.40084814
0.47000002 13544.91225547  1052.64290583
0.47100002 13560.57749337  1056.09782524
0.47200002 13577.01189990  1059.61794395
0.47300002 13594.04188599  1256.49735108
0.47400002 13610.83565959  1260.70371272
0.47500002 13628.63663990  1362.31858309
0.47600002 13647.25480778  1562.33780445
0.47700002 13665.55989851  1273.76689851
