# SAXS profile: number of points = 501, q_min = 0, q_max = 0.5, delta_q = 0.001
#    q    intensity    error
0.00000000 1700912.83420644 280.65061764
0.00100000 1700825.16074953 765.37134051
0.00200000 1700562.11175061 765.25297452
0.00300000 1700123.89522586 1428.10412286
0.00400000 1699510.42095635 1529.55943698
0.00500000 1698722.30089103 1987.50517071
0.00600000 1697759.42616471 1960.91221705
0.00700000 1696622.49424562 2239.54178548
0.00800000 1695311.30837335 2975.27147181
0.00900000 1693827.37048849 3811.11174652
0.01000000 1692169.93807122 3071.28857022
0.01100000 1690340.71417030 4563.92012697
0.01200000 1688339.49142191 4938.39322893
0.01300000 1686167.71483579 4957.33330026
0.01400000 1683825.50119428 4167.46830020
0.01500000 1681314.51591300 4438.67051966
0.01600000 1678634.34896326 5136.62133745
0.01700000 1675787.17177779 5429.55068012
0.01800000 1672773.55250539 5720.88580699
0.01900000 1669594.55084731 6511.41904212
0.02000000 1666250.81076268 6298.42834960
0.02100000 1662745.24438155 6035.76551076
0.02200000 1659076.26827572 7440.95740128
0.02300000 1655247.28416983 6554.77954368
0.02400000 1651258.67121486 6192.22029941
0.02500000 1647113.07028680 7708.48952099
0.02600000 1642810.54238719 8649.39790128
0.02700000 1638353.44643848 10321.62718530
0.02800000 1633741.99971264 9949.48923453
0.02900000 1628979.62124678 10995.61294827
0.03000000 1624067.10417454 7551.91238154
0.03100000 1619005.83162429 7771.22834938
0.03200000 1613797.23234765 9585.95600166
0.03300000 1608445.67650195 9843.68799399
0.03400000 1602949.17597874 10940.12863084
0.03500000 1597312.14657828 12075.68038576
0.03600000 1591535.18844141 10599.62484487
0.03700000 1585621.35439458 9038.04213804
0.03800000 1579572.27738339 11088.59790041
0.03900000 1573390.40828618 10384.37717559
0.04000000 1567075.90034993 9637.51723374
0.04100000 1560632.79177307 10815.18574845
0.04200000 1554062.84812932 12028.44700255
0.04300000 1547367.63125668 12255.15220841
0.04400000 1540550.33911128 11438.58679913
0.04500000 1533612.90620393 13756.50840784
0.04600000 1526556.25738449 20448.22201824
0.04700000 1519384.47670711 13127.48248928
0.04800000 1512099.18467092 16670.89428666
0.04900000 1504702.96421661 12413.80003262
0.05000000 1497197.60330825 13744.27463839
0.05100000 1489587.09868869 16266.29187543
0.05200000 1481870.82241187 12958.96094590
0.05300000 1474053.85924226 16715.77154306
0.05400000 1466137.93411667 14514.76622463
0.05500000 1458125.93380765 17147.56178150
0.05600000 1450019.25302865 16116.96474950
0.05700000 1441822.49264029 16307.01315295
0.05800000 1433535.08895538 17761.50058148
0.05900000 1425161.26573972 20522.32318516
0.06000000 1416704.56421390 16851.70157862
0.06100000 1408166.59788099 15715.13996674
0.06200000 1399549.96314738 18516.04687795
0.06300000 1390858.38191144 20028.36163596
0.06400000 1382090.64119385 28298.30720186
0.06500000 1373253.54719105 21752.33720503
0.06600000 1364348.39073471 16454.04236212
0.06700000 1355376.63222322 20737.26344350
0.06800000 1346342.30280125 18115.03653214
0.06900000 1337248.95309440 15445.22613137
0.07000000 1328095.79108117 19801.90917231
0.07100000 1318887.96309615 15668.38973545
0.07200000 1309627.19383898 18642.54397764
0.07300000 1300317.04843306 20206.92787946
0.07400000 1290960.28556227 26141.94700776
0.07500000 1281557.52597130 16070.73212896
0.07600000 1272112.16298726 19100.76502271
0.07700000 1262628.15117619 17727.30007372
0.07800000 1253106.30854424 16334.24149789
0.07900000 1243549.17875250 16414.84992945
0.08000000 1233961.60268518 16491.89759354
0.08100000 1224344.44689792 16565.38114375
0.08200000 1214699.14736780 22684.50764157
0.08300000 1205029.25640387 18220.04321193
0.08400000 1195337.51757485 24384.88650312
0.08500000 1185626.29309114 16824.03788877
0.08600000 1175898.16257168 16880.01891626
0.08700000 1166154.76746925 24629.18984548
0.08800000 1156398.37161903 21613.08658059
0.08900000 1146632.58670792 23219.31097144
0.09000000 1136858.88479140 24828.99921020
0.09100000 1127079.81021407 18664.44253402
0.09200000 1117296.81964047 24938.06618613
0.09300000 1107514.42510952 18739.14495345
0.09400000 1097731.24263342 23464.00641404
0.09500000 1087951.82762947 25066.41128677
0.09600000 1078177.66539496 15687.48576893
0.09700000 1068413.56876119 18846.81623899
0.09800000 1058658.38147678 20437.40101533
0.09900000 1048916.22029525 22027.24166198
0.10000000 1039186.08041698 17318.03684457
0.10100000 1029472.59505432 15750.93144513
0.10200000 1019777.59438551 25208.90331894
0.10300000 1010101.56310573 23636.37768855
0.10400000 1000448.28887361 22059.88580747
0.10500000 990820.40829540 15754.04523311
0.10600001 981214.73956958 17323.34704223
0.10700001 971638.99048904 25184.88381862
0.10800001 962090.79818182 15730.18529056
0.10900001 952574.53344049 22004.47275813
0.11000001 943090.91170407 21983.45018657
0.11100001 933640.98061270 20390.71997644
0.11200001 924227.41292655 18798.78646392
0.11300001 914850.40147315 20337.12538224
0.11400001 905513.04799621 21868.14113876
0.11500001 896216.91597938 20272.42759404
0.11600001 886961.99937859 20236.03896877
0.11700001 877751.14553054 17089.81560832
0.11800001 868583.95507675 18605.06919401
0.11900001 859462.63413218 29393.62347181
0.12000001 850388.66017608 16978.01040016
0.12100001 841364.75423270 20016.06844612
0.12200001 832389.76351733 24572.14697666
0.12300001 823466.73157295 15316.48192888
0.12400001 814595.20437489 16801.02688185
0.12500001 805776.23471482 27412.50879669
0.12600001 797013.13235192 19738.03115282
0.12700001 788305.21717822 18162.55305972
0.12800001 779653.09206088 16594.91684662
0.12900001 771058.64776191 16539.20877402
0.13000001 762522.88706890 19478.64806830
0.13100001 754045.23108199 16423.10590711
0.13200001 745627.51828235 22312.90453644
0.13300001 737271.77214765 19264.91231442
0.13400001 728976.30992987 19190.30226364
0.13500001 720744.06784187 16173.49764492
0.13600001 712573.71263230 16107.72953354
0.13700001 704467.53695811 17498.97444317
0.13800001 696424.22557955 20328.62410328
0.13900001 688447.27442704 15903.13278923
0.14000001 680534.90465522 17271.97669471
0.14100001 672688.16941572 20059.56215805
0.14200001 664907.12732718 18540.93612001
0.14300001 657193.94870773 15614.92895781
0.14400001 649545.34076242 15540.37301078
0.14500001 641965.77763453 15464.95631273
0.14600001 634453.08044192 16787.62930044
0.14700001 627010.00098256 15311.58494634
0.14800001 619632.52442211 15233.66633162
0.14900001 612324.61979386 20665.95689308
0.15000001 605084.46500123 13705.16377893
0.15100001 597913.56632073 13632.42995536
0.15200001 590811.60447748 21694.60314012
0.15300001 583779.62701047 14833.84102233
0.15400001 576813.91729374 14752.01663095
0.15500001 569919.20045334 16003.33190397
0.15600001 563091.06813816 17239.03386464
0.15700001 556335.14344672 13185.14352198
0.15800001 549644.39797658 15730.82341256
0.15900001 543024.91181205 19548.89774795
0.16000001 536471.74886960 14251.37268142
0.16100001 529990.07251191 18030.26311796
0.16200001 523575.71882869 14081.56962263
0.16300001 517228.97679242 13996.21677273
0.16400001 510950.78092834 15175.23890999
0.16500001 504739.66279633 13824.82001668
0.16600001 498597.14432411 23730.73220451
0.16700001 492520.33889482 16134.96706400
0.16800001 486510.24889924 14799.64247030
0.16900001 480568.49797032 14705.39673225
0.17000001 474691.80834047 12175.84545887
0.17100001 468880.81730063 18145.68848640
0.17200001 463135.99241094 14422.05548473
0.17300001 457456.25443294 13133.56968500
0.17400001 451841.60692539 13046.92701613
0.17500001 446290.81647008 12960.28592237
0.17600001 440802.52532817 12873.63836022
0.17700001 435379.81500006 13949.56993145
0.17800001 430018.33491309 15009.79068909
0.17900001 424720.16743925 18347.91210001
0.18000001 419483.74717915 11388.98427387
0.18100001 414310.58468637 14703.88334508
0.18200001 409195.58026537 13478.90305066
0.18300001 404142.31942443 11154.32854304
0.18400001 399148.39651621 14399.27908455
0.18500001 394215.70289251 12098.48049333
0.18600001 389339.72444468 10920.97978662
0.18700001 384521.96583570 13012.22393864
0.18800001 379761.72135867 11842.86984010
0.18900001 375060.82015155 13896.00404317
0.19000001 370411.93514232 13795.99317622
0.19100001 365823.78811972 14750.01583393
0.19200001 361287.56921472 14642.98587217
0.19300001 356808.28523592 13498.05806829
0.19400001 352381.45545538 10307.15805912
0.19500001 348008.58362821 11254.59812637
0.19600001 343688.56821498 10155.99767069
0.19700001 339420.45765020 11088.86687546
0.19800001 335204.41775543 10005.85234286
0.19900001 331039.63980778 9931.18966358
0.20000001 326923.82686366 11828.10461494
0.20100001 322859.24307178 12717.42618565
0.20200001 318842.38142371 10679.62607054
0.20300001 314875.40869278 10598.70675754
0.20400001 310955.67157574 10518.07608819
0.20500001 307082.95913237 15182.18221712
0.20600001 303256.96180941 13182.58075297
0.20700001 299477.47637406 10278.06747499
0.20800001 295741.77762742 9271.50516689
0.20900001 292053.91932603 11039.63867238
0.21000001 288407.54892254 12779.33909687
0.21100001 284805.72113701 10868.18683236
0.21200001 281246.51723208 12580.15731051
0.21300001 277728.71884995 13372.63844482
0.21400001 274253.82104711 9729.15476161
0.21500001 270821.18909271 9652.06763559
0.21600001 267427.71285966 9575.24971164
0.21700001 264074.55974469 11225.81006550
0.21800001 260761.03616216 9422.60048723
0.21900001 257485.59762977 12745.53768530
0.22000001 254248.14410650 9271.15901321
0.22100001 251050.10313110 9195.96571251
0.22200001 247889.10992601 10779.45845483
0.22300001 244763.70339064 12336.09123421
0.22400001 241673.67303878 11419.08159105
0.22500001 238621.81853006 12942.84804910
0.22600001 235602.72217286 10428.95499015
0.22700001 232620.68170352 9546.75322857
0.22800001 229670.97819260 11833.79771099
0.22900001 226754.29502809 10169.93061296
0.23000001 223872.05713160 7757.16714646
0.23100001 221022.98344356 8460.76020635
0.23200001 218204.09393667 9914.10347689
0.23300001 215417.72419385 10585.62746753
0.23400001 212663.21500490 11994.20589355
0.23500001 209937.52781678 7431.78883621
0.23600001 207244.18605342 8104.28427893
0.23700001 204579.78259510 8033.84844249
0.23800001 201945.14345243 8687.68048224
0.23900001 199339.06301194 7176.20660786
0.24000001 196761.73203632 7824.23064451
0.24100001 194213.67666751 8459.94815580
0.24200001 191692.91294203 8384.64840870
0.24300001 189199.50246848 8309.64254148
0.24400001 186733.05394902 8234.92806869
0.24500001 184293.48097980 7480.47274683
0.24600001 181880.24447274 8086.39605179
0.24700001 179493.29623873 6677.15093595
0.24800001 177132.30264863 7939.07018028
0.24900001 174795.68504954 7210.32234940
0.25000001 172485.07140324 7792.87589467
0.25100001 170197.80201144 8363.52038651
0.25200001 167936.93783639 7010.52780165
0.25300001 165699.77818078 7575.79421684
0.25400001 163485.88128943 8129.33583173
0.25500001 161295.18592013 7432.48251884
0.25600001 159128.57114502 8588.16939103
0.25700001 156984.40097158 6682.82626555
0.25800001 154863.43887582 7219.73386199
0.25900001 152764.91087834 5957.83180615
0.26000001 150688.71939157 6489.41000765
0.26100001 148633.64113537 7009.56284761
0.26200001 146601.50283712 6940.11547269
0.26300001 144589.75483015 7443.48093086
0.26400001 142600.03729143 5668.35175055
0.26500001 140631.70793312 6733.44649446
0.26600001 138683.32898488 7220.54786527
0.26700001 136756.59421093 7146.89995166
0.26800001 134850.70172129 5985.34867913
0.26900001 132963.70143032 8616.04826041
0.27000001 131098.01917807 7993.70209766
0.27100001 129251.75311128 5800.81895415
0.27200001 127426.57678877 7305.36599302
0.27300001 125620.14915995 6711.88488725
0.27400001 123831.34592076 6640.45623926
0.27500001 122064.57028741 6064.16813887
0.27600001 120314.48062059 6498.78697828
0.27700001 118585.41474385 6923.01684039
0.27800001 116873.89947565 5380.29021700
0.27900001 115182.20940937 5321.41832656
0.28000001 113507.69375082 7654.95922885
0.28100001 111852.45278567 7097.03846515
0.28200001 110215.93684089 5614.40008840
0.28300001 108597.16521095 5551.48734834
0.28400001 106996.17782093 5488.90418201
0.28500001 105413.53843892 5878.91331700
0.28600001 103848.56422161 4917.74899148
0.28700001 102301.20314015 6629.11827725
0.28800001 100770.60712287 4805.24662810
0.28900001 99259.61326366  4749.57271948
0.29000001 97764.16849744  5974.36861967
0.29100001 96287.11979286  5904.32646518
0.29200001 94826.77151465  5001.16416641
0.29300001 93383.73909315  4530.04539784
0.29400001 91956.98808527  5289.82599001
0.29500001 90548.27571092  4422.37799506
0.29600001 89155.56999748  4369.06891455
0.29700001 87779.59177888  3923.74793826
0.29800001 86420.04570559  3875.93923338
0.29900001 85077.95374914  3828.50809995
0.30000001 83751.12851379  4915.77272083
0.30100001 82441.98394071  4481.54645917
0.30200001 81147.42229468  4056.96556968
0.30300001 79870.43800851  4006.30136017
0.30400001 78609.14363434  3956.00534068
0.30500001 77363.73770197  4261.19487436
0.30600001 76133.40576621  5609.50960242
0.30700001 74920.21836660  3807.44567765
0.30800001 73722.23179177  4442.13328692
0.30900001 72539.85646619  4047.72418245
0.31000001 71373.58275810  5993.24002795
0.31100001 70221.75237486  3943.65380009
0.31200001 69085.93628825  3567.94334853
0.31300001 67965.15127783  5121.85404280
0.31400001 66860.61096298  3790.99682109
0.31500001 65770.02967763  3117.49955432
0.31600002 64695.03980382  4306.74900365
0.31700002 63634.90485859  4553.07765821
0.31800002 62589.81796466  2994.92293141
0.31900002 61559.83154726  3250.35925960
0.32000002 60544.48225491  2915.21695861
0.32100002 59543.06926481  4313.89557250
0.32200002 58557.70504933  3120.83303838
0.32300002 57584.72162362  2798.61760342
0.32400002 56627.17528642  3864.80489630
0.32500002 55683.80892794  2995.23222406
0.32600002 54754.94040576  3222.87594489
0.32700002 53839.40916725  4238.23849034
0.32800002 52938.84358418  2612.53205459
0.32900002 52051.38457644  2576.54365854
0.33000002 51178.72204189  3049.22840365
0.33100002 50317.53688721  3006.97614677
0.33200002 49472.63022954  3706.73699548
0.33300002 48640.05165518  3167.92671432
0.33400002 47821.26843056  3364.22639341
0.33500002 47014.82513700  3080.41148885
0.33600002 46222.67861911  3271.17912079
0.33700002 45442.60836489  3225.51649449
0.33800002 44676.81550308  2726.17941110
0.33900002 43922.57198543  2912.06666054
0.34000002 43181.87210866  2429.62814926
0.34100002 42453.60160854  3049.01781192
0.34200002 41738.58465338  2362.19531033
0.34300002 41034.73235184  2540.87074756
0.34400002 40344.91938853  3131.77451585
0.34500002 39666.04343950  2470.40130241
0.34600002 39000.39438493  2232.96768626
0.34700002 38345.30980152  2001.62526644
0.34800002 37703.58897256  1973.78297619
0.34900002 37072.84953615  2140.95716211
0.35000002 36454.24214412  1919.31593979
0.35100002 35847.43694832  1892.74476052
0.35200002 35251.06440109  2053.19834329
0.35300002 34666.39121725  2393.02109907
0.35400002 34093.14224154  2178.55189242
0.35500002 33531.42086211  2506.80914238
0.35600002 32979.50125768  1942.65761360
0.35700002 32438.96028320  2787.15559955
0.35800002 31909.59025010  2577.49727454
0.35900002 31390.83333572  1864.61558846
0.36000002 30882.87573275  1672.30780014
0.36100002 30384.25225658  1649.86497568
0.36200002 29897.20886776  1953.48371995
0.36300002 29419.32725245  1766.92487848
0.36400002 28951.41908263  2060.61735081
0.36500002 28493.32244795  1564.28347649
0.36600002 28045.36902866  1852.67716579
0.36700002 27606.59537912  1828.66096453
0.36800002 27178.69722276  1955.64325130
0.36900002 26759.29928198  1633.65529855
0.37000002 26348.65678867  2052.82394765
0.37100002 25947.22437128  2171.78278275
0.37200002 25555.63533537  1715.80543769
0.37300002 25172.26545687  1553.38057493
0.37400002 24797.90015142  1813.34653447
0.37500002 24432.46439206  2066.98658548
0.37600002 24075.78923991  1497.63454061
0.37700002 23726.89168360  1345.31482219
0.37800002 23386.36188548  1728.36915702
0.37900002 23054.68504448  1839.76395370
0.38000002 22730.75251044  1428.96882426
0.38100002 22413.85663395  1541.17685516
0.38200002 22105.75943409  2031.96150344
0.38300002 21804.76616790  1381.55004985
0.38400002 21512.13161688  1366.55822570
0.38500002 21225.83926697  1720.56661249
0.38600002 20948.18912857  1459.25092383
0.38700002 20676.54209278  1564.38724885
0.38800002 20412.60033225  1191.07528581
0.38900002 20154.89094194  1768.59176394
0.39000002 19905.35555102  1284.19407421
0.39100002 19661.42258778  1618.52838411
0.39200002 19424.62812602  1603.11463519
0.39300002 19193.91352035  1134.36034280
0.39400002 18971.02823250  1124.03347603
0.39500002 18753.25328979  1336.73195783
0.39600002 18541.73023080  1214.57609631
0.39700002 18336.23824996  1204.14082292
0.39800002 18136.96349003  1411.14651120
0.39900002 17943.05381484  1076.58327990
0.40000002 17755.03101207  1708.74426556
0.40100002 17572.94976341  1377.54359722
0.40200002 17396.43006175  1261.93709647
0.40300002 17224.78776245  1252.58662543
0.40400002 17058.82373751  1036.32359115
0.40500002 16898.19393189  1440.74008290
0.40600002 16742.46161665  1124.34006314
0.40700002 16592.02527935  1015.43199521
0.40800002 16446.19848169  1210.76918959
0.40900002 16305.23090686  1303.60327277
0.41000002 16169.44281514  1196.21543614
0.41100002 16037.68087247  1585.80595981
0.41200002 15910.30928810  985.64370710
0.41300002 15788.19323679  1176.53621575
0.41400002 15669.76283209  975.44278252
0.41500002 15555.78468946  1456.02151592
0.41600002 15445.33855126  1352.54836102
0.41700002 15339.46788751  1250.32008676
0.41800002 15238.28479597  1149.27149377
0.41900002 15139.21201437  1049.14744231
0.42000002 15045.27077899  1045.11978419
0.42100002 14955.02959772  1135.98410207
0.42200002 14868.40679594  1132.08054709
0.42300002 14784.70248795  1034.33783507
0.42400002 14704.58637216  1124.90091077
0.42500002 14628.12023810  1215.15800576
0.42600002 14554.14179721  1025.41210891
0.42700002 14484.52372058  1115.88776031
0.42800002 14417.44473209  1298.86765746
0.42900002 14354.15443898  925.84300519
0.43000002 14293.38638831  1016.47422117
0.43100002 14234.67401315  1106.88830372
0.43200002 14179.85087934  1197.27576573
0.43300002 14127.53002221  1195.61292244
0.43400002 14077.92283033  1102.30140985
0.43500002 14030.71700007  1101.13072235
0.43600002 13986.58330876  1100.18469520
0.43700002 13944.20549381  1190.97464767
0.43800002 13904.17016668  915.58964886
0.43900002 13867.30743049  915.24233379
0.44000002 13832.21552282  1647.00198035
0.44100002 13799.66103186  1372.37635465
0.44200002 13768.99512495  1006.44474635
0.44300002 13740.61134980  1464.19961482
0.44400002 13714.56867417  1098.53700286
0.44500002 13689.20881167  915.80811290
0.44600002 13666.31305547  1099.59160055
0.44700002 13646.35178907  917.03488369
0.44800002 13626.62911103  1284.85491977
0.44900002 13610.26575991  1010.56228057
0.45000002 13594.94869531  1011.66815511
0.45100002 13581.06462525  1012.87584775
0.45200002 13569.01696923  922.01474676
0.45300002 13557.98828452  1477.27847349
0.45400002 13549.05007363  924.72271135
0.45500002 13541.46612935  1574.60175615
0.45600002 13535.18635769  1206.18818943
0.45700002 13530.28374601  1022.48359115
0.45800002 13526.32822034  931.28774211
0.45900002 13523.60844181  1399.69354006
0.46000002 13522.85271358  1028.61584041
0.46100002 13522.23612094  1124.50920911
0.46200002 13523.66804515  1033.14066927
0.46300002 13526.05235222  941.41328833
0.46400002 13528.83943989  1321.09123392
0.46500002 13533.16597235  1135.16201556
0.46600002 13538.11287570  1232.84830746
0.46700002 13543.60907214  1426.14210289
0.46800002 13551.16546413  1429.98680338
0.46900002 13558.44652782  1147.04463062
0.47000002 13566.96771420  1341.90884021
0.47100002 13576.07249234  1249.54177142
0.47200002 13586.33220024  1445.92547294
0.47300002 13597.33348724  1353.47863947
0.47400002 13608.16993421  1939.16430754
0.47500002 13620.11382011  1069.72379013
0.47600002 13633.16489092  1560.72479069
0.47700002 13645.89229053  1174.09262833
