# SAXS profile: number of points = 501, q_min = 0, q_max = 0.5, delta_q = 0.001
#    q    intensity    error
0.00000000 1700912.83420644 280.65061764
0.00100000 1700825.05302439 612.29703363
0.00200000 1700561.67739220 1224.40444649
0.00300000 1700122.91879628 1530.11068142
0.00400000 1699508.67318321 1529.55786398
0.00500000 1698719.57847074 1834.61721736
0.00600000 1697755.49857928 2495.70068452
0.00700000 1696617.16073713 2850.31694850
0.00800000 1695304.34285815 2288.66095949
0.00900000 1693818.53779431 3048.87349836
0.01000000 1692159.05976804 3350.47508301
0.01100000 1690327.54755756 3346.84868988
0.01200000 1688323.82415314 3950.67792173
0.01300000 1686149.35907268 5665.46209636
0.01400000 1683804.24656230 4925.12763953
0.01500000 1681290.09033018 5245.62531541
0.01600000 1678606.58939317 5136.53639316
0.01700000 1675755.85677467 5429.44921951
0.01800000 1672738.48561764 6674.22685794
0.01900000 1669555.49770337 6010.40006294
0.02000000 1666207.57987125 7347.97575962
0.02100000 1662697.60899159 7681.66330182
0.02200000 1659024.02360502 5723.63314148
0.02300000 1655190.27137171 8342.15934744
0.02400000 1651196.70061805 7430.38549159
0.02500000 1647045.79380187 7708.17466703
0.02600000 1642737.92485629 7318.39778997
0.02700000 1638275.14992076 7568.83153929
0.02800000 1633657.96870730 9238.33623671
0.02900000 1628889.58511317 9529.00451043
0.03000000 1623970.86002844 9061.75781548
0.03100000 1618903.24227252 12433.17747274
0.03200000 1613688.04394147 10384.08304103
0.03300000 1608329.62085737 13123.97031122
0.03400000 1602826.14775147 9256.32143035
0.03500000 1597181.98908899 9487.26145329
0.03600000 1591397.70229285 10598.70918708
0.03700000 1585476.37442105 9940.93732736
0.03800000 1579419.60964631 11087.52617284
0.03900000 1573229.81506785 10383.31726030
0.04000000 1566907.26347894 12527.42415202
0.04100000 1560455.91828178 10813.96001510
0.04200000 1553877.62730440 11024.76227719
0.04300000 1547173.87700704 11232.48286846
0.04400000 1540347.72935350 10397.34765601
0.04500000 1533401.39246745 13754.61112954
0.04600000 1526335.67755500 11836.73372969
0.04700000 1519154.75253764 14219.28914506
0.04800000 1511859.95792609 11112.17120779
0.04900000 1504454.23427949 11283.40728231
0.05000000 1496939.16720713 13741.90219487
0.05100000 1489318.79310994 12778.35584015
0.05200000 1481592.50682903 12956.52707601
0.05300000 1473765.48427262 15518.75127284
0.05400000 1465839.11715470 15721.12526462
0.05500000 1457816.71779716 13470.22710082
0.05600000 1449699.28160006 13634.42237969
0.05700000 1441491.87409201 15049.17586799
0.05800000 1433193.66922691 16488.89393436
0.05900000 1424808.80525523 19234.91976933
0.06000000 1416341.01658929 18143.32927014
0.06100000 1407791.83411102 17020.20406978
0.06200000 1399163.81678395 13222.09868666
0.06300000 1390460.59036444 16018.10674993
0.06400000 1381681.32964496 16165.67231286
0.06500000 1372832.52034977 16309.25110467
0.06600000 1363915.53525052 20561.02765592
0.06700000 1354931.90561117 15202.33669241
0.06800000 1345885.43984861 16715.89794538
0.06900000 1336779.93687280 15439.80899376
0.07000000 1327614.54266657 15553.00509566
0.07100000 1318394.41303067 15662.52636040
0.07200000 1309121.20512300 18635.34122793
0.07300000 1299798.41591090 20198.86832969
0.07400000 1290429.00595435 15969.05969706
0.07500000 1281013.54721325 14603.55512274
0.07600000 1271555.42489498 22029.69876907
0.07700000 1262058.45278251 17719.30150790
0.07800000 1252523.83516374 17810.88977129
0.07900000 1242953.64746538 23864.71115068
0.08000000 1233352.93151173 20979.33434918
0.08100000 1223722.64520645 27093.22063604
0.08200000 1214064.05074559 25695.66683980
0.08300000 1204380.90745489 19727.76018997
0.08400000 1194675.93003521 18278.54258751
0.08500000 1184951.38695360 19871.63569209
0.08600000 1175209.69563347 15336.48724809
0.08700000 1165452.97445200 15383.97998516
0.08800000 1155683.00891982 16971.20578302
0.08900000 1145903.56267485 15469.69882272
0.09000000 1136116.39108764 18609.58736021
0.09100000 1126323.67842549 18651.92099102
0.09200000 1116526.91453831 18690.66142758
0.09300000 1106730.89067142 18725.88755013
0.09400000 1096933.91364548 20320.70170530
0.09500000 1087140.79560593 17220.31101180
0.09600000 1077352.96476107 21945.68092380
0.09700000 1067575.17784205 18832.02702248
0.09800000 1057806.13652580 21991.79061237
0.09900000 1048050.21460063 15720.75395824
0.10000000 1038306.44353230 15730.34335927
0.10100000 1028579.18505175 18884.71472573
0.10200000 1018870.26399170 18889.85558292
0.10300000 1009180.72000175 17317.54196986
0.10400000 999513.44982713 18890.80509045
0.10500000 989871.92445769 23608.44650908
0.10600001 980252.56906436 17306.35992116
0.10700001 970663.19043475 18869.69331002
0.10800001 961101.33724048 21999.61064477
0.10900001 951571.45068360 17271.02264278
0.11000001 942074.15487751 25096.85666723
0.11100001 932610.67418467 20368.21808299
0.11200001 923183.63905087 26601.53781157
0.11300001 913793.10784256 20313.62174372
0.11400001 904442.32702927 23402.44631377
0.11500001 895132.66151138 20247.90175682
0.11600001 885864.54513898 23320.38524898
0.11700001 876640.49279371 31033.07490640
0.11800001 867460.02576660 15484.16218921
0.11900001 858325.53710012 21629.80455372
0.12000001 849238.44715661 21579.14995873
0.12100001 840201.29703522 15375.68446006
0.12200001 831213.35115653 16869.47575646
0.12300001 822277.49187713 21412.10689730
0.12400001 813393.07693478 15251.12091112
0.12500001 804561.42520629 18247.45398351
0.12600001 795785.82747109 16675.69280047
0.12700001 787065.22870071 21156.31434450
0.12800001 778400.48125647 18074.46002661
0.12900001 769793.94799979 22516.47404024
0.13000001 761245.73987109 19446.02334159
0.13100001 752755.98097081 19375.93986352
0.13200001 744326.02936773 19304.09648165
0.13300001 735958.31360660 19230.59164113
0.13400001 727650.76855466 16208.42163371
0.13500001 719406.85927600 14675.90062117
0.13600001 711224.85494214 19000.37289566
0.13700001 703107.12791617 21831.47735122
0.13800001 695052.28310509 17390.20894334
0.13900001 687064.14774641 20199.68689632
0.14000001 679140.37772055 21545.72949929
0.14100001 671282.54210913 20017.64634979
0.14200001 663490.62108836 15655.06194296
0.14300001 655766.53242837 16997.46932227
0.14400001 648107.09516618 18325.22898022
0.14500001 640516.98185823 16832.78707727
0.14600001 632993.91399214 19540.52304675
0.14700001 625540.70859306 16664.40526309
0.14800001 618152.93272588 20723.57804735
0.14900001 610835.00008996 15118.16696551
0.15000001 603584.99708313 20506.80124347
0.15100001 596404.31114687 16317.62272292
0.15200001 589292.83999373 16229.12557923
0.15300001 582251.39489430 17485.01021378
0.15400001 575276.50053771 20062.76890304
0.15500001 568372.85497425 17289.90306428
0.15600001 561535.51338024 17191.41055348
0.15700001 554770.84487983 17092.49053746
0.15800001 548071.56055576 13071.50733621
0.15900001 541443.61962375 14294.11223276
0.16000001 534882.16618917 12917.40492320
0.16100001 528392.27072523 15407.91934167
0.16200001 521969.90185099 16590.81411352
0.16300001 515615.32863937 16489.37898831
0.16400001 509329.58286711 15127.08932530
0.16500001 503111.04223952 16285.70520616
0.16600001 496961.21320941 14938.65477437
0.16700001 490877.37517980 12370.11043858
0.16800001 484860.22253149 18436.81083228
0.16900001 478911.74299923 19539.60003699
0.17000001 473028.44344633 12133.18014732
0.17100001 467211.12028525 18081.07120885
0.17200001 461460.03752998 21554.79937091
0.17300001 455774.34062554 13085.28193730
0.17400001 450153.86920366 11816.53962464
0.17500001 444597.45220978 12911.11062193
0.17600001 439103.74042772 13989.84583076
0.17700001 433675.76117140 18526.62939227
0.17800001 428309.23445035 14950.13453462
0.17900001 423006.17710674 15989.63424988
0.18000001 417765.10923934 13610.78790192
0.18100001 412587.38621787 11263.63617580
0.18200001 407468.09740193 13421.99976245
0.18300001 402410.73600820 13327.84420619
0.18400001 397412.92762733 13233.85111517
0.18500001 392476.39738901 12045.10120490
0.18600001 387597.00599746 14133.72549142
0.18700001 382775.84619017 12953.13524704
0.18800001 378012.61625401 11788.32399483
0.18900001 373308.62461644 11703.22593467
0.19000001 368657.16591997 12674.43396318
0.19100001 364066.38727221 12582.13493863
0.19200001 359527.84520731 12489.99793267
0.19300001 355046.54473103 14464.59691583
0.19400001 350617.61850625 16408.90532148
0.19500001 346243.08386625 13233.41129071
0.19600001 341921.52945649 11114.15984020
0.19700001 337652.19945197 14039.57911669
0.19800001 333434.86924256 12938.94071244
0.19900001 329269.25250022 12841.50145440
0.20000001 325152.59134994 10783.68620177
0.20100001 321087.57123202 9728.95386814
0.20200001 317070.17103718 11585.74459728
0.20300001 313103.36566190 16287.63785156
0.20400001 309183.47943602 19014.78488406
0.20500001 305311.12000862 11320.93686502
0.20600001 301485.51875310 14041.68869965
0.20700001 297706.72617586 10217.29532532
0.20800001 293971.87851573 12902.42635796
0.20900001 290284.84738068 9143.97312474
0.21000001 286639.80421919 13608.22534860
0.21100001 283039.47376258 12600.91796760
0.21200001 279481.73153713 10715.33009369
0.21300001 275965.88775548 10630.20649889
0.21400001 272493.12968958 10545.48461754
0.21500001 269062.60853713 11332.91760738
0.21600001 265671.52360719 11241.89105294
0.21700001 262320.83289769 12866.83746197
0.21800001 259010.19524500 11061.03091091
0.21900001 255737.66204464 9283.27757115
0.22000001 252503.34784840 9207.53501465
0.22100001 249308.66005042 11622.77028112
0.22200001 246151.22533093 9880.51065198
0.22300001 243029.45611675 8165.79011165
0.22400001 239943.19904616 8907.89168581
0.22500001 236895.56469171 12849.21603648
0.22600001 233880.76255117 9556.36840974
0.22700001 230903.11297454 8686.57552088
0.22800001 227957.96194689 9396.42763581
0.22900001 225046.03240639 8540.49733371
0.23000001 222168.60729316 8467.95686744
0.23100001 219324.73385580 9159.00131897
0.23200001 216511.05830932 8323.76803036
0.23300001 213730.21473908 9752.51015978
0.23400001 210981.42099905 8180.80498615
0.23500001 208261.60155515 8846.95325249
0.23600001 205574.08964063 8038.97515562
0.23700001 202915.79420555 9417.32245450
0.23800001 200287.53897668 9334.40119551
0.23900001 197687.86880171 10675.14542022
0.24000001 195117.07643473 7053.48264675
0.24100001 192575.81017353 9087.65291195
0.24200001 190061.86935387 6927.75546565
0.24300001 187575.62896925 7551.79517952
0.24400001 185116.44098773 10204.54429216
0.24500001 182684.10611344 8089.25260136
0.24600001 180278.51819446 6679.31941507
0.24700001 177899.22961434 7941.42198566
0.24800001 175545.86321310 6556.63830118
0.24900001 173217.14549779 7794.77191615
0.25000001 170914.72244225 7078.43356481
0.25100001 168635.75595864 7011.87506448
0.25200001 166383.04547316 7577.08424932
0.25300001 164154.46129933 6879.71379854
0.25400001 161949.20333963 6814.01305289
0.25500001 159767.20688081 6135.06103448
0.25600001 157609.45660657 6683.42932361
0.25700001 155474.20843528 6618.53736623
0.25800001 153362.41619958 6553.94316638
0.25900001 151273.05220079 6489.61424647
0.26000001 149206.14696118 7009.70511590
0.26100001 147160.60813488 8096.77704269
0.26200001 145137.96910109 6870.83178235
0.26300001 143136.02566742 6235.00557310
0.26400001 141155.96550831 6172.04488390
0.26500001 139197.53119838 5553.98175762
0.26600001 137259.14972284 6046.95212718
0.26700001 135342.49627467 7617.07605078
0.26800001 133446.83794831 5923.03818262
0.26900001 131570.06671133 6394.30554476
0.27000001 129714.70166586 5272.90287224
0.27100001 127878.83038466 5217.45652660
0.27200001 126064.19083669 6711.02751678
0.27300001 124268.44023945 6128.91976266
0.27400001 122490.24373941 6063.26735204
0.27500001 120734.31730356 5998.08116750
0.27600001 118995.20490817 4944.25099793
0.27700001 117276.94242341 7335.67309576
0.27800001 115576.36298040 7255.30652947
0.27900001 113895.86529073 6218.71453919
0.28000001 112232.45623761 5203.65807974
0.28100001 110588.42386834 6081.25771634
0.28200001 108963.20276268 4625.48817620
0.28300001 107355.78953311 5030.69253563
0.28400001 105766.14502289 5877.95378786
0.28500001 104194.96822610 7151.94295755
0.28600001 102641.45497976 6186.20078443
0.28700001 101105.70849833 5241.32017664
0.28800001 99586.63843757  5180.49717673
0.28900001 98087.26445537  5120.15544693
0.29000001 96603.53021796  6325.11644042
0.29100001 95138.10337397  5000.45895003
0.29200001 93689.56194865  4529.42208681
0.29300001 92258.17242823  5289.16127568
0.29400001 90843.28469750  4421.79709196
0.29500001 89446.45467929  4765.70733091
0.29600001 88065.61332899  4707.98791143
0.29700001 86701.48095340  4650.66765849
0.29800001 85353.84439699  3828.12010242
0.29900001 84023.58557699  4537.27383595
0.30000001 82708.81416629  4107.73345003
0.30100001 81411.56888268  4425.53309397
0.30200001 80129.00471785  4370.23612420
0.30300001 78863.97996222  3955.81742218
0.30400001 77614.77320299  4616.13885478
0.30500001 76381.30642985  6310.62383599
0.30600001 75162.97922820  4153.50642879
0.30700001 73961.73366997  4100.43870879
0.30800001 72775.75633445  4722.41905212
0.30900001 71605.28598415  4661.50433826
0.31000001 70450.98392285  3943.84626672
0.31100001 69311.06346688  4216.88530097
0.31200001 68187.25673080  3201.39185508
0.31300001 67078.24899705  3475.32424508
0.31400001 65985.66253986  3429.60497289
0.31500001 64907.04605936  3076.59412888
0.31600002 63843.93029659  3339.35693227
0.31700002 62795.61221861  4493.02626698
0.31800002 61762.33954701  3841.92651343
0.31900002 60743.99088470  3790.42521068
0.32000002 59740.46688899  2876.50361691
0.32100002 58750.82650736  4540.26408747
0.32200002 57777.05888460  2799.29863551
0.32300002 56815.79964499  3037.37279284
0.32400002 55869.77231859  3268.38183540
0.32500002 54937.91017058  2955.11032800
0.32600002 54020.63480614  2914.68348898
0.32700002 53116.54827659  2613.33429896
0.32800002 52227.33997953  2577.41935004
0.32900002 51351.32527024  3558.64700974
0.33000002 50490.02352104  2757.51276518
0.33100002 49640.00446181  3708.10850889
0.33200002 48806.52330482  3413.04033633
0.33300002 47984.94656395  3846.47349872
0.33400002 47177.30986919  3081.85791315
0.33500002 46381.89726242  3038.94205255
0.33600002 45600.77850544  2996.65530140
0.33700002 44831.55302138  2500.25583041
0.33800002 44076.58476714  3810.20055064
0.33900002 43333.11965875  3093.98489016
0.34000002 42603.09840807  2832.89316281
0.34100002 41885.48831444  3008.21591321
0.34200002 41180.97044534  4449.39816249
0.34300002 40487.63909378  2506.99473142
0.34400002 39808.16271706  2060.07251817
0.34500002 39139.68650450  2031.34982579
0.34600002 38484.37831816  2604.04558223
0.34700002 37839.36137979  3160.34361212
0.34800002 37207.77738765  2337.39268619
0.34900002 36587.06225687  2881.23128919
0.35000002 35978.29312100  2651.96011155
0.35100002 35381.42236710  2802.20878419
0.35200002 34794.72525165  2026.61886827
0.35300002 34219.72269208  2362.18756931
0.35400002 33656.13160771  1971.40800229
0.35500002 33103.83524752  3005.16630611
0.35600002 32561.28205419  2092.38808391
0.35700002 32029.96429591  2064.01099699
0.35800002 31509.92085997  2375.53304615
0.35900002 31000.27203878  2176.21920020
0.36000002 30501.24686792  2477.46389419
0.36100002 30011.58120101  1955.55472369
0.36200002 29533.35518656  1929.70951929
0.36300002 29064.14536311  1904.28289439
0.36400002 28604.89262294  1722.72973982
0.36500002 28155.28443028  1854.87022613
0.36600002 27715.81098208  1983.48210689
0.36700002 27285.23690957  1807.37417850
0.36800002 26865.67788290  1635.71687538
0.36900002 26454.25317780  1761.85334510
0.37000002 26051.73334079  2174.66854364
0.37100002 25658.07899835  2147.58131389
0.37200002 25274.42266232  1979.74562092
0.37300002 24898.71040846  2234.90835213
0.37400002 24531.88003650  1517.91014916
0.37500002 24173.94467374  1499.75159860
0.37600002 23824.67069750  1616.74223012
0.37700002 23483.00050947  1864.08066875
0.37800002 23149.56662296  1974.07938729
0.37900002 22824.91785295  2081.63260680
0.38000002 22507.95352651  1286.32960498
0.38100002 22197.84167347  1399.13002696
0.38200002 21896.56936801  1761.14115770
0.38300002 21602.12536099  1493.13897569
0.38400002 21315.95613282  1723.39513498
0.38500002 21035.99027577  1705.17745254
0.38600002 20764.59531090  1325.92329639
0.38700002 20499.19776333  1431.66403962
0.38800002 20241.27458161  1299.18627057
0.38900002 19989.51646351  1987.95750648
0.39000002 19745.78448971  1158.09031519
0.39100002 19507.54191428  1147.04351890
0.39200002 19276.37910813  1136.34260226
0.39300002 19051.16355798  1688.88572943
0.39400002 18833.72093510  1562.25722558
0.39500002 18621.17429307  1106.09780541
0.39600002 18414.79394031  1644.90154665
0.39700002 18214.32716109  1087.39538304
0.39800002 18019.99565211  1294.19614905
0.39900002 17831.01485215  1283.83313018
0.40000002 17647.67844074  1486.11107191
0.40100002 17470.13904360  1158.79437766
0.40200002 17298.17193076  1359.37690559
0.40300002 17130.90211669  1972.45216317
0.40400002 16969.28241722  1237.06074683
0.40500002 16812.83638350  1126.29196270
0.40600002 16661.15682238  1118.88003942
0.40700002 16514.62478423  1718.18164396
0.40800002 16372.78847612  1305.81180678
0.40900002 16235.53271386  1198.18237105
0.41000002 16103.34869309  1092.04864336
0.41100002 15975.19734969  1283.44741589
0.41200002 15851.30132402  1374.78342897
0.41300002 15732.41068944  1660.87067518
0.41400002 15617.24343092  1263.82548453
0.41500002 15506.38821181  1354.63813837
0.41600002 15398.97682585  1155.84725532
0.41700002 15296.03666462  1342.68616204
0.41800002 15197.73776427  1146.21343649
0.41900002 15101.33447537  1141.66094043
0.42000002 15010.01208217  1421.82346186
0.42100002 14922.34881605  1039.04319730
0.42200002 14838.22891072  1129.78280280
0.42300002 14756.88981826  1220.09970799
0.42400002 14679.00528974  1029.36529472
0.42500002 14604.71057304  1026.56515482
0.42600002 14532.79092597  1116.99036350
0.42700002 14465.16524082  1392.99547870
0.42800002 14399.86075301  1111.95730004
0.42900002 14338.42397936  1572.20826384
0.43000002 14279.35762828  1107.79261730
0.43100002 14222.20847098  1198.07889837
0.43200002 14168.91073731  1196.35203480
0.43300002 14118.06219995  1286.72024988
0.43400002 14069.81531798  1009.86104230
0.43500002 14023.86993576  1100.59336471
0.43600002 13980.86694664  916.44587178
0.43700002 13939.64321123  1099.00152285
0.43800002 13900.63817499  1464.57130752
0.43900002 13864.68700844  1098.08326311
0.44000002 13830.48012260  914.88630347
0.44100002 13798.67578280  1280.79314686
0.44200002 13768.80707092  1097.92472787
0.44300002 13741.01679876  1189.69729082
0.44400002 13715.51572117  1190.16393311
0.44500002 13690.70250229  1099.08964897
0.44600002 13668.21674499  1099.74477142
0.44700002 13648.57860560  917.18452576
0.44800002 13629.08261250  1285.08626043
0.44900002 13612.99391015  1010.76484573
0.45000002 13597.78433324  919.89015374
0.45100002 13583.94724288  1013.09083339
0.45200002 13571.89235056  1014.43114182
0.45300002 13560.80456969  1108.18900195
0.45400002 13551.73719743  1202.37793983
0.45500002 13543.98606189  1204.33129770
0.45600002 13537.43204909  1113.58921313
0.45700002 13532.21993896  1580.42804157
0.45800002 13527.90772838  1024.53614037
0.45900002 13524.77404353  1586.45607049
0.46000002 13523.62917318  1496.25440264
0.46100002 13522.47450286  1218.23978570
0.46200002 13523.33354554  1220.95422703
0.46300002 13525.09850514  1317.88566080
0.46400002 13527.19516879  1509.63505239
0.46500002 13530.75747038  1607.85998641
0.46600002 13534.94169260  1042.93498155
0.46700002 13539.64346950  1045.53131827
0.46800002 13546.36036444  1334.18109553
0.46900002 13552.73359824  1242.10809315
0.47000002 13560.24962603  1053.83484963
0.47100002 13568.42225027  1056.70877494
0.47200002 13577.60404123  1059.66415762
0.47300002 13587.48879919  1255.89164923
0.47400002 13597.23758626  968.80322394
0.47500002 13608.00563774  1068.77281345
0.47600002 13619.88719328  1071.95327236
0.47700002 13631.36902058  977.36920510
