# SAXS profile: number of points = 501, q_min = 0, q_max = 0.5, delta_q = 0.001
#    q    intensity    error
0.00000000 1682732.95097188 252.40994265
0.00100000 1682645.66615742 757.19056775
0.00200000 1682383.77783203 1211.31635840
0.00300000 1681947.50452244 1211.00224640
0.00400000 1681336.73283265 1765.40363656
0.00500000 1680552.10300905 2419.99512412
0.00600000 1679593.48116493 2116.28787243
0.00700000 1678461.58737128 2014.15398855
0.00800000 1677156.20213904 3169.82535587
0.00900000 1675678.81690133 2513.51833280
0.01000000 1674028.75036253 3314.57706884
0.01100000 1672207.63519683 3611.96864929
0.01200000 1670215.27943481 4233.99591900
0.01300000 1668053.17095406 4203.49417620
0.01400000 1665721.38362121 5996.59724687
0.01500000 1663221.57233196 5588.42473188
0.01600000 1660553.34726869 5504.73459228
0.01700000 1657718.87771134 4475.84117060
0.01800000 1654718.75657049 4715.94866843
0.01900000 1651553.96870094 6936.52698154
0.02000000 1648225.22535023 6749.48260313
0.02100000 1644735.37346033 8141.44046775
0.02200000 1641082.86504898 7360.25698414
0.02300000 1637271.14664970 6483.59403586
0.02400000 1633300.55682392 7962.34057758
0.02500000 1629173.62657476 7624.53292059
0.02600000 1624890.60373364 7896.96869534
0.02700000 1620453.71207056 7486.49649266
0.02800000 1615863.25220659 7029.00546945
0.02900000 1611122.55662473 8700.06220523
0.03000000 1606232.46172695 7468.98129034
0.03100000 1601194.37795225 9222.88004138
0.03200000 1596009.68528478 9480.29796724
0.03300000 1590682.66298419 9734.97834625
0.03400000 1585211.45745394 9986.83264276
0.03500000 1579600.53995710 11941.78063352
0.03600000 1573850.27214338 10481.84329688
0.03700000 1567963.94716700 11618.61338584
0.03800000 1561943.05178059 11878.57745853
0.03900000 1555790.02571703 12135.16276257
0.04000000 1549505.07297312 10482.40230441
0.04100000 1543092.32315553 11665.77850396
0.04200000 1536553.35686164 12884.00049501
0.04300000 1529889.79413774 11107.00042100
0.04400000 1523104.77385972 12337.14924123
0.04500000 1516200.43808811 11507.96185980
0.04600000 1509177.47441413 12767.64202707
0.04700000 1502040.16837391 11896.15868679
0.04800000 1494789.86768025 15381.38845410
0.04900000 1487429.28469345 15618.00821626
0.05000000 1479960.35614660 12453.86697690
0.05100000 1472386.93731052 13781.54237523
0.05200000 1464708.25201542 13973.31737540
0.05300000 1456929.70322544 14161.35737552
0.05400000 1449052.65800402 13150.15348463
0.05500000 1441080.19195815 14526.08901257
0.05600000 1433013.69391296 14702.72118564
0.05700000 1424857.75498732 12396.26304703
0.05800000 1416611.88420822 16298.12048881
0.05900000 1408280.18667958 12674.52227209
0.06000000 1399866.20272638 17932.28689470
0.06100000 1391371.49586200 15527.70661945
0.06200000 1382798.73722079 18294.42814858
0.06300000 1374151.58347021 15830.22698172
0.06400000 1365428.88570809 19969.39838738
0.06500000 1356637.61056225 13430.71297283
0.06600000 1347778.70063473 16254.21189017
0.06700000 1338853.72577336 13656.30864199
0.06800000 1329866.69513595 19269.76931452
0.06900000 1320821.21620114 19416.07278720
0.07000000 1311716.65473316 15366.76132980
0.07100000 1302558.03795721 15474.39021572
0.07200000 1293346.77037336 14162.14779904
0.07300000 1284086.68620620 21380.04432711
0.07400000 1274780.51268949 21511.92215977
0.07500000 1265429.01772106 15868.48062602
0.07600000 1256035.28004255 26112.97469628
0.07700000 1246603.47673306 18960.83977016
0.07800000 1237134.47157218 20524.06184588
0.07900000 1227630.46130585 14731.56622664
0.08000000 1218096.69809416 17759.85069135
0.08100000 1208533.59795143 14864.96395224
0.08200000 1198943.05442872 16419.52590089
0.08300000 1189328.22093706 17982.64354453
0.08400000 1179692.28585320 18049.29282076
0.08500000 1170037.16416464 16602.82813892
0.08600000 1160365.58971742 21199.88031950
0.08700000 1150679.13617600 15188.96531076
0.08800000 1140980.21406281 16755.29523040
0.08900000 1131272.23875741 19853.82872272
0.09000000 1121556.90219928 26025.72913811
0.09100000 1111836.48575216 21480.68191392
0.09200000 1102112.64061623 18449.36647079
0.09300000 1092389.76913734 16942.96611551
0.09400000 1082666.50083022 20056.39787048
0.09500000 1072947.51784574 15450.44498319
0.09600000 1063234.07060847 17017.06210002
0.09700000 1053531.10369772 24779.05272390
0.09800000 1043837.50226122 17051.08640114
0.09900000 1034157.01752123 20166.06278992
0.10000000 1024489.28481474 17073.11473434
0.10100000 1014838.44477029 26395.94918992
0.10200000 1005206.07488783 15530.43458751
0.10300000 995593.65755450 23296.89268268
0.10400000 986003.88278928 23294.34282678
0.10500000 976439.91349010 23288.09303243
0.10600001 966898.48083801 17070.59348243
0.10700001 957387.32500268 23264.51309234
0.10800001 947903.91594820 18597.87570615
0.10900001 938452.90470895 15484.47365648
0.11000001 929034.72893506 21655.80055081
0.11100001 919650.47517152 29355.24454933
0.11200001 910302.99613510 18515.56381305
0.11300001 900992.30087466 16947.66597736
0.11400001 891721.54425542 18458.63683520
0.11500001 882492.10773076 21497.50875660
0.11600001 873304.45364739 21457.09143656
0.11700001 864160.85542737 22943.47179212
0.11800001 855061.30471000 18315.41400951
0.11900001 846007.71888889 22842.20948591
0.12000001 837001.73513933 22787.37331257
0.12100001 828045.95651967 21214.53840541
0.12200001 819139.50318377 18135.74945489
0.12300001 810284.96514828 21099.82148657
0.12400001 801482.34333816 18033.35357479
0.12500001 792732.45171042 17979.17285198
0.12600001 784038.65142879 17923.12441626
0.12700001 775400.03770507 16376.44956809
0.12800001 766817.42158631 17805.50136839
0.12900001 758292.81377292 16265.38162205
0.13000001 749826.79889014 19154.32648049
0.13100001 741419.24510852 14680.10174513
0.13200001 733071.63843397 23399.64780188
0.13300001 724786.20237095 21852.30503167
0.13400001 716561.09286663 18863.47165904
0.13500001 708399.38970812 14451.34823140
0.13600001 700299.73454582 18708.50829051
0.13700001 692264.38359104 18628.83544085
0.13800001 684292.08604013 19974.48693342
0.13900001 676385.99225022 18465.33845922
0.14000001 668544.49450279 19795.60341580
0.14100001 660768.88805154 15481.81577722
0.14200001 653059.09213744 16809.74182445
0.14300001 645417.17833512 15335.11288056
0.14400001 637839.82236326 18034.92182803
0.14500001 630331.54360452 16565.11374734
0.14600001 622890.36056458 16481.67971805
0.14700001 615518.95173831 16397.42564788
0.14800001 608212.80654363 14952.91255433
0.14900001 600976.40732720 14874.16678312
0.15000001 593807.89171742 20174.62407300
0.15100001 586708.66910595 17390.04577285
0.15200001 579678.20203694 14633.97690096
0.15300001 572717.77050454 17198.71545984
0.15400001 565823.76542982 17102.02411718
0.15500001 559000.76031133 14388.68024946
0.15600001 552244.02274557 15606.41681933
0.15700001 545559.65982803 15515.71745780
0.15800001 538940.45805883 12853.73053138
0.15900001 532392.60279036 20443.87691211
0.16000001 525910.91144260 15240.89893301
0.16100001 519500.68651571 15148.64073388
0.16200001 513157.68867371 12546.70608035
0.16300001 506882.26585377 14963.16519438
0.16400001 500675.34688595 17348.40158861
0.16500001 494535.51106019 14776.72176811
0.16600001 488464.07257429 15906.83327439
0.16700001 482458.35988309 17021.13174032
0.16800001 476519.19336472 14495.71454659
0.16900001 470648.41028773 18002.30254354
0.17000001 464842.39185919 13115.52870562
0.17100001 459102.17760501 14213.80408985
0.17200001 453427.95015205 12943.10144830
0.17300001 447818.75254408 18700.91198938
0.17400001 442274.44060575 17414.55692127
0.17500001 436793.96900568 16143.90585689
0.17600001 431375.97690311 11453.03272769
0.17700001 426023.28558668 12512.30448864
0.17800001 420731.57121090 12426.30754263
0.17900001 415503.28192675 11218.58914192
0.18000001 410336.49864951 13368.76375747
0.18100001 405232.80708336 13275.42738714
0.18200001 400187.11845757 12083.65061263
0.18300001 395203.00532646 13089.12415473
0.18400001 390278.18337294 16245.33015034
0.18500001 385414.19492498 12903.66785568
0.18600001 380606.93706842 13878.83261588
0.18700001 375857.70783076 10599.18786158
0.18800001 371165.90460146 11574.80928186
0.18900001 366533.02971195 16713.90694455
0.19000001 361952.30122972 12443.92070424
0.19100001 357431.81361041 11323.44039021
0.19200001 352963.13050735 11240.11142212
0.19300001 348551.38699386 14199.98417712
0.19400001 344191.56085263 14094.64508294
0.19500001 339885.85631204 14988.96697167
0.19600001 335632.58733661 15868.70947917
0.19700001 331431.10485537 12796.55556320
0.19800001 327281.31053702 17584.82564619
0.19900001 323182.66774346 12604.12463767
0.20000001 319132.77769730 13470.59518324
0.20100001 315133.84457234 11458.26713019
0.20200001 311182.34305372 10423.05307321
0.20300001 307280.72013872 9402.79048066
0.20400001 303425.88644100 12129.45038379
0.20500001 299617.94158320 10184.01431578
0.20600001 295856.39767420 11023.60989840
0.20700001 292141.10991073 10026.28336607
0.20800001 288469.54064002 10852.22463186
0.20900001 284845.28415111 13458.94031236
0.21000001 281262.49954766 9792.15438465
0.21100001 277723.88091046 9714.78181350
0.21200001 274227.62344762 12266.20217669
0.21300001 270772.56775135 11299.33978645
0.21400001 267360.17757130 15520.25904176
0.21500001 263989.62148678 8553.26414055
0.21600001 260658.06443883 9332.86243848
0.21700001 257366.51972766 10099.06271159
0.21800001 254114.32346145 9182.42151243
0.21900001 250899.87400837 13247.51397401
0.22000001 247723.27740614 8212.02703430
0.22100001 244585.71867278 8959.17529860
0.22200001 241485.05057700 9693.21038850
0.22300001 238419.37492129 8010.89137615
0.22400001 235389.11617929 11916.57457007
0.22500001 232396.56319067 11029.54141059
0.22600001 229436.49536153 8593.54434014
0.22700001 226513.10883426 7746.74868847
0.22800001 223621.92518810 8449.55484281
0.22900001 220763.37874239 10662.87169751
0.23000001 217938.76617847 10572.21004730
0.23100001 215147.24817102 10481.97442661
0.23200001 212385.55431987 10392.02566435
0.23300001 209656.10264472 8830.71546104
0.23400001 206958.30485807 9483.86476866
0.23500001 204289.00075055 7955.01406547
0.23600001 201651.44383735 10753.06375121
0.23700001 199042.79070246 9948.15914984
0.23800001 196463.44890509 8451.85797166
0.23900001 193912.49590489 9075.10523760
0.24000001 191389.79674134 11069.98636713
0.24100001 188896.08019352 8914.00644598
0.24200001 186429.33986301 8833.95468727
0.24300001 183989.84856395 8754.23740877
0.24400001 181576.77448338 7340.24145571
0.24500001 179190.24384323 7273.33234166
0.24600001 176829.91289351 8517.01315741
0.24700001 174495.40369698 7789.47518952
0.24800001 172186.37338200 6431.16135005
0.24900001 169901.49527212 8919.82892376
0.25000001 167642.40280233 10098.77882257
0.25100001 165406.29455045 8753.30152172
0.25200001 163196.21980616 6812.62651811
0.25300001 161009.55034223 6134.46415826
0.25400001 158845.84220314 9113.78062759
0.25500001 156705.01670805 7220.96751154
0.25600001 154587.84213148 9534.97855379
0.25700001 152492.73619322 8262.05683785
0.25800001 150420.62391454 6428.22566713
0.25900001 148370.48606282 10415.60861442
0.26000001 146342.40385137 5729.30538187
0.26100001 144335.21110888 6239.61147147
0.26200001 142350.57407487 7300.44953686
0.26300001 140386.07614438 7227.07554188
0.26400001 138443.01953116 6603.73234411
0.26500001 136521.22303474 6536.63646821
0.26600001 134618.94019221 6469.78657179
0.26700001 132738.04222735 6936.89041506
0.26800001 130877.59901218 7393.27591805
0.26900001 129035.79088030 6793.73471134
0.27000001 127214.86577089 6722.66989979
0.27100001 125412.97400761 6140.21949799
0.27200001 123631.93600739 8100.36483054
0.27300001 121869.33273094 7012.36173719
0.27400001 120123.94403462 5946.13551111
0.27500001 118400.31795694 5882.12807447
0.27600001 116693.06603660 5818.31654794
0.27700001 115006.42696051 4795.76823122
0.27800001 113336.96427357 7589.04348693
0.27900001 111687.14879677 5629.03256577
0.28000001 110054.12416946 6494.29417460
0.28100001 108439.98655255 5963.11514275
0.28200001 106844.23033862 6349.75290956
0.28300001 105265.96750281 6278.06259901
0.28400001 103705.08786887 4433.39271623
0.28500001 102162.26819621 6135.86611828
0.28600001 100636.79913743 5198.89728951
0.28700001 99128.61198820  4282.35624058
0.28800001 97636.84287924  5925.58027482
0.28900001 96164.28094887  5019.77570314
0.29000001 94707.09912552  5374.15459426
0.29100001 93267.81557911  6536.20882517
0.29200001 91845.07101718  5247.56838096
0.29300001 90439.09571124  5583.71003352
0.29400001 89049.23415444  4334.47167765
0.29500001 87677.12786847  6228.58345862
0.29600001 86320.64425734  5383.81883719
0.29700001 84980.54717125  6077.80902140
0.29800001 83656.74303399  4127.20561296
0.29900001 82349.80081401  5558.61181809
0.30000001 81058.05409733  4757.70271047
0.30100001 79783.43950900  3614.18998085
0.30200001 78523.22029620  4282.65663770
0.30300001 77280.25032057  3523.97958145
0.30400001 76052.74531654  4175.29591554
0.30500001 74840.86400809  4465.75456678
0.30600001 73643.52566264  5086.92677598
0.30700001 72463.12617856  3682.57624674
0.30800001 71297.59843125  4956.96576561
0.30900001 70147.33589146  4566.59178274
0.31000001 69012.90671269  4507.23315080
0.31100001 67892.55072729  4766.05728671
0.31200001 66788.11427412  3762.84253636
0.31300001 65698.16384210  3403.82202982
0.31400001 64624.28618518  4885.59626692
0.31500001 63564.11397996  5423.29046155
0.31600002 62519.20355679  3270.06709687
0.31700002 61488.81475267  3226.31826283
0.31800002 60473.20842141  3472.37179197
0.31900002 59472.24743976  3140.13481350
0.32000002 58485.85168664  3660.92205967
0.32100002 57513.00614271  3611.24182669
0.32200002 56555.89964642  3014.14681438
0.32300002 55610.98289481  2702.69389666
0.32400002 54681.18051854  3465.41997945
0.32500002 53765.19736899  2892.03010342
0.32600002 52863.51837210  3111.54683872
0.32700002 51974.81313194  2812.87701990
0.32800002 51100.86757755  4539.29028186
0.32900002 50239.74194679  3730.30101619
0.33000002 49393.17196555  2697.60821464
0.33100002 48557.60876191  2901.80283702
0.33200002 47738.33319366  3576.79478391
0.33300002 46930.88711826  2821.48506716
0.33400002 46137.08713500  3245.74423365
0.33500002 45355.33086505  2514.49966224
0.33600002 44587.60997616  2479.29417013
0.33700002 43831.67683723  5111.21207804
0.33800002 43089.68603646  2410.22170259
0.33900002 42359.04664914  2592.37377770
0.34000002 41641.67308405  2555.96601494
0.34100002 40936.51292388  3150.06481867
0.34200002 40244.28593412  2070.56860937
0.34300002 39563.09527889  2041.45581307
0.34400002 38895.48020377  3220.54591340
0.34500002 38238.75065436  2381.50950354
0.34600002 37594.98086035  2543.86450039
0.34700002 36961.36578809  3279.95175538
0.34800002 36341.04631400  2853.68079696
0.34900002 35731.38287495  2251.07722774
0.35000002 35133.50183033  2404.71264667
0.35100002 34547.38112119  2553.74253343
0.35200002 33971.26518133  2338.41214951
0.35300002 33406.73890559  2306.06729588
0.35400002 32853.42436698  2099.33391648
0.35500002 32311.23655167  2070.50413630
0.35600002 31778.70487119  2212.27464439
0.35700002 31257.30054307  2349.92396613
0.35800002 30746.94040341  2649.15651064
0.35900002 30246.83820794  2286.66107683
0.36000002 29757.30883467  2578.17335955
0.36100002 29276.98501960  1748.71439805
0.36200002 28807.94295675  1725.45182512
0.36300002 28347.83400953  2012.12935330
0.36400002 27897.52115902  2443.82296929
0.36500002 27456.74173455  1507.37519263
0.36600002 27025.99296604  1487.78098325
0.36700002 26604.08910261  1762.25494563
0.36800002 26192.95571637  1594.75818433
0.36900002 25789.91743220  2290.14477646
0.37000002 25395.66416410  1837.24941098
0.37100002 25010.28442132  1395.57393682
0.37200002 24634.65044908  2067.46313687
0.37300002 24266.93962088  1769.78799039
0.37400002 23907.97520108  1748.27076940
0.37500002 23557.85956805  1860.12867961
0.37600002 23216.19880515  1575.45132555
0.37700002 22882.13986709  1427.15913112
0.37800002 22556.28928254  1538.79012775
0.37900002 22239.00633279  1267.62342102
0.38000002 21929.40457269  1754.57174298
0.38100002 21626.55847801  1487.04223139
0.38200002 21332.41772778  1960.87593043
0.38300002 21045.10161708  1212.19791057
0.38400002 20765.96386075  1439.08136373
0.38500002 20492.97909098  2135.77838204
0.38600002 20228.42813183  1409.11237042
0.38700002 19969.86845351  1278.47103896
0.38800002 19718.65207801  1150.58340326
0.38900002 19473.57505378  1253.12461408
0.39000002 19236.41387889  1579.50201843
0.39100002 19004.72886243  1229.22592106
0.39200002 18780.03393029  1549.91627370
0.39300002 18561.24860717  1426.06079805
0.39400002 18350.13524656  1413.41923433
0.39500002 18143.91026308  1401.07281689
0.39600002 17943.79147817  1282.26339978
0.39700002 17749.51276726  1377.53975113
0.39800002 17561.25471322  1471.45760214
0.39900002 17378.37103891  1146.97254291
0.40000002 17201.10818586  1551.97005960
0.40100002 17029.56574983  1334.94772238
0.40200002 16863.49232899  1121.33797554
0.40300002 16702.13630608  1012.14950810
0.40400002 16546.37528311  1105.71158068
0.40500002 16395.62792887  1597.59006108
0.40600002 16249.82587423  1289.66749161
0.40700002 16108.92387333  1183.03942531
0.40800002 15972.77102673  1273.90841360
0.40900002 15841.14402535  1558.76864595
0.41000002 15714.51126389  1259.43956492
0.41100002 15591.92353878  1059.93901239
0.41200002 15473.52560231  1150.30194778
0.41300002 15360.12513458  1049.25019766
0.41400002 15250.41965469  1234.14026903
0.41500002 15144.95659735  1134.05440374
0.41600002 15042.96480419  1035.03124240
0.41700002 14945.32881802  1124.48659355
0.41800002 14852.36155256  933.47096781
0.41900002 14761.24963626  1487.93403384
0.42000002 14675.14431728  1297.42957057
0.42100002 14592.67283217  1016.08785745
0.42200002 14513.75119023  1197.16682365
0.42300002 14437.59102395  918.23083263
0.42400002 14364.79060462  1190.48207777
0.42500002 14295.64859369  1370.23798264
0.42600002 14228.81424176  1367.03339306
0.42700002 14166.24951101  1364.20989256
0.42800002 14105.93941488  907.71724436
0.42900002 14049.48799126  1178.04962389
0.43000002 13995.44355439  904.80546867
0.43100002 13943.22457281  1535.98569173
0.43200002 13894.87492141  992.71938580
0.43300002 13848.91995358  1352.34709755
0.43400002 13805.53281210  1261.13548215
0.43500002 13764.42880434  1260.27116105
0.43600002 13726.27113860  1259.65996208
0.43700002 13689.83263038  1169.24866037
0.43800002 13655.68760952  1079.07248604
0.43900002 13624.47521936  1168.98002922
0.44000002 13594.98921999  1079.17029542
0.44100002 13567.93331235  1169.42022761
0.44200002 13542.73106421  1529.85468717
0.44300002 13519.65049860  1080.49051905
0.44400002 13498.85246304  1171.36297799
0.44500002 13478.67904571  991.89603798
0.44600002 13460.81405562  1083.05715024
0.44700002 13445.76182973  1264.97733289
0.44800002 13430.88271891  995.02699339
0.44900002 13419.28126235  1449.28244502
0.45000002 13408.66185370  1269.93442435
0.45100002 13399.35553306  908.47634820
0.45200002 13391.75532932  1091.96378130
0.45300002 13385.20300598  1002.68560470
0.45400002 13380.61100046  1004.54941847
0.45500002 13377.26741629  1189.50667503
0.45600002 13375.14762062  1100.23969542
0.45700002 13374.33066852  1194.46152862
0.45800002 13374.35106907  1473.31858360
0.45900002 13375.64884869  1015.21179573
0.46000002 13378.79105677  1110.17213451
0.46100002 13381.96238048  1205.58104800
0.46200002 13387.12618004  929.73595727
0.46300002 13393.17057276  1305.03060246
0.46400002 13399.51347208  934.61610897
0.46500002 13407.30213115  1593.18978775
0.46600002 13415.72289399  1127.72571992
0.46700002 13424.67787143  1602.10113311
0.46800002 13435.54174595  1039.70944729
0.46900002 13446.02702139  1327.12292991
0.47000002 13457.68300319  1140.94241909
0.47100002 13469.96016683  1239.77519252
0.47200002 13483.24716387  1147.96371794
0.47300002 13497.17418884  1343.50878244
0.47400002 13510.99692596  1540.25372256
0.47500002 13525.77113212  1158.88812553
0.47600002 13541.65029008  968.90512418
0.47700002 13557.09904307  1263.65726170
