# SAXS profile: number of points = 501, q_min = 0, q_max = 0.5, delta_q = 0.001
#    q    intensity    error
0.00000000 1682732.95097188 353.37391970
0.00100000 1682645.61353514 656.23180486
0.00200000 1682383.56407746 984.19441615
0.00300000 1681947.02819476 1513.75237930
0.00400000 1681335.87467532 2143.70332167
0.00500000 1680550.76379803 2268.74362093
0.00600000 1679591.53960708 2468.99966374
0.00700000 1678458.96046699 2215.56591990
0.00800000 1677152.78214742 3396.23452724
0.00900000 1675674.45913479 3267.56533499
0.01000000 1674023.38419126 4419.42192509
0.01100000 1672201.15856323 3912.95088141
0.01200000 1670207.56385773 3256.90489232
0.01300000 1668044.11856439 3502.89280348
0.01400000 1665710.90963617 5621.77456924
0.01500000 1663209.52735176 4390.87334773
0.01600000 1660539.64485425 4657.81391204
0.01700000 1657703.44823463 6266.11931542
0.01800000 1654701.45724620 5659.07923843
0.01900000 1651534.65279807 6936.44585474
0.02000000 1648203.88036007 5711.02670379
0.02100000 1644711.80530477 7055.81396466
0.02200000 1641057.04734378 8492.47060584
0.02300000 1637242.92833943 6483.48229134
0.02400000 1633269.90850010 7349.71492338
0.02500000 1629140.30075817 10165.83594101
0.02600000 1624854.70152538 9212.92657903
0.02700000 1620414.87797832 8166.89135906
0.02800000 1615821.59775003 7731.70669981
0.02900000 1611077.89953668 8699.82105694
0.03000000 1606184.64134671 9709.38660324
0.03100000 1601143.43442055 9222.58660662
0.03200000 1595955.35297818 10269.97316943
0.03300000 1590624.86119294 8923.40588267
0.03400000 1585150.15500376 9986.44643730
0.03500000 1579535.65094467 9382.44219987
0.03600000 1573781.70886146 9607.93777662
0.03700000 1567891.56614072 11618.07704241
0.03800000 1561866.81208346 10050.61340090
0.03900000 1555709.65808157 9334.25838076
0.04000000 1549420.71641037 12387.61920173
0.04100000 1543003.70738953 17497.66285310
0.04200000 1536460.50336427 13874.23898904
0.04300000 1529792.62648310 14135.28452483
0.04400000 1523002.93182714 16448.43242763
0.04500000 1516094.03028734 16737.67887209
0.04600000 1509066.40525917 11702.81051681
0.04700000 1501924.41202680 14058.01315038
0.04800000 1494669.14217780 10985.81870616
0.04900000 1487303.71664585 13385.73407289
0.05000000 1479829.62216786 11320.69713675
0.05100000 1472251.11513642 13780.27107962
0.05200000 1464567.20435051 13971.97178062
0.05300000 1456783.40405895 17699.91918445
0.05400000 1448900.78937430 13148.77527675
0.05500000 1440923.03369506 18155.63107150
0.05600000 1432850.70451330 15926.13632385
0.05700000 1424689.19366185 14873.75587611
0.05800000 1416437.53867155 12535.47280255
0.05900000 1408099.96987819 13940.19035288
0.06000000 1399680.11813807 17929.90315101
0.06100000 1391179.37288376 15525.56252691
0.06200000 1382600.52439133 14372.13312285
0.06300000 1373947.05698431 19784.83854562
0.06400000 1365218.18140171 14641.96568029
0.06500000 1356420.48181904 14771.41973798
0.06600000 1347555.20105032 18960.10256589
0.06700000 1338623.78447434 13653.96324063
0.06800000 1329630.03751776 19266.34014547
0.06900000 1320577.98987822 18025.89040579
0.07000000 1311466.70978000 18157.25744718
0.07100000 1302301.24047537 16877.82486708
0.07200000 1293083.16083767 18407.03965684
0.07300000 1283815.99207258 18525.46563363
0.07400000 1274502.83972421 15771.97338073
0.07500000 1265144.09792133 17307.17207079
0.07600000 1255743.32714434 17404.60333016
0.07700000 1246304.14116462 18956.28687595
0.07800000 1236827.94821199 20518.97662310
0.07900000 1227316.41545091 17673.35721144
0.08000000 1217775.07787760 16275.56467934
0.08100000 1208204.60559457 16347.00908067
0.08200000 1198606.30972709 16414.91418199
0.08300000 1188983.87607014 17977.43704990
0.08400000 1179340.18386064 19547.56446503
0.08500000 1169677.35173963 18106.60625495
0.08600000 1159997.58802089 15137.96923442
0.08700000 1150303.52495211 15184.00724237
0.08800000 1140596.46953976 22840.44537521
0.08900000 1130880.41957279 18320.26365758
0.09000000 1121157.12052453 18364.55449688
0.09100000 1111428.40828953 19939.02658147
0.09200000 1101696.36768813 15368.66505137
0.09300000 1091965.25162437 16936.38184857
0.09400000 1082233.57783210 18506.19505067
0.09500000 1072506.15592647 16988.49830838
0.09600000 1062784.41739246 21648.91959995
0.09700000 1053073.03556495 18576.20922068
0.09800000 1043370.69788258 21691.67782887
0.09900000 1033681.75723638 17055.74979640
0.10000000 1024005.46018834 17065.05179656
0.10100000 1014345.75667217 17071.43988769
0.10200000 1004704.70794447 31045.37693574
0.10300000 995083.56107681 23284.95642454
0.10400000 985484.81422547 17073.52520968
0.10500000 975912.07177177 17068.70293836
0.10600001 966361.80918753 20163.14009745
0.10700001 956841.74436747 15500.83698819
0.10800001 947349.40168170 18586.99613573
0.10900001 937889.31474572 24760.27907465
0.11000001 928462.06456742 15458.89410269
0.11100001 919068.69928969 15440.35487490
0.11200001 909712.25429148 16961.58577977
0.11300001 900392.41731218 16936.38216702
0.11400001 891112.49352180 18446.02948442
0.11500001 881873.62793484 15344.60184861
0.11600001 872676.92742858 24504.76927616
0.11700001 863524.09612820 19869.69038767
0.11800001 854415.19495930 16776.44314317
0.11900001 845352.37835720 22824.51529072
0.12000001 836336.99933242 16697.46897820
0.12100001 827371.78679163 21197.26617617
0.12200001 818456.02413272 21140.72009931
0.12300001 809592.11503677 18070.09685898
0.12400001 800779.91768270 16516.08658040
0.12500001 792020.73236364 17963.03105643
0.12600001 783317.61906408 16414.42148099
0.12700001 774669.35182346 19335.74793274
0.12800001 766077.38431054 19270.67751054
0.12900001 757543.47645931 16249.30833592
0.13000001 749067.80665931 16191.10140411
0.13100001 740650.81309599 17597.86414868
0.13200001 732293.66172601 14609.25924012
0.13300001 723998.71558370 21828.56230391
0.13400001 715764.01777183 15943.64424754
0.13500001 707592.85589385 17321.87392898
0.13600001 699483.80767812 15811.83221810
0.13700001 691438.93389981 15744.06526728
0.13800001 683456.99960779 19950.11075931
0.13900001 675541.51084619 18442.28411581
0.14000001 667690.46710947 19770.31566349
0.14100001 659905.35086554 23895.17388181
0.14200001 652186.08684687 23781.96677855
0.14300001 644534.77869923 19490.73262720
0.14400001 636947.77731772 18009.69925317
0.14500001 629430.23079201 13784.52270459
0.14600001 621979.66583576 19200.51319012
0.14700001 614598.82926417 16372.91358401
0.14800001 607283.20626822 16287.33636053
0.14900001 600037.48219269 16201.01278358
0.15000001 592859.68330387 13428.27246042
0.15100001 585750.89770082 17361.65742706
0.15200001 578711.39234737 14609.56978919
0.15300001 571741.66012374 19810.84945814
0.15400001 564838.48174318 14445.74485229
0.15500001 558006.15109595 16974.54791742
0.15600001 551240.21756777 15578.04928367
0.15700001 544546.79672390 12905.75969147
0.15800001 537918.55867445 17961.10152188
0.15900001 531361.42739420 14027.94234533
0.16000001 524870.71817363 15210.75413066
0.16100001 518451.56850337 13858.21108026
0.16200001 512099.42066847 16277.08085432
0.16300001 505815.12884625 14931.66330843
0.16400001 499599.32989749 16074.60919833
0.16500001 493450.71258226 13515.61565572
0.16600001 487370.49986759 12208.63159809
0.16700001 481355.99241441 12130.17158157
0.16800001 475407.89657661 14461.90889670
0.16900001 469528.58932602 16762.17143042
0.17000001 463713.93227845 14273.11550950
0.17100001 457965.28291892 20086.35825733
0.17200001 452282.64309889 15257.75568546
0.17300001 446665.01160438 15155.34455944
0.17400001 441112.18790529 12737.11502729
0.17500001 435623.49384344 16100.64509285
0.17600001 430197.31229943 12563.91309909
0.17700001 424836.34198665 15880.38321350
0.17800001 419536.63684094 14643.92700060
0.17900001 414300.10168877 17897.76523833
0.18000001 409125.50920388 15550.86133938
0.18100001 404013.81568747 13235.49322712
0.18200001 398960.44466049 12046.61119558
0.18300001 393968.53457734 11960.88527479
0.18400001 389035.94728052 15114.04726585
0.18500001 384164.31126257 20364.55110209
0.18600001 379349.60528662 10640.75693100
0.18700001 374592.92017524 13732.57710242
0.18800001 369893.83900530 11535.13991437
0.18900001 365253.52347904 16655.56145758
0.19000001 360665.65086025 12399.68566245
0.19100001 356138.03524180 14359.48625944
0.19200001 351662.35672099 12216.75084975
0.19300001 347243.77725872 11115.27383528
0.19400001 342876.99062851 12034.98293976
0.19500001 338564.62111783 10949.18036436
0.19600001 334304.61960579 9878.70197618
0.19700001 330096.63869398 9803.87063252
0.19800001 325940.40698014 12648.11809060
0.19900001 321835.42167923 12551.58203868
0.20000001 317779.20418846 9581.04345909
0.20100001 313774.23058934 9507.35963620
0.20200001 309816.53853978 12264.08825774
0.20300001 305909.12506843 12169.06557039
0.20400001 302048.29923547 12074.38133264
0.20500001 298234.64813279 10136.99616918
0.20600001 294467.52561549 10057.53881280
0.20700001 290746.76367912 10885.55934670
0.20800001 287069.80620120 9899.60273480
0.20900001 283439.94403758 8928.35865924
0.21000001 279852.13169289 15057.44465754
0.21100001 276308.45761288 13179.91405119
0.21200001 272807.17197402 20047.23598023
0.21300001 269347.39265560 10375.26205559
0.21400001 265930.36227076 12006.75642416
0.21500001 262555.10307686 11058.82146443
0.21600001 259219.16694692 8437.58428304
0.21700001 255923.19921285 10042.42681191
0.21800001 252666.88084019 12450.16114205
0.21900001 249448.31944269 13994.05138240
0.22000001 246267.58476030 10612.90206705
0.22100001 243126.20191840 10524.93377870
0.22200001 240021.87425894 8831.60528096
0.22300001 236952.62266707 7961.60849808
0.22400001 233918.69932182 9473.70777051
0.22500001 230923.03920132 11742.43709866
0.22600001 227959.83311766 8538.23595318
0.22700001 225033.35162667 9235.36918749
0.22800001 222139.18605386 8393.52954198
0.22900001 219277.86869691 9078.10419336
0.23000001 216450.64641820 9000.01830370
0.23100001 213656.53604092 8922.29736703
0.23200001 210892.56487904 8107.76504022
0.23300001 208160.89285358 11690.31629554
0.23400001 205460.95613877 10863.74856964
0.23500001 202789.76280875 10768.13691444
0.23600001 200150.42394621 11384.55665252
0.23700001 197540.07739329 10578.27164474
0.23800001 194959.32204132 7688.22122834
0.23900001 192406.91348007 8311.97905549
0.24000001 189882.98907688 6864.27037981
0.24100001 187388.27163286 8162.63349843
0.24200001 184920.44637012 6740.35058902
0.24300001 182480.33052261 8014.53649566
0.24400001 180066.60073397 7279.19267900
0.24500001 177679.50555041 9178.92369094
0.24600001 175318.99684697 7145.12605450
0.24700001 172984.42283308 7722.02500057
0.24800001 170675.22286290 8287.13583815
0.24900001 168390.43188623 8209.03394280
0.25000001 166131.56971237 12509.70779115
0.25100001 163896.05381300 6814.79823995
0.25200001 161686.35606085 6749.59725308
0.25300001 159500.44742369 8507.75426809
0.25400001 157337.67226911 6619.98287392
0.25500001 155197.90890665 6555.55998237
0.25600001 153081.93937124 9442.09446715
0.25700001 150988.05814468 6427.56193933
0.25800001 148917.53016242 5785.44632054
0.25900001 146869.14166022 5727.89679576
0.26000001 144842.74222479 6804.71235169
0.26100001 142837.62901047 8420.27862858
0.26200001 140854.98041474 6668.07508835
0.26300001 138892.83562964 7150.20351654
0.26400001 136952.23166337 5988.23661283
0.26500001 135032.91051750 7004.15739997
0.26600001 133133.40947977 9064.38861335
0.26700001 131255.42242850 7914.70234696
0.26800001 129398.03744042 6787.57437513
0.26900001 127559.41039051 6199.38763834
0.27000001 125741.82300764 6644.82695129
0.27100001 123943.41122502 7079.64798420
0.27200001 122166.01891435 5502.96858242
0.27300001 120407.18540259 6433.35622051
0.27400001 118665.64264046 7342.43698586
0.27500001 116946.19706863 6294.04462410
0.27600001 115243.34296527 6224.86946487
0.27700001 113560.92482681 6156.13802621
0.27800001 111896.07724065 5619.42126498
0.27900001 110251.03787366 5093.59819083
0.28000001 108622.75048518 4578.44914964
0.28100001 107013.56189011 5884.67604685
0.28200001 105423.10974867 7160.33795303
0.28300001 103850.10979015 4866.41637509
0.28400001 102294.69791920 4373.09854303
0.28500001 100757.48772801 4754.74607093
0.28600001 99237.68280258  8117.14664904
0.28700001 97735.38332470  5488.81938731
0.28800001 96249.72066924  5424.15326506
0.28900001 94783.26138986  4947.68647874
0.29000001 93332.37012450  5296.14559340
0.29100001 91899.51197787  4427.71869668
0.29200001 90483.32466451  6760.46192232
0.29300001 89084.15030391  5500.05570011
0.29400001 87701.13405908  5045.00797556
0.29500001 86336.01019666  5749.97855128
0.29600001 84986.60138751  4921.99925235
0.29700001 83653.84257571  3739.32694015
0.29800001 82337.31225361  4431.39435527
0.29900001 81037.85973949  4376.04463309
0.30000001 79753.80135628  5041.23802238
0.30100001 78487.08732939  3911.01174677
0.30200001 77234.69165982  3510.31690212
0.30300001 75999.69648185  4505.26222073
0.30400001 74780.46195537  3763.32692607
0.30500001 73576.79455744  3714.89253308
0.30600001 72387.88548298  3666.80851274
0.30700001 71215.91366428  4606.24551388
0.30800001 70059.03174054  3896.68352989
0.30900001 68917.59150878  3204.66815688
0.31000001 67791.92989856  4427.49115129
0.31100001 66680.58370266  4680.97719755
0.31200001 65585.26426892  3695.07396386
0.31300001 64504.37016014  3341.97157623
0.31400001 63439.82275418  3597.03812047
0.31500001 62389.12626457  4435.86708744
0.31600002 61353.73664003  3209.10734690
0.31700002 60333.05491812  4029.04159820
0.31800002 59327.04378898  4258.19876957
0.31900002 58335.82221730  3080.13155891
0.32000002 57359.33399332  3590.40768132
0.32100002 56396.63271317  2723.95748903
0.32200002 55449.52318407  3223.83543057
0.32300002 54514.87768289  3444.25013509
0.32400002 53595.16017993  3135.31701899
0.32500002 52689.49194265  2576.51627800
0.32600002 51798.27169143  3811.05802016
0.32700002 50920.14854801  3757.90714079
0.32800002 50056.71343678  3952.47828013
0.32900002 49206.35149756  2922.85741736
0.33000002 48370.56354605  3602.39789068
0.33100002 47545.72910820  3078.11064823
0.33200002 46737.48247109  3034.89856798
0.33300002 45941.02155728  2992.13887572
0.33400002 45158.22963821  3176.88160549
0.33500002 44387.47823291  3355.69351332
0.33600002 43631.01972719  2646.65778199
0.33700002 42886.23866696  2609.19888406
0.33800002 42155.39402697  2786.68245412
0.33900002 41436.20350675  2324.57112682
0.34000002 40730.16564651  2083.34807148
0.34100002 40036.49293568  2259.25940336
0.34200002 39355.70442264  2632.30641497
0.34300002 38685.98222891  2794.67548857
0.34400002 38029.90849545  2558.46221520
0.34500002 37384.81111083  2716.38050396
0.34600002 36752.79610277  3060.77300440
0.34700002 36130.82694111  2451.83803235
0.34800002 35522.15288848  2231.50175014
0.34900002 34924.29317487  2200.23057422
0.35000002 34338.06936569  1988.68938150
0.35100002 33763.87874410  2317.55274676
0.35200002 33199.50439588  2461.07937743
0.35300002 32646.78349781  2080.25314301
0.35400002 32105.41092822  2393.45849806
0.35500002 31575.06204874  1686.10839326
0.35600002 31054.41533358  1995.55682385
0.35700002 30544.90628865  1804.28769993
0.35800002 30046.61528368  1941.61237160
0.35900002 29558.34383679  1755.76570707
0.36000002 29080.65766839  2047.13299353
0.36100002 28612.29705553  1709.01258408
0.36200002 28155.16603308  1992.96352205
0.36300002 27706.94353140  1664.07910732
0.36400002 27268.54800324  1642.24838128
0.36500002 26839.70220399  1620.84969287
0.36600002 26420.82081910  1890.80613148
0.36700002 26010.70085188  1579.36983054
0.36800002 25611.49503102  2409.91373910
0.36900002 25220.29989938  1399.72671072
0.37000002 24837.90144776  1382.22928104
0.37100002 24464.24404734  2047.65732376
0.37200002 24100.42254960  1887.78618773
0.37300002 23744.46735027  1598.47761774
0.37400002 23397.15090115  2105.74368085
0.37500002 23058.76822923  1430.56604871
0.37600002 22728.74536090  1413.84167215
0.37700002 22406.33033841  1397.48288941
0.37800002 22091.95324036  1758.29864169
0.37900002 21786.19339855  1862.71962382
0.38000002 21488.07361602  1596.45650493
0.38100002 21196.70319733  1700.39961104
0.38200002 20913.95517823  1201.50678191
0.38300002 20637.98402927  1545.37231732
0.38400002 20370.12934557  1882.20004070
0.38500002 20108.27322485  1862.83051980
0.38600002 19854.85321252  1267.83171195
0.38700002 19607.55647858  1597.62377756
0.38800002 19367.25549637  1356.09529410
0.38900002 19133.24631681  1567.01294758
0.39000002 18906.93987708  1108.89207633
0.39100002 18686.06813984  1867.85945975
0.39200002 18472.18874309  1415.61625139
0.39300002 18264.15041346  1187.35247463
0.39400002 18063.64098889  1498.37909102
0.39500002 17867.90904308  1273.62461693
0.39600002 17678.16054665  1473.82831460
0.39700002 17494.28334812  1357.73139497
0.39800002 17316.35831877  1347.29932282
0.39900002 17143.74393917  1028.62468508
0.40000002 16976.52181310  1429.59296961
0.40100002 16814.95813821  1318.12463091
0.40200002 16658.92694843  1309.14183627
0.40300002 16507.34428473  1400.48315547
0.40400002 16361.36316879  1192.74343152
0.40500002 16220.36263037  1481.73019649
0.40600002 16084.10843971  1178.32184012
0.40700002 15952.59177636  1464.44799446
0.40800002 15825.90644210  1068.01134685
0.40900002 15703.48549548  1062.34084410
0.41000002 15585.96771832  960.87495536
0.41100002 15472.52118652  1147.44222556
0.41200002 15363.06294406  1142.09015338
0.41300002 15258.42565611  1137.05793377
0.41400002 15157.45735495  1320.97247108
0.41500002 15060.64748962  1221.71978225
0.41600002 14967.15585283  936.19564295
0.41700002 14877.90113768  1865.68889107
0.41800002 14793.25823920  1115.70758927
0.41900002 14710.21519739  1482.78976216
0.42000002 14632.16103204  1201.22731685
0.42100002 14557.62812454  1105.79748474
0.42200002 14486.52776019  1103.00427593
0.42300002 14418.11850412  1008.69161835
0.42400002 14352.85745472  1189.49311793
0.42500002 14291.13541972  1187.16467557
0.42600002 14231.60111869  1184.99432330
0.42700002 14176.25472839  1092.13871603
0.42800002 14122.85266528  1272.32785691
0.42900002 14073.48163028  1361.60941225
0.43000002 14026.20444932  1088.15299274
0.43100002 13980.65345748  905.94638698
0.43200002 13938.81239492  1176.92368034
0.43300002 13899.32369210  995.33061676
0.43400002 13862.27452599  994.96480125
0.43500002 13827.27719940  1356.45595754
0.43600002 13795.11450165  904.26979844
0.43700002 13764.65035758  1085.20508562
0.43800002 13736.23371094  1175.89034255
0.43900002 13710.67114714  1266.86607403
0.44000002 13686.63570573  1267.51939278
0.44100002 13664.98153613  1087.18598254
0.44200002 13645.07734499  997.38697580
0.44300002 13627.05765101  1361.34312385
0.44400002 13611.18950253  999.40163659
0.44500002 13595.84399219  1000.51820680
0.44600002 13582.66467102  1275.00479309
0.44700002 13572.20866123  1003.25771178
0.44800002 13561.70726142  1278.73343828
0.44900002 13554.37674611  1097.90456847
0.45000002 13547.91537845  1466.42643006
0.45100002 13542.54025656  1010.00270020
0.45200002 13538.83872383  1011.96054837
0.45300002 13536.07555775  1474.89086267
0.45400002 13535.05014364  1016.14393769
0.45500002 13535.22071981  1573.87553989
0.45600002 13536.39309259  1020.71176952
0.45700002 13538.70183019  1395.16328972
0.45800002 13541.80496210  1305.29464216
0.45900002 13546.05903330  1215.08155287
0.46000002 13552.07760117  1218.26407370
0.46100002 13557.88670197  1127.47391157
0.46200002 13565.58730266  1036.34309110
0.46300002 13573.96614546  1039.22289735
0.46400002 13582.55798611  947.38346443
0.46500002 13592.48170321  950.11451609
0.46600002 13602.92066927  1048.17310185
0.46700002 13613.75821684  1146.82304654
0.46800002 13626.33718521  958.61286641
0.46900002 13638.43801427  1249.96290325
0.47000002 13651.51606848  1350.27151833
0.47100002 13665.19664046  1064.24556480
0.47200002 13679.68966502  970.57402774
0.47300002 13694.70468868  973.69354952
0.47400002 13709.43148428  1074.47674351
0.47500002 13725.08483581  1077.96821410
0.47600002 13741.66963062  1081.53815954
0.47700002 13757.69889344  1085.06976316
