# SAXS profile: number of points = 501, q_min = 0, q_max = 0.5, delta_q = 0.001
#    q    intensity    error
0.00000000 1682732.95097188 353.37391970
0.00100000 1682645.42642129 605.75236790
0.00200000 1682382.81822846 832.77952139
0.00300000 1681945.34429473 1513.75086379
0.00400000 1681332.87936392 1260.99970744
0.00500000 1680546.09742869 1814.98985706
0.00600000 1679584.81600573 2116.27695433
0.00700000 1678449.81442418 2819.79580542
0.00800000 1677140.84293796 3849.03839705
0.00900000 1675659.36911781 3518.88482557
0.01000000 1674004.76700011 3038.31878330
0.01100000 1672178.60804120 3310.91378808
0.01200000 1670180.79733339 3582.53796735
0.01300000 1668012.72419362 3502.82687530
0.01400000 1665674.55579339 4122.54470834
0.01500000 1663167.73913971 4789.92330201
0.01600000 1660492.20826739 5504.53191648
0.01700000 1657649.95863766 4923.22059800
0.01800000 1654641.56761535 5187.30154789
0.01900000 1651468.03964154 4954.40434248
0.02000000 1648130.09410577 5710.77103441
0.02100000 1644630.64651372 6512.73765547
0.02200000 1640968.04720460 7925.87602809
0.02300000 1637145.82486749 10019.33290425
0.02400000 1633164.34514410 7349.23988826
0.02500000 1629025.96954336 8259.16204279
0.02600000 1624731.16419967 8554.20997077
0.02700000 1620281.98899930 10888.29546477
0.02800000 1615678.85627137 8433.84401651
0.02900000 1610925.13736103 7974.07979606
0.03000000 1606021.55597264 8961.60069425
0.03100000 1600969.63427769 9221.58551775
0.03200000 1595770.62010736 9478.87792002
0.03300000 1590428.79301036 9733.42466194
0.03400000 1584942.50590765 10817.23310193
0.03500000 1579316.09605749 8528.30731253
0.03600000 1573550.03623591 8733.20310470
0.03700000 1567647.53517281 10722.70963648
0.03800000 1561609.92478536 9135.41848278
0.03900000 1555439.89481906 10265.90378122
0.04000000 1549137.63414503 11432.63626977
0.04100000 1542707.22270724 11662.86714443
0.04200000 1536150.19055816 11889.80302652
0.04300000 1529468.36146234 11103.94081964
0.04400000 1522664.60838512 13361.38255911
0.04500000 1515741.15046820 13596.19875145
0.04600000 1508698.87887655 17018.12414485
0.04700000 1501541.85932998 11892.21207898
0.04800000 1494271.47582635 10982.89585834
0.04900000 1486890.70689191 11151.68082077
0.05000000 1479400.99929558 15844.38544027
0.05100000 1471806.75683970 11480.09323814
0.05200000 1464107.05349043 12803.61677944
0.05300000 1456307.04798480 11796.08763859
0.05400000 1448408.08811226 15534.17746942
0.05500000 1440413.90639033 24198.95475622
0.05600000 1432324.84714917 13471.01581605
0.05700000 1424146.55421145 16107.09827999
0.05800000 1415877.86725176 16289.67562334
0.05900000 1407523.24209662 19001.56465579
0.06000000 1399086.11495510 14081.80240491
0.06100000 1390568.07778025 19398.42559155
0.06200000 1381971.70960957 14365.59659289
0.06300000 1373300.66055108 18457.16174078
0.06400000 1364553.99969620 15965.28254309
0.06500000 1355738.51246276 13421.81190122
0.06600000 1346855.20157556 14889.48495007
0.06700000 1337905.81501203 20469.95992766
0.06800000 1328894.10820577 17880.27106287
0.06900000 1319823.74734796 15243.96499557
0.07000000 1310694.33006044 16750.67432258
0.07100000 1301510.46826128 16867.57645871
0.07200000 1292273.89162362 16980.47973142
0.07300000 1282988.30399741 18513.52209414
0.07400000 1273656.63227889 14328.63778464
0.07500000 1264279.33061142 14412.78504453
0.07600000 1254860.16899923 20291.08988398
0.07700000 1245402.43744454 17485.45104159
0.07800000 1235907.67614541 19039.15864388
0.07900000 1226377.57969555 14716.53164661
0.08000000 1216817.69413222 17741.20281271
0.08100000 1207228.71650443 17818.69669163
0.08200000 1197611.79593507 14910.26755906
0.08300000 1187970.85787495 14968.43351172
0.08400000 1178308.65350135 16525.77964105
0.08500000 1168627.28013395 21105.40967002
0.08600000 1158929.20498308 16636.42951864
0.08700000 1149216.77898390 15169.66219492
0.08800000 1139491.44336438 22818.31722501
0.08900000 1129757.09091380 21352.41002119
0.09000000 1120015.46571822 18345.85419027
0.09100000 1110268.94811115 18386.05464452
0.09200000 1100518.67256738 19957.90706477
0.09300000 1090769.74710227 19993.81040394
0.09400000 1081020.29817991 15404.53997304
0.09500000 1071275.21435403 26224.81848002
0.09600000 1061535.61463904 16989.87831095
0.09700000 1051806.90404132 24738.49954608
0.09800000 1042086.94091998 18569.99016031
0.09900000 1032380.88418630 15485.71399097
0.10000000 1022687.49464303 17043.08789971
0.10100000 1013010.66697407 18598.87672038
0.10200000 1003352.86114978 21702.52340748
0.10300000 993715.03255570 20152.54180822
0.10400000 984099.53015680 15499.56832915
0.10500000 974510.65558165 23242.08022915
0.10600001 964944.14151221 17036.08962001
0.10700001 955407.94143504 23216.41406938
0.10800001 945899.73114327 15465.46133202
0.10900001 936424.10560963 15450.99846977
0.11000001 926981.33583477 18521.08796176
0.11100001 917572.73256268 16956.74489597
0.11200001 908201.15842929 18472.81243210
0.11300001 898866.24798098 21518.85898979
0.11400001 889571.74454404 18414.13597908
0.11500001 880318.31348133 16849.29331343
0.11600001 871107.40898027 22931.90362130
0.11700001 861940.51753888 19833.25224262
0.11800001 852817.76459477 18267.35737798
0.11900001 843741.39906479 24299.75343762
0.12000001 834712.77966233 16665.04143096
0.12100001 825734.17438076 16622.02971332
0.12200001 816805.57325180 18084.07624376
0.12300001 807929.02884968 18032.97677354
0.12400001 799104.50089049 17979.85211720
0.12500001 790333.26949674 17924.75939681
0.12600001 781618.20148432 16378.81018393
0.12700001 772958.21289441 16324.87822566
0.12800001 764354.79347257 16269.29254582
0.12900001 755809.90630290 19159.78202782
0.13000001 747323.39107526 19090.37692484
0.13100001 738895.83892347 16093.15213035
0.13200001 730528.39802583 16031.44645040
0.13300001 722223.32730951 15968.35851961
0.13400001 713978.88512021 18795.49503691
0.13500001 705798.49886324 14398.29005566
0.13600001 697680.00230616 17204.78966809
0.13700001 689626.38223788 15702.79346399
0.13800001 681635.72364768 17054.52660988
0.13900001 673711.97838724 18392.33787732
0.14000001 665852.86857501 14082.78883451
0.14100001 658060.10321063 16820.01703135
0.14200001 650333.30730103 18134.54512941
0.14300001 642674.77685631 16658.13100184
0.14400001 635080.69870650 23482.10994232
0.14500001 627556.71620576 19240.88982650
0.14600001 620099.74467857 17775.16001974
0.14700001 612712.80317070 19043.11482093
0.14800001 605391.60582973 16236.60363437
0.14900001 598140.54424688 18841.42803273
0.15000001 590957.44049466 24093.33598576
0.15100001 583843.83155644 13311.63998760
0.15200001 576799.77400534 15885.06652568
0.15300001 569825.83894531 14479.27525086
0.15400001 562918.67807280 14396.64587110
0.15500001 556082.55870989 14313.56573669
0.15600001 549313.26408289 20698.12476749
0.15700001 542616.88943405 12860.02088654
0.15800001 535985.86088148 14061.58972391
0.15900001 529426.36275549 13976.85663646
0.16000001 522933.28284827 18943.25906535
0.16100001 516511.97414479 22592.23481554
0.16200001 510158.39351065 18710.05996523
0.16300001 503872.64535795 12395.26766096
0.16400001 497655.83152776 19707.17185887
0.16500001 491506.29674648 13462.35810346
0.16600001 485425.64906226 13375.90439143
0.16700001 479410.89070738 15705.50152110
0.16800001 473462.66207352 12002.27905027
0.16900001 467583.62220382 13115.72122212
0.17000001 461769.79476136 16582.15411288
0.17100001 456021.85365810 14118.43725595
0.17200001 450340.27536934 18698.12911631
0.17300001 444724.06141873 13928.75826141
0.17400001 439172.83183471 14986.77359413
0.17500001 433686.07360416 11449.31288387
0.17600001 428261.83977740 12507.38762141
0.17700001 422903.36122850 13549.82433373
0.17800001 417606.42600836 15697.82629510
0.17900001 412372.69340464 13360.87589739
0.18000001 407201.30641270 11055.51599131
0.18100001 402092.84510310 14270.27574679
0.18200001 397043.10471364 16348.25060884
0.18300001 392054.99542148 11902.79022328
0.18400001 387126.61464755 15039.86968955
0.18500001 382259.09010676 12798.03494138
0.18600001 377449.13203491 15881.17298065
0.18700001 372697.01011933 12612.06741829
0.18800001 368002.87235869 12519.45830914
0.18900001 363367.73108371 14498.37315525
0.19000001 358785.20565250 13362.95561591
0.19100001 354263.17648267 13263.61395422
0.19200001 349793.31121831 14177.12357357
0.19300001 345380.74061000 15075.87004000
0.19400001 341020.09338021 13964.77348381
0.19500001 336713.90748789 9899.38934794
0.19600001 332460.51664508 12771.47135045
0.19700001 328259.25360590 11699.16035139
0.19800001 324109.80948923 11609.61392456
0.19900001 320012.12825877 13440.51002207
0.20000001 315962.89057298 15242.05056160
0.20100001 311965.33336881 13233.57006695
0.20200001 308015.21249513 12192.78276289
0.20300001 304115.45724569 10236.52677472
0.20400001 300262.58905110 12926.30506962
0.20500001 296456.76902158 13740.77189363
0.20600001 292697.82873953 11814.74841553
0.20700001 288985.24866132 10819.60822131
0.20800001 285316.63837324 8944.67703582
0.20900001 281695.21573388 9760.73968658
0.21000001 278116.12050124 11443.08831897
0.21100001 274581.14248438 13097.52111567
0.21200001 271088.77386716 11259.67275487
0.21300001 267638.04652227 12027.65437932
0.21400001 264230.08205929 9373.56260420
0.21500001 260863.95308947 10987.59022360
0.21600001 257537.22833878 10059.40461451
0.21700001 254250.50337862 9145.39103892
0.21800001 251003.74545268 10719.11545636
0.21900001 247794.74733774 8994.94975366
0.22000001 244623.71361623 9731.13178777
0.22100001 241491.99513098 8041.68381810
0.22200001 238397.23111373 11164.14286095
0.22300001 235337.83601889 10279.55716338
0.22400001 232313.68028415 7840.58708034
0.22500001 229327.94380586 8551.63942890
0.22600001 226374.80596333 10020.48125982
0.22700001 223458.20437246 9170.72514112
0.22800001 220574.11918494 9092.06562277
0.22900001 217722.92244087 9013.72941532
0.23000001 214905.66098961 8935.77780654
0.23100001 212121.72242687 8858.20354747
0.23200001 209368.00591338 8780.89458329
0.23300001 206646.57448884 8703.95412912
0.23400001 203956.84674405 7908.42710653
0.23500001 201295.85333469 7838.46089958
0.23600001 198666.70409741 9887.64233058
0.23700001 196066.47588597 7699.53087221
0.23800001 193495.95537441 6936.83032828
0.23900001 190953.73177829 8249.20160301
0.24000001 188440.11527035 10899.37678278
0.24100001 185955.56466789 8775.24351176
0.24200001 183497.95825311 9363.90125259
0.24300001 181067.90928592 11266.04584869
0.24400001 178664.47297396 7222.51166162
0.24500001 176287.50480092 7155.51015836
0.24600001 173936.95125850 6444.36434898
0.24700001 171612.47135947 8937.57793120
0.24800001 169313.32417510 8853.39413994
0.24900001 167038.45580787 7516.73086695
0.25000001 164789.68108512 8065.63132228
0.25100001 162564.07688221 8602.89135560
0.25200001 160364.14398640 7302.98346264
0.25300001 158188.10648035 6026.96714204
0.25400001 156035.00451542 7162.00704610
0.25500001 153904.96915974 5909.95109535
0.25600001 151798.78772154 7607.39660659
0.25700001 149714.33546415 6952.73406791
0.25800001 147653.40189166 7457.23541537
0.25900001 145614.53152805 5678.96699829
0.26000001 143597.58794838 5621.84583418
0.26100001 141601.77119573 6677.93984557
0.26200001 139628.30736981 6059.17068501
0.26300001 137675.38571022 5997.14008531
0.26400001 135743.78098137 5935.39710426
0.26500001 133833.61125181 5873.95747579
0.26600001 131942.93453149 7398.04068925
0.26700001 130073.84648051 6274.76265114
0.26800001 128225.41745582 5691.28542309
0.26900001 126395.37924342 6654.71703208
0.27000001 124586.44068690 5570.88295894
0.27100001 122796.45441646 7014.13380820
0.27200001 121027.56751657 4956.07912434
0.27300001 119277.02464466 6372.97172836
0.27400001 117543.81061702 6303.28714264
0.27500001 115832.57349349 7193.20315437
0.27600001 114137.86579266 5216.67140294
0.27700001 112463.28457887 5627.66302666
0.27800001 110806.30044084 6028.41706079
0.27900001 109169.17375344 6877.65827197
0.28000001 107548.54031366 5893.12254540
0.28100001 105947.06229523 5377.87313664
0.28200001 104364.11207897 5316.30812092
0.28300001 102798.55910010 5692.98447241
0.28400001 101250.33101912 4761.29704153
0.28500001 99720.44091041  4278.00711754
0.28600001 98207.64153743  6341.75875245
0.28700001 96712.50942782  4595.77866554
0.28800001 95233.71053597  4128.38154714
0.28900001 93774.10236331  5302.92573965
0.29000001 92329.92173708  5642.28178443
0.29100001 90903.62836964  5972.36866659
0.29200001 89494.06205406  6293.22274153
0.29300001 88101.30353829  3885.26766995
0.29400001 86724.65625291  4221.32284293
0.29500001 85365.73405011  4169.26264837
0.29600001 84022.64347278  4491.85073269
0.29700001 82695.75237421  4066.15033672
0.29800001 81385.26279913  4015.14213027
0.29900001 80091.60709694  3604.12248998
0.30000001 78813.38730526  4625.95198687
0.30100001 77552.40118109  4567.06112176
0.30200001 76305.53442061  4161.70404432
0.30300001 75076.13202893  3765.81896085
0.30400001 73862.35747421  3379.20301442
0.30500001 72663.84325316  4002.32467586
0.30600001 71480.31282328  4608.33598589
0.30700001 70313.49122037  3898.18013781
0.30800001 69161.60762508  5129.02506430
0.30900001 68025.25520781  6010.03158215
0.31000001 66904.61706862  3433.21058742
0.31100001 65798.07794208  3695.22023218
0.31200001 64707.47328421  3645.61921744
0.31300001 63631.30484713  2997.03460020
0.31400001 62571.15424810  4139.08204948
0.31500001 61525.16485865  3791.18083809
0.31600002 60494.15562181  2876.49723601
0.31700002 59477.89376368  3404.51480023
0.31800002 58476.20962845  3077.89543953
0.31900002 57489.16358672  4139.21997423
0.32000002 56516.92716904  2993.41918925
0.32100002 55558.37574815  2951.81664327
0.32200002 54615.23965226  3704.55188103
0.32300002 53684.78526893  3130.89682513
0.32400002 52768.90908666  3858.72665968
0.32500002 51867.06012972  2789.92929649
0.32600002 50979.72715436  2500.55573533
0.32700002 50105.35174551  2958.22010713
0.32800002 49245.72868073  2673.30450802
0.32900002 48398.96978028  2635.32402933
0.33000002 47566.82998082  2361.69322038
0.33100002 46745.58993140  2327.93048882
0.33200002 45940.92788481  2983.17429347
0.33300002 45147.93639770  2714.29406477
0.33400002 44368.60670583  2675.42711106
0.33500002 43601.41299152  3516.01811014
0.33600002 42848.27826993  2382.57862603
0.33700002 42106.84422963  2775.26223460
0.33800002 41379.33131113  2104.13909682
0.33900002 40663.54186980  2695.99295364
0.34000002 39960.80893182  2248.39502103
0.34100002 39270.37352786  2618.94133460
0.34200002 38592.75624295  2382.71688328
0.34300002 37926.24650977  2348.39329510
0.34400002 37273.31245472  1928.89401088
0.34500002 36631.51328758  1901.17562967
0.34600002 36002.73008648  2248.73062770
0.34700002 35383.92332134  3139.96950425
0.34800002 34778.33497590  2002.71051444
0.34900002 34183.64635188  2153.56982217
0.35000002 33600.50960326  3184.32044592
0.35100002 33029.55653170  2615.94100121
0.35200002 32468.16933743  1891.10861263
0.35300002 31918.65333017  2542.32085816
0.35400002 31380.36403130  2005.20535657
0.35500002 30853.15149330  2471.33755167
0.35600002 30335.60604245  1949.36613662
0.35700002 29829.22694372  2082.37843157
0.35800002 29334.13816786  2369.46512274
0.35900002 28848.98467197  2336.76786911
0.36000002 28374.42928453  1843.77050224
0.36100002 27909.35344313  1667.02576012
0.36200002 27455.39685682  2391.91428746
0.36300002 27010.34188002  1622.24121015
0.36400002 26575.16187426  1454.99018153
0.36500002 26149.67392974  1579.17888342
0.36600002 25733.99705993  1416.65660525
0.36700002 25327.10720498  1677.66766073
0.36800002 24931.28200681  1517.94117689
0.36900002 24543.41939591  1907.02377740
0.37000002 24164.38811016  1613.69791444
0.37100002 23793.97395545  1593.24457153
0.37200002 23433.55845734  1966.66148669
0.37300002 23081.17135879  1683.30990694
0.37400002 22737.32635523  1278.97466807
0.37500002 22402.39953234  1389.84493283
0.37600002 22076.02489749  1872.59890064
0.37700002 21757.19647433  1356.99640839
0.37800002 21446.27194228  1706.90886475
0.37900002 21144.12708055  1325.73683075
0.38000002 20849.74343831  1549.03176213
0.38100002 20562.15605353  1413.85391722
0.38200002 20283.23015819  1165.27162779
0.38300002 20010.94590994  1383.15664682
0.38400002 19746.93576066  1254.42415362
0.38500002 19488.93497591  1354.09126628
0.38600002 19239.28739016  1563.57696027
0.38700002 18996.07676627  1105.57172017
0.38800002 18759.77208641  1204.09602841
0.38900002 18529.76895432  1192.39068870
0.39000002 18307.57434750  1181.11321499
0.39100002 18090.86319439  1595.61420934
0.39200002 17881.13185663  1159.50205018
0.39300002 17677.36908298  1671.57209968
0.39400002 17481.02475893  1139.32584264
0.39500002 17289.59454426  1335.10255396
0.39600002 17104.18969915  1527.83181726
0.39700002 16924.70309796  1515.60723423
0.39800002 16751.21819892  1203.07254805
0.39900002 16583.03476656  1492.47319970
0.40000002 16420.27992168  1382.75183772
0.40100002 16263.31858123  1176.81378829
0.40200002 16111.87215960  1266.15153365
0.40300002 15964.93116564  967.47487448
0.40400002 15823.56651362  1153.53805350
0.40500002 15687.36186159  1241.96849743
0.40600002 15555.80640604  1329.55483652
0.40700002 15429.12730546  1510.82021733
0.40800002 15307.28324086  1126.92224559
0.40900002 15189.73556563  1307.83629417
0.41000002 15077.12661808  1022.45539005
0.41100002 14968.66324701  1202.58246225
0.41200002 14864.17673955  1381.25368897
0.41300002 14764.62964904  1375.32531697
0.41400002 14668.69525732  1095.75158764
0.41500002 14577.00197896  1000.56546325
0.41600002 14488.68804683  1268.77447238
0.41700002 14404.59104552  1083.80148162
0.41800002 14325.20522934  1170.44094872
0.41900002 14247.44782554  1166.86603220
0.42000002 14174.49952344  984.63165605
0.42100002 14105.50528784  982.16637973
0.42200002 14039.71380366  1425.31181289
0.42300002 13976.61395085  1066.69522728
0.42400002 13916.79719958  1064.63503622
0.42500002 13860.53484307  974.25704029
0.42600002 13806.41707277  884.30105541
0.42700002 13756.64899745  1148.12997973
0.42800002 13708.74166880  1058.58908183
0.42900002 13664.90160539  1057.66343438
0.43000002 13623.17269633  1233.03341918
0.43100002 13583.13755796  1056.22482656
0.43200002 13546.90727362  1319.80750367
0.43300002 13513.13654144  1231.58732275
0.43400002 13481.60962855  967.64257694
0.43500002 13452.42291339  1055.74620027
0.43600002 13425.85059064  1056.07745751
0.43700002 13401.03699464  968.49298950
0.43800002 13378.35145082  1057.15738174
0.43900002 13358.50247339  1146.15956653
0.44000002 13340.21182596  1058.94606493
0.44100002 13324.23189288  1236.75526291
0.44200002 13310.00713902  1149.78502119
0.44300002 13297.81849479  974.19822910
0.44400002 13287.59663233  1153.03125241
0.44500002 13278.08575403  1065.96477485
0.44600002 13270.67938213  1067.75891369
0.44700002 13265.90387846  980.61566117
0.44800002 13261.08929912  1161.07472861
0.44900002 13259.67407487  984.53084672
0.45000002 13258.85388314  986.65765847
0.45100002 13259.20246436  1078.76876363
0.45200002 13261.28375141  1441.76683778
0.45300002 13264.17107044  993.61910198
0.45400002 13268.93460054  996.16531235
0.45500002 13274.79640572  1180.39495234
0.45600002 13281.62185024  1274.63730938
0.45700002 13289.69472320  913.00207075
0.45800002 13298.47340969  1007.15993142
0.45900002 13308.34364838  1010.10333079
0.46000002 13319.99304391  1381.61634396
0.46100002 13331.53710277  1108.65067801
0.46200002 13344.75162140  2131.62400127
0.46300002 13358.79834416  1208.70413147
0.46400002 13372.96758911  1119.31744026
0.46500002 13388.39374255  1216.60339705
0.46600002 13404.36032175  1314.56567906
0.46700002 13420.67145976  1036.34429924
0.46800002 13438.72603585  945.41442143
0.46900002 13456.31511914  1138.40431304
0.47000002 13474.79965195  1047.19410458
0.47100002 13493.98467051  955.37415995
0.47200002 13513.69094948  1054.67606014
0.47300002 13534.00617907  962.26788494
0.47400002 13554.03073888  1158.86968310
0.47500002 13574.95970202  1163.10260240
0.47600002 13596.70667880  972.84440898
0.47700002 13617.99513355  1952.82059471
