# SAXS profile: number of points = 501, q_min = 0, q_max = 0.5, delta_q = 0.001
#    q    intensity    error
0.00000000 1700912.83420644 408.21908021
0.00100000 1700824.83111894 612.29695374
0.00200000 1700560.78237790 1224.40380208
0.00300000 1700120.91060917 1122.07984097
0.00400000 1699505.09040183 1657.01752611
0.00500000 1698713.99365994 2140.37971673
0.00600000 1697747.44384814 2495.68884406
0.00700000 1696606.21475837 2850.29855925
0.00800000 1695290.04872298 2746.36999488
0.00900000 1693800.42517812 4319.19126884
0.01000000 1692136.75297939 3629.63349187
0.01100000 1690300.55530645 4563.81169803
0.01200000 1688291.71329590 3950.60278232
0.01300000 1686111.72199019 6373.50259022
0.01400000 1683760.64904162 4546.15395395
0.01500000 1681240.00089991 8473.44998185
0.01600000 1678549.68829678 4708.33208615
0.01700000 1675691.72751772 5881.67822743
0.01800000 1672666.67023548 4767.10022468
0.01900000 1669475.58114930 5509.26966639
0.02000000 1666119.06563325 6297.93035298
0.02100000 1662600.18879016 5486.58087176
0.02200000 1658917.19958888 6867.91751832
0.02300000 1655073.72176787 7149.91880349
0.02400000 1651069.99963434 6191.51278095
0.02500000 1646908.39767222 7707.53165311
0.02600000 1642589.62381801 9978.73242110
0.02700000 1638115.38723366 6880.08494150
0.02800000 1633486.48145022 9237.36647622
0.02900000 1628706.00035127 12459.60147476
0.03000000 1623774.70215396 10570.77379691
0.03100000 1618694.22888853 8546.70592179
0.03200000 1613465.71360128 11979.98347527
0.03300000 1608093.53002026 9021.40511930
0.03400000 1602576.08751693 9254.87733243
0.03500000 1596917.51154218 12935.03244081
0.03600000 1591118.51819567 13246.06227613
0.03700000 1585182.09128200 9939.09217200
0.03800000 1579109.85401461 9237.79307351
0.03900000 1572904.27511709 13212.39652285
0.04000000 1566565.64417170 12524.69290553
0.04100000 1560097.90812244 9828.61727689
0.04200000 1553502.87485048 12024.11280918
0.04300000 1546782.15362574 12250.51522536
0.04400000 1539938.51333425 12473.50253730
0.04500000 1532974.49153116 10577.52448305
0.04600000 1525890.87239658 15060.54361067
0.04700000 1518691.70531460 13121.49694417
0.04800000 1511378.23961623 12219.49363585
0.04900000 1503953.71422183 12407.61871987
0.05000000 1496419.44479203 17171.41392859
0.05100000 1488779.85307541 13934.98007393
0.05200000 1481033.98653002 17661.33111241
0.05300000 1473187.10681546 13126.09773364
0.05400000 1465240.41978094 14505.88083230
0.05500000 1457197.83494324 17136.64733834
0.05600000 1449059.55544940 16106.29771041
0.05700000 1440831.42309343 17549.32755245
0.05800000 1432512.08944582 13945.50584190
0.05900000 1424106.02966793 12816.95486564
0.06000000 1415616.74895156 14248.18324386
0.06100000 1407045.99861735 19628.29259797
0.06200000 1398396.06054746 13214.84338988
0.06300000 1389670.72910588 13340.83962317
0.06400000 1380869.21199910 22887.90825928
0.06500000 1371998.11376075 14941.06015776
0.06600000 1363058.55791790 13698.73914802
0.06700000 1354052.29348078 15192.46744385
0.06800000 1344982.90118041 22272.91788612
0.06900000 1335854.50633408 16831.76756785
0.07000000 1326666.12252251 16954.79383980
0.07100000 1317422.73398340 15650.98281278
0.07200000 1308126.17307939 17188.77871950
0.07300000 1298779.75350334 18741.39272119
0.07400000 1289386.84176551 18857.28344455
0.07500000 1279947.53437597 16050.54283340
0.07600000 1270465.90280465 23478.21098450
0.07700000 1260944.97463545 23604.89103197
0.07800000 1251386.62775118 17794.71868113
0.07900000 1241792.39612774 20862.11323346
0.08000000 1232167.58387209 17965.00421561
0.08100000 1222513.31609102 21051.68029079
0.08200000 1212830.60859773 19629.66432128
0.08300000 1203123.27475890 21223.09556279
0.08400000 1193394.15550813 16737.35381663
0.08500000 1183645.48701706 22903.54124899
0.08600000 1173879.43674809 16851.04010570
0.08700000 1164098.73574159 21512.54564668
0.08800000 1154304.41161630 20032.95400442
0.08900000 1144500.70864624 21631.06440942
0.09000000 1134689.38556418 17037.36192458
0.09100000 1124872.64018506 20180.21611301
0.09200000 1115051.72039769 18665.96667651
0.09300000 1105231.72268515 15583.76802218
0.09400000 1095410.64811979 17170.56271625
0.09500000 1085593.65018086 18759.05915685
0.09600000 1075781.81635201 18783.15139646
0.09700000 1065980.28305632 17236.90198738
0.09800000 1056187.21454040 26663.44748473
0.09900000 1046407.68788458 21974.56247887
0.10000000 1036640.51771778 18846.12549839
0.10100000 1026889.51178288 23567.11540382
0.10200000 1017157.22176780 18858.09577859
0.10300000 1007444.56167794 17287.74949162
0.10400000 997753.67373617 20429.00743083
0.10500000 988089.25997768 26708.05395379
0.10600001 978447.04476837 15704.07580746
0.10700001 968834.87543047 17264.63829260
0.10800001 959250.20507385 17252.11575017
0.10900001 949697.82149531 15670.01479219
0.11000001 940178.15510287 18784.76042315
0.11100001 930692.39517979 17199.19627255
0.11200001 921243.50320370 17176.58592586
0.11300001 911830.79337976 18710.76876107
0.11400001 902458.50383528 17124.15091656
0.11500001 893126.94395104 18648.49146782
0.11600001 883837.69717340 20164.75801060
0.11700001 874592.47543037 17028.31629858
0.11800001 865391.01312287 21626.12243649
0.11900001 856235.83896271 16953.47041000
0.12000001 847128.15986335 23063.06523866
0.12100001 838070.32121001 16870.35636069
0.12200001 829062.35736820 18355.44145688
0.12300001 820106.44637270 18304.77674546
0.12400001 811202.10559127 16731.04421614
0.12500001 802351.26819851 16680.88365186
0.12600001 793556.40690880 21164.15036959
0.12700001 784816.57665814 19589.02267655
0.12800001 776133.05621858 15018.17534562
0.12900001 767508.25228339 16463.05278742
0.13000001 758941.52414342 22369.80247853
0.13100001 750433.67469696 17830.30495128
0.13200001 741985.81481084 17763.14124393
0.13300001 733600.49772203 14745.37069935
0.13400001 725275.52689314 23498.92817921
0.13500001 717014.85510066 21940.65560054
0.13600001 708815.88210696 16022.78377051
0.13700001 700681.97254270 18855.35277022
0.13800001 692610.65242244 18773.21261917
0.13900001 684606.68119167 21565.11147451
0.14000001 676667.16339796 17173.81341697
0.14100001 668793.90045863 19943.43505227
0.14200001 660986.86361187 14178.16889319
0.14300001 653248.14563711 18343.20879470
0.14400001 645573.59210322 14041.22629057
0.14500001 637969.58915435 16765.84159386
0.14600001 630432.49062660 13901.03707409
0.14700001 622965.56549790 13829.83620650
0.14800001 615564.29883304 19261.00781919
0.14900001 608233.43759442 15053.77829071
0.15000001 600970.57594901 17695.57944375
0.15100001 593777.25231680 16245.74638994
0.15200001 586653.85223150 16156.44785283
0.15300001 579600.55480378 17405.40548210
0.15400001 572614.19976123 17307.26500453
0.15500001 565698.93066160 13237.35560219
0.15600001 558850.50612732 14477.02304447
0.15700001 552075.45594288 13084.18892338
0.15800001 545365.77517367 27314.64613879
0.15900001 538727.59707930 14222.40923420
0.16000001 532156.39691639 20562.52414745
0.16100001 525657.04721798 12773.46685036
0.16200001 519225.56319891 12695.06561950
0.16300001 512861.99180923 20186.24895056
0.16400001 506567.69513805 21313.83677915
0.16500001 500340.79716496 13704.33508135
0.16600001 494183.22880189 13617.21951255
0.16700001 488091.45802484 20909.83904904
0.16800001 482066.75008348 18330.58903743
0.16900001 476111.30881911 14569.00673778
0.17000001 470221.28829111 20504.00024413
0.17100001 464397.65904044 15575.89821973
0.17200001 458640.34557665 13091.88928272
0.17300001 452948.81823552 14186.35765708
0.17400001 447322.63983768 12916.44183531
0.17500001 441761.07356903 12828.74218231
0.17600001 436262.22501625 11582.76262122
0.17700001 430829.72391260 14954.10042330
0.17800001 425458.76691311 13708.28211741
0.17900001 420151.36366123 15881.72229655
0.18000001 414906.74089340 15770.60596628
0.18100001 409725.25112185 12304.04987239
0.18200001 404602.85412792 13327.61864454
0.18300001 399542.58434585 12130.11343376
0.18400001 394542.01974287 17517.66650413
0.18500001 389602.68433639 15217.88156910
0.18600001 384721.47760535 15108.01313932
0.18700001 379898.43347186 16069.70449507
0.18800001 375133.73086034 12762.05012683
0.18900001 370428.16237814 16891.52500252
0.19000001 365775.67122942 11527.42082345
0.19100001 361184.07770899 13522.73250837
0.19200001 356644.98171866 14454.82179207
0.19300001 352163.62902854 15371.94313346
0.19400001 347734.43068739 13222.60235171
0.19500001 343360.15739973 15142.18365687
0.19600001 339039.00661402 14026.04436644
0.19700001 334770.49253020 9942.68409801
0.19800001 330554.22316457 13813.86163887
0.19900001 326389.88745411 10770.86679502
0.20000001 322274.45922833 13603.20556693
0.20100001 318211.18446238 13498.51908287
0.20200001 314195.71009977 11480.71178966
0.20300001 310231.06856429 14239.60672013
0.20400001 306313.44838507 14128.70847457
0.20500001 302443.61457426 13083.71138491
0.20600001 298621.10205037 12053.84135402
0.20700001 294845.31108212 11958.92638278
0.20800001 291113.70627825 13689.62268485
0.20900001 287429.71464270 10864.84372709
0.21000001 283788.61010687 11676.48291482
0.21100001 280192.21206193 13365.16914717
0.21200001 276638.54986529 10606.32250324
0.21300001 273127.09262668 9644.11809658
0.21400001 269658.88240742 9566.14930566
0.21500001 266232.85381128 9488.53935843
0.21600001 262846.73738676 11977.92638901
0.21700001 259500.99986188 11031.38802569
0.21800001 256195.78458610 9257.63511373
0.21900001 252928.64987222 8346.64584043
0.22000001 249699.79923746 16555.09747221
0.22100001 246510.96958133 9850.57881024
0.22200001 243359.48071122 8140.37501470
0.22300001 240243.70050819 8072.18871877
0.22400001 237163.49397265 8804.69513008
0.22500001 234122.56223248 9524.10628199
0.22600001 231114.54017557 8656.39551162
0.22700001 228143.45829644 9363.00797125
0.22800001 225205.08312598 10830.11295969
0.22900001 222300.26076995 10737.10310296
0.23000001 219429.94860515 8363.57288661
0.23100001 216593.22677917 11306.16697257
0.23200001 213787.16860767 9713.42046507
0.23300001 211014.10353979 7406.59538454
0.23400001 208273.11961263 8075.79059493
0.23500001 205561.09084690 7276.86296015
0.23600001 202881.55092248 7212.43947642
0.23700001 200231.38613941 8577.91298793
0.23800001 197611.39746414 9209.67961442
0.23900001 195020.03177270 9126.93791866
0.24000001 192457.73118732 9044.55150496
0.24100001 189925.10883491 10341.42266522
0.24200001 187419.60218023 8880.87826939
0.24300001 184942.43110420 7445.78262846
0.24400001 182492.24401177 8718.56737008
0.24500001 180068.82946590 9966.81018241
0.24600001 177672.61452312 8557.60188332
0.24700001 175302.55495619 6521.25535286
0.24800001 172958.37460685 7105.99515688
0.24900001 170638.92374747 8958.54392055
0.25000001 168346.04582124 6338.22892502
0.25100001 166076.70297037 6905.46963620
0.25200001 163833.52161193 8082.72717112
0.25300001 161614.72345374 6773.27338039
0.25400001 159419.35952428 7317.34894836
0.25500001 157247.39967832 7245.96052000
0.25600001 155099.71736343 8968.64158087
0.25700001 152974.20229289 6512.11209972
0.25800001 150872.65904541 5861.40308124
0.25900001 148793.71920786 9284.72851788
0.26000001 146736.88436551 6893.69915367
0.26100001 144701.96418684 6824.14495394
0.26200001 142689.51833876 7880.74247074
0.26300001 140698.15689051 5571.64727650
0.26400001 138728.66043215 7168.80386705
0.26500001 136780.75676078 6003.30769830
0.26600001 134852.91459289 7561.20327902
0.26700001 132947.04226779 6413.36562248
0.26800001 131062.32141366 6346.03790315
0.26900001 129196.40312724 5755.70003169
0.27000001 127351.78380239 6729.90533351
0.27100001 125526.72085975 5121.49045344
0.27200001 123723.19268623 5573.11147829
0.27300001 121938.23488421 5512.82786000
0.27400001 120171.11529384 7435.58811069
0.27500001 118426.34389945 5393.13595641
0.27600001 116698.55381262 6303.47268251
0.27700001 114991.19118941 7192.69934930
0.27800001 113301.86038477 6164.18800597
0.27900001 111632.85329510 4688.58006029
0.28000001 109980.65711265 6026.39039171
0.28100001 108347.98147270 5041.43181653
0.28200001 106734.11483797 5890.12240611
0.28300001 105138.29681019 4478.89165610
0.28400001 103560.03330314 4427.19163325
0.28500001 102000.36484100 5250.97903055
0.28600001 100458.26343085 4324.72844540
0.28700001 98934.24845827  4273.95973569
0.28800001 97426.79637097  5490.48736937
0.28900001 95939.00958793  4590.68182608
0.29000001 94466.89265474  4948.17607147
0.29100001 93013.12109368  4888.76987609
0.29200001 91576.33912093  4427.25832437
0.29300001 90156.71311856  4373.50236041
0.29400001 88753.62356500  7069.22645158
0.29500001 87368.53482898  4654.99575604
0.29600001 85999.65874941  4214.41347651
0.29700001 84647.17285224  3783.72880561
0.29800001 83311.55872503  5231.13301998
0.29900001 81993.10009546  4427.62761476
0.30000001 80690.47493574  3643.17511582
0.30100001 79405.24446039  3956.76351877
0.30200001 78134.58800238  4616.58235067
0.30300001 76881.56737381  4557.53952968
0.30400001 75644.47834909  4152.88205797
0.30500001 74423.06175107  4782.42617453
0.30600001 73216.94460790  5057.46068822
0.30700001 72027.75013639  3660.45043523
0.30800001 70853.88395510  5911.33981824
0.30900001 69695.77926926  4537.19544524
0.31000001 68553.60329739  3837.63089428
0.31100001 67425.92920794  3155.53363633
0.31200001 66314.45993704  4047.50325389
0.31300001 65217.65929523  3378.92708807
0.31400001 64137.26080437  3030.48571649
0.31500001 63071.13663322  3587.48642155
0.31600002 62020.41647603  3243.97803737
0.31700002 60984.54930836  4363.44470961
0.31800002 59963.66406794  3156.18760766
0.31900002 58957.49028190  3961.94353454
0.32000002 57966.65686399  3907.53252422
0.32100002 56989.57029927  3578.37528853
0.32200002 56028.25708618  4343.31069498
0.32300002 55079.78648985  3212.25330019
0.32400002 54145.97151915  3431.50110751
0.32500002 53226.66075166  3904.17575100
0.32600002 52322.12656205  4106.24068703
0.32700002 51430.68663457  2783.42889247
0.32800002 50554.13325527  2494.84659429
0.32900002 49690.87214235  3197.60777378
0.33000002 48842.41997272  3152.53414642
0.33100002 48005.02896609  2868.78066686
0.33200002 47184.35970365  2828.23065457
0.33300002 46375.62456387  3252.78646095
0.33400002 45580.90016312  3664.70454666
0.33500002 44798.28387206  2709.40033689
0.33600002 44030.13019273  2225.72318664
0.33700002 43273.72213493  2413.37559776
0.33800002 42531.53947372  2595.27466159
0.33900002 41801.16359163  3197.78916620
0.34000002 41084.05673398  2521.73952176
0.34100002 40379.60913347  2485.76885598
0.34200002 39688.04169983  2041.94984216
0.34300002 39007.67075589  2817.91426886
0.34400002 38341.20026342  2380.98864912
0.34500002 37685.91718243  3716.20846936
0.34600002 37043.92471649  2892.20455922
0.34700002 36411.99196848  2090.77667785
0.34800002 35793.50721905  2061.16921083
0.34900002 35186.04358382  2216.72085077
0.35000002 34590.31561559  2367.53426444
0.35100002 34006.89436121  2872.90257170
0.35200002 33433.30659359  2124.35240157
0.35300002 32871.59745584  2094.57828909
0.35400002 32321.36481475  2065.33530948
0.35500002 31782.38241102  1697.17930113
0.35600002 31253.07968517  3012.48449354
0.35700002 30735.09501983  1650.47468074
0.35800002 30228.67631247  1790.59572618
0.35900002 29732.20816014  2408.30897504
0.36000002 29246.49996645  1900.43765784
0.36100002 28770.37349096  1562.23135456
0.36200002 28305.59847420  1695.36390092
0.36300002 27849.74775076  1520.59629922
0.36400002 27403.96495054  1800.44058253
0.36500002 26967.86704124  1628.58956776
0.36600002 26541.84652811  1607.24159264
0.36700002 26124.56945331  1442.07630213
0.36800002 25718.63111326  1565.87892950
0.36900002 25320.68911692  1405.29831256
0.37000002 24931.72129458  1803.68546250
0.37100002 24551.38181990  1643.96060453
0.37200002 24181.35504033  2029.42031789
0.37300002 23819.25361823  2004.39028692
0.37400002 23465.84227405  1319.95369044
0.37500002 23121.44681038  1304.04966188
0.37600002 22785.71579061  1288.53228900
0.37700002 22457.62640912  1782.68646881
0.37800002 22137.51183732  1384.36936833
0.37900002 21826.33461442  1492.92135835
0.38000002 21522.93129645  1476.04269823
0.38100002 21226.41970787  1337.90129757
0.38200002 20938.72141790  1804.39440367
0.38300002 20657.62314583  1189.87914957
0.38400002 20384.98713769  1294.95636927
0.38500002 20118.28248366  1397.81833319
0.38600002 19860.27148868  1268.17769599
0.38700002 19608.52515961  2624.79730222
0.38800002 19363.84090570  1355.85620445
0.38900002 19125.60623302  1566.38722469
0.39000002 18895.18350030  1108.20256479
0.39100002 18670.21390322  1427.15121838
0.39200002 18452.39720993  1305.32264047
0.39300002 18240.56980558  1185.81949924
0.39400002 18036.30362946  1282.38124881
0.39500002 17836.96900882  1377.37081212
0.39600002 17643.63376234  1155.74628436
0.39700002 17456.36480700  1354.78853686
0.39800002 17275.20313741  1344.09724379
0.39900002 17099.26215465  1128.55135568
0.40000002 16928.88334137  1527.40857184
0.40100002 16764.27638890  1010.88591415
0.40200002 16605.41117211  1806.83487524
0.40300002 16450.95568957  1296.00635063
0.40400002 16302.20949566  1089.39520116
0.40500002 16158.58905865  1476.08718044
0.40600002 16019.65437948  1662.59990855
0.40700002 15885.69350717  1069.42493757
0.40800002 15756.66854076  1160.00599293
0.40900002 15631.94454434  1442.04695254
0.41000002 15512.16491733  1243.22251621
0.41100002 15396.54750724  1046.65734914
0.41200002 15285.01916047  1609.74186916
0.41300002 15178.34568320  1036.83284275
0.41400002 15075.46594067  1219.98213906
0.41500002 14976.89051642  1214.92541626
0.41600002 14881.56599832  930.84199730
0.41700002 14790.60163896  1205.58199672
0.41800002 14704.35222279  1109.00229719
0.41900002 14619.75296243  1381.56672041
0.42000002 14540.12954158  1010.03014647
0.42100002 14464.28380123  915.58920800
0.42200002 14391.83078263  1004.47787707
0.42300002 14322.04698780  1457.41157054
0.42400002 14255.61795476  999.67525645
0.42500002 14192.67088856  1451.05874041
0.42600002 14131.97497008  1086.18364767
0.42700002 14075.60007293  994.01892425
0.42800002 14021.16225173  1082.71420038
0.42900002 13970.81092471  991.22908208
0.43000002 13922.59777145  1080.11518629
0.43100002 13876.15278424  989.09221733
0.43200002 13833.49020976  988.33375487
0.43300002 13793.30002225  1167.32703620
0.43400002 13755.48965621  987.30031686
0.43500002 13719.88276651  1166.46448809
0.43600002 13687.00068195  986.90123094
0.43700002 13655.94925987  986.91549978
0.43800002 13626.93870229  897.33395607
0.43900002 13600.86512451  1166.95428298
0.44000002 13576.40205926  1167.50275041
0.44100002 13554.21225720  1078.37317829
0.44200002 13533.90565954  1079.19368843
0.44300002 13515.50659763  990.14606027
0.44400002 13499.20519170  1171.39358602
0.44500002 13483.62893729  1082.46578238
0.44600002 13470.09980788  903.17023492
0.44700002 13459.37370064  1085.36394666
0.44800002 13448.45697908  996.32898251
0.44900002 13441.01965763  1179.44953085
0.45000002 13434.29377603  1272.36202383
0.45100002 13428.67069692  1274.64948296
0.45200002 13424.86567715  1003.44163259
0.45300002 13421.83521132  1096.83242545
0.45400002 13420.69719765  915.96262715
0.45500002 13420.72330570  1009.77526938
0.45600002 13421.70405901  1104.06942822
0.45700002 13423.95514046  1014.44833804
0.45800002 13426.97611257  1201.78155391
0.45900002 13431.08783139  1019.41961472
0.46000002 13437.06322608  929.17296612
0.46100002 13442.82592697  931.58788089
0.46200002 13450.45620455  1120.96107322
0.46300002 13458.75275798  1311.42093089
0.46400002 13467.34868370  1127.21713825
0.46500002 13477.12761616  1224.66664452
0.46600002 13487.56975567  1322.72602863
0.46700002 13498.25451884  947.57751213
0.46800002 13510.81603455  950.48595308
0.46900002 13522.91130439  1144.03835057
0.47000002 13535.89434700  1051.94207904
0.47100002 13549.58475757  1151.17277557
0.47200002 13563.94335289  1058.59800915
0.47300002 13578.84533629  1062.00154409
0.47400002 13593.45766236  968.53390435
0.47500002 13609.02871723  1166.02163576
0.47600002 13625.55836502  1169.89049667
0.47700002 13641.50059017  1173.71476641
