# SAXS profile: number of points = 501, q_min = 0, q_max = 0.5, delta_q = 0.001
#    q    intensity    error
0.00000000 1700912.83420644 306.16431016
0.00100000 1700824.93830465 663.32174169
0.00200000 1700561.21455218 841.77782786
0.00300000 1700121.88288568 1224.08779928
0.00400000 1699506.82470799 1657.01921705
0.00500000 1698716.70142228 2751.92116523
0.00600000 1697751.34359931 1960.90288169
0.00700000 1696611.51742100 2443.12068662
0.00800000 1695296.97650603 2517.51611640
0.00900000 1693809.20807949 2540.71392073
0.01000000 1692147.55789973 3629.65666842
0.01100000 1690313.64755287 3042.56469807
0.01200000 1688307.29012729 3621.41929610
0.01300000 1686129.97764543 5311.30966384
0.01400000 1683781.79161324 4167.36011899
0.01500000 1681264.29759467 4842.04139268
0.01600000 1678577.30206684 6420.55846743
0.01700000 1675722.86112413 4976.89712080
0.01800000 1672701.54660840 5720.63954682
0.01900000 1669514.40886369 7512.81517888
0.02000000 1666162.06227621 7872.61610038
0.02100000 1662647.55718043 7132.75834369
0.02200000 1658969.14316306 9729.85446670
0.02300000 1655130.42482470 7746.01074077
0.02400000 1651131.64754647 8049.26714882
0.02500000 1646975.31474925 10277.12643340
0.02600000 1642661.81877812 7983.33680441
0.02700000 1638193.24518372 6880.41194490
0.02800000 1633570.01566127 8527.23587281
0.02900000 1628795.51895635 10261.41224057
0.03000000 1623870.38272618 8306.09738944
0.03100000 1618796.24980162 12432.35577053
0.03200000 1613574.30053263 9584.63178661
0.03300000 1608208.93402585 10662.42572413
0.03400000 1602698.40449139 9255.58371299
0.03500000 1597046.91446619 11211.26985727
0.03600000 1591255.20922386 9714.61350126
0.03700000 1585326.24008525 12650.90398095
0.03800000 1579261.67242880 11086.41745352
0.03900000 1573063.95889225 11326.06102853
0.04000000 1566733.31678977 10598.95137923
0.04100000 1560273.76865636 13761.61527763
0.04200000 1553687.05706859 10021.28198301
0.04300000 1546974.83160640 12252.04123504
0.04400000 1540139.94264782 13514.72862438
0.04500000 1533184.81516581 11636.87328781
0.04600000 1526110.20097732 13986.80064216
0.04700000 1518920.13336303 15310.71565637
0.04800000 1511616.11249058 13332.45473250
0.04900000 1504201.03462944 11281.50828485
0.05000000 1496676.38138722 16029.40479108
0.05100000 1489046.63319791 13937.47713600
0.05200000 1481310.65481951 15309.34633099
0.05300000 1473473.86552174 16709.19441396
0.05400000 1465537.51022565 18136.02753480
0.05500000 1457505.27606677 13467.34937910
0.05600000 1449377.62895480 19827.48688933
0.05700000 1441160.10844342 18807.14029308
0.05800000 1432851.55572922 12680.73686030
0.05900000 1424456.42747692 17948.15182449
0.06000000 1415978.17741468 15547.44111437
0.06100000 1407418.58649310 17015.69150587
0.06200000 1398779.97041802 17184.01273983
0.06300000 1390066.19398620 16013.56330344
0.06400000 1381276.11817396 26934.88556405
0.06500000 1372416.67696141 23097.77375372
0.06600000 1363488.90514415 21924.90262055
0.06700000 1354494.46517609 17960.59744877
0.06800000 1345437.11056500 13925.27474618
0.06900000 1336320.82642034 15434.50626778
0.07000000 1327144.54812788 15547.49910938
0.07100000 1317913.41142047 17080.15861201
0.07200000 1308629.19305593 22927.18453641
0.07300000 1299295.34902243 14422.17904991
0.07400000 1289914.99275812 18865.00765318
0.07500000 1280488.36919852 14597.56809309
0.07600000 1271019.31929732 14680.27382610
0.07700000 1261511.29033285 22139.52418343
0.07800000 1251965.67872334 17802.95278634
0.07900000 1242384.40370409 17890.33625246
0.08000000 1232772.68195553 20969.46430376
0.08100000 1223131.45613941 15044.51761638
0.08200000 1213461.93742616 24172.16292781
0.08300000 1203767.74574610 28818.20118566
0.08400000 1194051.78511073 18268.99316972
0.08500000 1184316.35334262 15277.68167533
0.08600000 1174563.80039737 19926.47580932
0.08700000 1164796.32871947 18450.37471330
0.08800000 1155015.56588441 21587.24194020
0.08900000 1145225.40891113 17006.59812113
0.09000000 1135427.46936205 23247.87852727
0.09100000 1125624.31657807 17086.97792842
0.09200000 1115816.95107932 15565.64719894
0.09300000 1106010.51296265 23392.12344841
0.09400000 1096203.08461275 15620.89468987
0.09500000 1086399.72977591 21901.81958173
0.09600000 1076601.53369838 23496.82957750
0.09700000 1066813.59738271 18818.59274255
0.09800000 1057034.24822043 23545.43898616
0.09900000 1047268.43494997 15709.02726293
0.10000000 1037514.78365668 15718.34971159
0.10100000 1027777.50353600 20442.49550678
0.10200000 1018058.95993059 23593.51750614
0.10300000 1008359.73760313 20449.53644055
0.10400000 998682.81824148 20448.03166547
0.10500000 989031.94032661 28306.09546393
0.10600001 979403.26855810 22007.19248002
0.10700001 969804.68510286 26708.42228457
0.10800001 960233.60921801 17269.80227453
0.10900001 950694.78991173 20392.40420339
0.11000001 941188.64438582 20372.02916663
0.11100001 931716.27262062 26609.81799866
0.11200001 922280.82664328 18759.19289705
0.11300001 912881.53886301 20293.35756435
0.11400001 903522.46835328 18702.91597553
0.11500001 894204.51204165 18670.99109061
0.11600001 884928.33519910 15530.49301410
0.11700001 875696.20998412 21699.75310535
0.11800001 866507.91655447 21654.03385456
0.11900001 857365.78951285 16975.84343194
0.12000001 848271.12087192 18475.34588287
0.12100001 839226.39042790 15357.84366831
0.12200001 830231.26233378 15317.76751170
0.12300001 821288.15278780 15275.96036157
0.12400001 812396.58872731 18278.92410762
0.12500001 803558.33386532 19743.42919339
0.12600001 794775.91841668 19682.62654710
0.12700001 786048.64208049 18110.56156702
0.12800001 777377.60799162 19554.93465064
0.12900001 768764.82768936 14990.91484650
0.13000001 760210.46638910 17925.76364238
0.13100001 751714.70667396 23814.32302998
0.13200001 743278.91999721 22242.62272944
0.13300001 734905.55508523 16248.76258895
0.13400001 726592.51241676 17656.19888414
0.13500001 718343.47675470 21981.31142507
0.13600001 710156.02579957 14593.70701829
0.13700001 702033.51003820 17438.51321163
0.13800001 693973.71275498 18810.15837123
0.13900001 685980.82075236 15846.15770666
0.14000001 678052.54401084 17208.97437858
0.14100001 670190.33639788 19985.07677394
0.14200001 662394.10195264 17050.02498843
0.14300001 654666.09660448 16968.94602437
0.14400001 647002.48237000 28144.60931067
0.14500001 639408.70703398 16803.66161352
0.14600001 631881.94249725 16719.59698721
0.14700001 624425.21107558 16634.68840782
0.14800001 617034.09935017 16548.85532532
0.14900001 609713.10008023 19205.96355868
0.15000001 602460.00014532 13645.71964714
0.15100001 595276.43231474 16286.76395662
0.15200001 588162.36339123 14848.15956445
0.15300001 581118.40791319 16108.60302750
0.15400001 574141.12951807 17353.41645861
0.15500001 567235.00731208 17255.28973676
0.15600001 560395.51216402 17156.50941460
0.15700001 553629.08346414 20993.61583579
0.15800001 546927.96338127 18261.92555924
0.15900001 540298.23777261 16857.30581418
0.16000001 533735.17411137 14178.67556954
0.16100001 527243.94477815 16655.63700176
0.16200001 520820.31995139 14007.46316633
0.16300001 514464.53167661 13921.41088437
0.16400001 508177.72778506 12577.39935645
0.16500001 501958.19788352 13748.63568912
0.16600001 495807.73483673 12419.98434405
0.16700001 489723.08238253 16043.32893633
0.16800001 483705.33797885 13488.12398640
0.16900001 477756.49650041 12182.79123601
0.17000001 471873.02526749 14524.25240356
0.17100001 466055.62660178 14429.08288095
0.17200001 460304.38120600 14333.87910764
0.17300001 454618.79783559 14238.66142062
0.17400001 448998.45857535 12964.83110364
0.17500001 443442.39230419 14048.25565166
0.17600001 437949.03503577 18604.07588697
0.17700001 432521.55822677 15012.82399512
0.17800001 427155.60293868 11469.12848061
0.17900001 421853.11620301 12529.03814302
0.18000001 416612.97109444 11311.04269949
0.18100001 411436.01245905 12355.42403777
0.18200001 406317.76891945 12268.76561207
0.18300001 401261.51793045 16612.22762707
0.18400001 396264.82878578 13195.61942194
0.18500001 391329.39937191 12009.89983410
0.18600001 386451.47907916 11923.96095032
0.18700001 381631.67515346 13990.61787211
0.18800001 376869.93319267 12821.11573296
0.18900001 372167.43624467 14849.48140776
0.19000001 367517.54455077 10529.37814888
0.19100001 362928.45067186 11497.57386055
0.19200001 358391.54818809 11412.97939133
0.19300001 353912.24555851 13388.50088212
0.19400001 349485.02921016 15333.65638117
0.19500001 345112.42256346 13190.19741368
0.19600001 340792.77002126 13091.55487903
0.19700001 336525.48494083 9994.80737507
0.19800001 332310.29325777 15871.14035604
0.19900001 328146.85873380 10828.84684999
0.20000001 324032.17309808 9769.57048063
0.20100001 319969.40406897 9695.07340150
0.20200001 315954.23613867 10582.88763965
0.20300001 311989.54313230 11456.25656529
0.20400001 308071.98493525 13262.49957832
0.20500001 304201.90215671 14099.75883142
0.20600001 300378.80415064 14922.81969558
0.20700001 296602.27407386 12030.18880509
0.20800001 292869.79168895 12854.05576484
0.20900001 289184.95469202 10020.25915375
0.21000001 285542.47818794 10844.90383424
0.21100001 281944.58579598 12552.17355302
0.21200001 278389.23842237 13341.80488212
0.21300001 274875.98064380 11470.57521454
0.21400001 271405.60145801 10503.39727299
0.21500001 267977.46060600 9550.71714753
0.21600001 264588.87866074 11196.07892986
0.21700001 261240.62510537 10251.08261380
0.21800001 257932.49559116 10167.69945694
0.21900001 254662.41614529 15967.33424727
0.22000001 251430.46053006 8334.92016067
0.22100001 248238.20220693 8266.33252435
0.22200001 245083.20859422 9017.83708663
0.22300001 241963.74411160 9755.97862390
0.22400001 238879.74320651 8868.41088590
0.22500001 235834.57480659 7994.79246400
0.22600001 232822.23086737 10305.87653669
0.22700001 229846.80260238 11005.06542902
0.22800001 226903.89756300 8573.56417486
0.22900001 223994.29565331 8500.58392204
0.23000001 221119.04447786 9194.13030420
0.23100001 218277.25063237 11394.07302187
0.23200001 215465.83634026 9789.69073711
0.23300001 212687.26399912 8211.85565138
0.23400001 209940.59419512 11100.60944307
0.23500001 207222.82687868 13204.23915322
0.23600001 204537.35311433 8725.56389655
0.23700001 201881.04600324 10090.01515648
0.23800001 199254.71694645 9286.26652252
0.23900001 196656.97047715 7079.65127204
0.24000001 194088.08706073 10524.42701868
0.24100001 191548.69944035 7648.53993044
0.24200001 189036.39737922 6890.37701040
0.24300001 186552.06794509 6827.80600976
0.24400001 184094.64651905 8795.12215349
0.24500001 181663.93292582 7373.73938627
0.24600001 179260.02947803 9962.37660951
0.24700001 176882.38789811 7896.03016930
0.24800001 174530.52234000 7822.45838133
0.24900001 172203.19268215 7749.14403729
0.25000001 169902.24325102 6396.81976102
0.25100001 167624.70897800 7603.45715895
0.25200001 165373.31534744 8786.28466009
0.25300001 163145.99630325 11810.13923114
0.25400001 160942.00653209 6156.03204110
0.25500001 158761.32642050 6706.07874528
0.25600001 156604.76298053 7244.53667824
0.25700001 154470.44125102 5978.00635925
0.25800001 152359.84713783 8286.85247791
0.25900001 150271.56525855 8204.82785133
0.26000001 148205.55099575 6382.47235562
0.26100001 146161.08364986 5744.13085923
0.26200001 144139.18913825 6823.54953667
0.26300001 142138.15051465 6191.53812939
0.26400001 140158.94546504 6128.45018045
0.26500001 138201.25340953 6065.65329916
0.26600001 136263.49768024 7640.29467647
0.26700001 134347.59460820 5940.85091470
0.26800001 132452.64932792 5344.46465329
0.26900001 130576.40851892 5817.17927480
0.27000001 128721.60495794 6279.04018699
0.27100001 126886.14610483 6212.34600728
0.27200001 125072.09758140 5121.70263834
0.27300001 123276.67845206 5066.67172416
0.27400001 121498.86787432 8018.92565920
0.27500001 119743.34784857 6940.32476976
0.27600001 118004.67833475 5883.71354022
0.27700001 116286.58411411 5818.98094446
0.27800001 114586.33680467 5274.98226445
0.27900001 112906.19077674 6164.67830817
0.28000001 111242.89724851 5626.66600913
0.28100001 109599.12017238 5563.25160325
0.28200001 107974.08017807 6416.89988869
0.28300001 106366.85995024 5437.47413801
0.28400001 104777.33123299 4479.23112222
0.28500001 103206.31971685 8855.10265083
0.28600001 101652.85452376 6564.23339157
0.28700001 100117.21734702 4757.57039352
0.28800001 98598.29359613  4274.23622971
0.28900001 97098.96059515  5490.94648156
0.29000001 95615.31222445  5008.33029138
0.29100001 94149.90974855  6185.64936328
0.29200001 92701.41860940  6518.76406518
0.29300001 91270.14450063  5232.51763191
0.29400001 89855.29809609  5168.92626766
0.29500001 88458.47380034  5105.82334945
0.29600001 87077.75066555  5043.10816852
0.29700001 85713.63656118  4597.67968279
0.29800001 84366.06461423  4162.19999478
0.29900001 83035.86416648  5231.25969013
0.30000001 81721.29124604  3689.71647443
0.30100001 80424.19556251  4007.53785460
0.30200001 79141.68397305  5755.18353097
0.30300001 77876.81444621  4616.53777892
0.30400001 76627.79228038  6660.87115931
0.30500001 75394.48743334  4152.72856443
0.30600001 74176.45095626  5465.32116520
0.30700001 72975.38860222  3708.60942434
0.30800001 71789.68671775  3327.45213690
0.30900001 70619.65728783  3612.19564129
0.31000001 69465.66161718  4212.74524823
0.31100001 68326.09915454  3197.66159183
0.31200001 67202.75113230  4417.23704106
0.31300001 66094.18474987  3113.03624911
0.31400001 65002.03939619  3685.61580827
0.31500001 63924.06901238  3333.00111611
0.31600002 62861.56081754  3287.97409424
0.31700002 61813.96917080  5012.49499739
0.31800002 60781.36728215  3199.22741837
0.31900002 59763.66241710  3155.52152503
0.32000002 58761.07071619  3395.21482674
0.32100002 57772.37834161  3348.48720723
0.32200002 56799.47344852  3027.12808077
0.32300002 55839.30867693  2985.16958322
0.32400002 54894.26835718  3211.31485095
0.32500002 53963.51139973  2902.69741564
0.32600002 53047.48726787  2601.97937370
0.32700002 52144.75288419  3591.73074874
0.32800002 51256.89405428  3035.43340963
0.32900002 50382.27795651  3990.27660311
0.33000002 49522.57742041  2950.55530243
0.33100002 48674.11431511  2666.36810845
0.33200002 47842.31102467  2867.66825862
0.33300002 47022.49073370  4711.65379464
0.33400002 46216.77862455  3019.11120662
0.33500002 45423.25672635  2976.13192165
0.33600002 44644.20048355  3159.47021784
0.33700002 43877.05041922  2224.56656160
0.33800002 43124.23021954  3508.58753682
0.33900002 42383.13352151  2377.69390316
0.34000002 41655.51486579  2343.74765492
0.34100002 40940.41683672  2310.26783151
0.34200002 40238.44710013  3105.40230202
0.34300002 39547.75131365  2040.66406443
0.34400002 38871.03027295  2413.89109427
0.34500002 38205.48276837  2776.01050942
0.34600002 37553.28397158  2345.57822795
0.34700002 36911.32147505  2119.44817948
0.34800002 36282.90559861  3039.05631687
0.34900002 35665.53601053  2434.17294801
0.35000002 35060.07075698  1845.91281278
0.35100002 34466.84847298  2183.81962268
0.35200002 33883.66155609  2511.79595012
0.35300002 33312.42667631  1945.77893432
0.35400002 32752.71392172  2267.30672862
0.35500002 32204.38693197  1891.68577798
0.35600002 31665.86224668  2543.56050544
0.35700002 31138.68638056  2006.57704540
0.35800002 30623.06217371  1978.86237139
0.35900002 30117.70344533  2439.53409462
0.36000002 29623.12629928  1604.09236509
0.36100002 29138.16900210  2847.96477316
0.36200002 28664.67993474  1872.95027565
0.36300002 28200.25789176  1693.70756921
0.36400002 27745.95124163  1974.81817316
0.36500002 27301.47353831  1798.62116190
0.36600002 26867.13066732  1626.93917462
0.36700002 26441.77350613  1897.46175668
0.36800002 26027.66949382  1584.69473220
0.36900002 25621.74742168  1706.40845912
0.37000002 25224.88288811  1403.76479922
0.37100002 24836.87930029  2217.43668897
0.37200002 24459.09911156  1505.33532613
0.37300002 24089.39245983  1486.55647911
0.37400002 23728.57598495  1868.62544733
0.37500002 23376.82698729  1450.29841499
0.37600002 23033.81968896  1432.81882163
0.37700002 22698.57165914  1544.41088885
0.37800002 22371.52808509  1780.55000464
0.37900002 22053.43329915  2011.27321216
0.38000002 21743.20318121  1491.14894481
0.38100002 21439.92151360  1965.61209748
0.38200002 21145.60024956  1457.77775026
0.38300002 20858.06869340  1321.56729502
0.38400002 20579.03752462  1307.28342068
0.38500002 20306.16869727  1410.87266793
0.38600002 20041.98617530  1396.12482311
0.38700002 19784.11985196  1381.72299592
0.38800002 19533.58877534  1595.69894265
0.38900002 19289.41786980  1466.96029850
0.39000002 19053.34828536  1564.47050183
0.39100002 18822.77685639  1328.13519791
0.39200002 18599.47662777  1315.72703898
0.39300002 18382.20657663  1303.66615218
0.39400002 18172.70731311  1292.07955118
0.39500002 17968.19644394  1280.77310320
0.39600002 17769.91590325  1164.01839639
0.39700002 17577.68565593  1469.14303673
0.39800002 17391.59456490  1561.33047604
0.39900002 17210.97139810  1445.72166594
0.40000002 17036.02080819  1127.18837018
0.40100002 16866.94843170  1118.78474248
0.40200002 16703.60204272  1211.67934959
0.40300002 16544.89811998  1303.40713565
0.40400002 16391.92808295  1294.55258169
0.40500002 16244.23874218  1088.20160490
0.40600002 16101.34052326  1081.28557407
0.40700002 15963.55123752  1074.66632023
0.40800002 15830.67620883  971.21203143
0.40900002 15702.31674571  1448.53878843
0.41000002 15579.02108945  1248.58070437
0.41100002 15459.96642084  955.42597008
0.41200002 15345.05676308  950.62631152
0.41300002 15235.21272434  1324.54945701
0.41400002 15129.18423256  1130.15011572
0.41500002 15027.49632818  1125.25897837
0.41600002 14929.24968819  1027.20707347
0.41700002 14835.49684182  1209.24140488
0.41800002 14746.43482627  1204.85751457
0.41900002 14659.25575449  923.53315629
0.42000002 14577.10193171  1012.59843367
0.42100002 14498.77799382  1193.10449765
0.42200002 14423.97116629  1830.40202774
0.42300002 14351.89363223  1186.61462174
0.42400002 14283.28973122  1456.89562162
0.42500002 14218.26224139  999.40170031
0.42600002 14155.62134708  997.33434927
0.42700002 14097.32140052  1086.05769216
0.42800002 14041.16538274  993.90393872
0.42900002 13989.06308657  1172.98299539
0.43000002 13939.22913885  991.28832718
0.43100002 13891.25851293  1170.19967258
0.43200002 13847.15786268  1079.24753496
0.43300002 13805.56834706  898.74254198
0.43400002 13766.46763940  1077.91446725
0.43500002 13729.70495560  1346.88411997
0.43600002 13695.73574461  987.53107266
0.43700002 13663.59321814  987.46792867
0.43800002 13633.65166931  987.55360547
0.43900002 13606.70847082  1167.45564212
0.44000002 13581.42078090  1257.77543813
0.44100002 13558.54295470  1348.39716075
0.44200002 13537.54109828  1259.39750806
0.44300002 13518.56903424  1170.43776245
0.44400002 13501.78547172  1081.49306754
0.44500002 13485.72276965  1263.07285446
0.44600002 13471.88033144  993.61858093
0.44700002 13460.80733391  904.56629571
0.44800002 13449.74986064  1449.34511367
0.44900002 13442.13077156  1179.54703111
0.45000002 13435.32661340  1181.56985501
0.45100002 13429.75141310  1092.64462675
0.45200002 13425.93421062  1003.52150013
0.45300002 13423.00362498  1096.92790822
0.45400002 13422.01500580  1282.47359458
0.45500002 13422.27124335  1101.70007587
0.45600002 13423.57025344  1104.22294138
0.45700002 13426.19295642  1014.61744980
0.45800002 13429.58702894  924.62711076
0.45900002 13434.13493517  1205.04196080
0.46000002 13440.58324735  1394.12456340
0.46100002 13446.87315085  1211.42885958
0.46200002 13455.10432472  1214.79415153
0.46300002 13464.10267203  1405.65238558
0.46400002 13473.38625719  1127.72248318
0.46500002 13483.95937481  942.52880497
0.46600002 13495.11758162  1323.46624396
0.46700002 13506.68676316  1706.70502028
0.46800002 13520.12840017  1046.25518584
0.46900002 13533.13718173  1240.31208149
0.47000002 13547.12619307  1244.23586417
0.47100002 13561.79676702  1056.19278228
0.47200002 13577.19264314  1252.29242279
0.47300002 13593.21676598  1063.12553366
0.47400002 13608.99520160  1260.53324029
0.47500002 13625.69410831  1070.16206599
0.47600002 13643.39891284  1073.80376233
0.47700002 13660.57827726  1175.35621069
