# SAXS profile: number of points = 501, q_min = 0, q_max = 0.5, delta_q = 0.001
#    q    intensity    error
0.00000000 1682732.95097188 328.13292544
0.00100000 1682645.56329611 807.66988956
0.00200000 1682383.36054652 832.77978984
0.00300000 1681946.57096472 1412.83516994
0.00400000 1681335.06413957 1765.40188443
0.00500000 1680549.49768683 1966.24299012
0.00600000 1679589.72676572 2468.99699886
0.00700000 1678456.48775560 2618.39222972
0.00800000 1677149.53279434 3396.22794730
0.00900000 1675670.37762906 3770.25851084
0.01000000 1674018.36401374 3314.55650387
0.01100000 1672195.05581743 4213.93172413
0.01200000 1670200.32165631 4559.64707803
0.01300000 1668035.63674407 3853.16249082
0.01400000 1665701.08433454 4122.61036649
0.01500000 1663198.21113913 5588.34623827
0.01600000 1660526.83684461 7198.38415951
0.01700000 1657688.99526382 4923.33653679
0.01800000 1654685.26574864 5659.02386350
0.01900000 1651516.74157007 5450.00549310
0.02000000 1648183.96437925 5710.95769491
0.02100000 1644689.99328977 6512.97266872
0.02200000 1641033.07933345 7360.03369519
0.02300000 1637216.84484527 7662.17518265
0.02400000 1633241.51400746 8574.51833952
0.02500000 1629109.59528029 8259.58602529
0.02600000 1624821.46759684 8554.68541817
0.02700000 1620379.23538814 7486.15241037
0.02800000 1615783.26273630 9137.25476980
0.02900000 1611036.99183196 7249.66679611
0.03000000 1606141.03946333 9709.12302984
0.03100000 1601096.96726695 7685.26579650
0.03200000 1595906.07922708 10269.65609283
0.03300000 1590572.61510574 9734.30485320
0.03400000 1585094.86602493 14979.14717508
0.03500000 1579477.21431654 8529.17735117
0.03600000 1573720.15999050 10480.97674990
0.03700000 1567826.75633468 11617.59680173
0.03800000 1561798.64459103 13704.78374054
0.03900000 1555638.28412322 12133.97917809
0.04000000 1549345.78546244 11434.17242656
0.04100000 1542925.48446686 9720.43100284
0.04200000 1536378.64799098 13873.49983499
0.04300000 1529707.17335542 11105.67459406
0.04400000 1522913.99495059 11307.63693766
0.04500000 1516001.46419766 11506.45164791
0.04600000 1508970.13037577 11702.06390506
0.04700000 1501824.34061876 14057.07648196
0.04800000 1494565.28566241 13182.06643288
0.04900000 1487195.93366566 12269.36702385
0.05000000 1479718.05132873 11319.84361979
0.05100000 1472135.69608995 11482.65896441
0.05200000 1464447.86163728 12806.59714682
0.05300000 1456660.07511152 14158.73659013
0.05400000 1448773.51563207 14342.85847362
0.05500000 1440791.60269776 12102.65002724
0.05600000 1432715.47277115 15924.63322296
0.05700000 1424549.84932951 18590.37640152
0.05800000 1416294.09509320 15041.04399219
0.05900000 1407952.49593769 12671.57305528
0.06000000 1399528.52752111 16647.39261261
0.06100000 1391023.75289084 12936.52150643
0.06200000 1382440.76344433 23515.31848538
0.06300000 1373783.31813439 15825.98456486
0.06400000 1365050.20464142 22625.70820006
0.06500000 1356248.63556529 16112.23454421
0.06600000 1347379.11310774 16249.39286436
0.06700000 1338443.58793321 21843.40037732
0.06800000 1329445.88978769 16511.71872406
0.06900000 1320389.73467002 18023.32072208
0.07000000 1311274.46223342 15361.58104442
0.07100000 1302105.00545304 14062.73471756
0.07200000 1292882.82936030 14157.06764471
0.07300000 1283611.75882070 15672.90030956
0.07400000 1274294.64763540 15769.39700351
0.07500000 1264931.96635918 15862.24760165
0.07600000 1255527.25357431 23202.14473378
0.07700000 1246084.29261406 21868.78036077
0.07800000 1236604.18674793 17584.51236020
0.07900000 1227089.05277201 14725.06932392
0.08000000 1217544.07624879 22189.74183058
0.08100000 1207969.73445822 22287.04264642
0.08200000 1198368.04378821 20887.55598338
0.08300000 1188741.83415887 16475.96259469
0.08400000 1179094.61751271 19543.49420262
0.08500000 1169428.35572225 25645.56504492
0.08600000 1159745.41322816 19675.08185919
0.08700000 1150047.75382627 24289.00970137
0.08800000 1140337.46064227 21312.90814034
0.08900000 1130618.23815871 16789.68162526
0.09000000 1120891.54717821 16830.18737149
0.09100000 1111160.11325290 15334.01028330
0.09200000 1101424.92873786 19974.34202119
0.09300000 1091690.96751287 16932.12770180
0.09400000 1081956.34979208 21585.03019279
0.09500000 1072226.31882082 18528.07166009
0.09600000 1062501.78661905 20097.22223863
0.09700000 1052787.65951977 17023.57725476
0.09800000 1043082.85183851 15489.78107810
0.09900000 1033391.46156456 26351.48350901
0.10000000 1023712.86044669 20162.02573466
0.10100000 1014050.88045177 17066.47712067
0.10200000 1004407.59519511 18621.71769081
0.10300000 994784.40625497 17070.50121434
0.10400000 985183.77610162 23274.96780537
0.10500000 975609.11818377 18614.62285075
0.10600001 966057.02365459 17055.73755515
0.10700001 956535.36426729 15495.87363033
0.10800001 947041.36803515 20129.36522491
0.10900001 937579.98462537 18564.08456931
0.11000001 928151.37186569 18544.46528276
0.11100001 918756.71849331 16978.62495700
0.11200001 909399.14573190 16955.74787040
0.11300001 900078.11259369 24626.13831998
0.11400001 890797.33726169 19976.13122866
0.11500001 881557.84205175 16873.01789139
0.11600001 872360.28632405 24495.87799353
0.11700001 863206.96748494 21390.26966165
0.11800001 854097.78570589 16770.21081218
0.11900001 845034.52665683 16731.68441590
0.12000001 836019.00294900 16691.12018011
0.12100001 827053.62643355 22702.62311508
0.12200001 818137.87946813 19623.03796351
0.12300001 809274.24665073 18063.00203627
0.12400001 800462.33477133 19511.27032937
0.12500001 791703.55645803 17955.83750656
0.12600001 783000.86940894 25357.48435074
0.12700001 774353.41642534 16354.34492562
0.12800001 765762.15038430 20744.49763158
0.12900001 757229.05668120 17719.16076148
0.13000001 748754.59301047 19126.93698000
0.13100001 740338.68038114 16124.57721878
0.13200001 731982.81506259 14603.05784889
0.13300001 723689.33271751 18910.00315538
0.13400001 715456.27558969 18834.38734286
0.13500001 707286.89295951 14428.65329666
0.13600001 699179.35074909 15804.94996890
0.13700001 691136.50696976 14306.52636887
0.13800001 683156.73022523 15668.20034656
0.13900001 675243.48305748 14180.11381292
0.14000001 667394.67216912 16938.47757848
0.14100001 659612.11492424 16859.68645262
0.14200001 651895.40482353 13983.15709298
0.14300001 644246.70141664 16698.87528837
0.14400001 636662.55296379 20771.11677021
0.14500001 629147.94740057 19289.67697724
0.14600001 621700.46406595 15079.34546728
0.14700001 614322.74432378 20456.94835107
0.14800001 607010.50191020 14923.35389353
0.14900001 599768.21129631 16193.74246903
0.15000001 592593.93618093 17448.92927414
0.15100001 585489.02172080 13349.15032511
0.15200001 578453.16518854 13275.50076751
0.15300001 571487.37897804 19802.03861603
0.15400001 564588.19869208 15752.01148686
0.15500001 557760.07531309 14356.74501610
0.15600001 550998.26154855 16868.81257343
0.15700001 544309.28435644 15480.15677771
0.15800001 537685.46064885 15388.55861009
0.15900001 531133.16519211 17846.07519280
0.16000001 524647.07381974 17738.31840314
0.16100001 518232.59469534 15111.66317465
0.16200001 511885.52119943 16270.28205938
0.16300001 505606.18669099 18656.86916965
0.16400001 499395.41748826 17304.05203289
0.16500001 493252.05960235 12281.97686395
0.16600001 487177.15873204 14644.54608290
0.16700001 481168.02626587 18188.15225160
0.16800001 475225.61033319 15661.06072799
0.16900001 469351.80799981 13165.31883604
0.17000001 463542.88294564 13078.86305989
0.17100001 457799.89786823 14173.48550729
0.17200001 452122.99421922 17598.88838105
0.17300001 446511.40489219 19811.71197066
0.17400001 440964.61708181 12732.85391956
0.17500001 435482.08629430 12646.40038325
0.17600001 430061.92340950 11418.14460579
0.17700001 424707.32578740 12473.65474751
0.17800001 419413.86080803 12387.38896405
0.17900001 414183.81614909 15656.14898993
0.18000001 409015.68465148 13325.73163539
0.18100001 403910.47089354 11026.75637626
0.18200001 398863.53403691 16423.20678977
0.18300001 393878.37640791 13045.25244288
0.18400001 388952.48089194 11872.77504010
0.18500001 384087.49913576 11787.64590535
0.18600001 379279.61641260 12766.55249158
0.18700001 374529.80112623 10561.74089075
0.18800001 369837.66474891 15727.34743650
0.18900001 365204.19852401 11449.15216467
0.19000001 360623.28992695 14464.60084240
0.19100001 356102.66867730 16409.21174799
0.19200001 351633.88943794 10179.80158024
0.19300001 347222.47291500 15156.26165891
0.19400001 342862.84015375 12034.48625807
0.19500001 338557.46813535 10948.94903689
0.19600001 334304.69565978 10866.57464594
0.19700001 330103.85194363 11764.90183925
0.19800001 325954.70108868 10702.72311604
0.19900001 321856.90138745 11586.84899754
0.20000001 317807.87240134 11498.28936690
0.20100001 313809.98409591 12360.97585775
0.20200001 309859.63506601 9435.22633370
0.20300001 305959.32673158 14979.76934479
0.20400001 302105.73130738 13934.62751518
0.20500001 298299.23633013 13826.17025742
0.20600001 294539.27514480 10974.53391064
0.20700001 290825.65058023 10888.51287241
0.20800001 287155.81941480 9902.56890062
0.20900001 283533.08993948 12503.80985740
0.21000001 279952.39572085 15062.83936382
0.21100001 276415.83292057 9669.02629265
0.21200001 272921.64330506 10463.81629899
0.21300001 269468.83350328 9514.94496082
0.21400001 266058.75021774 8580.39510017
0.21500001 262690.44671554 11915.63922636
0.21600001 259361.40298836 13507.54250625
0.21700001 256072.27220091 11722.98917562
0.21800001 252822.79939989 9135.75228826
0.21900001 249610.99819592 9060.87966292
0.22000001 246437.09550058 10620.20713275
0.22100001 243302.36904576 9722.36312678
0.22200001 240204.57702529 8838.32782956
0.22300001 237141.80201157 10358.35440166
0.22400001 234114.46276870 11852.04523811
0.22500001 231125.17145155 8618.65805098
0.22600001 228168.37696488 10099.87368396
0.22700001 225248.10960699 8473.83428414
0.22800001 222360.14543041 7638.07135674
0.22900001 219504.93619343 14388.54924793
0.23000001 216683.68907077 10511.32625392
0.23100001 213895.58285962 8187.92329910
0.23200001 211137.45103622 8117.17968898
0.23300001 208411.66816064 8046.77488825
0.23400001 205717.45299030 7976.69461696
0.23500001 203051.73658780 8625.63817821
0.23600001 200418.00306463 7837.34638053
0.23700001 197813.06922603 7768.11959592
0.23800001 195237.55870248 9099.04685370
0.23900001 192690.34499289 12486.33494614
0.24000001 190171.62721516 7562.17511390
0.24100001 187681.81496344 8175.42024651
0.24200001 185218.83340892 7426.34947681
0.24300001 182783.52503392 10034.81599904
0.24400001 180374.55949061 8617.39498730
0.24500001 177992.00777010 7224.69593715
0.24600001 175635.91814021 8459.50439740
0.24700001 173305.57518320 9670.45155269
0.24800001 171000.65921372 7664.24990853
0.24900001 168719.84996990 8225.09307514
0.25000001 166465.04827947 7520.89123707
0.25100001 164233.27803979 7449.62184432
0.25200001 162027.28928988 8608.51028724
0.25300001 159844.97029042 6699.10302181
0.25400001 157685.59110491 7840.91638865
0.25500001 155549.20760364 6570.39884004
0.25600001 153436.43851769 10055.45747401
0.25700001 151345.52337531 7028.48643809
0.25800001 149277.93159042 5799.44791668
0.25900001 147232.31324407 8038.88468348
0.26000001 145208.57820424 5684.91610568
0.26100001 143205.98407780 6753.59452866
0.26200001 141225.66493101 6128.48801966
0.26300001 139265.75571324 6617.90902464
0.26400001 137327.22864099 6550.50911613
0.26500001 135409.87928337 8644.56710250
0.26600001 133512.10428453 5881.87603258
0.26700001 131635.80925105 6350.11173876
0.26800001 129779.99266218 5236.62295172
0.26900001 127942.67400523 6218.01425090
0.27000001 126126.30553644 6665.14493148
0.27100001 124328.91863307 6087.14414434
0.27200001 122552.55648288 6022.23291056
0.27300001 120794.44060500 6950.51244134
0.27400001 119053.69524597 6384.25470970
0.27500001 117334.68945261 5343.42201055
0.27600001 115632.08482335 4804.51335179
0.27700001 113949.93268291 6177.22614309
0.27800001 112285.08017388 5169.04391044
0.27900001 110640.02509559 5111.56940134
0.28000001 109011.54608539 5513.80426196
0.28100001 107402.05095006 6360.34975829
0.28200001 105810.88385932 5390.00667890
0.28300001 104237.34553487 5772.66446894
0.28400001 102681.07610005 5706.50107435
0.28500001 101142.87344832 4772.93242394
0.28600001 99622.05015588  5575.34830087
0.28700001 98118.60499550  5086.46872372
0.28800001 96631.43297921  5026.76738151
0.28900001 95163.50428518  5795.45768529
0.29000001 93710.96130789  4499.53202018
0.29100001 92276.29527628  4850.04230930
0.29200001 90858.21657864  4791.86256918
0.29300001 89456.93383845  5917.57645353
0.29400001 88071.72431885  4286.89138415
0.29500001 86704.22995485  4619.60159067
0.29600001 85352.44013278  6464.16735945
0.29700001 84016.95460605  3755.55804867
0.29800001 82697.85179021  3708.99882837
0.29900001 81395.48696545  3662.79708684
0.30000001 80108.50398895  5425.34868949
0.30100001 78838.63757238  3571.39045110
0.30200001 77583.03472775  3878.76400484
0.30300001 76344.64793168  3481.31611049
0.30400001 75121.92007882  5498.92481010
0.30500001 73914.69250374  3731.95300119
0.30600001 72722.07752533  4353.50737716
0.30700001 71546.28024811  3635.98213435
0.30800001 70385.46400412  4241.07633436
0.30900001 69239.95329939  3863.58957702
0.31000001 68110.17699608  3177.33990730
0.31100001 66994.53532203  3448.87884167
0.31200001 65894.85784171  3093.76372214
0.31300001 64809.57308936  4884.04965925
0.31400001 63740.39123881  4216.42708008
0.31500001 62685.01472418  3862.65079019
0.31600002 61644.80968910  4396.81625925
0.31700002 60619.16913276  4048.14830636
0.31800002 59608.26919880  3993.15814270
0.31900002 58611.97678655  3376.05002276
0.32000002 57630.45638223  3329.88792743
0.32100002 56662.43783080  3010.47546450
0.32200002 55710.06310915  3508.89849108
0.32300002 54770.04139551  3460.37137922
0.32400002 53844.88061720  2887.43185982
0.32500002 52933.68691794  3623.84037800
0.32600002 52036.87895611  3318.13174376
0.32700002 51153.11269823  2516.73326393
0.32800002 50283.89965431  2729.66162199
0.32900002 49427.67906620  2691.33725260
0.33000002 48586.02173545  2653.52570274
0.33100002 47755.27197561  2616.03392270
0.33200002 46940.94182267  3048.11020160
0.33300002 46138.43454057  3929.61065591
0.33400002 45349.59868906  2278.81744204
0.33500002 44572.71779938  2246.46508347
0.33600002 43810.05781901  3100.43793868
0.33700002 43059.00690586  2838.01927956
0.33800002 42321.90965433  3012.89689097
0.33900002 41596.37391315  2969.98123805
0.34000002 40883.94448820  2300.33524557
0.34100002 40183.90379150  2679.86467077
0.34200002 39496.72652883  2032.10667615
0.34300002 38820.52043311  2604.08063398
0.34400002 38157.96810282  2172.14243713
0.34500002 37506.34613846  2335.89534813
0.34600002 36867.82383039  2110.86735338
0.34700002 36239.26871596  1891.68991657
0.34800002 35624.15327144  2051.41696329
0.34900002 35019.69109999  2206.24064379
0.35000002 34426.95317140  2356.35292142
0.35100002 33846.15380846  2859.32320916
0.35200002 33275.16399076  1761.92001676
0.35300002 32715.92869254  2258.38066461
0.35400002 32167.95561497  2226.82683292
0.35500002 31631.02286153  1858.00637089
0.35600002 31103.78356648  1832.16845776
0.35700002 30587.69506240  1971.07116318
0.35800002 30082.81513564  2105.94757332
0.35900002 29587.99708817  1597.75191844
0.36000002 29103.86163990  1733.57160069
0.36100002 28628.98369528  1710.00927712
0.36200002 28165.45129225  1840.33067461
0.36300002 27710.72622362  2118.20801287
0.36400002 27265.88343649  1642.08790774
0.36500002 26830.64337909  1914.90310867
0.36600002 26405.42664498  1598.98068623
0.36700002 25988.92591034  2151.88316731
0.36800002 25583.42226689  1840.85523641
0.36900002 25185.97033260  1956.94998754
0.37000002 24797.29998756  3035.93358129
0.37100002 24417.48631854  2043.74370167
0.37200002 24047.54832347  2152.73662789
0.37300002 23685.53517478  1594.51030350
0.37400002 23332.18883593  1443.67925261
0.37500002 22987.78897751  1815.11590365
0.37600002 22651.81387556  1409.05614888
0.37700002 22323.54861978  1772.04337338
0.37800002 22003.37003479  1375.98081031
0.37900002 21691.82966242  1360.07778426
0.38000002 21387.96428066  1222.32221654
0.38100002 21090.95323747  1329.36284553
0.38200002 20802.69222983  1673.16061531
0.38300002 20521.16975616  1418.42332074
0.38400002 20247.88304504  1286.24683137
0.38500002 19980.65150299  1503.94370988
0.38600002 19721.88103400  1717.28287239
0.38700002 19469.34232914  1246.42735496
0.38800002 19223.94945683  1570.40450553
0.38900002 18984.83581072  1221.67424230
0.39000002 18753.53990246  1539.85323434
0.39100002 18527.72908809  1307.31662639
0.39200002 18308.97258480  1726.90237601
0.39300002 18096.15544766  1604.22425644
0.39400002 17890.96587529  1060.03977833
0.39500002 17690.71243797  1155.91120546
0.39600002 17496.44749705  1562.87024672
0.39700002 17308.16399386  1136.62718333
0.39800002 17125.84115824  1537.47246282
0.39900002 16948.91782274  1220.32214105
0.40000002 16777.56093906  1513.75550745
0.40100002 16611.95889668  1702.89198718
0.40200002 16451.93069318  1093.97118328
0.40300002 16296.51791741  987.56903259
0.40400002 16146.69596890  980.91182659
0.40500002 16001.92437783  1169.42068894
0.40600002 15862.04602946  1065.21575158
0.40700002 15727.02179156  1058.74315717
0.40800002 15596.92753986  956.87154991
0.40900002 15471.17278405  951.47717130
0.41000002 15350.37758883  946.35082319
0.41100002 15233.80597255  1035.59417908
0.41200002 15121.24305418  1124.11326191
0.41300002 15013.73806475  1678.23572040
0.41400002 14909.92875127  1020.95741962
0.41500002 14810.32504143  1016.58075901
0.41600002 14714.17592962  1196.48327241
0.41700002 14622.35094242  1100.18573704
0.41800002 14535.26451737  1187.60384367
0.41900002 14449.90162471  910.34384549
0.42000002 14369.52961991  1270.41017389
0.42100002 14292.85706129  1538.05442125
0.42200002 14219.73823548  1263.13940731
0.42300002 14149.27484874  1079.87270763
0.42400002 14082.18758372  1526.15715170
0.42500002 14018.69129212  1164.53274082
0.42600002 13957.47990121  1072.77195604
0.42700002 13900.57254055  1427.86687903
0.42800002 13845.72670040  1514.65334416
0.42900002 13794.88513115  889.77013312
0.43000002 13746.36255756  1066.44285775
0.43100002 13699.58919457  1331.60013281
0.43200002 13656.63852797  1064.39845731
0.43300002 13616.16179238  1240.97704457
0.43400002 13578.16932381  1240.36582651
0.43500002 13542.41722329  885.67412837
0.43600002 13509.52657729  1062.65941093
0.43700002 13478.37477797  1062.63511785
0.43800002 13449.48304425  1151.34305056
0.43900002 13423.42845317  1417.51411183
0.44000002 13399.10694742  974.98606323
0.44100002 13377.14064761  886.90446697
0.44200002 13356.98816544  1775.14381131
0.44300002 13338.91256790  1599.06891442
0.44400002 13323.07518405  1067.17837282
0.44500002 13307.86318815  1157.38491632
0.44600002 13294.87299003  980.56340385
0.44700002 13284.62479173  1249.81755964
0.44800002 13274.43941409  1162.24359798
0.44900002 13267.55657561  1074.67213355
0.45000002 13261.60073529  1076.57679871
0.45100002 13256.83965283  1348.22065659
0.45200002 13253.82649675  1080.71706376
0.45300002 13251.78132439  1173.18025625
0.45400002 13251.58194899  994.86256197
0.45500002 13252.63912495  1178.42472684
0.45600002 13254.77574338  1181.19939635
0.45700002 13258.23308433  1001.92472167
0.45800002 13262.42473671  913.11798640
0.45900002 13267.90820514  1007.03428050
0.46000002 13275.16378947  917.97761955
0.46100002 13282.37410851  1104.56228321
0.46200002 13291.43073262  1015.39889894
0.46300002 13301.36350344  1481.23990995
0.46400002 13311.52524383  1392.71839464
0.46500002 13323.02951130  1490.04769117
0.46600002 13335.14557555  1027.53969103
0.46700002 13347.73306249  1218.11417702
0.46800002 13362.14810784  1034.02988033
0.46900002 13376.12372706  1320.22347443
0.47000002 13391.16359269  1324.52005373
0.47100002 13406.88189662  1233.96946825
0.47200002 13423.35095580  952.38679545
0.47300002 13440.44879206  1720.10871794
0.47400002 13457.36283308  1150.60457676
0.47500002 13475.21018754  1154.55606359
0.47600002 13494.11909559  1158.60512046
0.47700002 13512.45363395  1162.61156577
