# SAXS profile: number of points = 501, q_min = 0, q_max = 0.5, delta_q = 0.001
#    q    intensity    error
0.00000000 1700912.83420644 280.65061764
0.00100000 1700824.94976207 561.27224675
0.00200000 1700561.25806383 918.30310843
0.00300000 1700121.98048701 1224.08786956
0.00400000 1699506.99611138 2039.40847283
0.00500000 1698716.95978430 1528.84532432
0.00600000 1697751.72661070 3921.80664814
0.00700000 1696612.03628335 3053.90179223
0.00800000 1695297.64031486 2746.38229326
0.00900000 1693810.05550300 2794.78671105
0.01000000 1692148.62522267 3350.45442261
0.01100000 1690314.90441499 3042.56696042
0.01200000 1688308.78767039 4938.30342045
0.01300000 1686131.73440772 3894.96447827
0.01400000 1683783.83314982 3788.51379254
0.01500000 1681266.60904163 4438.54404551
0.01600000 1678579.94026618 4708.41694293
0.01700000 1675725.81374827 5429.35188010
0.01800000 1672704.82073341 6197.37163968
0.01900000 1669518.07702707 7011.97623991
0.02000000 1666166.10098522 5773.26580107
0.02100000 1662652.00150621 6035.42703910
0.02200000 1658973.97633196 8585.19071756
0.02300000 1655135.68579250 7150.18648809
0.02400000 1651137.34953213 8668.47148030
0.02500000 1646981.42169322 7707.87340555
0.02600000 1642668.42688644 7983.36891981
0.02700000 1638200.28737419 6880.44152210
0.02800000 1633577.57568099 8527.27533611
0.02900000 1628803.57349964 9528.50134247
0.03000000 1623878.96375773 9061.24503427
0.03100000 1618805.32180868 8547.29249244
0.03200000 1613583.88148433 10383.41275559
0.03300000 1608219.00340094 10662.49248409
0.03400000 1602708.94827656 9255.64460336
0.03500000 1597058.02589317 8624.11373807
0.03600000 1591266.90245830 16779.91026189
0.03700000 1585338.45651499 9036.42962005
0.03800000 1579274.42956945 11086.50700866
0.03900000 1573077.28180777 9438.46412794
0.04000000 1566747.12853734 10599.04481570
0.04100000 1560288.20010156 10812.79772806
0.04200000 1553701.99015037 12025.65396167
0.04300000 1546990.28801526 14294.19092477
0.04400000 1540155.94912546 10396.05313941
0.04500000 1533201.34280219 11636.99873258
0.04600000 1526127.22264836 13986.95664578
0.04700000 1518937.76663856 13123.62291411
0.04800000 1511634.16805128 16665.76747819
0.04900000 1504219.63197624 11281.64776495
0.05000000 1496695.57825720 12594.69387752
0.05100000 1489066.18488047 16260.60349638
0.05200000 1481330.74185469 17664.86991982
0.05300000 1473494.40070372 14322.36624252
0.05400000 1465558.47903909 19345.37282547
0.05500000 1457526.55729182 22037.80257430
0.05600000 1449399.45555137 13631.60251557
0.05700000 1441182.30039710 17553.60123821
0.05800000 1432874.13720727 19021.40505958
0.05900000 1424479.34825482 15384.37767969
0.06000000 1416001.49913189 15547.69718684
0.06100000 1407442.18575304 15707.05552702
0.06200000 1398803.88260489 18506.17623191
0.06300000 1390090.31969237 14679.35446229
0.06400000 1381300.55879821 16161.21729375
0.06500000 1372441.39764813 17663.32161398
0.06600000 1363513.74378810 16443.97651947
0.06700000 1354519.46149724 13816.09915385
0.06800000 1345462.29191185 15318.08891044
0.06900000 1336346.05565580 14031.63424133
0.07000000 1327169.87967045 16961.23185646
0.07100000 1317938.84294668 17080.48820460
0.07200000 1308654.65779967 18628.69992647
0.07300000 1299320.80461016 21633.69241042
0.07400000 1289940.39641864 17414.19616775
0.07500000 1280513.68078114 17517.42797417
0.07600000 1271044.53893362 19084.73464679
0.07700000 1261536.32154330 17711.97078496
0.07800000 1251990.53492857 16319.69738813
0.07900000 1242409.14333203 16399.80146119
0.08000000 1232797.13026287 23965.57733656
0.08100000 1223155.53931038 16549.29522333
0.08200000 1213485.71468423 18129.47742811
0.08300000 1203791.15596624 21234.87698784
0.08400000 1194074.81176847 19791.79093406
0.08500000 1184339.01359904 18333.56879119
0.08600000 1174585.91242439 21459.68562756
0.08700000 1164817.89368798 18450.71630242
0.08800000 1155036.48473783 21587.63291359
0.08900000 1145245.72172089 21645.14515719
0.09000000 1135447.10041228 26348.05120278
0.09100000 1125643.29025118 24854.20501643
0.09200000 1115835.13852035 18679.08109650
0.09300000 1106027.92000497 17154.49384540
0.09400000 1096219.54956891 17183.24224706
0.09500000 1086415.30226367 18773.25730551
0.09600000 1076616.23654903 15664.76697815
0.09700000 1066827.26154191 26660.01451929
0.09800000 1057046.93416808 23545.72156566
0.09900000 1047279.98833547 18851.04067646
0.10000000 1037525.30005100 17290.35993847
0.10100000 1027786.81986307 15725.13908349
0.10200000 1018066.90211119 17302.04781520
0.10300000 1008366.52663861 20449.67412220
0.10400000 998688.28711696 17302.27538829
0.10500000 989036.01965302 18870.80814284
0.10600001 979405.91841363 22007.25202227
0.10700001 969805.91093134 18853.02779568
0.10800001 960233.40950471 26689.68887325
0.10900001 950693.01272195 18823.72253785
0.11000001 941185.22023337 18804.88158540
0.11100001 931711.30116644 29740.22613321
0.11200001 922274.02672187 23448.81823331
0.11300001 912873.12520365 20293.17052870
0.11400001 903512.24278746 24936.93907508
0.11500001 894192.37526705 20226.63248097
0.11600001 884914.32916243 17083.27192896
0.11700001 875680.46786553 21699.36301564
0.11800001 866490.24239165 18560.22186618
0.11900001 857346.03144732 18518.67515152
0.12000001 848249.29344118 24633.16064187
0.12100001 839202.43740740 15357.40532801
0.12200001 830205.16465491 18380.74321140
0.12300001 821260.08125536 25968.24499277
0.12400001 812366.29354258 16755.05559377
0.12500001 803525.71118588 15186.63665701
0.12600001 794741.09752268 18167.78234550
0.12700001 786011.56313179 19618.84954033
0.12800001 777338.05429864 15041.49205957
0.12900001 768723.03056122 17988.11976295
0.13000001 760166.23033456 19418.44726918
0.13100001 751668.00759441 17859.63270230
0.13200001 743229.70063594 20758.40651732
0.13300001 734853.86090727 22155.84495085
0.13400001 726538.30608687 17654.88167026
0.13500001 718286.60610613 17583.65694652
0.13600001 710096.64606209 26266.47617632
0.13700001 701971.38944991 17436.97013615
0.13800001 693908.94503067 18808.40284198
0.13900001 685913.54320257 15844.60359518
0.14000001 677982.41317483 17207.19445788
0.14100001 670117.49657827 15700.85368533
0.14200001 662318.61763308 17048.08202195
0.14300001 654587.62888125 15553.00279582
0.14400001 646921.29199489 16884.64651751
0.14500001 639324.80200177 16801.45658917
0.14600001 631795.28662295 15324.19539995
0.14700001 624335.72024731 20790.38046505
0.14800001 616941.75910918 20682.97344993
0.14900001 609617.88277425 16459.68361149
0.15000001 602361.95211872 16372.19863107
0.15100001 595175.56312464 16284.00417545
0.15200001 588058.57808874 16195.13400476
0.15300001 581011.72795003 16105.64585878
0.15400001 574031.55344526 16015.48109691
0.15500001 567122.68729423 21233.07441435
0.15600001 560280.21434604 17152.97957174
0.15700001 553510.82145392 17053.66921387
0.15800001 546806.83563785 14345.47801005
0.15900001 540174.32630027 12964.18444312
0.16000001 533608.42577099 16752.63731785
0.16100001 527114.22060164 16651.53901483
0.16200001 520687.74244093 17823.14226511
0.16300001 514329.14708268 22774.49570796
0.16400001 508039.49250582 18860.96704970
0.16500001 501817.24373701 12495.24995897
0.16600001 495663.96536244 13658.02121040
0.16700001 489576.57296445 13571.06324333
0.16800001 483556.13471874 17161.40803147
0.16900001 477604.51980931 14614.69899624
0.17000001 471718.24819014 18149.36045612
0.17100001 465898.16187311 14424.20777272
0.17200001 460144.27293255 13134.81889112
0.17300001 454456.08344357 14233.56520563
0.17400001 448833.08450238 15316.42973198
0.17500001 443274.53577817 16383.42761611
0.17600001 437778.54786641 12785.32309428
0.17700001 432348.68838474 12698.08157760
0.17800001 426980.24669099 12610.86218166
0.17900001 421675.38218585 14800.80661382
0.18000001 416432.88990179 14697.99954334
0.18100001 411253.54141818 11227.22221105
0.18200001 406132.98951817 12263.18619779
0.18300001 401074.50043140 11069.65673483
0.18400001 396075.60672093 14288.42818745
0.18500001 391137.92496657 13095.29834653
0.18600001 386257.89346193 13001.44130816
0.18700001 381436.08382066 11832.14787912
0.18800001 376672.39994662 12814.39565161
0.18900001 371967.77819516 11661.19039738
0.19000001 367316.08135102 12628.32747352
0.19100001 362725.07920384 12535.77932960
0.19200001 358186.43309915 17628.14613793
0.19300001 353705.38686820 17497.80631519
0.19400001 349276.54030910 10216.33928680
0.19500001 344902.30898749 14196.17970877
0.19600001 340581.15827104 14089.84318351
0.19700001 336312.39622336 11986.17436784
0.19800001 332095.72551866 15860.89260034
0.19900001 327930.86581102 9837.92643927
0.20000001 323814.99127034 15620.83591714
0.20100001 319750.94681814 12594.99039043
0.20200001 315734.64320194 9614.12033990
0.20300001 311769.06460623 10494.14721065
0.20400001 307850.37772208 11359.67947487
0.20500001 303979.41599875 10332.26083817
0.20600001 300155.39756741 10251.80808850
0.20700001 296378.17534931 9246.99950800
0.20800001 292644.97720734 11926.74660986
0.20900001 288959.48236815 10012.44653736
0.21000001 285316.46603026 13545.39986511
0.21100001 281718.17941983 10750.36623487
0.21200001 278162.43719283 10664.74834614
0.21300001 274648.78746449 8816.22649440
0.21400001 271178.28554473 9620.05013450
0.21500001 267749.96146469 8675.09916159
0.21600001 264361.30986734 10325.95325161
0.21700001 261013.06375793 11095.66586495
0.21800001 257705.05598020 9312.17263813
0.21900001 254435.13746425 10075.63191998
0.22000001 251203.51489236 12491.09536863
0.22100001 248011.62139822 9084.66612137
0.22200001 244857.04803580 9009.51550849
0.22300001 241738.09941437 9746.88062927
0.22400001 238654.75033013 8860.05802497
0.22500001 235610.33028866 10383.34774682
0.22600001 232598.76228553 11087.98352248
0.22700001 229624.18478373 11779.72123646
0.22800001 226682.21057369 9343.84116172
0.22900001 223773.59841199 7720.18951031
0.23000001 220899.51329951 11481.25274671
0.23100001 218058.98587077 9106.14368062
0.23200001 215248.86429107 7522.94816276
0.23300001 212471.64862747 10440.85730735
0.23400001 209726.50754082 10350.00363665
0.23500001 207010.21295611 10992.24282786
0.23600001 204326.44991652 8716.56676571
0.23700001 201671.88389378 7199.68659554
0.23800001 199047.38777963 7849.43410836
0.23900001 196451.50284815 9193.93076816
0.24000001 193884.63304152 7709.82279757
0.24100001 191347.22099125 7640.49489558
0.24200001 188837.05227681 9636.35523350
0.24300001 186354.98774659 7502.65216157
0.24400001 183899.88232175 9461.64939302
0.24500001 181471.55563600 7365.93079171
0.24600001 179070.20358776 7298.00649245
0.24700001 176695.01638347 9859.58238061
0.24800001 174345.75115012 6511.81411351
0.24900001 172021.10322672 8386.02917902
0.25000001 169722.93643071 6390.06885892
0.25100001 167448.26786253 8228.40827204
0.25200001 165199.71505342 9403.99422432
0.25300001 162975.45636780 12418.73036276
0.25400001 160774.53359956 9224.43930169
0.25500001 158596.96466005 6699.13610419
0.25600001 156443.64958747 9649.44476310
0.25700001 154312.56862975 7166.27602623
0.25800001 152205.26348840 7095.80971956
0.25900001 150120.39827274 5854.69580965
0.26000001 148057.86090566 6376.11208159
0.26100001 146016.92827799 8033.85177399
0.26200001 143998.65952471 6248.82212575
0.26300001 142001.25633325 5623.25001688
0.26400001 140025.72405318 6122.62507394
0.26500001 138071.75725637 7712.68872530
0.26600001 136137.86084319 7633.25021868
0.26700001 134225.83232972 7554.23020098
0.26800001 132334.82946699 8009.56593251
0.26900001 130462.59994617 7397.22976700
0.27000001 128611.76396922 5750.87529803
0.27100001 126780.41556766 7758.96179992
0.27200001 124970.46792915 6141.04908465
0.27300001 123179.20556550 5062.66558833
0.27400001 121405.66556187 6009.58072971
0.27500001 119654.37882025 7430.53727639
0.27600001 117919.91096153 5879.48703879
0.27700001 116206.19175791 5814.95811077
0.27800001 114510.21766928 5271.47811989
0.27900001 112834.52701170 6634.67050229
0.28000001 111175.69526933 7029.08366608
0.28100001 109536.34293197 5096.72627785
0.28200001 107915.68243993 5955.32721731
0.28300001 106313.05938131 4981.83019840
0.28400001 104728.01271257 7163.39640859
0.28500001 103161.50445025 7523.56887566
0.28600001 101612.65236977 7436.52231567
0.28700001 100081.69247060 6485.29397906
0.28800001 98567.22357030  5554.75614723
0.28900001 97072.51101361  5489.45075766
0.29000001 95593.46275116  6258.98226990
0.29100001 94132.69914804  4947.61490142
0.29200001 92688.85443960  4481.04287999
0.29300001 91262.18257359  5232.06117461
0.29400001 89851.98810750  3975.95066196
0.29500001 88459.79947993  5105.89986768
0.29600001 87083.72488880  4267.53814019
0.29700001 85724.16808828  3831.87049494
0.29800001 84381.33909323  4162.95356123
0.29900001 83055.70614821  5232.50973504
0.30000001 81745.74764950  4798.06688543
0.30100001 80453.23314445  4737.89112417
0.30200001 79175.32985459  3958.37080347
0.30300001 77914.97625253  4263.50770238
0.30400001 76670.53868782  5963.05142875
0.30500001 75441.79890572  5194.16810056
0.30600001 74228.23112123  4785.49428694
0.30700001 73031.66808467  4386.28219283
0.30800001 71850.46363871  4329.34989152
0.30900001 70684.78875657  3615.52711607
0.31000001 69535.19207037  4541.34360912
0.31100001 68400.01529340  4161.45712748
0.31200001 67281.05365087  4106.49930401
0.31300001 66176.76550922  4363.69612428
0.31400001 65088.89265749  3382.99535605
0.31500001 64015.13824996  3641.18123606
0.31600002 62956.78637670  2993.59533395
0.31700002 61913.24431136  4429.89284022
0.31800002 60884.79602727  3204.67139063
0.31900002 59871.11929562  4310.72079339
0.32000002 58872.57097369  3118.18586927
0.32100002 57887.78257199  3634.77403980
0.32200002 56918.84345137  3585.03352454
0.32300002 55962.51230175  3263.73387198
0.32400002 55021.19571496  3218.74010174
0.32500002 54094.18086798  2645.20556970
0.32600002 53181.88687850  2869.42884240
0.32700002 52282.73841137  3086.77302197
0.32800002 51398.36914324  3043.81156480
0.32900002 50527.33266332  3251.43401085
0.33000002 49671.02253373  2466.16638558
0.33100002 48825.86675355  3890.44524715
0.33200002 47997.37703235  3596.20364445
0.33300002 47180.80889968  2600.13450159
0.33400002 46378.20515222  2796.60590311
0.33500002 45587.77513924  3905.96075890
0.33600002 44811.77403249  3171.32939846
0.33700002 44047.50311979  2456.52936532
0.33800002 43297.51470781  2421.84659987
0.33900002 42559.21040713  2170.51983355
0.34000002 41834.21173956  2353.80203500
0.34100002 41121.81111705  3375.27841634
0.34200002 40422.38252903  2911.62435146
0.34300002 39734.14150213  2665.36633819
0.34400002 39059.80550323  2425.61403663
0.34500002 38396.51786135  2391.33524566
0.34600002 37746.54229634  2750.59066740
0.34700002 37106.66297459  2130.66468891
0.34800002 36480.36026984  2482.67103575
0.34900002 35864.89922633  2447.77948813
0.35000002 35261.36682548  2413.46436668
0.35100002 34669.89278606  2196.68451097
0.35200002 34088.43013737  1985.48070739
0.35300002 33518.80903193  2313.80349706
0.35400002 32960.61844965  1755.15301557
0.35500002 32413.66920870  2250.15702304
0.35600002 31876.50982340  2731.17949103
0.35700002 31350.58361528  2188.58434584
0.35800002 30836.10261254  2822.89114737
0.35900002 30331.79279480  2456.87533275
0.36000002 29838.26906284  1938.89081554
0.36100002 29354.14016353  1593.92988638
0.36200002 28881.50560386  1729.85786008
0.36300002 28417.77074291  2017.09346288
0.36400002 27964.08101751  1531.03350823
0.36500002 27520.08223447  1661.93784486
0.36600002 27086.24395456  2385.75648053
0.36700002 26661.17193242  1471.69676038
0.36800002 26247.31192074  1598.06766199
0.36900002 25841.56719954  1721.04845701
0.37000002 25444.73268735  1840.79927346
0.37100002 25056.72421351  1537.98180508
0.37200002 24678.85566901  1656.93844811
0.37300002 24308.96423582  1772.85284570
0.37400002 23947.81719714  1481.77125927
0.37500002 23595.70266862  1730.03700162
0.37600002 23252.20596090  1577.89477125
0.37700002 22916.40168849  1429.29604102
0.37800002 22588.73388889  1412.58654066
0.37900002 22269.91566459  1650.20082892
0.38000002 21958.80150145  1380.44012178
0.38100002 21654.63181866  1613.05360059
0.38200002 21359.32916225  1595.22157405
0.38300002 21070.74772738  1577.77766457
0.38400002 20790.52173463  1200.65268705
0.38500002 20516.41367000  1187.90040777
0.38600002 20250.91783129  1528.23558654
0.38700002 19991.61183192  1512.56542286
0.38800002 19739.62205750  1497.34910211
0.38900002 19493.91501661  1368.47289900
0.39000002 19256.15287132  1355.24810329
0.39100002 19023.87266457  1454.18489537
0.39200002 18798.74045376  1551.46012315
0.39300002 18579.59460814  1537.27573071
0.39400002 18368.16973267  1197.14551904
0.39500002 18161.69446635  1186.68517265
0.39600002 17961.27376538  1069.59390340
0.39700002 17766.89748321  1378.88897900
0.39800002 17578.60367708  1262.49537590
0.39900002 17395.66491379  1565.60991642
0.40000002 17218.34212707  1242.81999362
0.40100002 17046.84434200  1439.09466753
0.40200002 16881.02278985  1122.50366359
0.40300002 16719.77907149  1215.86239169
0.40400002 16564.20866640  1207.53086899
0.40500002 16413.81277071  1099.56136961
0.40600002 16268.15749290  1191.80527440
0.40700002 16127.60651701  1283.11243529
0.40800002 15991.93178378  1667.87860442
0.40900002 15860.64844128  1072.97291789
0.41000002 15734.40683258  1552.04196350
0.41100002 15612.34916371  1929.68644807
0.41200002 15494.38721311  1247.84053333
0.41300002 15381.47473500  1050.70858893
0.41400002 15272.32495656  1426.05341039
0.41500002 15167.44165854  1135.73808521
0.41600002 15065.96691648  1036.61390281
0.41700002 14968.91780058  1032.40630963
0.41800002 14876.60832770  1028.49436547
0.41900002 14786.05724032  931.52165028
0.42000002 14700.56154897  1206.84265755
0.42100002 14618.78662664  1110.44308478
0.42200002 14540.56881425  1568.41852947
0.42300002 14465.01738296  1195.96769389
0.42400002 14392.93229018  1192.81432007
0.42500002 14324.38530063  1189.92674331
0.42600002 14258.18824150  1095.88440017
0.42700002 14196.32273158  1184.82515132
0.42800002 14136.57382265  1455.50170975
0.42900002 14080.83025018  908.21359417
0.43000002 14027.38100918  997.55724774
0.43100002 13975.79751642  1267.88441077
0.43200002 13927.98161993  1085.54693890
0.43300002 13882.71332247  1084.51761614
0.43400002 13839.95447112  1173.97419365
0.43500002 13799.44883651  1082.98079601
0.43600002 13761.81168225  1172.71283808
0.43700002 13725.95688847  901.79541031
0.43800002 13692.30404045  1262.29356931
0.43900002 13661.58635338  991.83121626
0.44000002 13632.64949801  1082.15976844
0.44100002 13606.01882735  992.28700010
0.44200002 13581.30675558  1263.46902735
0.44300002 13558.60261102  903.00297669
0.44400002 13538.16248762  1265.14134442
0.44500002 13518.40566213  994.81951982
0.44600002 13500.88801910  1267.32841841
0.44700002 13486.13667500  996.89527026
0.44800002 13471.41614118  998.02991212
0.44900002 13460.13701028  1090.27114950
0.45000002 13449.68204798  1000.85813703
0.45100002 13440.47046935  1002.39033511
0.45200002 13433.10002752  1186.61294717
0.45300002 13426.60549084  1005.78706499
0.45400002 13422.02111741  1007.65828315
0.45500002 13418.75975620  1009.62753191
0.45600002 13416.54486759  1195.61545254
0.45700002 13415.70346662  1198.15653339
0.45800002 13415.64054923  1847.33379118
0.45900002 13416.76504278  1110.90819819
0.46000002 13419.81776146  1577.56675172
0.46100002 13422.78197507  1302.27836894
0.46200002 13427.64107564  1025.80468859
0.46300002 13433.35418204  1121.95379446
0.46400002 13439.37618257  1499.83445306
0.46500002 13446.71547164  1503.88072963
0.46600002 13454.69535999  1036.75160010
0.46700002 13463.10128574  1417.66463258
0.46800002 13473.47854420  1042.64518656
0.46900002 13483.40391946  1330.81202993
0.47000002 13494.37754217  953.37781854
0.47100002 13506.05493127  1434.34310168
0.47200002 13518.52589712  1150.96734943
0.47300002 13531.64956915  1154.52039596
0.47400002 13544.57383062  1254.56621052
0.47500002 13558.49294820  1064.88408662
0.47600002 13573.48127141  1165.41915720
0.47700002 13587.94155328  1071.68100110
