# SAXS profile: number of points = 501, q_min = 0, q_max = 0.5, delta_q = 0.001
#    q    intensity    error
0.00000000 1682732.95097188 403.85590823
0.00100000 1682645.51140277 555.27303195
0.00200000 1682383.14896164 832.77968511
0.00300000 1681946.09786875 1715.58508094
0.00400000 1681334.21226761 1513.20084854
0.00500000 1680548.16849163 1814.99209381
0.00600000 1679587.80426194 1763.56726627
0.00700000 1678453.88247092 2618.38816548
0.00800000 1677146.13612607 2943.39159317
0.00900000 1675666.04857023 3518.89885242
0.01000000 1674013.04220903 2762.12163891
0.01100000 1672188.62807160 4514.90949237
0.01200000 1670192.66197248 3256.87583364
0.01300000 1668026.65264211 4553.71296255
0.01400000 1665690.67631660 3747.80418786
0.01500000 1663186.25260896 4789.97662081
0.01600000 1660513.23493690 5928.03251373
0.01700000 1657673.67272483 6266.00676398
0.01800000 1654668.10466404 6130.54560364
0.01900000 1651497.57145474 6440.84081930
0.02000000 1648162.76808783 7268.39813606
0.02100000 1644666.61706940 5970.14009064
0.02200000 1641007.44503124 7359.91872534
0.02300000 1637188.83196659 9430.20810138
0.02400000 1633211.08829594 6736.99604641
0.02500000 1629076.50112802 6988.73850902
0.02600000 1624785.82161014 6580.38287850
0.02700000 1620340.68533477 9527.60366614
0.02800000 1615741.93004020 8434.17326160
0.02900000 1610992.64635071 7974.41396557
0.03000000 1606093.58054872 11202.50323925
0.03100000 1601046.37244085 8453.52523546
0.03200000 1595852.12433488 8689.41521722
0.03300000 1590515.25087578 8922.79096876
0.03400000 1585034.01366886 10817.85764243
0.03500000 1579412.80919804 8528.82956351
0.03600000 1573652.10402880 10480.52349718
0.03700000 1567754.90058684 10723.44401595
0.03800000 1561722.93382761 11876.90346142
0.03900000 1555558.52063978 10266.68671167
0.04000000 1549262.03541554 10480.75815525
0.04100000 1542837.50435748 11663.85207376
0.04200000 1536286.46124604 11890.85776170
0.04300000 1529610.70433766 12114.51734069
0.04400000 1522812.91421354 14390.58270764
0.04500000 1515895.79468741 13597.58591016
0.04600000 1508859.85216692 11701.20869751
0.04700000 1501709.39769707 14056.00061616
0.04800000 1494445.42478819 12082.59182159
0.04900000 1487071.26605740 13383.64201749
0.05000000 1479588.27314370 15846.39114327
0.05100000 1472000.80948562 12629.76753373
0.05200000 1464307.87292790 17461.87219841
0.05300000 1456514.82307234 15337.10180193
0.05400000 1448622.73389287 13146.25192314
0.05500000 1440635.55516271 18152.00884183
0.05600000 1432553.65252130 15922.83459080
0.05700000 1424382.49484551 16109.76676868
0.05800000 1416121.02447423 15039.20598213
0.05900000 1407773.57850863 20271.94047734
0.06000000 1399343.76679945 21766.79330948
0.06100000 1390832.99567807 12934.74746426
0.06200000 1382243.96226325 15674.64726475
0.06300000 1373580.27538609 15823.64551229
0.06400000 1364841.00703558 18630.08061730
0.06500000 1356033.02144024 16109.67304828
0.06600000 1347157.19181261 16246.71649342
0.06700000 1338215.24586236 13649.79614659
0.06800000 1329210.90767307 16508.80024606
0.06900000 1320148.19763185 15247.71239653
0.07000000 1311026.28241858 15358.67361776
0.07100000 1301850.03326360 16871.97722134
0.07200000 1292621.03443244 16985.04118814
0.07300000 1283342.93283814 15669.61794416
0.07400000 1274018.89149816 18632.52716136
0.07500000 1264649.03440551 24508.89943557
0.07600000 1255237.35247087 17397.59052086
0.07700000 1245787.03776051 17490.85083028
0.07800000 1236299.77726047 16115.16835233
0.07900000 1226777.18804421 22081.99042052
0.08000000 1217224.68371057 17747.13672104
0.08100000 1207642.97673786 17824.81117296
0.08200000 1198033.59788369 19390.17469164
0.08300000 1188399.89016155 22460.75897818
0.08400000 1178744.93188885 16531.89844573
0.08500000 1169070.98820138 15081.01645578
0.08600000 1159379.95627156 16642.90005369
0.08700000 1149674.71001879 16693.27757335
0.08800000 1139956.35350532 19783.94344421
0.08900000 1130229.11688439 16783.90317407
0.09000000 1120494.50169367 18353.70079992
0.09100000 1110754.81818410 18394.10065331
0.09200000 1101011.47280817 27646.39938123
0.09300000 1091269.29633124 18464.27736160
0.09400000 1081526.39525257 18494.10222800
0.09500000 1071787.98140312 16977.12242340
0.09600000 1062055.09530542 16998.19259941
0.09700000 1052332.65946970 17016.21990360
0.09800000 1042619.18736272 17031.18522634
0.09900000 1032919.36424852 21691.30766920
0.10000000 1023232.25880628 17052.16639492
0.10100000 1013561.50438091 21710.48844492
0.10200000 1003909.56896087 17061.44392700
0.10300000 994277.74992881 18612.88035423
0.10400000 984668.13337700 17059.37621332
0.10500000 975084.81857774 18604.61921380
0.10600001 965523.95020867 23244.99019503
0.10700001 955993.37389456 15487.09338588
0.10800001 946490.52660561 20117.65708977
0.10900001 937020.07205398 17006.91510822
0.11000001 927582.44370572 16988.67325612
0.11100001 918178.73669482 20053.02455338
0.11200001 908812.24618107 18485.24195755
0.11300001 899482.13250257 16919.25970895
0.11400001 890192.27313210 18426.98092146
0.11500001 880943.36584949 21459.78140259
0.11600001 871736.87747122 24478.37267211
0.11700001 862574.34143888 22901.34984374
0.11800001 853455.85799744 16757.60656103
0.11900001 844383.43575103 21278.46358318
0.12000001 835358.58830715 19710.28681956
0.12100001 826383.78303412 21171.95351871
0.12200001 817458.79892575 19606.75021593
0.12300001 808585.79043689 18047.63569285
0.12400001 799764.43008026 16495.14214761
0.12500001 790996.41216796 19434.78276274
0.12600001 782284.39932085 14902.51850932
0.12700001 773627.37296088 19309.74013910
0.12800001 765026.71896467 17763.92125156
0.12900001 756484.49524990 23602.31736422
0.13000001 748000.40628796 16168.02954399
0.13100001 739575.10612377 21965.38168727
0.13200001 731209.73204377 21881.45226291
0.13300001 722906.78587530 18889.55520543
0.13400001 714664.14568356 15919.14459562
0.13500001 706485.34709881 21618.45264049
0.13600001 698368.53386197 15786.62145230
0.13700001 690316.26151756 18576.41147338
0.13800001 682326.82155245 19917.12086032
0.13900001 674404.22257777 19827.48507881
0.14000001 666545.94691019 15507.19218619
0.14100001 658753.91296322 19644.04261103
0.14200001 651027.76151147 22343.27382890
0.14300001 643369.77004288 15286.46645724
0.14400001 635775.92362606 17976.56508848
0.14500001 628252.11492151 13758.72196581
0.14600001 620795.25235863 24639.36472846
0.14700001 613408.25819390 17702.96316664
0.14800001 606086.50661794 28446.67153019
0.14900001 598835.00353868 17515.92467992
0.15000001 591651.40251550 20101.35734890
0.15100001 584537.00208242 17325.67755923
0.15200001 577492.13851412 17229.47876558
0.15300001 570517.08949125 15814.73446698
0.15400001 563608.80225002 17035.07685191
0.15500001 556771.37479646 15634.14094211
0.15600001 550000.47035625 12952.51168818
0.15700001 543302.41439399 15451.52139463
0.15800001 536669.59620401 12799.57047359
0.15900001 530108.03477507 16539.37146565
0.16000001 523613.03625045 15174.30650680
0.16100001 517189.65286146 13824.48007356
0.16200001 510833.52727781 13738.86836469
0.16300001 504545.34201275 17376.54239923
0.16400001 498325.73758266 16033.63136366
0.16500001 492173.55540282 19608.19537298
0.16600001 486089.95818553 13394.20943018
0.16700001 480072.05788963 14517.37971602
0.16800001 474120.80784135 13220.85935090
0.16900001 468238.41172338 14328.09607528
0.17000001 462420.91798511 15419.42623831
0.17100001 456669.60339382 14138.49158871
0.17200001 450984.29956667 15213.95606433
0.17300001 445364.26640834 13948.80948263
0.17400001 439809.07928222 16162.98442694
0.17500001 434318.30298081 16052.40523629
0.17600001 428889.92965500 13664.43380417
0.17700001 423527.22851001 14700.63079590
0.17800001 418225.71248490 15721.10527485
0.17900001 412987.51713053 13380.79618705
0.18000001 407811.55319225 13286.50103059
0.18100001 402698.35817661 10993.66569752
0.18200001 397643.80777069 12006.85534281
0.18300001 392650.83454095 19506.89438149
0.18400001 387717.31660924 13986.90285743
0.18500001 382844.60120732 11749.50136612
0.18600001 378029.33761869 18026.32981597
0.18700001 373272.11087903 11578.90142651
0.18800001 368572.66316940 15673.55324179
0.18900001 363931.84544323 10372.05808519
0.19000001 359343.81915328 11324.72099569
0.19100001 354816.10152031 13284.31546861
0.19200001 350340.37948963 13185.06080510
0.19300001 345922.14869896 11072.96850308
0.19400001 341555.53592154 18981.94980581
0.19500001 337243.51412085 9914.95978369
0.19600001 332984.02016749 9839.67826094
0.19700001 328776.69057100 12694.06862284
0.19800001 324621.21849236 12596.92697891
0.19900001 320517.07335410 10577.06392056
0.20000001 316461.70382059 10495.45290324
0.20100001 312457.78967260 10414.21862199
0.20200001 308501.27917291 11272.63727376
0.20300001 304595.12686570 13980.91698394
0.20400001 300735.63729560 12946.66979751
0.20500001 296923.41867863 13762.40110626
0.20600001 293157.96680262 14564.08847917
0.20700001 289438.82491582 9933.54094066
0.20800001 285763.60749422 12542.16532579
0.20900001 282135.38139640 9775.99142751
0.21000001 278549.65130316 13224.14532075
0.21100001 275008.08259282 13117.88615980
0.21200001 271508.84244965 13012.06188954
0.21300001 268051.33879893 10325.33805867
0.21400001 264636.61551797 8534.53125394
0.21500001 261263.65710148 10157.93146835
0.21600001 257930.19463773 9235.19105563
0.21700001 254636.71917871 9159.28322191
0.21800001 251383.09277122 9909.52198557
0.21900001 248167.21146215 11465.32571165
0.22000001 244989.26248639 9745.67332251
0.22100001 241850.71936309 12080.44400339
0.22200001 238749.27621850 7986.16366713
0.22300001 235682.96221639 8710.84269541
0.22400001 232651.96381990 11778.00622532
0.22500001 229659.55929791 15570.91885670
0.22600001 226699.68094879 10034.86185173
0.22700001 223776.29002483 9183.77937691
0.22800001 220885.35363831 9863.63593317
0.22900001 218027.39186252 9026.33444997
0.23000001 215203.52662871 9693.84331543
0.23100001 212412.84678901 8131.16415963
0.23200001 209652.45261085 8060.08892181
0.23300001 206924.46239714 12347.18325519
0.23400001 204228.22748319 9358.75896704
0.23500001 201560.60485242 9989.34404894
0.23600001 198925.02872316 7778.96361614
0.23700001 196318.45419506 10512.85371938
0.23800001 193741.50699495 7640.19668972
0.23900001 191192.94102710 10324.41930380
0.24000001 188672.97857626 8184.63419777
0.24100001 186182.15557684 8785.93633726
0.24200001 183718.17326067 8035.83327853
0.24300001 181282.18998723 9952.39270108
0.24400001 178872.62406691 8545.64001904
0.24500001 176489.53001825 9768.69594861
0.24600001 174133.28911448 8387.13026695
0.24700001 171802.85512062 7669.27981539
0.24800001 169497.78011715 10129.18781898
0.24900001 167217.08052741 6897.70489807
0.25000001 164962.51273485 6831.92278812
0.25100001 162731.30158117 7996.61653801
0.25200001 160525.83919417 6091.95588563
0.25300001 158344.24828858 6636.20775974
0.25400001 156185.83212375 6571.51919751
0.25500001 154050.51983555 9464.86438650
0.25600001 151939.01360417 5857.24925156
0.25700001 149849.32574410 8118.83685294
0.25800001 147783.29942580 7463.79589064
0.25900001 145739.40346394 8525.75550603
0.26000001 143717.43899961 7314.49940397
0.26100001 141716.92165730 8354.21292699
0.26200001 139738.66046026 6615.22849920
0.26300001 137781.05449905 6001.74301797
0.26400001 135845.00888282 7559.77510204
0.26500001 133930.20945764 8015.72341533
0.26600001 132035.17143646 5816.80975288
0.26700001 130161.81825367 6279.00640968
0.26800001 128309.10439417 5694.99986803
0.26900001 126475.02588532 9732.25370242
0.27000001 124661.97807290 5574.26061332
0.27100001 122868.09365498 5013.01845835
0.27200001 121095.39884235 5454.74249899
0.27300001 119341.08540990 6376.39449521
0.27400001 117604.21061017 5336.29130897
0.27500001 115889.40346143 7196.73229554
0.27600001 114191.22388817 5219.11013481
0.27700001 112513.34599736 5630.16810016
0.27800001 110853.10262074 5567.04307709
0.27900001 109212.83043593 5963.02082402
0.28000001 107589.17520350 6348.83752924
0.28100001 105984.68564741 5828.09813959
0.28200001 104398.80905394 4874.90261950
0.28300001 102830.59587044 5256.70030970
0.28400001 101279.78401715 7360.50865183
0.28500001 99747.22248473  4279.15604713
0.28600001 98232.07649036  7189.11485822
0.28700001 96734.60061907  4596.82843900
0.28800001 95253.51955953  4542.16429519
0.28900001 93791.72716681  4487.93435736
0.29000001 92345.53088123  4837.05913652
0.29100001 90917.34043102  4778.61563925
0.29200001 89505.87551424  5507.29678108
0.29300001 88111.35714983  4274.28213767
0.29400001 86733.07404072  4221.73257877
0.29500001 85372.57843505  4169.59692814
0.29600001 84027.96710908  4866.47994549
0.29700001 82699.76730453  5545.01966026
0.29800001 81388.01031853  4015.27767914
0.29900001 80093.19990644  5045.87183297
0.30000001 78813.95461502  6049.36537285
0.30100001 77551.94539101  3864.41362178
0.30200001 76304.26010966  3814.83166478
0.30300001 75073.94026562  4792.72057345
0.30400001 73859.44860772  5068.60490066
0.30500001 72660.50910229  3668.62927826
0.30600001 71476.36304202  4608.08134348
0.30700001 70309.11449119  4547.59374059
0.30800001 69156.98110881  3846.51147138
0.30900001 68020.33889594  3795.53509009
0.31000001 66899.36261823  4681.28312084
0.31100001 65792.77187097  3387.01205628
0.31200001 64702.25681939  3341.54821165
0.31300001 63626.11358323  3596.14810999
0.31400001 62566.28533340  4434.38568296
0.31500001 61520.47470124  4082.49889447
0.31600002 60489.83977609  3163.92121929
0.31700002 59473.91569022  3971.66827784
0.31800002 58472.74246384  4476.67337500
0.31900002 57486.19581208  3035.27128259
0.32000002 56514.67872420  2993.30010036
0.32100002 55556.83079254  3220.07406521
0.32200002 54614.51516841  2646.07338520
0.32300002 53684.87761230  3130.90221060
0.32400002 52769.87988221  2829.78494268
0.32500002 51869.02840138  3043.67473072
0.32600002 50982.79740812  3000.84759754
0.32700002 50109.60749934  3451.54992799
0.32800002 49251.05277493  2430.53956954
0.32900002 48405.60522567  2875.29308656
0.33000002 47574.84289613  2834.50927398
0.33100002 46754.89678732  2328.39397027
0.33200002 45951.59911930  3901.98022399
0.33300002 45160.18239514  2488.77776965
0.33400002 44382.41164710  2453.23791997
0.33500002 43616.68042970  2637.93695731
0.33600002 42865.30031365  2600.20924016
0.33700002 42125.50552497  2562.91587751
0.33800002 41399.67972076  2526.20857620
0.33900002 40685.62868915  3319.94745826
0.34000002 39984.62606219  2249.73509193
0.34100002 39296.16365164  2620.66127804
0.34200002 38620.50899104  2384.43033803
0.34300002 37955.88448002  2350.22847831
0.34400002 37304.94720670  2123.58422031
0.34500002 36665.10024603  2664.08631005
0.34600002 36038.37538754  2438.53678609
0.34700002 35421.58594677  1849.00687399
0.34800002 34818.20083856  2005.00619025
0.34900002 34225.66150490  1976.53204552
0.35000002 33644.62841146  1948.52874674
0.35100002 33075.84231882  2270.32592429
0.35200002 32516.70718501  2066.11167239
0.35300002 31969.38469779  2206.84673021
0.35400002 31433.43038711  2175.97932161
0.35500002 30908.50450800  1980.61706268
0.35600002 30393.22977373  2441.33629721
0.35700002 29889.14822012  1765.55206899
0.35800002 29396.42205176  2691.09558419
0.35900002 28913.55570646  1717.46529031
0.36000002 28441.33287573  2464.15719707
0.36100002 27978.54642606  1823.08217147
0.36200002 27527.02899204  1948.50083950
0.36300002 27084.31310273  2070.32499164
0.36400002 26651.49339277  2042.83706532
0.36500002 26228.29018347  1439.93319928
0.36600002 25815.06710326  1705.34341362
0.36700002 25410.50371495  1683.19184581
0.36800002 25017.03905911  1661.63181302
0.36900002 24631.53446910  1640.46027335
0.37000002 24254.86518357  1754.71830483
0.37100002 23886.85092751  1466.17497938
0.37200002 23528.85818290  1448.08364546
0.37300002 23178.73505281  1690.42522748
0.37400002 22837.16801487  1926.88614253
0.37500002 22504.60710911  2030.81584173
0.37600002 22180.46312416  1756.02734873
0.37700002 21863.88402381  1487.61873945
0.37800002 21555.31279614  1225.41959051
0.37900002 21255.44748380  1696.18478956
0.38000002 20963.19374060  2036.67918435
0.38100002 20677.80889929  1540.29005788
0.38200002 20401.06308953  1289.24524302
0.38300002 20130.96085982  1623.36076064
0.38400002 19869.14199412  1606.42020633
0.38500002 19613.15924019  1249.16217119
0.38600002 19365.72369569  1124.18031379
0.38700002 19124.49245196  1780.87282150
0.38800002 18890.18410909  1212.46652448
0.38900002 18662.26370572  1310.09097421
0.39000002 18441.99655283  1514.27240869
0.39100002 18227.14967514  1607.63467751
0.39200002 18019.30582600  1062.23812877
0.39300002 17817.40151343  1158.30932727
0.39400002 17622.93860189  1461.82282628
0.39500002 17433.29676740  1139.09166475
0.39600002 17249.60361151  1232.65673248
0.39700002 17071.88275516  1121.11059365
0.39800002 16900.02130109  1517.19948419
0.39900002 16733.49910240  1305.21299183
0.40000002 16572.34148397  1096.50902624
0.40100002 16416.89629454  1088.93278281
0.40200002 16267.00546643  1278.34268515
0.40300002 16121.54174712  1465.44821425
0.40400002 15981.63908766  1456.32693086
0.40500002 15846.76359787  1158.08153860
0.40600002 15716.55798475  1055.44550147
0.40700002 15591.09712508  1145.01022712
0.40800002 15470.63356646  949.12341427
0.40900002 15354.25559919  1510.85882255
0.41000002 15242.76837874  1691.49008713
0.41100002 15135.42627665  1122.44326586
0.41200002 15031.98639447  1210.60108164
0.41300002 14933.35422592  1112.83360964
0.41400002 14838.45290316  1200.80185809
0.41500002 14747.68468104  1012.28112447
0.41600002 14660.20773424  1008.69564095
0.41700002 14576.90834795  1005.36941640
0.41800002 14498.29425238  911.21783694
0.41900002 14421.18447395  1181.09506438
0.42000002 14349.04328824  1449.82740254
0.42100002 14280.44706686  1175.13804482
0.42200002 14215.30051390  1262.74520449
0.42300002 14152.73051911  990.12507403
0.42400002 14093.33243215  1078.13998215
0.42500002 14037.41713403  986.69009711
0.42600002 13983.65306032  1074.78362515
0.42700002 13934.12646678  984.02805771
0.42800002 13886.39420559  1340.38426421
0.42900002 13842.74027386  892.85678997
0.43000002 13801.13059612  892.24313532
0.43100002 13761.22606510  1159.24573866
0.43200002 13724.99559176  1248.01390830
0.43300002 13691.12640335  1604.32626797
0.43400002 13659.58774509  1336.93221391
0.43500002 13630.15122409  1515.40028491
0.43600002 13603.39473609  980.87282393
0.43700002 13578.36102551  1070.51803398
0.43800002 13555.34521080  1071.14342932
0.43900002 13535.12784314  893.31847998
0.44000002 13516.41529737  983.52200572
0.44100002 13499.99692048  1074.05980589
0.44200002 13485.29385109  1075.31738265
0.44300002 13472.44609358  897.26495235
0.44400002 13461.71329637  1168.14022665
0.44500002 13451.48932152  989.89514608
0.44600002 13443.32853898  1261.92530976
0.44700002 13437.85104567  903.02363306
0.44800002 13432.20160926  1176.05646763
0.44900002 13429.77139828  997.16057358
0.45000002 13428.10059949  1090.09325833
0.45100002 13427.43839336  1274.53251270
0.45200002 13428.48702042  1003.71230991
0.45300002 13430.35018776  1280.44964759
0.45400002 13433.89780296  916.86356851
0.45500002 13438.61327471  1011.12131071
0.45600002 13444.18292205  1290.23829618
0.45700002 13450.92887734  1108.89462920
0.45800002 13458.38838438  1389.91512627
0.45900002 13466.93160539  1393.82748722
0.46000002 13477.19314383  1025.14274507
0.46100002 13487.17267496  1121.59333281
0.46200002 13498.97925713  1312.50581538
0.46300002 13511.34307748  1034.42847504
0.46400002 13523.93741102  1131.95361495
0.46500002 13537.69061419  1135.54154254
0.46600002 13552.03513731  1044.25211700
0.46700002 13566.59351299  952.37490975
0.46800002 13582.90791461  1146.66914050
0.46900002 13598.62489372  1054.57341049
0.47000002 13615.22779980  1250.49065654
0.47100002 13632.47849063  1254.73337975
0.47200002 13650.30942964  1549.58319990
0.47300002 13668.61756583  1360.57425699
0.47400002 13686.60627290  1072.68781748
0.47500002 13705.46018909  1174.28388466
0.47600002 13725.19442103  1178.44524885
0.47700002 13744.25828248  1478.19504834
