# SAXS profile: number of points = 501, q_min = 0, q_max = 0.5, delta_q = 0.001
#    q    intensity    error
0.00000000 1682732.95097188 302.89193117
0.00100000 1682645.61767507 757.19054594
0.00200000 1682383.57635832 908.48716000
0.00300000 1681947.06011100 1110.08509922
0.00400000 1681335.92791157 1261.00199385
0.00500000 1680550.84880711 2268.74373569
0.00600000 1679591.66457805 2116.28558353
0.00700000 1678459.13163515 2819.81145834
0.00800000 1677152.99267561 4075.48194427
0.00900000 1675674.74477737 2764.86344707
0.01000000 1674023.73691974 3314.56714222
0.01100000 1672201.58449546 3310.95928146
0.01200000 1670208.07843229 3256.90589574
0.01300000 1668044.71913844 3853.18347115
0.01400000 1665711.59791021 4497.42151373
0.01500000 1663210.29678039 3991.70489002
0.01600000 1660540.56419668 6775.00580479
0.01700000 1657704.48653926 5818.54300877
0.01800000 1654702.61772972 7545.44427637
0.01900000 1651536.00139544 6440.99069608
0.02000000 1648205.31672113 5191.84698253
0.02100000 1644713.49691622 8684.08765744
0.02200000 1641058.85148897 6227.81862435
0.02300000 1637244.95479315 6483.49031610
0.02400000 1633272.08537039 7962.20177924
0.02500000 1629142.72111218 8259.75397327
0.02600000 1624857.26242154 7896.80665656
0.02700000 1620417.73479344 6805.75479784
0.02800000 1615824.60045054 8434.60480116
0.02900000 1611081.23834840 8699.83908653
0.03000000 1606188.26448195 11203.16365972
0.03100000 1601147.32320434 9222.60900602
0.03200000 1595959.57460587 7900.00025816
0.03300000 1590629.45421644 10545.87376762
0.03400000 1585155.06189869 11650.89024253
0.03500000 1579540.85479021 10235.42521169
0.03600000 1573787.35371803 10481.42426015
0.03700000 1567897.53376636 8937.01635578
0.03800000 1561873.15737901 12791.74175093
0.03900000 1555716.53520760 16801.73935833
0.04000000 1549427.93898347 13340.57517284
0.04100000 1543011.50714966 11665.16753493
0.04200000 1536468.69645635 11892.26826229
0.04300000 1529801.35342664 13125.69622167
0.04400000 1523012.21759199 12336.39953542
0.04500000 1516103.89847847 17783.89955548
0.04600000 1509076.84754108 11702.89149671
0.04700000 1501935.40428289 17302.29666203
0.04800000 1494680.78671791 14281.67558159
0.04900000 1487315.95158873 12270.35717176
0.05000000 1479842.49273536 14717.03427557
0.05100000 1472264.76472902 11483.66569984
0.05200000 1464581.61738464 15136.45172105
0.05300000 1456798.53067707 16520.09610801
0.05400000 1448916.66294316 11953.56302672
0.05500000 1440939.69818872 15735.06223825
0.05600000 1432868.32132384 13476.12719090
0.05700000 1424707.65461143 16113.44432581
0.05800000 1416456.84940010 15042.77244301
0.05900000 1408120.21658284 15207.69904938
0.06000000 1399701.33287238 15368.72135295
0.06100000 1391201.57305330 12938.17523401
0.06200000 1382623.74494246 16985.53350058
0.06300000 1373971.46125178 21104.20263156
0.06400000 1365243.52374727 14642.23747696
0.06500000 1356447.07447142 14771.70933198
0.06600000 1347582.87027761 13543.20847996
0.06700000 1338652.60075044 13654.25716666
0.06800000 1329660.15065961 15138.18152386
0.06900000 1320609.44571625 18026.31977800
0.07000000 1311499.50199635 15364.21738537
0.07100000 1302335.33672919 14065.22229546
0.07200000 1293118.54159538 15575.61356318
0.07300000 1283852.86002162 21376.15112095
0.07400000 1274541.22836176 18640.16633835
0.07500000 1265183.91297806 18750.02646920
0.07600000 1255784.66110502 15954.74486731
0.07700000 1246347.10782063 24789.84513691
0.07800000 1236872.40527736 20519.71416585
0.07900000 1227362.63596928 14728.35232245
0.08000000 1217823.06054095 19235.51614360
0.08100000 1208254.19914056 26750.74922407
0.08200000 1198657.89685874 17907.94981940
0.08300000 1189037.15920645 28465.55092735
0.08400000 1179395.19769913 18044.74737179
0.08500000 1169734.32035511 25652.27484964
0.08600000 1160056.61997815 22708.10940225
0.08700000 1150364.44533025 19740.25480882
0.08800000 1140659.47144037 18273.36559066
0.08900000 1130945.59316698 19848.09609234
0.09000000 1121224.21186662 29078.95130076
0.09100000 1111497.95345273 16872.53972610
0.09200000 1101767.98724405 21517.52980191
0.09300000 1092039.19004170 20017.07929411
0.09400000 1082309.76926061 16965.20643048
0.09500000 1072584.85339027 18534.26713774
0.09600000 1062865.39690936 18557.63070239
0.09700000 1053156.37405731 18577.67931176
0.09800000 1043456.41910017 18594.39426263
0.09900000 1033770.14631852 18607.86350872
0.10000000 1024096.35814651 23272.59083332
0.10100000 1014439.18661206 21729.28839920
0.10200000 1004800.79606955 17076.59033242
0.10300000 995182.23306260 15524.84356608
0.10400000 985586.39131073 24836.77822948
0.10500000 976016.42796037 17070.52812818
0.10600001 966468.91306121 15511.82678452
0.10700001 956951.69910749 20153.40373158
0.10800001 947462.25555009 18589.21032873
0.10900001 938005.17420604 20120.21193369
0.11000001 928580.91722251 24737.39679919
0.11100001 919190.38485616 18530.87903101
0.11200001 909837.12968958 20048.26209652
0.11300001 900520.25983848 20018.56631870
0.11400001 891243.44440808 15373.95013991
0.11500001 882007.91064513 26089.79522540
0.11600001 872814.31349227 26040.41626932
0.11700001 863664.66868629 19872.92496239
0.11800001 854559.15963895 15253.88171799
0.11900001 845499.55380718 22828.48902805
0.12000001 836487.53179681 19736.92424245
0.12100001 827525.67568652 18172.46469415
0.12200001 818613.27685868 18124.09880350
0.12300001 809752.84203617 21085.96500007
0.12400001 800944.09321498 21024.78343753
0.12500001 792188.48026366 22458.54447373
0.12600001 783488.65944410 19403.09756547
0.12700001 774844.03461597 17852.40739887
0.12800001 766255.62457232 20757.86584797
0.12900001 757725.25053093 20685.90031446
0.13000001 749253.25977312 19139.67542305
0.13100001 740839.86219511 14668.62996291
0.13200001 732486.36591993 17535.72442676
0.13300001 724195.14765652 20378.85241577
0.13400001 715964.27773036 15948.10503833
0.13500001 707796.88116705 17326.86846790
0.13600001 699691.41279890 15816.52513208
0.13700001 691650.29902998 15748.87805152
0.13800001 683672.16216436 15680.02177864
0.13900001 675760.44660061 15610.06705262
0.14000001 667913.22704478 18364.27504367
0.14100001 660131.97789373 22497.29886766
0.14200001 652416.49237786 18192.63474802
0.14300001 644769.00724162 16712.41345599
0.14400001 637185.84272651 22174.06837283
0.14500001 629672.10128928 16547.78360248
0.14600001 622225.32581241 16464.08289768
0.14700001 614848.28147945 19109.48548990
0.14800001 607536.50721699 16294.12989230
0.14900001 600294.66038302 16207.95659505
0.15000001 593120.57664912 18807.85437295
0.15100001 586015.74178971 16033.39145190
0.15200001 578980.01792604 14616.35124224
0.15300001 572014.10026949 13213.52633976
0.15400001 565114.69979660 15766.70086837
0.15500001 558286.19396202 14370.28731076
0.15600001 551523.98080654 23379.10264976
0.15700001 544834.35361154 19368.86218504
0.15800001 538209.84495534 14119.93594885
0.15900001 531656.52189423 16587.68426605
0.16000001 525169.49246726 15219.41261009
0.16100001 518753.99244887 17648.01165617
0.16200001 512405.57914734 15033.98040188
0.16300001 506124.95261818 12450.67442218
0.16400001 499912.63740085 16084.68986772
0.16500001 493767.57368253 15983.25711469
0.16600001 487690.94823444 13438.32471306
0.16700001 481679.89591518 13352.16734519
0.16800001 475735.41472123 13265.88266587
0.16900001 469859.42592795 14377.69911228
0.17000001 464048.26076617 14283.40614084
0.17100001 458303.00242424 14189.06162508
0.17200001 452623.57868095 15269.25714786
0.17300001 447009.25670213 12833.63636598
0.17400001 441459.71824668 13905.98178149
0.17500001 435974.18597778 17264.57858008
0.17600001 430551.10413148 16003.58529640
0.17700001 425193.31019406 11352.66191837
0.17800001 419896.54220298 12401.64495972
0.17900001 414663.15624017 13435.08689677
0.18000001 409491.41668637 13341.23098582
0.18100001 404382.53528543 12143.60810824
0.18200001 399331.94818976 16442.49374342
0.18300001 394342.81761187 15237.40719233
0.18400001 389412.99116056 14048.07431976
0.18500001 384543.88725906 13947.40744979
0.18600001 379731.80061719 13846.92076368
0.18700001 374977.59899831 13746.67942874
0.18800001 370280.93513219 15746.19751044
0.18900001 365643.00269074 13547.07388976
0.19000001 361057.38877087 12413.15361245
0.19100001 356531.97485422 12321.74563317
0.19200001 352058.26876224 16307.33977961
0.19300001 347641.89789235 12139.65564803
0.19400001 343277.04317826 14057.19558241
0.19500001 338966.53853198 10962.17837414
0.19600001 334708.37111935 12857.82268416
0.19700001 330502.09471408 10797.50394457
0.19800001 326347.50599319 12663.91556855
0.19900001 322244.06116913 9667.32229195
0.20000001 318189.23833076 10552.74658797
0.20100001 314185.67379617 11423.79163914
0.20200001 310229.29565947 14169.72374896
0.20300001 306322.95807581 14060.22444023
0.20400001 302463.30939584 11160.89664423
0.20500001 298650.68284642 11996.79849699
0.20600001 294884.45689350 10987.39538320
0.20700001 291164.42479541 15443.36182114
0.20800001 287488.11376014 10815.30335090
0.20900001 283858.92883855 16988.95769408
0.21000001 280271.65450516 9757.65811286
0.21100001 276728.42417695 11439.95359628
0.21200001 273227.35727885 9602.57592552
0.21300001 269767.83426858 12989.32183411
0.21400001 266350.84651713 9448.79672690
0.21500001 262975.56564176 10224.49047554
0.21600001 259639.48714917 8451.26570627
0.21700001 256343.35661784 9220.67097349
0.21800001 253086.67790563 9145.28753851
0.21900001 249867.68037808 11543.88737928
0.22000001 246686.49208756 10630.95487917
0.22100001 243544.39773778 8921.03171095
0.22200001 240439.29873836 8042.69492309
0.22300001 237369.10164487 8773.16241164
0.22400001 234334.25868492 8699.65976505
0.22500001 231337.42237292 8626.57288821
0.22600001 228373.03674383 8553.71249573
0.22700001 225445.23165653 7710.22728726
0.22800001 222549.55758412 12231.32426324
0.22900001 219686.72144303 11368.78837232
0.23000001 216857.74496177 10519.76970559
0.23100001 214061.83175406 8194.28730708
0.23200001 211295.95631714 8123.27342479
0.23300001 208562.38005953 10248.75584083
0.23400001 205860.34273357 8707.89290947
0.23500001 203186.81583881 8631.37634506
0.23600001 200545.22531914 8555.25971675
0.23700001 197932.36787025 7772.80445390
0.23800001 195348.94564284 11905.54205532
0.23900001 192793.90214179 9022.75504701
0.24000001 190267.23531549 10317.24132299
0.24100001 187769.50399734 10224.04997626
0.24200001 185298.62284118 7429.54863425
0.24300001 182855.37046640 8700.25893834
0.24400001 180438.48764885 9946.67210216
0.24500001 178047.96477739 7883.96425329
0.24600001 175683.97899990 9112.72842180
0.24700001 173345.79971619 7093.31045994
0.24800001 171032.95785360 7665.69753364
0.24900001 168744.26846244 7593.49244004
0.25000001 166481.55643024 8148.44016497
0.25100001 164242.01503915 8691.68784707
0.25200001 162028.27811104 7993.66547879
0.25300001 159838.08990608 6089.83151353
0.25400001 157670.97217708 7840.18946243
0.25500001 155526.84499123 8361.12358231
0.25600001 153406.36823863 5913.81577540
0.25700001 151307.77977502 6441.17248978
0.25800001 149232.56396404 7536.99099961
0.25900001 147179.31403861 6313.99287100
0.26000001 145148.08006089 5682.54760326
0.26100001 143138.00872605 9000.51841456
0.26200001 141150.23238085 6125.21462399
0.26300001 139182.84932055 7716.29753145
0.26400001 137237.00188721 7637.23951640
0.26500001 135312.34694951 5938.85918863
0.26600001 133407.32011943 5342.96342361
0.26700001 131523.80846194 6873.43455547
0.26800001 129660.87034772 6278.17963933
0.26900001 127816.48129649 7247.19483246
0.27000001 125993.14839187 5633.78389695
0.27100001 124188.81679995 5066.90396522
0.27200001 122405.60425890 5513.76070477
0.27300001 120640.71172344 5950.00018378
0.27400001 118893.14778522 6866.07960953
0.27500001 117167.52082252 5820.88270994
0.27600001 115458.39372185 6716.21508065
0.27700001 113769.76162899 5693.03914135
0.27800001 112098.56957160 6098.72296618
0.27900001 110447.10111575 5566.53415969
0.28000001 108812.38142341 5503.73051288
0.28100001 107196.78026846 6801.63602995
0.28200001 105599.61835677 6275.78561597
0.28300001 104020.04132907 6203.75555849
0.28400001 102457.90180906 4380.07550965
0.28500001 100913.99125572 6493.81564467
0.28600001 99387.45860061  5134.35635433
0.28700001 97878.38665267  5074.01580424
0.28800001 96385.78471541  5013.98875822
0.28900001 94912.48838364  5367.30147215
0.29000001 93454.68878111  5711.01630174
0.29100001 92014.87356250  4836.30198337
0.29200001 90591.71751132  5175.95802501
0.29300001 89185.50646920  4326.38912361
0.29400001 87795.46598442  5438.92937519
0.29500001 86423.23762551  4604.63031866
0.29600001 85066.82886398  5684.59110793
0.29700001 83726.90402206  5239.62990173
0.29800001 82403.29562731  5543.68197576
0.29900001 81096.75747969  4014.28968528
0.30000001 79805.58032015  3963.54433423
0.30100001 78531.70546692  4624.73235388
0.30200001 77272.16540078  5268.03012559
0.30300001 76030.06573923  4853.75962658
0.30400001 74803.59112464  3422.26445597
0.30500001 73592.84306615  4729.07631932
0.30600001 72396.78397888  4000.64647207
0.30700001 71217.71032456  3619.28421004
0.30800001 70053.78363836  3571.69232790
0.30900001 68905.25027390  4485.73200520
0.31000001 67772.51238382  3793.90542287
0.31100001 66654.06897816  4367.17480621
0.31200001 65551.71798210  3693.18396597
0.31300001 64463.88018262  3036.24890036
0.31400001 63392.29194463  4792.45749792
0.31500001 62334.67890805  3841.06309618
0.31600002 61292.35636153  3205.89685128
0.31700002 60264.72229031  4024.47834510
0.31800002 59251.92244702  2835.20462333
0.31900002 58253.87976161  2796.18636095
0.32000002 57270.70388150  3309.10142696
0.32100002 56301.25918278  3535.15623148
0.32200002 55347.46816583  3217.90195153
0.32300002 54406.18525292  2908.55480134
0.32400002 53479.99600656  3128.57991453
0.32500002 52567.83932358  3084.68095757
0.32600002 51670.18382708  2534.42263673
0.32700002 50785.68319335  3498.11802400
0.32800002 49915.98065679  2956.02451447
0.32900002 49059.26133293  3642.65032646
0.33000002 48217.35873950  2633.39117226
0.33100002 47386.40178501  2595.82721271
0.33200002 46572.02085794  3024.15431762
0.33300002 45769.61386825  2293.05776339
0.33400002 44980.96336471  2486.32286773
0.33500002 44204.45477994  2673.48555170
0.33600002 43442.23934769  2415.60583332
0.33700002 42691.81985424  2813.81797985
0.33800002 41955.45206932  2346.77832263
0.33900002 41230.75759831  2313.04561081
0.34000002 40519.35593044  2694.33470019
0.34100002 39820.40709478  2655.62307492
0.34200002 39134.43931344  2617.50709744
0.34300002 38459.60303768  2778.32185502
0.34400002 37798.54673212  2738.50484044
0.34500002 37148.52306018  2506.41096957
0.34600002 36511.74039901  2090.47979555
0.34700002 35885.05226441  2997.11970707
0.34800002 35271.81834709  2031.12775571
0.34900002 34669.48154939  2184.17744106
0.35000002 34078.88811922  2153.10425335
0.35100002 33500.41384231  2122.58632158
0.35200002 32931.82984911  1743.74047310
0.35300002 32375.12266465  2062.94291390
0.35400002 31829.80112412  1864.43068915
0.35500002 31295.68211316  1838.30845440
0.35600002 30771.30855599  1812.58401634
0.35700002 30258.19400431  1624.86509499
0.35800002 29756.40527188  2243.33549970
0.35900002 29264.77123000  1896.35726553
0.36000002 28783.84870898  1870.37457770
0.36100002 28312.39489381  1844.83573866
0.36200002 27852.32093630  1971.52663086
0.36300002 27401.20092036  1944.93733345
0.36400002 26960.03879003  1623.66841304
0.36500002 26528.58296202  1456.41927360
0.36600002 26107.18204057  2155.80065912
0.36700002 25694.72598859  1985.68851846
0.36800002 25293.21426403  1679.97537100
0.36900002 24899.93715927  1658.33589336
0.37000002 24515.54045051  1637.14786884
0.37100002 24140.01100786  1885.81774926
0.37200002 23774.44022657  1729.23399179
0.37300002 23416.90044210  1576.42581244
0.37400002 23068.09046990  1557.09618048
0.37500002 22728.37092254  1922.82027113
0.37600002 22397.12170488  1646.52448013
0.37700002 22073.57322521  1627.04315951
0.37800002 21758.24120127  1731.73849924
0.37900002 21451.61100373  1345.01607365
0.38000002 21152.76097962  1571.54445143
0.38100002 20860.82568765  1314.85790538
0.38200002 20577.63629520  1655.05936563
0.38300002 20301.26925747  1286.28848109
0.38400002 20033.24089806  1272.61168834
0.38500002 19771.29201877  1488.18522075
0.38600002 19517.90817525  1812.82339720
0.38700002 19270.73774851  1345.86838812
0.38800002 19030.79200339  1665.67014901
0.38900002 18797.16529900  1319.56106650
0.39000002 18571.41196993  1198.13470000
0.39100002 18351.19282687  1186.95520828
0.39200002 18138.06968049  1390.01103582
0.39300002 17930.94113281  1271.66240539
0.39400002 17731.42014660  1155.64536281
0.39500002 17536.85085473  1145.85788914
0.39600002 17348.38737933  1446.33512434
0.39700002 17165.92355215  1434.72795846
0.39800002 16989.38814901  1118.49642178
0.39900002 16818.34933340  1311.83131016
0.40000002 16652.88019697  1202.00494957
0.40100002 16493.16287416  1193.44532212
0.40200002 16339.04870923  1185.23464952
0.40300002 16189.52493496  1275.41083480
0.40400002 16045.66673859  1169.72916067
0.40500002 15906.89878006  968.73018160
0.40600002 15772.99367314  1059.23544031
0.40700002 15643.91652505  1053.14851037
0.40800002 15519.83579396  1523.42715372
0.40900002 15400.05089086  1041.81349213
0.41000002 15285.29171917  1319.27359079
0.41100002 15174.70930986  1500.47532765
0.41200002 15068.14265028  1400.20722212
0.41300002 14966.60988905  1115.31182178
0.41400002 14868.77199528  1943.72031118
0.41500002 14775.16767387  1290.75870915
0.41600002 14684.98308574  1377.81860331
0.41700002 14599.11339358  1006.90089847
0.41800002 14517.94072224  1186.18840292
0.41900002 14438.48871383  1000.58731528
0.42000002 14364.03116883  907.08861129
0.42100002 14293.23017128  1266.66611780
0.42200002 14225.95253125  1083.16407706
0.42300002 14161.32461869  1260.92440380
0.42400002 14100.04243070  1438.20439608
0.42500002 14042.29391139  1256.22367284
0.42600002 13986.83662489  1254.19969959
0.42700002 13935.62998425  984.13423612
0.42800002 13886.41799541  1340.38656052
0.42900002 13841.26596335  982.03786664
0.43000002 13798.31054468  1070.47298278
0.43100002 13757.11923852  980.60750579
0.43200002 13719.70970671  1425.75230028
0.43300002 13684.70902159  890.87459952
0.43400002 13652.13868902  890.80209167
0.43500002 13621.77371473  1158.12325611
0.43600002 13594.20271670  1158.43003940
0.43700002 13568.34953819  1248.01684967
0.43800002 13544.65515153  1248.68181759
0.43900002 13523.82580317  981.82979984
0.44000002 13504.55676628  1071.99176691
0.44100002 13487.68728978  1430.77393550
0.44200002 13472.54444564  1432.40099334
0.44300002 13459.40796094  1254.95525775
0.44400002 13448.44845344  1346.52596521
0.44500002 13438.03170153  1078.80523612
0.44600002 13429.80181129  1080.56190495
0.44700002 13424.25089332  992.32067306
0.44800002 13418.71315984  1265.25052380
0.44900002 13416.35315076  1086.72465671
0.45000002 13414.88634331  998.26881455
0.45100002 13414.53188157  909.50530467
0.45200002 13415.84149524  1458.57035649
0.45300002 13418.05294895  1370.65417369
0.45400002 13422.05215807  1007.66061352
0.45500002 13427.24152097  1469.47738170
0.45600002 13433.40900393  1105.03227703
0.45700002 13440.78467541  1292.73473135
0.45800002 13448.89118957  1296.33868320
0.45900002 13458.13988435  1021.47286563
0.46000002 13469.13091280  1117.66853611
0.46100002 13479.93907466  1401.23973322
0.46200002 13492.59540912  1124.47295469
0.46300002 13505.93045034  1128.01536467
0.46400002 13519.51237510  1320.18044600
0.46500002 13534.28848289  1040.65149077
0.46600002 13549.66405043  1044.06941289
0.46700002 13565.34763535  1333.20242879
0.46800002 13582.79280923  1146.65942330
0.46900002 13599.70838933  1246.41333296
0.47000002 13617.59970250  1154.50015750
0.47100002 13636.07679328  1158.52113927
0.47200002 13655.25756198  1259.49274093
0.47300002 13674.94652260  1263.97536699
0.47400002 13694.34678245  1268.43893085
0.47500002 13714.61006507  1272.99016658
0.47600002 13735.82268618  1474.19723967
0.47700002 13756.37220911  1282.23151439
