# SAXS profile: number of points = 501, q_min = 0, q_max = 0.5, delta_q = 0.001
#    q    intensity    error
0.00000000 1664650.74656090 274.66737318
0.00100000 1664564.12040293 848.92772157
0.00200000 1664304.21804375 898.72430620
0.00300000 1663871.24954379 1297.81962088
0.00400000 1663265.09785818 1621.68353203
0.00500000 1662486.40440643 1795.48538783
0.00600000 1661535.03220139 1919.07304032
0.00700000 1660411.72226301 2390.99297943
0.00800000 1659116.23630052 2911.74911764
0.00900000 1657650.06575321 3481.06528689
0.01000000 1656012.51555134 3005.66284551
0.01100000 1654205.17437512 3275.32638787
0.01200000 1652227.94484544 4188.39802382
0.01300000 1650082.22366383 4504.72466928
0.01400000 1647768.16936530 4819.72210906
0.01500000 1645287.27311076 4343.55859443
0.01600000 1642639.36486732 6701.96890826
0.01700000 1639826.44703987 6198.54424787
0.01800000 1636849.07714967 6064.52610373
0.01900000 1633708.39215483 5391.23793738
0.02000000 1630404.91854747 6162.93087089
0.02100000 1626941.70196971 5905.79864591
0.02200000 1623317.00092104 6720.53268914
0.02300000 1619534.35249176 5830.32393436
0.02400000 1615594.04456019 6664.32573769
0.02500000 1611498.58628627 6913.32925090
0.02600000 1607248.26977001 7160.29136932
0.02700000 1602845.26187183 12117.51073475
0.02800000 1598289.86358816 9038.32959309
0.02900000 1593585.47281144 10039.58893967
0.03000000 1588732.85901983 7387.60813402
0.03100000 1583733.36884830 13683.45693647
0.03200000 1578588.50388052 9376.81614493
0.03300000 1573302.33231714 13640.53185002
0.03400000 1567873.12280062 9054.46770195
0.03500000 1562305.35279439 10123.73915360
0.03600000 1556599.44022947 11230.86548028
0.03700000 1550758.46152736 11491.12073135
0.03800000 1544783.99021835 10844.38411321
0.03900000 1538678.43114637 10155.27811586
0.04000000 1532442.08735480 11309.42312875
0.04100000 1526078.99040079 11537.15770237
0.04200000 1519590.47756861 12741.76674554
0.04300000 1512978.61144121 11982.79115883
0.04400000 1506246.36379169 17284.17782722
0.04500000 1499395.60984241 11380.41320749
0.04600000 1492427.24472388 10521.61256442
0.04700000 1485345.44608821 12833.38525106
0.04800000 1478151.70665536 15210.18176918
0.04900000 1470848.64181944 11031.36532713
0.05000000 1463438.03446193 13434.36178195
0.05100000 1455923.82098674 14763.06823253
0.05200000 1448305.45420939 13816.83467704
0.05300000 1440587.75117355 17503.14199272
0.05400000 1432772.58895690 11820.37441012
0.05500000 1424863.00333869 15559.50472230
0.05600000 1416859.99477530 20594.06098506
0.05700000 1408768.31649959 17158.79889591
0.05800000 1400587.50397682 16113.75998564
0.05900000 1392321.70316828 16290.16468791
0.06000000 1383974.41807869 16462.37647215
0.06100000 1375547.06047125 17909.62356428
0.06200000 1367042.55516450 15502.26330020
0.06300000 1358464.11380519 15649.50732273
0.06400000 1349810.91796681 13160.65706566
0.06500000 1341089.74185285 17259.82578502
0.06600000 1332301.70331630 17406.52256825
0.06700000 1323448.13556610 16199.00593743
0.06800000 1314533.27699554 14965.96205914
0.06900000 1305560.50159398 17820.90168111
0.07000000 1296529.31518413 17950.44920932
0.07100000 1287444.41738224 16685.28043078
0.07200000 1278307.39500345 18196.70662033
0.07300000 1269122.19601478 16904.70844300
0.07400000 1259891.55879020 25512.80526114
0.07500000 1250615.64411578 19959.82661565
0.07600000 1241298.38769325 17204.39645998
0.07700000 1231943.42793299 21620.60817398
0.07800000 1222551.54310797 14487.23646523
0.07900000 1213125.26750450 18924.75506071
0.08000000 1203669.51065099 17549.50228856
0.08100000 1194184.91438233 20563.86519048
0.08200000 1184673.04780946 20648.85219227
0.08300000 1175137.49490812 19248.75306998
0.08400000 1165580.82514234 16347.27183994
0.08500000 1156005.42504662 17894.96481980
0.08600000 1146413.73386399 19448.90990816
0.08700000 1136807.75654905 15005.86309109
0.08800000 1127189.45269702 18057.57588026
0.08900000 1117562.33073304 22630.63826030
0.09000000 1107927.87487756 18147.85944300
0.09100000 1098288.82004451 16672.02507155
0.09200000 1088646.20860467 16705.27685596
0.09300000 1079004.89439496 16735.36669850
0.09400000 1069363.52745749 19809.96027717
0.09500000 1059726.31801053 19838.07760560
0.09600000 1050094.72328836 16806.76683628
0.09700000 1040473.88014234 15294.96675715
0.09800000 1030862.16336679 22962.45576864
0.09900000 1021263.99351098 21446.54487220
0.10000000 1011678.48003330 19925.00860127
0.10100000 1002109.76304290 15332.28009566
0.10200000 992559.66324846 16868.55227034
0.10300000 983029.28920737 21469.36068622
0.10400000 973521.79421676 19932.85967433
0.10500000 964040.00274333 18393.88411776
0.10600001 954580.88646244 18385.22873836
0.10700001 945151.36865998 19904.88876066
0.10800001 935750.11886395 18359.41819614
0.10900001 926380.86196609 21399.39891859
0.11000001 917044.31720401 18322.54632017
0.11100001 907741.61157256 18300.07175075
0.11200001 898475.54214195 18274.99338750
0.11300001 889246.19112753 16726.72164262
0.11400001 880056.40855925 15180.97376243
0.11500001 870907.68794299 21215.31227728
0.11600001 861800.71593614 24199.36524307
0.11700001 852737.34915685 18112.14214908
0.11800001 843718.12715736 16566.40620698
0.11900001 834744.45396777 16527.94096705
0.12000001 825818.07550474 19485.17840938
0.12100001 816941.54746977 16445.03412526
0.12200001 808114.15905234 17891.64832432
0.12300001 799338.34367887 19328.00206078
0.12400001 790614.19706536 17788.82027213
0.12500001 781942.25262827 14778.70927105
0.12600001 773326.32280227 14731.86714360
0.12700001 764764.89172903 20556.88125845
0.12800001 756259.47527521 23413.79445800
0.12900001 747811.39710592 14582.32293086
0.13000001 739421.69802365 17435.56446122
0.13100001 731090.00696427 15923.14110226
0.13200001 722817.84914168 21630.32515523
0.13300001 714607.25872441 18672.68855076
0.13400001 706456.95127828 15736.32933162
0.13500001 698369.24155737 14246.73319948
0.13600001 690343.27100521 15605.21037687
0.13700001 682380.97683263 14125.28688649
0.13800001 674481.50073892 19688.11593498
0.13900001 666647.70583127 20999.40372398
0.14000001 658877.94218163 16722.32296120
0.14100001 651173.67581075 13869.99994892
0.14200001 643534.51399278 15184.19757383
0.14300001 635962.94528782 15110.48029276
0.14400001 628455.23482488 17769.57260286
0.14500001 621016.24290690 19040.35890570
0.14600001 613643.74999177 18943.18345588
0.14700001 606340.13820139 17498.97721403
0.14800001 599101.68852523 20084.88505539
0.14900001 591932.49997945 17314.02644129
0.15000001 584830.40471698 15895.69115021
0.15100001 577796.99960874 14491.14943395
0.15200001 570831.87975916 14410.65148452
0.15300001 563936.07544821 15632.30874910
0.15400001 557106.23455767 15543.26467766
0.15500001 550346.74417132 14165.92586350
0.15600001 543653.16398999 15363.63913944
0.15700001 537031.24610467 12727.64113339
0.15800001 530473.90474697 13916.98354790
0.15900001 523987.13423815 20121.10690447
0.16000001 517565.87025589 16248.98126368
0.16100001 511215.64043733 13664.79471393
0.16200001 504931.94974549 14814.70410488
0.16300001 498715.47381417 19629.44197599
0.16400001 492566.67250235 15848.33343596
0.16500001 486484.33748217 13324.80663272
0.16600001 480469.84427302 15646.50121747
0.16700001 474520.46602547 14349.49957012
0.16800001 468636.82767679 11879.94414253
0.16900001 462821.04347135 12982.13088236
0.17000001 457069.75656512 11723.83980949
0.17100001 451383.24450243 15139.39473551
0.17200001 445762.34249643 12724.28666744
0.17300001 440205.67268954 14936.17917971
0.17400001 434713.19221868 12552.34401811
0.17500001 429284.14446919 16999.65292383
0.17600001 423916.86311183 13505.99189662
0.17700001 418614.10556121 11176.99714638
0.17800001 413372.25069923 13318.85454661
0.17900001 408192.68943925 13225.44376252
0.18000001 403074.41651662 13132.16511041
0.18100001 398018.18998821 13039.07651993
0.18200001 393019.72557280 11867.23117425
0.18300001 388082.00794090 11782.17031767
0.18400001 383203.13031828 13824.05357929
0.18500001 378384.39487370 11612.61762728
0.18600001 373621.89599741 10480.09467784
0.18700001 368916.60231477 14564.82814750
0.18800001 364268.37064800 14457.81231410
0.18900001 359678.45004259 11275.91994159
0.19000001 355140.12723280 12209.71815116
0.19100001 350661.40805189 12118.85883489
0.19200001 346234.13804131 14032.87027789
0.19300001 341862.99450990 14922.32041548
0.19400001 337543.32179954 10860.45689210
0.19500001 333277.08430402 12737.85076403
0.19600001 329062.92809907 12640.95298029
0.19700001 324899.85048180 12544.38381992
0.19800001 320788.05532226 11490.62868468
0.19900001 316726.93927511 10451.98949004
0.20000001 312713.77598443 12256.81702898
0.20100001 308751.33028843 9355.16574989
0.20200001 304835.71950315 11138.69771710
0.20300001 300969.44935984 14735.46493712
0.20400001 297149.55271803 11878.55393135
0.20500001 293375.92137259 9971.84803879
0.20600001 289648.09891937 11691.64606552
0.20700001 285966.29077759 13383.22304100
0.20800001 282327.70207664 13276.46081773
0.20900001 278735.79154688 10536.21341853
0.21000001 275185.18635544 11322.49502784
0.21100001 271678.08933750 11231.17274415
0.21200001 268212.92214094 10283.28392102
0.21300001 264788.66526884 9349.68821265
0.21400001 261406.54346241 9273.39756774
0.21500001 258065.78147941 8361.33171524
0.21600001 254763.61977734 14097.34556688
0.21700001 251501.17024056 8224.08865570
0.21800001 248277.65023957 9787.10543518
0.21900001 245091.46988881 12132.02833312
0.22000001 241942.83023849 9624.48624196
0.22100001 238832.75904358 10339.07062786
0.22200001 235759.13388527 10251.98642176
0.22300001 232720.36355829 10947.16641942
0.22400001 229716.52912659 11629.39983695
0.22500001 226750.06789047 11530.24149746
0.22600001 223815.84350186 12193.48773059
0.22700001 220917.79313208 8310.92777065
0.22800001 218051.90661446 8988.10001570
0.22900001 215218.26990408 11880.04906052
0.23000001 212418.18654170 8096.31956293
0.23100001 209650.95280776 7295.85350275
0.23200001 206913.48269565 10847.43984333
0.23300001 204207.61917125 8601.22532628
0.23400001 201533.21937901 9235.26021483
0.23500001 198887.28427268 8448.73223550
0.23600001 196272.73375670 8372.99521808
0.23700001 193686.75694231 8297.54105986
0.23800001 191129.98229647 9592.81426519
0.23900001 188601.31483427 8147.57718622
0.24000001 186100.72947222 8073.05002636
0.24100001 183628.97022492 7332.30512791
0.24200001 181184.09098340 7924.99251448
0.24300001 178765.93255361 9814.25016143
0.24400001 176374.30044731 6481.75584805
0.24500001 174009.03609847 8347.21385650
0.24600001 171669.54363871 10176.57102831
0.24700001 169355.98552818 7560.05155161
0.24800001 167067.75722840 9359.97154151
0.24900001 164803.46847434 6798.14339617
0.25000001 162564.87549068 7956.73820731
0.25100001 160349.24758467 7273.44221454
0.25200001 158159.28000804 6602.35945629
0.25300001 155992.85304355 7726.32637678
0.25400001 153849.08514655 8827.09167790
0.25500001 151728.35807898 7574.27999366
0.25600001 149631.12116803 6345.10799333
0.25700001 147555.78019954 10278.73613502
0.25800001 145503.47011753 6783.37209783
0.25900001 143473.10964935 7833.63215750
0.26000001 141464.81600542 8861.35649386
0.26100001 139477.03977024 6029.59271456
0.26200001 137512.03880422 7594.79026252
0.26300001 135567.19114266 6442.15322793
0.26400001 133643.59859467 7968.49994326
0.26500001 131741.33006579 5782.12725019
0.26600001 129858.56668634 6761.08659446
0.26700001 127997.21626560 7203.68367231
0.26800001 126156.41298579 6617.53495632
0.26900001 124333.96033416 5539.07819500
0.27000001 122532.70580741 7969.52756285
0.27100001 120750.33786300 4926.61401795
0.27200001 118988.90467810 6821.63422802
0.27300001 117245.86414437 5300.68576882
0.27400001 115520.19205294 9053.89548062
0.27500001 113816.48035788 4712.00250981
0.27600001 112129.07550492 10249.71927698
0.27700001 110462.08268907 4606.26906613
0.27800001 108812.50757453 5464.56438902
0.27900001 107182.81440737 5852.18194361
0.28000001 105569.79994359 6229.67418951
0.28100001 103975.84584188 4398.17848727
0.28200001 102400.40927631 6085.65661132
0.28300001 100842.41579299 5584.65325094
0.28400001 99301.89473087  5943.21868094
0.28500001 97779.67442452  4614.22305449
0.28600001 96274.65753262  6216.93630443
0.28700001 94787.15889822  4913.76654986
0.28800001 93316.23427568  5258.83663152
0.28900001 91864.61449599  4395.72201170
0.29000001 90428.52318011  3947.20522365
0.29100001 89010.25915373  4678.37944257
0.29200001 87608.89045333  4235.45200945
0.29300001 86224.37055312  4562.99390566
0.29400001 84855.99728272  5256.82928050
0.29500001 83505.48503066  4078.40808196
0.29600001 82170.89763909  4758.92776204
0.29700001 80852.68186264  5782.58408055
0.29800001 79550.98499041  4281.43421486
0.29900001 78266.15488845  4930.76799139
0.30000001 76996.69518871  3476.40095234
0.30100001 75744.74230777  3431.23698898
0.30200001 74506.92904323  4063.60810239
0.30300001 73286.90373392  4010.25956217
0.30400001 72082.41716543  4287.10196387
0.30500001 70893.48319278  3254.01103260
0.30600001 69719.41799219  4173.75315570
0.30700001 68562.36150744  4434.61375225
0.30800001 67420.22934568  4062.40611155
0.30900001 66293.87569670  4623.99804876
0.31000001 65183.35415420  3953.04469984
0.31100001 64087.05937328  3299.20197274
0.31200001 63006.75261467  3549.80061038
0.31300001 61941.08905013  3500.91051887
0.31400001 60891.45083975  4027.96966376
0.31500001 59856.02435426  3120.89325760
0.31600002 58835.98015937  3077.41608794
0.31700002 57830.66929526  3586.07997279
0.31800002 56840.05909044  3807.71573876
0.31900002 55864.36166043  3217.78738400
0.32000002 54903.29172576  3172.31234612
0.32100002 53956.09954598  3387.90365091
0.32200002 53024.59879436  3339.75451320
0.32300002 52105.81751688  2785.57713635
0.32400002 51201.81129947  3244.91494475
0.32500002 50312.04242388  3198.33668833
0.32600002 49436.63171922  2667.35359072
0.32700002 48574.41896428  2628.84767883
0.32800002 47727.16010218  2355.33546258
0.32900002 46892.78391868  2785.43149667
0.33000002 46073.01093937  2516.27761161
0.33100002 45264.43901478  2479.58608665
0.33200002 44472.48710475  2443.54091968
0.33300002 43692.42527304  2626.78873181
0.33400002 42925.90716304  2804.13501822
0.33500002 42171.84931146  2550.55356714
0.33600002 41431.76947789  2513.25125555
0.33700002 40703.67320324  2476.41159496
0.33800002 39989.54557187  2033.46848863
0.33900002 39287.14039648  2204.00868062
0.34000002 38597.94184746  2171.71330090
0.34100002 37921.06332866  2528.95583316
0.34200002 37257.11382918  2491.94217648
0.34300002 36604.57833571  1888.79633157
0.34400002 35965.50689880  1861.21507016
0.34500002 35337.61000978  2200.82645564
0.34600002 34722.70071022  2168.77998907
0.34700002 34118.06518010  1780.96308675
0.34800002 33526.59113615  1930.62884201
0.34900002 32946.13088548  2248.57353943
0.35000002 32377.39995453  2557.00528251
0.35100002 31820.59830971  2184.16597143
0.35200002 31273.83169093  2152.73430640
0.35300002 30738.76784436  1795.45151483
0.35400002 30214.89106037  2252.52023524
0.35500002 29702.23084122  2379.14880307
0.35600002 29199.28691833  1719.98407739
0.35700002 28707.72381198  2158.24677841
0.35800002 28227.03290626  1976.03353220
0.35900002 27756.76923792  1798.63873181
0.36000002 27297.02066238  2069.38723443
0.36100002 26846.69927338  1749.33100751
0.36200002 26407.42147946  1581.67258443
0.36300002 25977.38244601  1843.87469336
0.36400002 25557.01737759  1539.17144447
0.36500002 25146.33997603  1656.64095609
0.36600002 24745.54072320  2043.36312201
0.36700002 24353.73152625  1478.75864832
0.36800002 23972.63449489  1592.26245857
0.36900002 23599.73227188  1440.76372345
0.37000002 23235.55001127  1551.67010325
0.37100002 22880.23723644  1659.73248775
0.37200002 22534.55041547  1639.05060211
0.37300002 22197.00813861  1618.82788023
0.37400002 21868.08893742  1599.10407930
0.37500002 21547.95149691  1822.95678299
0.37600002 21236.41946262  1561.19545075
0.37700002 20932.33713662  1661.60900062
0.37800002 20636.30015064  1759.76057871
0.37900002 20348.96149097  1275.87994593
0.38000002 20069.25945641  1605.74152518
0.38100002 19796.27290909  1588.05708800
0.38200002 19531.90178128  1234.31859154
0.38300002 19274.36190485  1776.32527730
0.38400002 19024.80168557  1208.55058433
0.38500002 18781.57501320  1413.68921822
0.38600002 18546.36317307  1399.60136316
0.38700002 18317.41030838  1599.10999568
0.38800002 18095.55036979  1478.22557974
0.38900002 17879.79885937  1045.96828283
0.39000002 17671.86784675  1140.10060815
0.39100002 17469.42672986  1335.36304250
0.39200002 17273.75070770  1221.94518295
0.39300002 17084.08531570  1110.63643899
0.39400002 16901.71516738  1001.42667111
0.39500002 16724.14554752  1390.78000962
0.39600002 16552.69641147  1379.99836521
0.39700002 16386.90221468  1173.95773028
0.39800002 16227.19234961  1359.67651139
0.39900002 16072.61841639  1253.66429588
0.40000002 15923.43007506  1149.35323727
0.40100002 15780.02394870  1046.68903811
0.40200002 15641.78692809  1040.10067106
0.40300002 15508.18272439  1503.67346820
0.40400002 15379.94631660  934.33178300
0.40500002 15256.88368303  1579.54524254
0.40600002 15138.38075604  1016.61800784
0.40700002 15024.69726769  1195.36497126
0.40800002 14915.50394340  1006.57283131
0.40900002 14810.75887302  1457.37874216
0.41000002 14710.87752234  997.61820645
0.41100002 14614.88853655  1264.48021610
0.41200002 14522.84893686  1259.56674798
0.41300002 14435.67538910  986.10103255
0.41400002 14351.93996867  1072.08996646
0.41500002 14272.33704510  890.59387381
0.41600002 14196.07617676  1154.35398901
0.41700002 14123.87398149  974.12363466
0.41800002 14056.29960312  1236.81386068
0.41900002 13990.28805584  1145.80464607
0.42000002 13928.92739158  1143.49534840
0.42100002 13871.37877301  1141.47581332
0.42200002 13816.90576645  1052.01925491
0.42300002 13765.07359732  1313.18808341
0.42400002 13716.40506760  874.42086449
0.42500002 13671.22780003  1135.66894716
0.42600002 13628.00321768  872.87364745
0.42700002 13589.07176835  1308.62767330
0.42800002 13551.99699175  872.07104774
0.42900002 13518.65576162  1046.34400553
0.43000002 13487.45018358  959.16006526
0.43100002 13457.87296841  872.07020968
0.43200002 13431.87935439  959.64066595
0.43300002 13408.18324553  1134.73460184
0.43400002 13386.67323578  1310.22070504
0.43500002 13367.36528909  961.64830447
0.43600002 13350.68710814  875.13758141
0.43700002 13335.56813768  876.14686817
0.43800002 13322.42043146  877.28142699
0.43900002 13312.02127880  1493.60885826
0.44000002 13303.10280783  1144.00038017
0.44100002 13296.37836185  969.70491988
0.44200002 13291.23275989  1236.48344225
0.44300002 13288.09984019  973.48624043
0.44400002 13286.76078026  1419.02611858
0.44500002 13285.92338060  1066.59397954
0.44600002 13287.34424175  980.00812099
0.44700002 13291.04637876  982.47419488
0.44800002 13294.85957578  1164.03148532
0.44900002 13301.73129492  987.65359545
0.45000002 13309.15080855  990.40050436
0.45100002 13317.69984751  1534.99815717
0.45200002 13327.76627220  996.18393723
0.45300002 13338.64808189  1271.70676840
0.45400002 13351.25754073  1275.71271848
0.45500002 13364.79287166  1188.39743847
0.45600002 13379.32667860  1284.01404220
0.45700002 13394.84099810  1012.24818220
0.45800002 13411.05739778  1292.69188384
0.45900002 13428.24593630  926.54901352
0.46000002 13447.06176464  1115.83723811
0.46100002 13465.74795572  1399.76456634
0.46200002 13485.91304256  1311.23538727
0.46300002 13506.92133021  1034.08994605
0.46400002 13527.86731318  1226.63942676
0.46500002 13550.08482898  1231.29626677
0.46600002 13572.58876587  1426.13983217
0.46700002 13595.48592896  954.40315745
0.46800002 13619.98541314  1245.61582500
0.46900002 13643.87636119  1154.27199486
0.47000002 13668.60553473  1255.39313484
0.47100002 13693.85629919  1260.38259352
0.47200002 13719.74250060  1168.09893187
0.47300002 13746.12476880  1075.08446912
0.47400002 13772.06961465  1079.38600721
0.47500002 13798.83221851  1083.76033381
0.47600002 13826.21740887  1483.89885374
0.47700002 13853.18643320  993.27351434
