# SAXS profile: number of points = 501, q_min = 0, q_max = 0.5, delta_q = 0.001
#    q    intensity    error
0.00000000 1664650.74656090 424.48594037
0.00100000 1664564.01445740 599.24305944
0.00200000 1664303.79057312 1048.51142126
0.00300000 1663870.28777077 1497.48331234
0.00400000 1663263.37919781 1746.42661452
0.00500000 1662483.72334285 1945.10603330
0.00600000 1661531.16689684 2093.52935552
0.00700000 1660406.47448179 2590.23420784
0.00800000 1659109.38283556 2463.77753753
0.00900000 1657641.37376526 3481.04703371
0.01000000 1656001.81289995 3005.64342020
0.01100000 1654192.21098173 3275.30072035
0.01200000 1652212.53282649 4832.72187040
0.01300000 1650064.16180350 5197.70233892
0.01400000 1647747.24775444 4078.17461898
0.01500000 1645263.22583312 4738.35830139
0.01600000 1642612.03677227 4607.52696912
0.01700000 1639795.62665664 4427.44839058
0.01800000 1636814.55940655 6530.89038591
0.01900000 1633669.95862861 5881.21211644
0.02000000 1630362.38232409 5135.64173664
0.02100000 1626894.82830484 6442.50381218
0.02200000 1623265.58487269 6720.31982669
0.02300000 1619478.22987282 8745.18283938
0.02400000 1615533.04534565 7269.89903555
0.02500000 1611432.36951053 6913.04518092
0.02600000 1607176.79825231 7810.87959676
0.02700000 1602768.20457563 7404.78944429
0.02800000 1598207.16651967 7647.42164250
0.02900000 1593496.85533151 8604.88341388
0.03000000 1588638.14867551 9603.31805016
0.03100000 1583632.40769206 9121.72308803
0.03200000 1578481.05509979 10157.52605740
0.03300000 1573188.13555030 9627.91183342
0.03400000 1567752.05085319 9053.76851142
0.03500000 1562177.28366354 14340.78812626
0.03600000 1556464.17313920 10366.05187216
0.03700000 1550615.79633241 13257.76567178
0.03800000 1544633.76242765 10843.32951407
0.03900000 1538520.40820151 10154.23516437
0.04000000 1532276.14056036 12250.54831146
0.04100000 1525904.94542942 10574.52176213
0.04200000 1519408.19720869 11760.21999199
0.04300000 1512787.95677132 12979.72127159
0.04400000 1506047.04081158 13215.56339688
0.04500000 1499187.47814508 11378.83348784
0.04600000 1492210.22918482 11572.09086528
0.04700000 1485119.43594658 11762.14647973
0.04800000 1477916.34643184 14121.49134720
0.04900000 1470603.93755759 13235.43605409
0.05000000 1463183.78594273 13432.02778043
0.05100000 1455659.82321746 15895.80601003
0.05200000 1448031.67709195 13814.22284322
0.05300000 1440304.05739893 15166.40243144
0.05400000 1432478.64141133 14181.53921131
0.05500000 1424558.84492435 13162.92434114
0.05600000 1416545.24015577 13322.60860535
0.05700000 1408443.08907638 13478.80099163
0.05800000 1400251.64585077 13631.45040884
0.05900000 1391975.01341044 12527.77570581
0.06000000 1383616.85098151 15192.11373353
0.06100000 1375178.43615507 17904.82407546
0.06200000 1366662.74575116 12914.96355104
0.06300000 1358072.89335029 13037.50038574
0.06400000 1349408.35730822 17103.75172877
0.06500000 1340675.66305768 14599.95865365
0.06600000 1331875.97896318 17400.96047932
0.06700000 1323010.77579452 18892.59476250
0.06800000 1314084.00169846 14960.84705964
0.06900000 1305099.21091020 16444.25082737
0.07000000 1296056.05553468 17943.89692916
0.07100000 1286959.05406000 13899.15843485
0.07200000 1277809.82983505 18189.62377983
0.07300000 1268612.21234529 18306.07508188
0.07400000 1259369.16171345 19835.06522654
0.07500000 1250080.74180111 17101.10534941
0.07600000 1240751.00850627 17196.80978409
0.07700000 1231383.27601249 20170.05900683
0.07800000 1221978.85316623 15928.49509801
0.07900000 1212539.76865556 16005.52569697
0.08000000 1203071.09374255 19002.50881709
0.08100000 1193573.63950761 22021.43468212
0.08200000 1184048.68721904 19163.82890191
0.08300000 1174500.15232985 16278.57287528
0.08400000 1164930.52543442 16338.15138611
0.08500000 1155341.99206554 16394.30363704
0.08600000 1145737.03908146 16447.05596823
0.08700000 1136117.94604062 14996.75759195
0.08800000 1126486.30086767 19550.17066971
0.08900000 1116845.81555263 16585.16113996
0.09000000 1107198.16356565 16624.58120689
0.09100000 1097545.68027856 16660.74420937
0.09200000 1087889.60166478 22764.09098445
0.09300000 1078234.91979918 22804.66962539
0.09400000 1068580.06691231 21318.17333680
0.09500000 1058929.43037592 15248.58451414
0.09600000 1049284.39313069 16793.79750150
0.09700000 1039650.11113978 18339.42882269
0.09800000 1030024.82708833 21414.21716201
0.09900000 1020413.19122307 16836.81844689
0.10000000 1010814.33552435 15313.83790336
0.10100000 1001232.05909963 15318.85122470
0.10200000 991668.37282687 19917.66020508
0.10300000 982124.75750545 21449.60571292
0.10400000 972603.53168548 24509.61015153
0.10500000 963108.39111431 15313.42413920
0.10600001 953635.84138046 22958.78396153
0.10700001 944193.00128055 18355.11280864
0.10800001 934778.36158077 19868.71501045
0.10900001 925395.77005624 18322.83710949
0.11000001 916045.82604327 18302.59646584
0.11100001 906729.88971234 15233.06286424
0.11200001 897450.61803819 19775.32529944
0.11300001 888208.07162684 22782.53810985
0.11400001 879005.20960240 34874.53333302
0.11500001 869843.14223561 21189.37994262
0.11600001 860723.27466197 24169.11069067
0.11700001 851647.05023158 16581.56884892
0.11800001 842614.81028106 19552.87759348
0.11900001 833628.29514763 22507.96502915
0.12000001 824689.11320013 16464.91892062
0.12100001 815799.58452924 17914.95972020
0.12200001 806959.61961587 19354.92738832
0.12300001 798171.28177992 16330.58519462
0.12400001 789434.53923867 19242.46780060
0.12500001 780750.24688143 17707.41643365
0.12600001 772122.02637848 22063.38794347
0.12700001 763548.24125693 20524.17769222
0.12800001 755030.49177988 27758.69733853
0.12900001 746570.66688480 17469.75442849
0.13000001 738168.78295747 18856.52244945
0.13100001 729825.26314448 20230.75724799
0.13200001 721541.27355966 17273.69890331
0.13300001 713318.92246904 24374.10872984
0.13400001 705156.86617393 18563.25537720
0.13500001 697057.75635522 15641.97679010
0.13600001 689020.47669639 19823.12004923
0.13700001 681046.96918215 16917.20751219
0.13800001 673136.25693847 14034.89161899
0.13900001 665291.52344390 19559.57171164
0.14000001 657510.74430213 15296.98818760
0.14100001 649795.70073362 23529.10343327
0.14200001 642145.98796381 16528.83850978
0.14300001 634563.77537451 15077.23601406
0.14400001 627045.48158494 20457.35980168
0.14500001 619596.33625091 14926.07644438
0.14600001 612213.73333721 21598.90153105
0.14700001 604900.24629370 24171.81498224
0.14800001 597651.87997288 20036.28022138
0.14900001 590472.94369242 15942.77023189
0.15000001 583361.39825112 15855.76355259
0.15100001 576318.35468388 21024.09457089
0.15200001 569344.09551569 13066.44760865
0.15300001 562439.17314256 12992.34551269
0.15400001 555600.45837773 14209.48239357
0.15500001 548832.15296742 19264.00947828
0.15600001 542129.80607337 15320.58904269
0.15700001 535499.43633699 19037.00586027
0.15800001 528933.75856261 17661.09903199
0.15900001 522438.93445150 15046.24202239
0.16000001 516009.64934351 14953.96034384
0.16100001 509651.52189717 17338.34559339
0.16200001 503360.07940215 18460.73178353
0.16300001 497136.10688845 18344.32321018
0.16400001 490980.02190660 14582.10733904
0.16500001 484890.58910134 12073.77623864
0.16600001 478869.04066734 19193.07205611
0.16700001 472912.98797227 19067.85257533
0.16800001 467022.45731374 14206.82382228
0.16900001 461200.29769878 18816.97303461
0.17000001 455442.69674179 15186.73743997
0.17100001 449750.08554750 15084.61858158
0.17200001 444123.38866179 13830.00297602
0.17300001 438560.99209992 12591.08667780
0.17400001 433062.90956229 12504.69210416
0.17500001 427628.54332944 11289.39407707
0.17600001 422256.10068149 15695.26000360
0.17700001 416948.36698004 13359.02630900
0.17800001 411701.80225274 12159.61330386
0.17900001 406517.48849128 15366.36179078
0.18000001 401394.92118818 13077.44715002
0.18100001 396334.42721692 18393.88163600
0.18200001 391331.97681092 11816.26959798
0.18300001 386390.40927699 12797.25095979
0.18400001 381507.88725151 16938.95099418
0.18500001 376685.57512847 12611.43365109
0.18600001 371920.01206371 12518.82819750
0.18700001 367211.58184943 14497.51393635
0.18800001 362560.55531942 11306.45145182
0.18900001 357967.84141563 14282.91754732
0.19000001 353427.14421987 11138.25697636
0.19100001 348946.14696675 14069.50931048
0.19200001 344516.71142251 10971.13519365
0.19300001 340143.82254774 10888.00427424
0.19400001 335822.37255874 11787.36583381
0.19500001 331554.69756333 11697.25028279
0.19600001 327339.17334790 10640.16033249
0.19700001 323175.11460236 13437.62190020
0.19800001 319062.28922490 9524.00978346
0.19900001 315000.61278302 17010.03389418
0.20000001 310986.88868798 10313.88065078
0.20100001 307024.16948468 13023.96588508
0.20200001 303108.36028769 10152.61500768
0.20300001 299242.32114570 10072.49700584
0.20400001 295422.70984980 12717.94826016
0.20500001 291649.45051458 10814.36213624
0.20600001 287922.35827913 10727.98757657
0.20700001 284241.43097139 8868.33306551
0.20800001 280603.94295713 13195.40104131
0.20900001 277013.05201824 10471.09386127
0.21000001 273464.02283441 8655.13673186
0.21100001 269958.56722633 9443.15112799
0.21200001 266495.21132988 10217.42688541
0.21300001 263073.06970877 9289.11053056
0.21400001 259693.24214959 9212.61820080
0.21500001 256354.82519511 8305.89672900
0.21600001 253055.28788473 11531.73001411
0.21700001 249795.46671001 14702.96186570
0.21800001 246575.04201630 16199.98102641
0.21900001 243392.00386344 8835.13015798
0.22000001 240246.67674690 9557.01325287
0.22100001 237140.10307715 11845.14870878
0.22200001 234070.22348864 7829.64934592
0.22300001 231035.37622689 8539.06790912
0.22400001 228035.51165714 10774.67843530
0.22500001 225073.34373059 9155.98405592
0.22600001 222143.58846396 9076.78745386
0.22700001 219250.03543792 7498.35156657
0.22800001 216388.98813469 8176.25830332
0.22900001 213560.24654320 8104.61173959
0.23000001 210765.16863831 9493.91747030
0.23100001 208003.26243858 7238.51387519
0.23200001 205271.22045099 7174.22949406
0.23300001 202570.98652386 9243.31455224
0.23400001 199902.37700993 9160.52685973
0.23500001 197262.43211027 7681.39946967
0.23600001 194653.95599342 7611.94330915
0.23700001 192074.16708459 6857.04808924
0.23800001 189523.88261442 7473.87466440
0.23900001 187001.75596995 8078.47624001
0.24000001 184507.94279234 9337.94742641
0.24100001 182043.05219872 6608.16310739
0.24200001 179605.13776963 7855.92909764
0.24300001 177194.27900753 9079.43528583
0.24400001 174809.98420013 8993.97411254
0.24500001 172452.15902204 8272.53045961
0.24600001 170120.29953429 6933.25313550
0.24700001 167814.60995375 7491.24454272
0.24800001 165534.17169133 8037.51208670
0.24900001 163277.84780325 6735.21154051
0.25000001 161047.48239286 8488.81319852
0.25100001 158840.23775369 8405.82577960
0.25200001 156658.62225668 7134.23399509
0.25300001 154500.77995286 5886.47999470
0.25400001 152365.73152187 6993.58740773
0.25500001 150253.79692429 8654.61911231
0.25600001 148165.56941899 7425.31786274
0.25700001 146099.16258979 5654.03785974
0.25800001 144056.10628187 10633.50198831
0.25900001 142035.09566272 5539.36899294
0.26000001 140036.14778862 5482.41544533
0.26100001 138057.97752510 7595.95028284
0.26200001 136102.43428854 5369.24128674
0.26300001 134167.40263228 5844.33233520
0.26400001 132253.55533692 6308.49488808
0.26500001 130361.26870762 6241.69784107
0.26600001 128488.52194832 6175.15865704
0.26700001 126637.29817927 6108.98355325
0.26800001 124806.71960322 5035.95137430
0.26900001 122994.65082019 4981.28359394
0.27000001 121203.74429397 8375.78514580
0.27100001 119431.82779926 6821.94632673
0.27200001 117680.95555407 4819.03535799
0.27300001 115948.56992136 7148.22967394
0.27400001 114233.57618494 6125.77581282
0.27500001 112540.65570268 6522.85671322
0.27600001 110864.24803716 5527.69166874
0.27700001 109208.03454733 4553.97525615
0.27800001 107569.54563818 5852.32140742
0.27900001 105950.92931160 6229.91493837
0.28000001 104348.98276861 5717.80278142
0.28100001 102766.19186398 4781.71113374
0.28200001 101202.14268232 6014.44362427
0.28300001 99655.47038499  7641.58183080
0.28400001 98126.25940600  4614.38756697
0.28500001 96615.48706509  5802.72642778
0.28600001 95121.86857764  5732.99529053
0.28700001 93645.98080503  5259.15853094
0.28800001 92186.59693077  3996.28916611
0.28900001 90746.51556268  5131.71569797
0.29000001 89322.05004888  8577.59687221
0.29100001 87915.44411312  4620.83596131
0.29200001 86525.79079574  4183.08955403
0.29300001 85152.94956038  4130.76977871
0.29400001 83796.38147601  3707.99005584
0.29500001 82457.69395586  4027.23396344
0.29600001 81134.88672248  5421.83906189
0.29700001 79828.50499574  3925.16777645
0.29800001 78538.57306616  4226.94620252
0.29900001 77265.54143644  4520.03438801
0.30000001 76007.99511842  4118.11337047
0.30100001 74767.99138472  5080.48525510
0.30200001 73542.02586226  5347.97637388
0.30300001 72333.83776769  4287.95010587
0.30400001 71141.40402354  3905.66326579
0.30500001 69964.28524618  3853.63301380
0.30600001 68802.12753905  3802.00574781
0.30700001 67656.93353566  3750.90057280
0.30800001 66526.70935350  4008.56706188
0.30900001 65412.18318688  3649.99999463
0.31000001 64313.51126903  3900.29307557
0.31100001 63229.03940814  4438.67877660
0.31200001 62160.62918031  3210.28584601
0.31300001 61106.66612785  2878.12411089
0.31400001 60068.81211623  3689.72695894
0.31500001 59045.28201337  3358.49579994
0.31600002 58036.91041183  5243.34491942
0.31700002 57043.29914392  2720.96549800
0.31800002 56064.31328132  3487.48077279
0.31900002 55100.22073009  2644.81072027
0.32000002 54150.83905228  3389.57193097
0.32100002 53215.25286744  2570.29683520
0.32200002 52295.22060850  3040.44427014
0.32300002 51388.03877054  3246.69644326
0.32400002 50495.38132198  2707.81495161
0.32500002 49616.93682159  3396.77565565
0.32600002 48752.92452981  2630.46416756
0.32700002 47902.01843474  4006.52501160
0.32800002 47065.99432361  2787.24831583
0.32900002 46242.86726214  3204.63085302
0.33000002 45434.31765647  3158.13956985
0.33100002 44636.73510729  2445.20046497
0.33200002 43855.96321162  2409.66601277
0.33300002 43086.79489526  2158.64852648
0.33400002 42331.21904902  2127.14385795
0.33500002 41587.97810503  3563.25813278
0.33600002 40858.75087739  2478.49194560
0.33700002 40141.31270387  2035.16465047
0.33800002 39437.74385746  2205.95030713
0.33900002 38746.01626544  1976.04692312
0.34000002 38067.25561119  2141.85423840
0.34100002 37400.86245332  2686.13006861
0.34200002 36747.25885388  2079.71121333
0.34300002 36104.95166268  2049.31715343
0.34400002 35476.01924147  2019.47249096
0.34500002 34858.31900777  2532.80557906
0.34600002 34253.53859266  1782.89676819
0.34700002 33658.77625815  1932.68702428
0.34800002 33077.21201261  2597.38819631
0.34900002 32506.52655216  2047.91126978
0.35000002 31947.42882017  2018.43864846
0.35100002 31400.36110468  1989.52697382
0.35200002 30863.00297116  2451.29412708
0.35300002 30337.36501832  1772.00557465
0.35400002 29822.88720228  2858.52387373
0.35500002 29319.41177554  1722.22232927
0.35600002 28825.62185113  2006.69576021
0.35700002 28343.05605653  1522.02218233
0.35800002 27871.49405851  1951.14403398
0.35900002 27409.99534940  1924.18176467
0.36000002 26958.97233353  1751.79410521
0.36100002 26517.35229414  1583.88152755
0.36200002 26086.66761905  1562.46103105
0.36300002 25665.02790723  1681.57270813
0.36400002 25252.99572834  1797.38205610
0.36500002 24850.65866518  1773.59159294
0.36600002 24457.99957374  1481.05423434
0.36700002 24074.12792001  1328.89192413
0.36800002 23701.05767324  1443.03896479
0.36900002 23335.94752552  1554.17417882
0.37000002 22979.52004227  1534.57242111
0.37100002 22631.73575784  1767.99128115
0.37200002 22293.60257072  1621.52525979
0.37300002 21963.52043573  1601.79962126
0.37400002 21641.85453535  1704.29612539
0.37500002 21328.95768422  1323.24859741
0.37600002 21024.52070663  1307.83037251
0.37700002 20727.44271343  1292.77066328
0.37800002 20438.16920803  1161.90997452
0.37900002 20157.54070188  2068.16377399
0.38000002 19884.52387768  1363.68071213
0.38100002 19618.09349488  1348.94017261
0.38200002 19360.16695826  1445.91413778
0.38300002 19108.92283984  1540.94361080
0.38400002 18865.55600368  1307.38309299
0.38500002 18628.31676396  1617.86938760
0.38600002 18399.00344707  1281.67464084
0.38700002 18176.07760482  1375.20209673
0.38800002 17959.85703621  1047.95770771
0.38900002 17749.81827661  1142.20086021
0.39000002 17547.34301069  1749.55791777
0.39100002 17350.30309362  1428.27701833
0.39200002 17159.96374996  1618.52785758
0.39300002 16975.48533316  1003.25123072
0.39400002 16798.19258139  1094.82225336
0.39500002 16625.55514404  1086.31382458
0.39600002 16458.92753667  1078.14209937
0.39700002 16297.86757471  1362.17583643
0.39800002 16142.80002522  1449.21994093
0.39900002 15992.75725300  1055.52202871
0.40000002 15847.94777007  1239.23033459
0.40100002 15708.78007277  1136.68737992
0.40200002 15574.78298355  1318.09394635
0.40300002 15445.23113106  1310.37347124
0.40400002 15320.99093348  1023.82526764
0.40500002 15201.78539324  925.78877431
0.40600002 15087.03127812  1197.38229412
0.40700002 14976.90703157  1008.24542914
0.40800002 14871.37326652  1186.06643107
0.40900002 14769.98438056  999.18949069
0.41000002 14673.37269906  995.07481674
0.41100002 14580.65755903  1261.51855178
0.41200002 14491.70458815  1256.86559848
0.41300002 14407.50534867  984.17673700
0.41400002 14326.68873615  891.83641608
0.41500002 14249.89477823  1067.03217155
0.41600002 14176.34586916  975.40352375
0.41700002 14106.74010451  1326.73896970
0.41800002 14041.67125652  1235.52671241
0.41900002 13978.02286993  1144.80012729
0.42000002 13918.94673381  878.98152789
0.42100002 13863.65217898  965.32614696
0.42200002 13811.30035078  1051.59245854
0.42300002 13761.48772084  1050.27679262
0.42400002 13714.71081128  1311.46928347
0.42500002 13671.39632377  960.96249313
0.42600002 13629.85832219  1309.48870036
0.42700002 13592.60466691  1134.43883926
0.42800002 13556.98230271  1395.82696403
0.42900002 13525.15296365  1134.08412974
0.43000002 13495.26706975  872.46905740
0.43100002 13466.94746128  1134.45570790
0.43200002 13442.11998838  1309.59860193
0.43300002 13419.56475375  960.97507755
0.43400002 13399.07192612  1224.00527845
0.43500002 13380.71329944  1312.64803688
0.43600002 13364.82840300  1576.91617800
0.43700002 13350.48080135  1052.55195626
0.43800002 13338.04612930  878.31037924
0.43900002 13328.25070584  967.63104710
0.44000002 13319.85365606  969.21919721
0.44100002 13313.56980869  970.95869216
0.44200002 13308.80822575  1061.24441821
0.44300002 13305.97222480  1595.12002590
0.44400002 13304.85144135  888.09887580
0.44500002 13304.22986034  1068.06362380
0.44600002 13305.66762487  1249.00307914
0.44700002 13309.42362721  983.83264115
0.44800002 13313.11101393  986.30187621
0.44900002 13319.91982355  989.00409377
0.45000002 13327.10012899  1262.20971304
0.45100002 13335.34421144  1446.61820862
0.45200002 13345.12128104  906.80103402
0.45300002 13355.58309328  1546.17592799
0.45400002 13367.72003392  1094.81632266
0.45500002 13380.76535884  1372.86659088
0.45600002 13394.69350842  1101.84754022
0.45700002 13409.60617500  1105.48798546
0.45800002 13425.11042284  1109.18267570
0.45900002 13441.55787840  1020.21429132
0.46000002 13459.60400579  1023.80482722
0.46100002 13477.47548922  1120.78691480
0.46200002 13496.72597409  1124.81719599
0.46300002 13516.78240428  1128.92171991
0.46400002 13536.73437362  944.18726731
0.46500002 13557.87658213  1232.00430341
0.46600002 13579.31434367  1046.35411634
0.46700002 13601.06983247  1050.27466224
0.46800002 13624.39643079  1341.86686807
0.46900002 13647.08104957  1058.33118556
0.47000002 13670.53034446  965.82301461
0.47100002 13694.54167813  1260.44567580
0.47200002 13718.99166939  1070.69875559
0.47300002 13743.95280621  977.19509084
0.47400002 13768.48796168  1275.30625790
0.47500002 13793.75836026  1083.36183296
0.47600002 13819.70640153  988.80003990
0.47700002 13845.11467871  1786.85058513
