# SAXS profile: number of points = 501, q_min = 0, q_max = 0.5, delta_q = 0.001
#    q    intensity    error
0.00000000 1682732.95097188 302.89193117
0.00100000 1682645.79247567 757.19062460
0.00200000 1682384.29634746 757.07295733
0.00300000 1681948.66542046 1211.00308224
0.00400000 1681338.79419825 1261.00414356
0.00500000 1680555.32747741 2419.99976735
0.00600000 1679598.11273743 2292.65151723
0.00700000 1678467.89240181 2416.99386551
0.00800000 1677164.45463590 2490.58932029
0.00900000 1675689.24937460 2764.88737966
0.01000000 1674041.60497747 3867.03627447
0.01100000 1672223.17082041 3311.00202238
0.01200000 1670233.76609656 3582.65158535
0.01300000 1668074.82639464 4553.84447690
0.01400000 1665746.49278164 3747.92977491
0.01500000 1663250.28728888 4390.98095397
0.01600000 1660586.00478240 5504.84285194
0.01700000 1657755.69919193 4475.94058860
0.01800000 1654759.95345030 6602.49251136
0.01900000 1651599.77530265 6441.23941433
0.02000000 1648275.84059018 6230.48295927
0.02100000 1644791.06665102 7598.93507245
0.02200000 1641143.89909185 5661.94670910
0.02300000 1637337.67428377 6483.85748530
0.02400000 1633372.83534679 7962.69293539
0.02500000 1629251.84889961 6989.49075099
0.02600000 1624974.99748177 9871.72356122
0.02700000 1620544.41069881 9528.80157134
0.02800000 1615960.50442326 7029.42851661
0.02900000 1611226.60113202 7250.52003800
0.03000000 1606343.46096724 8216.44718052
0.03100000 1601312.52195000 9992.19059674
0.03200000 1596135.19446223 8690.95653414
0.03300000 1590815.60206156 10547.10792789
0.03400000 1585352.14226429 9987.71895710
0.03500000 1579749.03654151 10236.77422950
0.03600000 1574006.82764479 9609.31212685
0.03700000 1568128.70639796 11619.83425180
0.03800000 1562116.14870364 9138.37989284
0.03900000 1555971.59822130 16804.49403901
0.04000000 1549695.33464713 10483.68942469
0.04100000 1543291.32954507 14584.10374042
0.04200000 1536761.18909247 11894.53215540
0.04300000 1530106.77875344 12118.44625024
0.04400000 1523330.83423456 14395.47705207
0.04500000 1516435.82864077 12556.08924456
0.04600000 1509422.29001548 11705.57040323
0.04700000 1502294.33888323 10816.51974301
0.04800000 1495053.66238955 17581.83188775
0.04900000 1487702.81736761 14505.10314451
0.05000000 1480243.50160199 12456.24964602
0.05100000 1472679.95496135 12635.59460219
0.05200000 1465011.27764908 17470.26030010
0.05300000 1457242.70131707 11803.66643093
0.05400000 1449375.61131283 16740.28909133
0.05500000 1441413.49072204 15740.23605296
0.05600000 1433356.95230496 13480.72276549
0.05700000 1425211.19869741 19838.94081192
0.05800000 1416975.52480669 12540.23398007
0.05900000 1408653.98985848 13945.67515094
0.06000000 1400250.25936199 21780.89380195
0.06100000 1391765.94969093 15532.10872439
0.06200000 1383203.42783146 14378.40030441
0.06300000 1374566.53047854 17154.59110244
0.06400000 1365854.19539996 14648.78693074
0.06500000 1357073.02906900 17465.53070112
0.06600000 1348224.50499205 18969.51967279
0.06700000 1339309.64479301 17759.24672107
0.06800000 1330332.88811900 19276.52445116
0.06900000 1321297.61561385 13873.62561349
0.07000000 1312203.22325115 20962.44747308
0.07100000 1303054.47874036 18294.88573841
0.07200000 1293853.24147100 21251.54048673
0.07300000 1284603.02572564 19962.73195514
0.07400000 1275306.75418208 15781.92182261
0.07500000 1265964.78026133 25977.59850860
0.07600000 1256580.83369099 20318.91303335
0.07700000 1247158.51146335 17510.10632197
0.07800000 1237698.99107234 22000.10059803
0.07900000 1228204.34821465 22107.67930480
0.08000000 1218679.65717689 26652.52535276
0.08100000 1209125.91225005 16359.47436030
0.08200000 1199544.08278295 16427.75698459
0.08300000 1189938.20620816 20990.51094264
0.08400000 1180310.88912705 21068.55035985
0.08500000 1170664.17212917 22652.35279412
0.08600000 1161000.81638659 16666.16750173
0.08700000 1151322.77694106 15197.46136926
0.08800000 1141631.91321676 18288.94410865
0.08900000 1131931.71349624 16809.18673494
0.09000000 1122224.00235659 18382.03002211
0.09100000 1112511.20209752 19958.45190330
0.09200000 1102794.52984744 21537.57817990
0.09300000 1093078.78760408 18494.89395538
0.09400000 1083362.51984588 18525.49996002
0.09500000 1073650.14991967 15460.56288553
0.09600000 1063943.10937020 17028.41026594
0.09700000 1054246.47130464 17047.16624243
0.09800000 1044558.58881508 20165.20450520
0.09900000 1034884.06535374 20180.24022332
0.10000000 1025221.78557753 17085.32186012
0.10100000 1015576.10348694 17092.14662556
0.10200000 1005948.93110786 17096.10288832
0.10300000 996341.10896189 18651.50643715
0.10400000 986755.77010872 15541.40411036
0.10500000 977196.12914759 15537.41918447
0.10600001 967658.86548813 17084.01807406
0.10700001 958151.23317909 23283.07606190
0.10800001 948671.27418516 21715.08648805
0.10900001 939223.26228216 17046.90301274
0.11000001 929807.95857667 20125.69421070
0.11100001 920426.21311551 17009.47721907
0.11200001 911081.07619130 20075.67245898
0.11300001 901772.26460598 15420.30645076
0.11400001 892503.16649074 16935.24838155
0.11500001 883274.90712911 15368.98410774
0.11600001 874088.32172593 18408.30092242
0.11700001 864945.35983759 21433.34702618
0.11800001 855846.21714739 18332.22683471
0.11900001 846792.83633791 19814.95330362
0.12000001 837786.48962145 21288.15570406
0.12100001 828830.01679278 16684.34902401
0.12200001 819922.65844770 18153.08851325
0.12300001 811066.84523059 16594.42843525
0.12400001 802262.49093465 21059.39137930
0.12500001 793510.67300376 16497.08766910
0.12600001 784814.69595095 14950.72066240
0.12700001 776173.25647166 23844.04356249
0.12800001 767587.81324312 19308.67235213
0.12900001 759059.98146610 17762.00440347
0.13000001 750590.27234756 16224.00950151
0.13100001 742178.66237205 16164.65202843
0.13200001 733826.65815758 19031.79527648
0.13300001 725536.51742326 17499.94162525
0.13400001 717306.38038473 14525.45488760
0.13500001 709139.35680809 18806.37662924
0.13600001 701033.76867616 18728.11801323
0.13700001 692992.42109992 21517.41568977
0.13800001 685013.57892755 15710.78717356
0.13900001 677100.62723253 15641.02522667
0.14000001 669252.17883900 16985.62109999
0.14100001 661469.00816122 18316.07769982
0.14200001 653751.26562688 14022.96530909
0.14300001 646101.17364580 18142.52181171
0.14400001 638515.09357751 15276.47433443
0.14500001 630998.12782168 20728.28947674
0.14600001 623547.57003768 21998.75930871
0.14700001 616166.40900656 15046.78441780
0.14800001 608850.37178286 16329.36774161
0.14900001 601603.82863250 14889.69546116
0.15000001 594424.61425090 17502.83359245
0.15100001 587314.16318200 16068.91626287
0.15200001 580272.60700427 13317.25695915
0.15300001 573300.53008213 18540.54001777
0.15400001 566394.51315614 15802.40766279
0.15500001 559559.03342245 20949.89120002
0.15600001 552789.77156369 18225.47962860
0.15700001 546092.59790714 12942.39518124
0.15800001 539460.16501823 12866.12554295
0.15900001 532898.51999037 14068.52159179
0.16000001 526402.79857047 17797.67945976
0.16100001 519978.34562271 16426.11671360
0.16200001 513620.74570003 12558.02782518
0.16300001 507330.49178809 17472.46296202
0.16400001 501108.37698086 17363.40608211
0.16500001 494952.95203666 17254.06072258
0.16600001 488865.88927451 17144.52754630
0.16700001 482844.05522466 17034.73907262
0.16800001 476888.29932518 15715.85464631
0.16900001 471000.96355953 14412.63016546
0.17000001 465178.23338775 13125.00447479
0.17100001 459420.77906289 15408.97365740
0.17200001 453729.09650086 17661.40591532
0.17300001 448102.10131697 14034.55847602
0.17400001 442539.86944853 17425.00818245
0.17500001 437041.16898426 14999.25362792
0.17600001 431604.65645519 11459.10417009
0.17700001 426233.08108134 12518.46618261
0.17800001 420922.61488881 13562.12729229
0.17900001 415674.86734760 12345.54414335
0.18000001 410488.83347928 15602.68129754
0.18100001 405365.39830474 12173.12348611
0.18200001 400299.95950409 15383.52817043
0.18300001 395295.79720448 14183.21387370
0.18400001 390350.61227217 10832.23000227
0.18500001 385466.10598513 11829.95535156
0.18600001 380638.32671135 14947.66779613
0.18700001 375868.14610835 10599.48222103
0.18800001 371155.28000361 21044.50537048
0.18900001 366501.16746641 11489.81214294
0.19000001 361899.02654828 14515.77064070
0.19100001 357357.04161697 11321.07161335
0.19200001 352866.81689873 15323.24224787
0.19300001 348433.22029708 11153.34790873
0.19400001 344051.34817298 13082.55313248
0.19500001 339723.52340095 11985.44647196
0.19600001 335447.97710695 12886.23464952
0.19700001 331224.18128508 15739.77383849
0.19800001 327052.01690985 13667.50443257
0.19900001 322930.91425963 10656.72067420
0.20000001 318858.15087547 17304.43266584
0.20100001 314836.63161959 11447.46046672
0.20200001 310862.24639122 15145.20936000
0.20300001 306937.62953517 10331.52109847
0.20400001 303059.89614607 10251.00147166
0.20500001 299228.83790388 9246.17152827
0.20600001 295444.20889030 11008.25174359
0.20700001 291705.79943499 10921.46564709
0.20800001 288010.98228448 9932.05919357
0.20900001 284363.35158248 9853.19059811
0.21000001 280757.42224451 10663.16740092
0.21100001 277195.49660405 12340.74409220
0.21200001 273675.89033651 10492.73413154
0.21300001 270197.74673291 9540.68288818
0.21400001 266761.94561132 12044.30241376
0.21500001 263368.08922049 10239.75179300
0.21600001 260013.26788226 8463.43226971
0.21700001 256698.54264675 12591.06411212
0.21800001 253423.21922294 10822.43908861
0.21900001 250185.63778620 10732.96436850
0.22000001 246985.80886257 8187.57995092
0.22100001 243825.21303113 8119.37997785
0.22200001 240701.50560892 10466.90546633
0.22300001 237612.93609133 10378.93353924
0.22400001 234559.60469091 7916.38703266
0.22500001 231544.42193642 10204.16315727
0.22600001 228561.76834515 10117.28715423
0.22700001 225615.75959117 10030.87714577
0.22800001 222702.06764896 13004.68785535
0.22900001 219821.22380289 9100.59909582
0.23000001 216974.30413396 9773.60799193
0.23100001 214160.56920688 11179.18224129
0.23200001 211376.99222216 10342.67671857
0.23300001 208625.68013596 8787.31406292
0.23400001 205906.16252785 9435.65034410
0.23500001 203215.34322972 10071.35288680
0.23600001 200556.39732320 7842.75828826
0.23700001 197926.40208507 8479.16746637
0.23800001 195326.02024157 9103.16960393
0.23900001 192754.10608392 9714.80740614
0.24000001 190210.66226649 7563.72734279
0.24100001 187696.55249084 10220.07776655
0.24200001 185209.47572698 8776.15142245
0.24300001 182749.80543597 6688.64319535
0.24400001 180316.89073589 10602.63367681
0.24500001 177910.67511290 6564.90422221
0.24600001 175530.74517253 8454.43874117
0.24700001 173177.10358367 7730.62626968
0.24800001 170849.04366445 6381.21208274
0.24900001 168545.32009397 10112.71968405
0.25000001 166267.69088454 6885.97674375
0.25100001 164013.36924020 8059.61734576
0.25200001 161785.11896007 6753.72011050
0.25300001 159580.69468443 6080.02475513
0.25400001 157399.36907888 6622.57876732
0.25500001 155241.37373662 6557.39593688
0.25600001 153107.23205346 10033.88292735
0.25700001 150995.30058426 8180.92577272
0.25800001 148906.86699670 6363.53526219
0.25900001 146840.67700336 6299.46534150
0.26000001 144796.74185181 7936.30979641
0.26100001 142773.93166787 8416.52367006
0.26200001 140773.96748348 6108.88660800
0.26300001 138794.58467049 8244.39871953
0.26400001 136836.88038785 5439.26625279
0.26500001 134900.78762521 6997.30418522
0.26600001 132984.38093397 5326.02470843
0.26700001 131089.87472362 7377.73849856
0.26800001 129216.19001760 6256.64821672
0.26900001 127361.12124174 7221.37591613
0.27000001 125527.53148745 5102.69439644
0.27100001 123713.19949719 6056.99853402
0.27200001 121920.12153112 5491.89213426
0.27300001 120145.68862857 7406.98205448
0.27400001 118388.89291300 5860.25047653
0.27500001 116654.32374291 4829.48923151
0.27600001 114936.53228793 6685.85839960
0.27700001 113239.28986958 4722.07861104
0.27800001 111559.91709583 7003.17412713
0.27900001 109900.56047847 5538.98851026
0.28000001 108258.08631889 5932.00212060
0.28100001 106635.08451536 4961.73071733
0.28200001 105030.87706094 4458.56094226
0.28300001 103444.33744198 6169.42057704
0.28400001 101875.56958742 5226.21696720
0.28500001 100325.32789595 6025.53947863
0.28600001 98792.58291939  4678.32298558
0.28700001 97277.60223536  5883.34966167
0.28800001 95779.48569624  4982.44908175
0.28900001 94300.94842228  4512.30059559
0.29000001 92838.10897658  4862.86037837
0.29100001 91393.39360494  5604.24316113
0.29200001 89965.74359124  3953.99461800
0.29300001 88555.29893469  5467.40441503
0.29400001 87161.21107367  4242.57214984
0.29500001 85785.19067256  4951.52144001
0.29600001 84425.30409165  3761.14747533
0.29700001 83082.10943629  4085.14751437
0.29800001 81755.48760043  4400.08055095
0.29900001 80446.14776043  4344.09218471
0.30000001 79152.41049970  5717.97040518
0.30100001 77876.31596701  4586.13646441
0.30200001 76614.64436217  3482.13575111
0.30300001 75370.90738374  3780.60489335
0.30400001 74142.90313219  4409.64937255
0.30500001 72930.65685827  4017.02076993
0.30600001 71733.59589479  3963.99869681
0.30700001 70553.63436981  4237.45148087
0.30800001 69388.97195570  5467.50430410
0.30900001 68240.13448187  3173.16640364
0.31000001 67107.36159404  4069.72613655
0.31100001 65988.93211864  3705.93860324
0.31200001 64886.75778877  3351.07676466
0.31300001 63799.43817809  3305.44904851
0.31400001 62728.41864529  4149.48508985
0.31500001 61671.67746530  2923.23765026
0.31600002 60630.48082430  4036.17129958
0.31700002 59604.24877479  3696.05964153
0.31800002 58592.91237733  4485.87358401
0.31900002 57596.54913881  2764.63448957
0.32000002 56615.18269975  3271.22541128
0.32100002 55647.83248179  4300.46469782
0.32200002 54696.24666137  3180.03993147
0.32300002 53757.48738335  4180.18241686
0.32400002 52833.76970334  3090.77567400
0.32500002 51924.48139723  3300.83943872
0.32600002 51029.69479281  3253.90864254
0.32700002 50148.37265919  3207.49006716
0.32800002 49281.92486948  2432.06310747
0.32900002 48428.62634405  4075.26909983
0.33000002 47590.19694104  2362.85339001
0.33100002 46763.12076524  2561.68387683
0.33200002 45952.66865445  3213.47027118
0.33300002 45154.20836648  2714.67113555
0.33400002 44369.71224377  2452.53596042
0.33500002 43597.52382457  2636.77836578
0.33600002 42839.68866965  2165.54636480
0.33700002 42093.86574392  4054.90227914
0.33800002 41362.20682239  3365.22930644
0.33900002 40642.36731214  2487.31299730
0.34000002 39935.92559989  2246.99496029
0.34100002 39241.87319094  2415.72982804
0.34200002 38560.97436437  2380.75467001
0.34300002 37891.43475507  1955.19812596
0.34400002 37235.73694439  2119.64442595
0.34500002 36591.18403688  2088.99079560
0.34600002 35959.83262471  1871.70937676
0.34700002 35338.80919196  2213.62311262
0.34800002 34731.18612505  2909.08428761
0.34900002 34134.59918026  2508.89315858
0.35000002 33549.90079554  1943.04259660
0.35100002 32977.29296539  1741.20115104
0.35200002 32414.76094781  1716.36167348
0.35300002 31864.12325778  2368.77903518
0.35400002 31324.81437301  1668.04644437
0.35500002 30796.82592393  1644.55058223
0.35600002 30278.65873716  1783.56447739
0.35700002 29771.79485655  1598.74545952
0.35800002 29276.24566216  2049.48367465
0.35900002 28791.02478417  2176.60157678
0.36000002 28316.50287340  2606.67579548
0.36100002 27851.46944361  2419.73577987
0.36200002 27397.69407511  1939.34586697
0.36300002 26953.13448723  1765.96945525
0.36400002 26518.41255548  1597.07147180
0.36500002 26093.53158045  1719.04194195
0.36600002 25678.61082391  1554.96835210
0.36700002 25272.66919265  1953.07196772
0.36800002 24877.76122367  2065.47622343
0.36900002 24490.95403738  1767.02241750
0.37000002 24113.11343109  1476.08430861
0.37100002 23744.15338849  1854.89335057
0.37200002 23385.04806580  1570.07220151
0.37300002 23034.08783609  1421.43362770
0.37400002 22691.80897328  1531.69717825
0.37500002 22358.48582409  1765.42612430
0.37600002 22033.81217734  1495.21456518
0.37700002 21716.80108192  1477.61121561
0.37800002 21407.81225175  1338.73760258
0.37900002 21107.66964665  1443.76467223
0.38000002 20815.25118939  1189.59166183
0.38100002 20529.60015606  1411.61537360
0.38200002 20252.76678208  1163.52150675
0.38300002 19982.73945299  1496.30760113
0.38400002 19720.89110722  1366.65781847
0.38500002 19465.29650845  1239.74479336
0.38600002 19217.94145306  1115.60155420
0.38700002 18976.95305016  1104.45871984
0.38800002 18743.08732234  1203.02511678
0.38900002 18515.47540654  1083.15536260
0.39000002 18295.75911171  1180.35095501
0.39100002 18081.47645924  1382.14812603
0.39200002 17874.24038661  1053.68652071
0.39300002 17672.96057946  1044.47201973
0.39400002 17479.23430590  1035.64468169
0.39500002 17290.30184593  1232.45277397
0.39600002 17107.57708177  1528.13439523
0.39700002 16930.57518820  1111.83092529
0.39800002 16759.68504730  1203.68063713
0.39900002 16594.09925669  1194.77520309
0.40000002 16433.98422321  1581.60671658
0.40100002 16279.66173562  1570.66183867
0.40200002 16130.71221154  1462.65239908
0.40300002 15986.41713354  1162.53230903
0.40400002 15847.62526373  1251.56626450
0.40500002 15713.99042161  1244.07668062
0.40600002 15584.99537168  951.46401252
0.40700002 15460.90521843  1987.03563282
0.40800002 15341.52255686  1035.32269880
0.40900002 15226.54486522  1030.07580894
0.41000002 15116.47940208  1118.31719915
0.41100002 15010.46201733  1205.94057561
0.41200002 14908.44948301  1015.93633816
0.41300002 14811.32186512  1195.71807083
0.41400002 14717.81430681  916.18398401
0.41500002 14628.50099846  1369.22775833
0.41600002 14542.55415574  1000.60048610
0.41700002 14460.81758872  997.36263635
0.41800002 14383.68319345  994.41598470
0.41900002 14308.24858027  1352.12955491
0.42000002 14237.61455516  899.10540176
0.42100002 14170.73977229  1166.11023112
0.42200002 14107.11310783  1253.13491675
0.42300002 14046.17247354  982.67027281
0.42400002 13988.44555173  1070.11613542
0.42500002 13934.25041944  1246.55810159
0.42600002 13882.18551216  1422.64643870
0.42700002 13834.38728632  1243.43478822
0.42800002 13788.50985521  1242.20691172
0.42900002 13746.55779616  1152.64892583
0.43000002 13706.70193832  886.13832230
0.43100002 13668.57223511  1328.58528421
0.43200002 13634.13568200  1062.64458541
0.43300002 13602.04753835  1062.59200405
0.43400002 13572.29448444  974.15148278
0.43500002 13544.75261549  885.82686303
0.43600002 13519.85028140  886.22622794
0.43700002 13496.62122259  975.40086198
0.43800002 13475.47234094  1242.30385398
0.43900002 13457.16421610  1065.80745642
0.44000002 13440.35138941  1066.89514385
0.44100002 13425.80393796  1246.18318058
0.44200002 13412.99782231  891.29374753
0.44300002 13402.11785976  1160.35541929
0.44400002 13393.23713168  893.99862091
0.44500002 13384.94832089  1074.54370212
0.44600002 13378.82635800  986.75538480
0.44700002 13375.19549289  988.69449769
0.44800002 13371.56823091  1170.74771194
0.44900002 13371.24567815  1083.07095126
0.45000002 13371.51467046  1175.95791343
0.45100002 13372.99560558  1088.02697403
0.45200002 13376.03700566  908.90175761
0.45300002 13379.88075321  1093.40390697
0.45400002 13385.56547344  913.56488686
0.45500002 13392.28781074  916.03252967
0.45600002 13400.04085459  1377.85926617
0.45700002 13408.92398667  1289.67037016
0.45800002 13418.47125115  1108.63414731
0.45900002 13429.09030549  1482.57163999
0.46000002 13441.49557622  1208.32330209
0.46100002 13453.65765509  1025.57237165
0.46200002 13467.56816632  1028.85491883
0.46300002 13482.25767547  1126.03821442
0.46400002 13497.02516443  1317.98456977
0.46500002 13513.08888896  944.56495811
0.46600002 13529.49505184  1042.51529063
0.46700002 13546.37605119  1236.24233702
0.46800002 13564.96608063  1336.01357260
0.46900002 13582.99673048  1053.36144637
0.47000002 13601.91110382  1441.46259755
0.47100002 13621.43075828  1157.27681207
0.47200002 13641.61088922  1451.80850770
0.47300002 13662.36135705  1262.81212009
0.47400002 13682.76489621  1267.36615858
0.47500002 13704.01571169  1076.31344501
0.47600002 13726.08629179  1571.36243316
0.47700002 13747.68078404  1084.27963483
