# SAXS profile: number of points = 501, q_min = 0, q_max = 0.5, delta_q = 0.001
#    q    intensity    error
0.00000000 1664650.74656090 299.63713438
0.00100000 1664564.07465570 749.05385138
0.00200000 1664304.03940977 748.93684145
0.00300000 1663870.84421083 1297.81930472
0.00400000 1663264.37789294 1496.93799698
0.00500000 1662485.28187398 1645.86049420
0.00600000 1661533.42221287 1919.07118079
0.00700000 1660409.52185818 2590.23896175
0.00800000 1659113.37811755 2687.76378603
0.00900000 1657646.44029126 2735.11674340
0.01000000 1656008.02816813 3005.65470091
0.01100000 1654199.74628559 3870.82757484
0.01200000 1652221.52833331 3866.19854581
0.01300000 1650074.67974960 4158.18837636
0.01400000 1647759.44516451 3707.45891598
0.01500000 1645277.24577440 7897.33113138
0.01600000 1642627.96772619 5445.31195644
0.01700000 1639813.57456856 5312.99621994
0.01800000 1636834.69332426 6530.97072024
0.01900000 1633692.34931453 7841.72363055
0.02000000 1630387.20645121 6162.86391917
0.02100000 1626922.14553932 7516.38065317
0.02200000 1623295.60226726 7840.51811516
0.02300000 1619510.93646752 7579.31152767
0.02400000 1615568.59731979 7270.05901944
0.02500000 1611471.06755373 6284.73745049
0.02600000 1607218.51557213 7160.15881437
0.02700000 1602813.24663622 7404.99753862
0.02800000 1598255.46315823 8342.89390029
0.02900000 1593548.61605636 10039.35674210
0.03000000 1588693.50269180 11819.88020333
0.03100000 1583691.39671226 9122.06286480
0.03200000 1578543.85907035 9376.55095474
0.03300000 1573254.90882299 12837.76064782
0.03400000 1567822.88681760 13992.81991048
0.03500000 1562252.24839210 10967.01129015
0.03600000 1556543.32462833 14685.98694656
0.03700000 1550699.42280845 8838.98711879
0.03800000 1544721.73858215 9036.62258892
0.03900000 1538613.08753113 12001.18263852
0.04000000 1532373.40589564 12251.32594785
0.04100000 1526007.03191258 10575.22922149
0.04200000 1519515.16023098 9800.87323818
0.04300000 1512899.88345590 11982.16763316
0.04400000 1506164.08428703 13216.59045342
0.04500000 1499309.83828898 12414.28603786
0.04600000 1492337.81612523 11573.08030205
0.04700000 1485252.29761478 12832.58044821
0.04800000 1478054.85241265 16295.55550605
0.04900000 1470747.97442995 14339.79341817
0.05000000 1463333.52766096 13433.40240947
0.05100000 1455815.37230009 13626.43251950
0.05200000 1448193.06677519 11513.13541739
0.05300000 1440471.42712118 12834.60101397
0.05400000 1432652.13387450 21274.88518017
0.05500000 1424738.39251354 14361.36366648
0.05600000 1416731.30062538 12113.05318559
0.05700000 1408635.35616108 12255.12817065
0.05800000 1400450.36607613 18590.97947772
0.05900000 1392180.17635178 16288.50882408
0.06000000 1383828.63858680 18993.04895194
0.06100000 1375396.94507138 12791.19218691
0.06200000 1366887.88830556 14208.80026311
0.06300000 1358305.05665532 15647.67498428
0.06400000 1349647.53279022 18422.68968416
0.06500000 1340921.81039591 19912.68981585
0.06600000 1332129.24192418 17404.26936006
0.06700000 1323271.01976200 17546.57454321
0.06800000 1314351.66053686 17684.60242032
0.06900000 1305374.10700081 13706.42876523
0.07000000 1296338.28907042 22089.60548018
0.07100000 1287248.75435047 23633.88823683
0.07200000 1278107.04387651 22392.43645773
0.07300000 1268917.17972752 19718.97389691
0.07400000 1259681.58491061 14171.41849438
0.07500000 1250401.13153071 17105.48828112
0.07600000 1241079.07422848 17201.35677522
0.07700000 1231719.32922176 17293.34019313
0.07800000 1222322.71033370 15932.97727640
0.07900000 1212891.59982754 16010.16986866
0.08000000 1203431.05789374 16083.85684326
0.08100000 1193941.68242702 14685.48338287
0.08200000 1184424.92033308 19169.91823514
0.08300000 1174884.54253236 25166.02808214
0.08400000 1165323.17388557 16343.65828089
0.08500000 1155742.87593571 23854.53407917
0.08600000 1146146.45259320 17948.65429033
0.08700000 1136535.66163315 21003.18001324
0.08800000 1126912.57979772 18053.14037620
0.08900000 1117280.58687702 19608.27522069
0.09000000 1107641.35384217 19655.09674724
0.09100000 1097997.56358832 21213.31392515
0.09200000 1088350.26278177 15182.48687918
0.09300000 1078704.20380120 16730.70298717
0.09400000 1069058.11175078 16757.48668925
0.09500000 1059416.19225734 16781.15327412
0.09600000 1049779.92248282 18329.15830816
0.09700000 1040154.53016831 15290.27231231
0.09800000 1030538.15787862 21424.88930965
0.09900000 1020935.42829578 18376.83857345
0.10000000 1011345.26057981 16854.06956016
0.10100000 1001772.03579388 22990.66930276
0.10200000 992217.38565181 15329.75932938
0.10300000 982682.70184490 16862.83595690
0.10400000 973170.75783474 19925.67220407
0.10500000 963684.69803445 21451.62238753
0.10600001 954221.05842982 15315.24870844
0.10700001 944787.38688314 24488.89022040
0.10800001 935381.84911184 16822.84334799
0.10900001 926008.43218319 16807.05383516
0.11000001 916667.75091449 18315.02252535
0.11100001 907361.03170217 18292.39926020
0.11200001 898090.71365223 18267.16597565
0.11300001 888857.44792286 16719.40938259
0.11400001 879663.73370349 18209.04014502
0.11500001 870510.99182558 16661.58116810
0.11600001 861400.33912482 15117.57666355
0.11700001 852333.30720476 15086.30024801
0.11800001 843310.30079144 21074.32540934
0.11900001 834333.02159972 18021.59411540
0.12000001 825403.05881955 16479.17284558
0.12100001 816523.04219589 23907.79580175
0.12200001 807692.17405180 17882.30557597
0.12300001 798913.04020932 16345.76157280
0.12400001 790185.69075428 22223.97359960
0.12500001 781510.47541658 16247.60354951
0.12600001 772891.49792973 17668.30047527
0.12700001 764326.98067226 16142.58659254
0.12800001 755818.51245664 17550.10668637
0.12900001 747367.59867525 16031.03574716
0.13000001 738975.05651448 18877.11870843
0.13100001 730640.63058688 17360.02220105
0.13200001 722365.76115636 20175.67666019
0.13300001 714152.72559530 14354.47046118
0.13400001 705999.95949469 25733.69973681
0.13500001 697909.87754934 18508.57082525
0.13600001 689881.55804399 15594.77335489
0.13700001 681917.16294582 15527.25453244
0.13800001 674015.51704763 15458.54661245
0.13900001 666179.71785407 15388.75220813
0.14000001 658408.07901444 13925.33152788
0.14100001 650701.89113083 16631.94112172
0.14200001 643061.12444224 15173.02794686
0.14300001 635487.69587970 16471.84185414
0.14400001 627978.55499734 19121.94790165
0.14500001 620538.27341501 17666.72547750
0.14600001 613164.38119609 17576.35781614
0.14700001 605859.65059255 14795.09336545
0.14800001 598620.14112010 14717.07686377
0.14900001 591449.87067922 14638.38498996
0.15000001 584346.76998613 18529.63695054
0.15100001 577312.59145532 21060.36433002
0.15200001 570346.74920992 22252.07947043
0.15300001 563450.46211677 16920.41817582
0.15400001 556620.08790218 18117.98471622
0.15500001 549860.33380891 16726.75214385
0.15600001 543166.45535579 12791.57062733
0.15700001 536544.34739729 15259.32196017
0.15800001 529986.91915395 13904.20748026
0.15900001 523500.43986431 17589.61560968
0.16000001 517079.34029190 13736.21332324
0.16100001 510729.29530352 13651.79470789
0.16200001 504446.01292782 13567.07615814
0.16300001 498230.02580046 12256.45921329
0.16400001 492081.87010531 12179.02686007
0.16500001 486000.35603490 14521.69132391
0.16600001 479986.79821903 15630.77082198
0.16700001 474038.48070253 11945.77027772
0.16800001 468155.84963819 15428.07675328
0.16900001 462341.35411876 15326.61661273
0.17000001 456591.41899868 11711.57045033
0.17100001 450906.33465075 16286.73757667
0.17200001 445287.02054742 12710.71860176
0.17300001 439731.97632939 14920.10666145
0.17400001 434241.32372549 13678.60234334
0.17500001 428814.21099784 12452.76527549
0.17600001 423448.94459378 17988.11201591
0.17700001 418148.40817588 17863.30084097
0.17800001 412908.81788772 12195.26251232
0.17900001 407731.66835891 11008.75556567
0.18000001 402615.81866029 18582.73398802
0.18100001 397562.25907913 13024.14022265
0.18200001 392566.50722594 16163.92669858
0.18300001 387631.63410561 14978.08704940
0.18400001 382755.68205557 13807.91188245
0.18500001 377940.03683886 13707.88578373
0.18600001 373180.68976024 13608.03449500
0.18700001 368478.75993822 14547.54212966
0.18800001 363833.82909296 11346.15849633
0.18900001 359247.39730423 10238.55130692
0.19000001 354712.70420868 10162.51945575
0.19100001 350237.70117588 14121.58477866
0.19200001 345814.35763666 16018.12180261
0.19300001 341447.06154054 11923.33195240
0.19400001 337131.39688826 11833.31258995
0.19500001 332869.39489157 10764.99673949
0.19600001 328659.53758950 14567.83469208
0.19700001 324500.75778830 11565.20755412
0.19800001 320393.37138829 11476.49110549
0.19900001 316336.71113201 10439.11196071
0.20000001 312328.35521451 11300.04042571
0.20100001 308370.58606051 9343.62919924
0.20200001 304459.85644393 10197.88337358
0.20300001 300598.56511566 11037.97983275
0.20400001 296783.75404989 9126.10086839
0.20500001 293015.14202294 10865.00197977
0.20600001 289292.55367322 10779.04105937
0.20700001 285616.18363460 8911.22535063
0.20800001 281982.87017643 11492.21241728
0.20900001 278396.57180644 10523.39091174
0.21000001 274851.41621066 14788.38114830
0.21100001 271349.93082824 8628.92820826
0.21200001 267890.59262197 11982.74677446
0.21300001 264472.10702847 9338.51054066
0.21400001 261095.89779993 9262.37741235
0.21500001 257761.10397555 15867.77431092
0.21600001 254464.95286626 11595.96845036
0.21700001 251208.65540963 8214.52342027
0.21800001 247991.30123644 12219.77194618
0.21900001 244811.41680396 9694.53256381
0.22000001 241669.09877545 9613.59720384
0.22100001 238565.43816513 9533.07535984
0.22200001 235498.23945222 10240.64142680
0.22300001 232465.99236273 8591.94348400
0.22400001 229468.72937676 10842.39797575
0.22500001 226508.92563795 9214.38353068
0.22600001 223581.39655432 9135.53629521
0.22700001 220690.11229152 9057.12263675
0.22800001 217830.96538122 7482.49401469
0.22900001 215004.17190646 9642.93756603
0.23000001 212211.00435789 13970.91213261
0.23100001 209450.73136696 8017.77437591
0.23200001 206720.26375242 7947.36091582
0.23300001 204021.39702483 9309.49678653
0.23400001 201354.06246948 7807.50414151
0.23500001 198715.23035879 10551.77923111
0.23600001 196107.76752475 9063.12090482
0.23700001 193528.98560872 9672.57915822
0.23800001 190979.42693151 8215.93533520
0.23900001 188457.96006822 7462.93557169
0.24000001 185964.62370682 7394.88361148
0.24100001 183500.11000087 6661.05430811
0.24200001 181062.52410855 9239.62104231
0.24300001 178651.66490869 8500.24661844
0.24400001 176267.36136210 6477.82583648
0.24500001 173909.45254068 8342.43683301
0.24600001 171577.34050469 8899.71707298
0.24700001 169271.11149367 10075.01703271
0.24800001 166990.20544306 7484.50136202
0.24900001 164733.33610170 8648.50055448
0.25000001 162502.05854330 8565.48391104
0.25100001 160293.80897743 7876.83814580
0.25200001 158111.12467983 6600.34921202
0.25300001 155952.13824622 5941.77674829
0.25400001 153815.66948417 7060.13956335
0.25500001 151702.22841032 6990.43901588
0.25600001 149612.33737663 7497.82264237
0.25700001 147544.34829367 5709.96654912
0.25800001 145499.22660410 6217.90974312
0.25900001 143476.18759379 6155.12873900
0.26000001 141475.09774570 6092.62537269
0.26100001 139494.50106299 7126.77439652
0.26200001 137536.72995110 8681.31880529
0.26300001 135599.05040169 6980.63944499
0.26400001 133682.55187832 6376.65802633
0.26500001 131787.35388746 8413.30507028
0.26600001 129911.66256105 8324.73973083
0.26700001 128057.25790146 5662.69221236
0.26800001 126223.46044684 6111.74024405
0.26900001 124407.91784490 6046.22509338
0.27000001 122613.52339760 6479.51195057
0.27100001 120838.03515762 4930.19206774
0.27200001 119083.27464722 7802.33652412
0.27300001 117347.02382107 5305.25919802
0.27400001 115627.98958932 6677.51671479
0.27500001 113930.88908029 5188.41293426
0.27600001 112250.04629674 5596.78757323
0.27700001 110589.53872568 4611.58398311
0.27800001 108946.31203383 5927.22438672
0.27900001 107323.03054560 5859.83774512
0.28000001 105716.28035249 4901.53557053
0.28100001 104128.54163414 4404.63751959
0.28200001 102559.26459034 5224.36918550
0.28300001 101007.30405727 4302.91135650
0.28400001 99472.73303551  5953.44335396
0.28500001 97956.43089075  6303.49662617
0.28600001 96457.25795570  5398.23069700
0.28700001 94975.50097414  4923.53020354
0.28800001 93510.22130629  6080.50242825
0.28900001 92064.17120303  4805.74996427
0.29000001 90633.57602826  4351.77135898
0.29100001 89220.64673399  5080.22386550
0.29200001 87824.61807075  5403.84900569
0.29300001 86445.30496096  4574.68575508
0.29400001 85082.07202392  6023.81098444
0.29500001 83736.55276434  4089.69343060
0.29600001 82406.88220571  4038.34945366
0.29700001 81093.45375328  4712.34082068
0.29800001 79796.44198739  4652.53177032
0.29900001 78516.26028198  4239.87825594
0.30000001 77251.29047805  4883.05430228
0.30100001 76003.75690361  3787.26738580
0.30200001 74770.24652947  4417.80022534
0.30300001 73554.41251453  3689.48950639
0.30400001 72354.01272713  3972.23548677
0.30500001 71169.01303440  3919.98942352
0.30600001 69998.83383472  3868.13574083
0.30700001 68845.52643988  4134.86251374
0.30800001 67707.04084576  3765.86579013
0.30900001 66584.17198793  3405.78055843
0.31000001 65477.06933370  4887.20868645
0.31100001 64384.02284342  3314.48965290
0.31200001 63306.89631482  3269.48481497
0.31300001 62244.26451348  3224.87549713
0.31400001 61197.54672870  3469.90106381
0.31500001 60164.91519429  3136.99882676
0.31600002 59147.57373560  3093.71399072
0.31700002 58144.78075755  3328.20740815
0.31800002 57156.65309369  3281.93517603
0.31900002 56183.20911796  2696.79416535
0.32000002 55224.32332409  2659.05129396
0.32100002 54279.23613749  2883.85595254
0.32200002 53349.71848706  3360.23217802
0.32300002 52432.74039732  3312.70069516
0.32400002 51530.37801362  3014.52725654
0.32500002 50642.14645491  2476.40107891
0.32600002 49768.19934934  3661.69544052
0.32700002 48907.30887171  3128.11162356
0.32800002 48061.22729982  4032.09685525
0.32900002 47227.87722338  2337.78003326
0.33000002 46409.07187969  3225.89473912
0.33100002 45601.30833545  2498.03978891
0.33200002 44810.00339244  2685.91173053
0.33300002 44030.51022919  3308.89300042
0.33400002 43264.42052515  2608.84468121
0.33500002 42510.68530004  3213.80796088
0.33600002 41770.73713429  3167.26629320
0.33700002 41042.70117099  3745.55708624
0.33800002 40328.51179121  2460.84590604
0.33900002 39625.87338171  2425.10356581
0.34000002 38936.39787163  2589.07589909
0.34100002 38259.03035494  2551.49485521
0.34200002 37594.51631667  2514.50934292
0.34300002 36941.24956710  2096.78542473
0.34400002 36301.39059083  2066.45675725
0.34500002 35672.56829044  2406.82829654
0.34600002 35056.58291280  1824.69522703
0.34700002 34450.77540778  2157.99667375
0.34800002 33857.99748260  1949.71287738
0.34900002 33276.08034191  1746.99430069
0.35000002 32705.84220003  2238.55147540
0.35100002 32147.39496346  2715.81205514
0.35200002 31598.83116065  2007.78982704
0.35300002 31061.88972782  1979.26370720
0.35400002 30536.01848005  2276.46028551
0.35500002 30021.24586290  2244.38844701
0.35600002 29516.07233272  1580.58574828
0.35700002 29022.18803720  1714.34072856
0.35800002 28539.02614974  1536.82663096
0.35900002 28066.21328605  1667.13314816
0.36000002 27603.80018733  2541.06794660
0.36100002 27150.68001303  1621.71019399
0.36200002 26708.55138966  1599.70876126
0.36300002 26275.50644342  1865.03553569
0.36400002 25852.09853659  1840.02320050
0.36500002 25438.22398742  1396.55856306
0.36600002 25034.17032775  2205.00982691
0.36700002 24638.93487630  1360.06926960
0.36800002 24254.38666501  1610.97643860
0.36900002 23877.92647311  1987.83747305
0.37000002 23510.08388039  2093.33796787
0.37100002 23151.00389490  1808.55650994
0.37200002 22801.47554701  1658.46540247
0.37300002 22460.00947945  1512.00790978
0.37400002 22127.09537803  1369.11409137
0.37500002 21802.87229318  1475.61846670
0.37600002 21487.13994632  1701.13695014
0.37700002 21178.83400822  2041.42790676
0.37800002 20878.44785474  1424.32778012
0.37900002 20586.68304780  1642.81738504
0.38000002 20302.48342707  1276.31568111
0.38100002 20024.93447291  1491.65743955
0.38200002 19755.95201349  1248.47744664
0.38300002 19493.71286199  1571.97307966
0.38400002 19239.37935868  1111.07421060
0.38500002 18991.30808293  1209.55646910
0.38600002 18751.17843980  1088.50596000
0.38700002 18517.24781789  1185.47426146
0.38800002 18290.39670486  1600.86704743
0.38900002 18069.52363702  1268.48061941
0.39000002 17856.45114907  1152.00900046
0.39100002 17648.84986591  1245.30290554
0.39200002 17447.89539977  1131.40883080
0.39300002 17252.93589513  1631.43769554
0.39400002 17065.23820739  1112.22695286
0.39500002 16882.33650269  1103.09191935
0.39600002 16705.47023905  1293.25403983
0.39700002 16534.16628312  1283.21670603
0.39800002 16368.98635806  1273.58904393
0.39900002 16208.87479287  1458.79880047
0.40000002 16054.08338321  965.65316125
0.40100002 15905.05244307  1246.79712008
0.40200002 15761.19280422  1143.31698019
0.40300002 15621.92615878  1136.02652409
0.40400002 15488.04740150  940.89892422
0.40500002 15359.25979789  935.37896601
0.40600002 15235.00247380  1023.10663960
0.40700002 15115.56725799  1202.59458803
0.40800002 15000.62095831  1012.31695334
0.40900002 14890.08893261  915.74051274
0.41000002 14784.40807436  911.45880097
0.41100002 14682.57527785  1361.07479275
0.41200002 14584.75317434  903.52550196
0.41300002 14491.76586625  1169.92031382
0.41400002 14402.16950912  1255.14913219
0.41500002 14316.73159557  1072.03691267
0.41600002 14234.64428036  1157.49015450
0.41700002 14156.59781688  1065.14247021
0.41800002 14083.24140223  1150.67129329
0.41900002 14011.39448753  1324.07684181
0.42000002 13944.23750406  968.63650412
0.42100002 13880.87764148  1317.98939451
0.42200002 13820.61502969  964.60987171
0.42300002 13763.03424221  1312.99352892
0.42400002 13708.59626217  1310.88457969
0.42500002 13657.68634876  872.72619904
0.42600002 13608.73955814  958.80379100
0.42700002 13564.13811688  1132.06302088
0.42800002 13521.34982474  1044.11868294
0.42900002 13482.39748432  956.57614684
0.43000002 13445.59134160  869.25752143
0.43100002 13410.42015192  1390.39242724
0.43200002 13378.87918116  1216.54154159
0.43300002 13349.64834692  1216.68700799
0.43400002 13322.64267188  1043.16297064
0.43500002 13297.92021241  1304.52603466
0.43600002 13275.83238436  957.25393944
0.43700002 13255.33159436  1132.13792513
0.43800002 13236.85985284  958.81198888
0.43900002 13221.20531815  1047.11951082
0.44000002 13207.04319630  961.01054372
0.44100002 13195.11981127  962.32013344
0.44200002 13184.89423943  1051.36351648
0.44300002 13176.64527959  1404.10338753
0.44400002 13170.30570300  967.02974207
0.44500002 13164.53153612  880.70720150
0.44600002 13161.03241369  1323.67089774
0.44700002 13159.84205623  1326.51214213
0.44800002 13158.86687503  1152.12464384
0.44900002 13161.02772318  1599.06494415
0.45000002 13163.75560329  1068.63373052
0.45100002 13167.69320802  892.76964181
0.45200002 13173.20951315  1163.65551749
0.45300002 13179.61455518  987.28497312
0.45400002 13187.77344393  1080.07869625
0.45500002 13196.97815945  1083.20801866
0.45600002 13207.24836191  905.35691812
0.45700002 13218.56819655  1271.36194940
0.45800002 13230.67044448  1275.30438459
0.45900002 13243.75241280  1005.20085577
0.46000002 13258.62246723  1466.93405930
0.46100002 13273.39617734  1103.81567842
0.46200002 13289.74018885  1292.16149980
0.46300002 13306.98001174  1018.78243798
0.46400002 13324.25162602  929.36659496
0.46500002 13342.86880162  1305.73320281
0.46600002 13361.84016037  1029.59664236
0.46700002 13381.34025709  1127.24415668
0.46800002 13402.47202441  1225.72313709
0.46900002 13423.11680087  1419.49466897
0.47000002 13444.67681114  1044.85310790
0.47100002 13466.84959755  953.45299670
0.47200002 13489.70510392  1722.77032048
0.47300002 13513.15224290  1249.02072101
0.47400002 13536.27158436  1157.35127532
0.47500002 13560.27711279  968.20383174
0.47600002 13584.97983061  972.00535295
0.47700002 13609.37408521  1463.68825224
