# SAXS profile: number of points = 501, q_min = 0, q_max = 0.5, delta_q = 0.001
#    q    intensity    error
0.00000000 1682732.95097188 328.13292544
0.00100000 1682645.80285089 504.79375284
0.00200000 1682384.33394424 1211.31675880
0.00300000 1681948.75071516 1513.75392957
0.00400000 1681338.94284915 1261.00425505
0.00500000 1680555.55186326 2420.00009047
0.00600000 1679598.44275223 1939.93628036
0.00700000 1678468.34816498 2819.82694211
0.00800000 1677165.03944253 4075.51121791
0.00900000 1675689.98714970 3770.30263226
0.01000000 1674042.53884721 4143.25546255
0.01100000 1672224.26407067 3612.00456766
0.01200000 1670235.07478549 3256.95853863
0.01300000 1668076.35973361 4553.84866292
0.01400000 1665748.27664756 4872.31392519
0.01500000 1663252.30383022 4390.98627764
0.01600000 1660588.30942990 4657.95041618
0.01700000 1657758.26487002 5371.13701912
0.01800000 1654762.79734566 5659.28902158
0.01900000 1651602.96254165 6441.25184456
0.02000000 1648279.35163308 5192.08019251
0.02100000 1644794.94423721 6513.38827449
0.02200000 1641148.09318621 7926.74565022
0.02300000 1637342.25990770 7073.31888477
0.02400000 1633377.78709313 7350.20037707
0.02500000 1629257.13873242 6989.51344438
0.02600000 1624980.69984433 6581.17213538
0.02700000 1620550.49187054 7486.94361535
0.02800000 1615967.03566604 7732.40262027
0.02900000 1611233.53864616 10150.77175954
0.03000000 1606350.84051045 8216.48492688
0.03100000 1601320.32620610 7686.33791946
0.03200000 1596143.43885609 8691.00142486
0.03300000 1590824.25289126 10547.16528290
0.03400000 1585361.17778963 10820.09053766
0.03500000 1579758.54188323 11942.97512814
0.03600000 1574016.83125528 8735.79381718
0.03700000 1568139.12974944 13407.59017943
0.03800000 1562127.00676554 10052.28775375
0.03900000 1555982.94497260 11203.07772262
0.04000000 1549707.06021146 11436.83863433
0.04100000 1543303.52277040 11667.37517312
0.04200000 1536773.80851381 11894.62982972
0.04300000 1530119.84217809 11108.67056985
0.04400000 1523344.34216475 10282.57478715
0.04500000 1516449.69488029 13602.55439512
0.04600000 1509436.54225671 12769.83374112
0.04700000 1502309.07461035 17306.60134441
0.04800000 1495068.72404279 14285.38232290
0.04900000 1487718.28817417 17852.62028908
0.05000000 1480259.46174826 12456.38395066
0.05100000 1472696.13817038 17230.54561926
0.05200000 1465027.86494559 22129.24693125
0.05300000 1457259.62974647 16525.32497170
0.05400000 1449392.79011658 14348.98929130
0.05500000 1441430.89285236 14529.62407775
0.05600000 1433374.70340188 13480.88971457
0.05700000 1425229.18611255 14879.39339756
0.05800000 1416993.78820983 17556.55385568
0.05900000 1408672.41562424 16481.46803258
0.06000000 1400268.95369763 16656.19998239
0.06100000 1391784.77422972 15532.31880625
0.06200000 1383222.44209568 18300.03376433
0.06300000 1374585.56539129 15835.22645369
0.06400000 1365873.40735546 18644.17288233
0.06500000 1357092.31739273 13435.21457066
0.06600000 1348243.77082059 14904.83558380
0.06700000 1339328.96951825 19125.61857978
0.06800000 1330352.20241672 13769.14593953
0.06900000 1321316.80186382 13873.82706913
0.07000000 1312222.30719134 16770.20187123
0.07100000 1303073.52381573 14073.19471637
0.07200000 1293872.11850596 19835.06050591
0.07300000 1284621.69659255 18537.09195040
0.07400000 1275325.19010848 17216.89087332
0.07500000 1265983.00604214 15875.42763989
0.07600000 1256598.73832789 17416.45932972
0.07700000 1247176.05434623 18969.54867606
0.07800000 1237716.18027458 17600.32490889
0.07900000 1228221.21872737 14738.65531603
0.08000000 1218696.07396032 23691.45278918
0.08100000 1209141.74746895 19334.17744915
0.08200000 1199559.43855419 14934.51571080
0.08300000 1189953.01660731 22490.11306938
0.08400000 1180325.08189024 24078.63280078
0.08500000 1170677.74176436 22652.61536657
0.08600000 1161013.72743665 16666.35283986
0.08700000 1151334.93220250 28875.48145557
0.08800000 1141643.22079550 18289.12525607
0.08900000 1131942.21387142 16809.34266552
0.09000000 1122233.64930503 19914.03704239
0.09100000 1112519.94657270 19958.60877919
0.09200000 1102802.25964848 16922.50146944
0.09300000 1093085.50404425 23118.75949694
0.09400000 1083368.07753489 20069.39457954
0.09500000 1073654.64059200 17006.69030634
0.09600000 1063946.51088961 20124.54919949
0.09700000 1054248.59404795 18596.94607330
0.09800000 1044559.46428546 18614.05052876
0.09900000 1034883.65207489 18627.90661328
0.10000000 1025220.08540795 17085.29352680
0.10100000 1015573.00417546 15538.26769468
0.10200000 1005944.23424384 23312.75872515
0.10300000 996335.07888905 15542.82796182
0.10400000 986748.18295733 15541.28461272
0.10500000 977186.96093796 31074.54681986
0.10600001 967647.90270607 23296.12435381
0.10700001 958138.66936099 21730.58604370
0.10800001 948657.08545563 23265.81611573
0.10900001 939207.32138580 18596.30583869
0.11000001 929790.05327890 21673.40716209
0.11100001 920406.48462536 23194.24450439
0.11200001 911059.30984096 23163.68404319
0.11300001 901748.68665441 15419.90326777
0.11400001 892477.53253822 16934.76197728
0.11500001 883247.07586249 16905.34982805
0.11600001 874058.46120682 18407.67205986
0.11700001 864913.51232833 16839.86687810
0.11800001 855812.13162905 24441.99563050
0.11900001 846756.45040054 16765.77850763
0.12000001 837747.80729958 19766.66044434
0.12100001 828788.87341203 21233.57193709
0.12200001 819879.12942364 18152.12478061
0.12300001 811021.11517436 16593.49279826
0.12400001 802214.33041212 18049.82328473
0.12500001 793459.95138326 20994.95130289
0.12600001 784761.50384880 16444.67808808
0.12700001 776117.55620915 19371.89511591
0.12800001 767529.33752060 19307.20139526
0.12900001 758998.99260451 19240.62536938
0.13000001 750526.61244382 17697.41835559
0.13100001 742112.37708911 22040.73863849
0.13200001 733757.60500288 16102.31140086
0.13300001 725464.67094947 20414.57680292
0.13400001 717231.76501401 15976.33831890
0.13500001 709061.80584062 17357.83382537
0.13600001 700953.49686425 17285.51404770
0.13700001 692909.15323688 25817.79626700
0.13800001 684927.42667081 19993.03252731
0.13900001 677011.68179447 15638.97058696
0.14000001 669160.07574005 19813.83077709
0.14100001 661373.93854151 21130.89833300
0.14200001 653653.31655401 14020.86430138
0.14300001 646000.03929854 15348.96165771
0.14400001 638410.97177201 15273.98322012
0.14500001 630890.94372834 17961.46601523
0.14600001 623437.40501702 17870.83405786
0.14700001 616053.20378889 16411.65812318
0.14800001 608734.07224697 17686.76930357
0.14900001 601484.34922347 18946.75789446
0.15000001 594302.05778536 17499.22491715
0.15100001 587188.52145187 14726.68881289
0.15200001 580143.74269215 18640.01933227
0.15300001 573168.51776605 15888.23206223
0.15400001 566259.36019797 18431.74304426
0.15500001 559420.97278806 13090.45138102
0.15600001 552648.39520198 15617.84438549
0.15700001 545948.00561033 20702.34934983
0.15800001 539312.40214800 12862.60139833
0.15900001 532747.81914881 15343.13791569
0.16000001 526248.97155602 19063.36989445
0.16100001 519821.32662598 13894.82471661
0.16200001 513460.49009551 13809.52053301
0.16300001 507167.19422898 18714.47035052
0.16400001 500942.00962177 27276.29371161
0.16500001 494783.62356828 14784.13537020
0.16600001 488693.42093819 14690.12492697
0.16700001 482668.71836361 19461.20364328
0.16800001 476709.97059779 16918.43765534
0.16900001 470819.53935427 16808.25834860
0.17000001 464993.84476407 16697.92975395
0.17100001 459233.33913668 14217.86485106
0.17200001 453538.84069859 16477.06686067
0.17300001 447909.00401678 16366.59577968
0.17400001 442343.84385959 13933.83173962
0.17500001 436842.34805947 17298.95780014
0.17600001 431402.97778071 13744.49952123
0.17700001 426028.77984140 19337.44723032
0.17800001 420715.66191721 12425.83766162
0.17900001 415465.25344650 13461.07484748
0.18000001 410276.56745292 14480.71213225
0.18100001 405150.53526859 14378.79317589
0.18200001 400082.48797551 15375.17073919
0.18300001 395075.84366558 18536.95946046
0.18400001 390128.19997167 15156.48128490
0.18500001 385241.28058172 15047.52513040
0.18600001 380411.16120559 11737.58693352
0.18700001 375638.60189961 16948.81451845
0.18800001 370923.57529917 12618.82062787
0.18900001 366267.17485698 11482.47647428
0.19000001 361663.00283054 12433.97462480
0.19100001 357118.91329031 13370.53274535
0.19200001 352626.60646812 14291.95703547
0.19300001 348191.08342587 14185.30540906
0.19400001 343807.34064150 10056.36518897
0.19500001 339477.63651542 10978.70728371
0.19600001 335200.38666576 11886.20627287
0.19700001 330974.86363249 10812.94930587
0.19800001 326800.93387605 11706.01000465
0.19900001 322678.24924949 10648.38272848
0.20000001 318604.06945133 13448.27840712
0.20100001 314581.05811373 9531.80651134
0.20200001 310605.28442286 12295.31076500
0.20300001 306679.60013307 13138.15469067
0.20400001 302800.54656186 12104.45242094
0.20500001 298968.35018928 12009.55919476
0.20600001 295182.56325518 10998.50282677
0.20700001 291443.25023392 11820.93878825
0.20800001 287747.46730036 9922.97187891
0.20900001 284098.98111280 9844.03016090
0.21000001 280492.31162834 13316.37312405
0.21100001 276929.81503233 10567.64224120
0.21200001 273409.55758343 11356.06651108
0.21300001 269930.85361046 12997.17121579
0.21400001 266494.75812328 11172.79326253
0.21500001 263100.52247589 10229.34879748
0.21600001 259745.44409833 8454.71460513
0.21700001 256430.39603982 11739.38408574
0.21800001 253155.06934241 9147.75886320
0.21900001 249917.42401308 9072.00292061
0.22000001 246717.82395771 9814.43550109
0.22100001 243557.36000907 8110.46047179
0.22200001 240433.87060319 8846.76468716
0.22300001 237345.71781080 8772.29814509
0.22400001 234292.85027900 11861.07610624
0.22500001 231278.15822456 7840.32993456
0.22600001 228296.06694514 10105.52588120
0.22700001 225350.71969307 12331.19196474
0.22800001 222437.84571492 11461.11054246
0.22900001 219557.74905562 12119.58832102
0.23000001 216711.85947548 8259.97291454
0.23100001 213899.28392728 8188.06497597
0.23200001 211116.77911425 11805.65084640
0.23300001 208366.64390857 7313.66954709
0.23400001 205648.45417914 7974.01918793
0.23500001 202958.98655500 11495.59754217
0.23600001 200301.56562515 7120.72099476
0.23700001 197673.11082686 7056.93039030
0.23800001 195074.43149921 7692.76057003
0.23900001 192504.20792376 9702.21253827
0.24000001 189962.66614317 7553.86577648
0.24100001 187450.39664392 6804.44972003
0.24200001 184965.35325970 10112.98116784
0.24300001 182507.70863525 9351.69543283
0.24400001 180076.99958683 8603.17906222
0.24500001 177673.00094241 7867.36085389
0.24600001 175295.42840978 6494.69592981
0.24700001 172944.13712953 7076.87442612
0.24800001 170618.53167081 8284.38319718
0.24900001 168317.36999805 7574.28200823
0.25000001 166042.42524762 6251.49760632
0.25100001 163790.86617789 6810.42453787
0.25200001 161565.31147822 7970.82501888
0.25300001 159363.86240637 7286.11613393
0.25400001 157185.44643247 6012.34361049
0.25500001 155030.40316745 7739.11809227
0.25600001 152899.40250934 7073.12669473
0.25700001 150790.65968217 7002.71856696
0.25800001 148705.40441209 6932.64628170
0.25900001 146642.50680931 6290.96383977
0.26000001 144601.92993295 5661.16582474
0.26100001 142582.53427431 6163.84324833
0.26200001 140586.05932045 7764.56842366
0.26300001 138610.24485984 6586.75914741
0.26400001 136656.10806516 5975.28860789
0.26500001 134723.64187415 6450.56827817
0.26600001 132811.06430812 5319.08337724
0.26700001 130920.27983346 6841.89414786
0.26800001 129050.40491419 7810.77612704
0.26900001 127199.28899799 5666.72859302
0.27000001 125369.61321607 6115.53002208
0.27100001 123559.32898183 5041.22086102
0.27200001 121770.19802764 7479.73476781
0.27300001 119999.92457093 5425.19684659
0.27400001 118247.26250265 6341.00975179
0.27500001 116516.86792741 5306.17841653
0.27600001 114803.24691975 5724.09016232
0.27700001 113110.26961822 5660.03815957
0.27800001 111435.12237199 7928.05215637
0.27900001 109780.09170832 5071.84047696
0.28000001 108142.04853068 5469.82507356
0.28100001 106523.34358331 6308.31270557
0.28200001 104923.57976787 5790.20802354
0.28300001 103341.50248698 7043.75714290
0.28400001 101777.18622403 6526.46237552
0.28500001 100231.40875040 6019.89869448
0.28600001 98703.22195108  4674.09129673
0.28700001 97192.84489819  6298.09664751
0.28800001 95699.19370372  4978.27229210
0.28900001 94225.16190209  4098.79473675
0.29000001 92766.93055473  4454.20438142
0.29100001 91326.80602215  5600.16001036
0.29200001 89903.80168431  5926.90840659
0.29300001 88497.85211775  6244.40874101
0.29400001 87108.44416276  5010.91348766
0.29500001 85737.06764590  3806.72598368
0.29600001 84381.82672045  4511.05267002
0.29700001 83043.18261546  5568.04565795
0.29800001 81721.15997245  3665.19419827
0.29900001 80416.44427339  4704.36221269
0.30000001 79127.24787833  4287.11449300
0.30100001 77855.76307987  5642.98597517
0.30200001 76598.68788716  3829.55158221
0.30300001 75359.44253576  3436.39074231
0.30400001 74136.08151736  3391.72588999
0.30500001 72928.33319050  3347.41065192
0.30600001 71735.77056364  4624.80534719
0.30700001 70560.31994420  3585.87562933
0.30800001 69400.14620595  4181.70600762
0.30900001 68255.64528332  3491.27642153
0.31000001 67127.30378286  3444.63775670
0.31100001 66013.24904137  3398.36222155
0.31200001 64915.47976912  3047.78191946
0.31300001 63832.41783079  3607.80842661
0.31400001 62765.70917900  3855.38386886
0.31500001 61713.22613017  3217.72776278
0.31600002 60676.22212943  3750.70084852
0.31700002 59654.04269475  3414.59756552
0.31800002 58646.86581327  3928.75372685
0.31900002 57654.60304273  2767.42107709
0.32000002 56677.28401425  3274.81362540
0.32100002 55713.87204999  2690.98014743
0.32200002 54766.25861625  2918.76789116
0.32300002 53831.41678182  4447.55186511
0.32400002 52911.47951640  2837.37822342
0.32500002 52005.86575806  2543.08695599
0.32600002 51114.89452923  2757.90426492
0.32700002 50237.15741714  3213.16874055
0.32800002 49374.31480105  3167.60931606
0.32900002 48524.58784929  2882.36065474
0.33000002 47689.63567308  3551.68578494
0.33100002 46865.86902012  3267.48854281
0.33200002 46058.82246735  2990.82977855
0.33300002 45263.62162807  2494.47830605
0.33400002 44482.30344068  2682.28302449
0.33500002 43713.33038919  2203.15195595
0.33600002 42958.52752856  2823.01977023
0.33700002 42215.64339895  2996.46651036
0.33800002 41486.94437854  2320.57234371
0.33900002 40769.90179893  2495.11810826
0.34000002 40066.18330863  2049.38537329
0.34100002 39374.86960701  2423.91708780
0.34200002 38696.58069237  1990.93917091
0.34300002 38029.57645885  3139.72198114
0.34400002 37376.28296241  2707.91182887
0.34500002 36734.13777487  2478.45239305
0.34600002 36105.09694042  1879.27038475
0.34700002 35486.22993345  1852.38129026
0.34800002 34880.78511800  2008.61010615
0.34900002 34286.17241521  2520.03379187
0.35000002 33703.46085391  2661.73094700
0.35100002 33132.71481714  1924.34816772
0.35200002 32572.00840622  2069.62551215
0.35300002 32022.99660591  2210.54756040
0.35400002 31485.30559352  2179.57038294
0.35500002 30958.82766885  1983.84177098
0.35600002 30442.06124479  2445.25868531
0.35700002 29936.61193255  2089.87497800
0.35800002 29442.27666235  1585.46667336
0.35900002 28958.23364899  2189.24256756
0.36000002 28484.78195918  1542.45101615
0.36100002 28020.70173618  1673.67659398
0.36200002 27567.86648265  1801.28448130
0.36300002 27124.05817488  1777.16837580
0.36400002 26690.11950369  1753.54093445
0.36500002 26265.78054509  1441.99142023
0.36600002 25851.47689310  1850.06103149
0.36700002 25445.94277556  1966.46255084
0.36800002 25051.36173316  1525.25223137
0.36900002 24664.86773020  1779.57029103
0.37000002 24287.17847996  1486.73970108
0.37100002 23918.25404709  1735.03023076
0.37200002 23559.14211166  1581.76087631
0.37300002 23208.06595262  1432.16981778
0.37400002 22865.65362088  1414.81238481
0.37500002 22532.06532025  1397.88939869
0.37600002 22207.03400456  1883.71174867
0.37700002 21889.55646594  1241.13791041
0.37800002 21580.04747769  1349.50833295
0.37900002 21279.27510132  1212.91873823
0.38000002 20986.14796672  1559.16593705
0.38100002 20699.70104040  1423.31151096
0.38200002 20422.00313774  1525.21737660
0.38300002 20151.02131793  1741.04832435
0.38400002 19888.08666903  1378.24447146
0.38500002 19631.37755167  1591.31953973
0.38600002 19382.87291933  1237.69340890
0.38700002 19140.52593553  1225.37652844
0.38800002 18905.33490362  1434.06424705
0.38900002 18676.25185367  1748.09725632
0.39000002 18454.97560548  1407.09968170
0.39100002 18239.16082458  1501.44779021
0.39200002 18030.20018628  1381.74445674
0.39300002 17827.16473171  1264.30258267
0.39400002 17631.60806438  1462.54195823
0.39500002 17440.81053043  1553.97629188
0.39600002 17256.13702514  1027.60300853
0.39700002 17077.08188752  1427.30257178
0.39800002 16904.15813787  1112.88530373
0.39900002 16736.36354331  1205.01823221
0.40000002 16573.98377438  1196.31020551
0.40100002 16417.34855101  1088.96278098
0.40200002 16266.05184147  1278.26774453
0.40300002 16119.33255189  1074.51475882
0.40400002 15978.07028398  970.66781574
0.40500002 15841.87414213  964.77018097
0.40600002 15710.26801122  1055.02309828
0.40700002 15583.53336948  1335.19720236
0.40800002 15461.46271498  1327.98509551
0.40900002 15343.70367803  1415.45673137
0.41000002 15230.85207109  1220.67669708
0.41100002 15121.93369682  1308.34976544
0.41200002 15017.01346446  1116.36483384
0.41300002 14916.94401338  1018.97649384
0.41400002 14820.42807082  1014.82886024
0.41500002 14728.06606728  1194.74077599
0.41600002 14639.01424485  1190.37149972
0.41700002 14554.12085472  912.54342083
0.41800002 14473.83861387  909.68079999
0.41900002 14395.17907311  997.58595704
0.42000002 14321.34293863  994.83213437
0.42100002 14251.15595175  1262.93750029
0.42200002 14184.24686494  1079.98860747
0.42300002 14119.93898536  1077.63379443
0.42400002 14058.84114520  985.87628202
0.42500002 14001.29927894  1431.49290611
0.42600002 13945.76989212  893.22660392
0.42700002 13894.56073746  981.23392578
0.42800002 13845.24003227  1158.22360978
0.42900002 13799.77444311  1068.10259251
0.43000002 13756.41847993  1245.09349562
0.43100002 13714.81605324  977.59213460
0.43200002 13676.82358112  977.14070706
0.43300002 13641.17686954  1243.25691881
0.43400002 13607.87670620  976.70539687
0.43500002 13576.76279510  1065.50439465
0.43600002 13548.31436365  888.09204862
0.43700002 13521.49917376  1154.87129916
0.43800002 13496.74324352  1422.01693553
0.43900002 13474.84853401  1245.07606355
0.44000002 13454.46790359  890.01309400
0.44100002 13436.31859215  1247.15915083
0.44200002 13419.94653157  1248.45768500
0.44300002 13405.46272789  982.08424599
0.44400002 13393.04723587  1519.77610711
0.44500002 13381.19596600  1253.28287357
0.44600002 13371.53011644  896.56113680
0.44700002 13364.34160034  1077.70055772
0.44800002 13357.24794671  989.57176103
0.44900002 13353.40071672  1261.89642753
0.45000002 13350.13400771  1174.07759095
0.45100002 13348.10340884  995.50159941
0.45200002 13347.68076560  997.67244611
0.45300002 13348.11340123  1181.70853542
0.45400002 13350.29460042  1731.19953436
0.45500002 13353.65130712  1004.72877197
0.45600002 13358.05462255  1007.26415655
0.45700002 13363.58950179  1285.31009920
0.45800002 13369.83251538  1288.71821723
0.45900002 13377.12846166  923.02190760
0.46000002 13386.25590529  1110.79156767
0.46100002 13395.23145652  928.28958393
0.46200002 13405.92448162  1024.14564931
0.46300002 13417.42832473  1027.23836123
0.46400002 13429.07044885  1311.34879148
0.46500002 13442.01895673  1033.55688657
0.46600002 13455.38877416  1319.57003962
0.46700002 13469.24997609  1512.86622902
0.46800002 13484.85169798  1328.12310668
0.46900002 13499.96985620  1237.27229596
0.47000002 13516.00539519  1145.88699172
0.47100002 13532.67516092  1245.54748085
0.47200002 13550.04176523  961.37550881
0.47300002 13568.02343454  1254.09246549
0.47400002 13585.74835182  1064.78307754
0.47500002 13604.31479567  1554.15699592
0.47600002 13623.77356817  1364.69346301
0.47700002 13642.77354710  1271.64298260
