# SAXS profile: number of points = 501, q_min = 0, q_max = 0.5, delta_q = 0.001
#    q    intensity    error
0.00000000 1664650.74656090 349.57665678
0.00100000 1664564.14788461 599.24310747
0.00200000 1664304.32569442 973.61806136
0.00300000 1663871.49514185 1098.15522591
0.00400000 1663265.52993257 1247.44919485
0.00500000 1662487.08024639 2094.73380402
0.00600000 1661536.00735531 1919.07416662
0.00700000 1660413.04451338 2191.74530985
0.00800000 1659117.96661347 2687.77121939
0.00900000 1657652.23565377 3729.71768966
0.01000000 1656015.17787039 3825.39522606
0.01100000 1654208.43454318 3573.09037418
0.01200000 1652231.81744189 3866.22262232
0.01300000 1650086.75418607 3811.70057028
0.01400000 1647773.41220816 4448.98841019
0.01500000 1645293.31996639 4343.57455813
0.01600000 1642646.20913902 4607.62282261
0.01700000 1639834.17366534 5313.06296101
0.01800000 1636857.76659460 6064.55829812
0.01900000 1633718.00444008 4901.15423447
0.02000000 1630415.62160037 5649.39038440
0.02100000 1626953.42020444 6442.73583611
0.02200000 1623329.90057225 6160.53725256
0.02300000 1619548.38116965 6413.41188136
0.02400000 1615609.29924160 7270.24217809
0.02500000 1611515.15278768 7541.89125949
0.02600000 1607266.19242898 6509.42837707
0.02700000 1602864.49433410 8078.43742145
0.02800000 1598310.53503362 7647.91626087
0.02900000 1593607.60331613 8605.48145302
0.03000000 1588756.44520723 8865.26137175
0.03100000 1583758.54070841 9122.44961423
0.03200000 1578615.23470334 9376.97492602
0.03300000 1573330.70275736 9628.78434477
0.03400000 1567903.19401892 9054.64136324
0.03500000 1562337.15912918 13498.59367822
0.03600000 1556632.96327955 10367.17601455
0.03700000 1550793.78580774 11491.38248428
0.03800000 1544821.20634068 13555.80671300
0.03900000 1538717.53662928 12001.99734152
0.04000000 1532483.11883443 10367.24877932
0.04100000 1526121.95810356 13460.39629459
0.04200000 1519635.50866113 11761.97938271
0.04300000 1513025.76286725 13980.35869783
0.04400000 1506295.32189423 12200.99267398
0.04500000 1499446.86536691 12415.42062212
0.04600000 1492480.63817297 14730.78458356
0.04700000 1485401.04747947 12833.86564710
0.04800000 1478209.51722454 10864.84045712
0.04900000 1470908.66665962 14341.36016749
0.05000000 1463500.27433565 16793.66643002
0.05100000 1455988.47169007 17035.06591234
0.05200000 1448372.34012179 11514.56064056
0.05300000 1440657.16570419 18670.91773792
0.05400000 1432844.29726515 15367.25580480
0.05500000 1424937.17184946 11969.47280190
0.05600000 1416936.57263045 15749.25073971
0.05700000 1408847.37802744 22062.55096976
0.05800000 1400669.13361253 13635.51465239
0.05900000 1392405.78950683 16291.14849812
0.06000000 1384061.08385683 13930.57545984
0.06100000 1375636.31546528 14072.76016485
0.06200000 1367134.25377180 14211.36123225
0.06300000 1358558.50875772 15650.59475264
0.06400000 1349907.96984095 21058.56531436
0.06500000 1341189.41485942 15933.33099386
0.06600000 1332404.13488538 18746.92705498
0.06700000 1323553.15601275 20250.36423469
0.06800000 1314640.90189989 23131.10775167
0.06900000 1305670.89203728 16451.45400991
0.07000000 1296642.43758624 16571.09112835
0.07100000 1287560.28295109 19467.91239005
0.07200000 1278426.11655835 19598.27328496
0.07300000 1269243.69496031 15497.46624161
0.07400000 1260015.76847972 15592.69586567
0.07500000 1250742.70536734 14258.46750952
0.07600000 1241428.19551407 18640.04522950
0.07700000 1232075.93633137 15856.81804409
0.07800000 1222686.90645451 18835.49267725
0.07900000 1213263.39664653 18926.90987543
0.08000000 1203810.43162164 14626.29743034
0.08100000 1194328.70057795 19097.31681825
0.08200000 1184819.68280862 14751.00574316
0.08300000 1175286.81128414 14808.61451718
0.08400000 1165733.08564895 14863.09753968
0.08500000 1156160.49436780 19388.81240076
0.08600000 1146571.55734617 20947.86333625
0.08700000 1136968.44794805 18009.58106119
0.08800000 1127352.90063550 19565.21050939
0.08900000 1117728.54853802 22634.00417101
0.09000000 1108096.95993345 22688.28632043
0.09100000 1098460.63406383 19706.38470093
0.09200000 1088820.92900234 16707.95794059
0.09300000 1079182.33642607 19781.41315626
0.09400000 1069543.63492806 15240.99751401
0.09500000 1059909.26978783 16788.96362257
0.09600000 1050280.53016684 19866.05716197
0.09700000 1040662.33995062 15297.73711646
0.09800000 1031053.40228364 16842.25811819
0.09900000 1021457.96335772 16854.05718792
0.10000000 1011875.06797525 19928.88040097
0.10100000 1002309.00743469 15335.32853500
0.10200000 992761.54475687 18405.79990553
0.10300000 983233.92211855 26075.36484119
0.10400000 973729.15056463 16869.85832718
0.10500000 964249.95754093 16864.73255087
0.10600001 954793.37229213 22986.65151954
0.10700001 945366.62810871 18377.92811526
0.10800001 935967.79314254 19893.99637949
0.10900001 926601.06807193 16817.81017705
0.11000001 917267.14190079 16799.74849467
0.11100001 907966.78633386 16779.22700130
0.11200001 898703.30606232 19802.92828135
0.11300001 889476.42282004 15210.04754632
0.11400001 880289.10398300 19740.48408629
0.11500001 871142.75288872 15157.88461402
0.11600001 862038.26086194 18154.52662868
0.11700001 852977.28707119 19627.00829984
0.11800001 843960.34339099 22597.03925858
0.11900001 834989.05323147 16532.78403270
0.12000001 826064.85531655 16492.38561327
0.12100001 817190.67738308 19440.96713077
0.12200001 808365.56709459 16405.77995708
0.12300001 799591.91613387 17846.89240895
0.12400001 790869.83136365 16311.69104044
0.12500001 782200.21506364 14783.58476131
0.12600001 773586.31645413 17684.18402748
0.12700001 765027.00945765 16157.37120118
0.12800001 756523.65874426 17566.48018394
0.12900001 748077.67649912 16046.26691720
0.13000001 739689.83146004 18895.37763528
0.13100001 731360.09291908 20273.30273135
0.13200001 723089.82941464 15868.20705454
0.13300001 714881.28563663 17242.93742244
0.13400001 706732.84565229 17173.60895901
0.13500001 698646.93371298 17102.87774366
0.13600001 690622.77504637 15611.52856602
0.13700001 682662.34113983 16957.33335351
0.13800001 674764.59709972 21103.26376943
0.13900001 666932.28961340 16806.69449083
0.14000001 659164.36774238 16729.59244228
0.14100001 651461.59789872 16651.35922762
0.14200001 643824.12552795 13810.02814393
0.14300001 636254.00272486 17866.01323921
0.14400001 628747.86004464 21880.42656165
0.14500001 621310.40155760 14967.36827957
0.14600001 613939.34041973 14891.09940436
0.14700001 606637.26033153 20201.02172205
0.14800001 599400.08351370 21434.54799770
0.14900001 592232.15298328 14657.74647790
0.15000001 585131.41363326 22530.48614500
0.15100001 578099.20346945 17134.86119934
0.15200001 571135.42923657 17039.82633533
0.15300001 564240.83305681 18247.54940214
0.15400001 557412.19334260 15551.80092816
0.15500001 550653.79310409 15462.35924008
0.15600001 543961.24579309 14091.31673731
0.15700001 537340.42372471 21649.44669365
0.15800001 530784.06722517 13925.12066090
0.15900001 524298.21176502 13841.47344392
0.16000001 517878.01280105 15008.10551939
0.16100001 511528.81764299 14916.18102658
0.16200001 505245.82175756 16059.23920266
0.16300001 499030.25361006 13503.75930017
0.16400001 492882.14904489 14638.60051772
0.16500001 486800.58268881 15757.73560558
0.16600001 480786.87656154 13248.08300914
0.16700001 474838.11921661 13162.51328615
0.16800001 468955.09931778 17832.01849352
0.16900001 463140.10801525 12991.08064324
0.17000001 457389.19617465 11732.03343586
0.17100001 451703.32664163 11653.94637767
0.17200001 446082.95252636 13891.02379765
0.17300001 440526.71196274 13797.29727024
0.17400001 435034.74776818 12561.62893504
0.17500001 429606.05949210 14744.08065810
0.17600001 424239.29612955 12389.90922863
0.17700001 418936.93685376 12304.17841653
0.17800001 413695.11040541 12218.48566293
0.17900001 408515.94451155 15441.90343191
0.18000001 403397.84172105 13142.70230407
0.18100001 398341.95171770 18487.05085248
0.18200001 393343.66429606 12956.74091396
0.18300001 388406.13478512 11792.01080912
0.18400001 383527.28380304 11707.17089114
0.18500001 378708.60497231 12679.16469346
0.18600001 373946.20869416 18880.54496895
0.18700001 369241.10834502 10412.59974727
0.18800001 364592.81264924 20672.41345390
0.18900001 360002.77193714 14364.11127896
0.19000001 355464.37978228 11202.46045814
0.19100001 350985.64503434 17184.25799284
0.19200001 346558.12346858 14046.00140787
0.19300001 342186.94964194 10953.40477562
0.19400001 337866.96898779 10870.87024087
0.19500001 333600.74792306 21577.29739530
0.19600001 329386.17142499 11680.03419069
0.19700001 325222.93391119 11590.94591235
0.19800001 321110.84156695 12460.70679588
0.19900001 317049.37295732 10462.62980206
0.20000001 313035.94549867 12269.44446369
0.20100001 309073.16699629 12174.39262337
0.20200001 305157.10380455 9292.03425002
0.20300001 301290.37499911 13829.22886609
0.20400001 297470.08141693 12806.08761029
0.20500001 293696.01759546 12705.29032172
0.20600001 289967.84099476 9003.50188846
0.20700001 286285.43580144 8932.10601922
0.20800001 282646.34037638 9747.05950862
0.20900001 279053.86895809 13185.29593156
0.21000001 275502.67364663 11335.55804305
0.21100001 271995.01699148 9514.38614414
0.21200001 268529.22911383 11153.36205851
0.21300001 265104.38212656 8509.85106857
0.21400001 261721.55105602 12660.78063089
0.21500001 258380.10351776 10882.97047469
0.21600001 255077.37242165 10793.59952433
0.21700001 251814.31247637 11528.05977021
0.21800001 248590.03039756 8166.18288466
0.21900001 245403.07503084 8908.13204481
0.22000001 242253.61886939 9636.84941428
0.22100001 239142.77573223 7963.45480842
0.22200001 236068.51133999 8686.14128547
0.22300001 233028.78870481 10178.69797193
0.22400001 230024.22745827 10092.31345696
0.22500001 227056.94347067 10776.12304669
0.22600001 224121.86708046 8394.48492846
0.22700001 221223.01135797 9835.57555009
0.22800001 218356.18561774 7500.53533067
0.22900001 215521.68214534 7435.49838565
0.23000001 212720.72208342 10319.08271627
0.23100001 209952.41583089 8767.61329974
0.23200001 207213.99227856 7966.34230991
0.23300001 204507.31969706 10049.49016520
0.23400001 201832.03023791 9248.95322308
0.23500001 199185.08580924 10576.72855671
0.23600001 196569.61668924 9084.46526496
0.23700001 193982.69001851 6925.18236121
0.23800001 191424.86639405 10980.13085571
0.23900001 188895.25076483 8160.27521902
0.24000001 186393.64712242 12128.63519194
0.24100001 183920.85121521 7343.95993640
0.24200001 181474.86237436 7276.23495108
0.24300001 179055.87528485 7208.78987996
0.24400001 176663.13784179 8440.08180964
0.24500001 174296.79308687 6431.55196915
0.24600001 171956.40529223 7008.08362920
0.24700001 169641.90310073 8203.88282204
0.24800001 167352.55457757 8125.80367192
0.24900001 165087.07297503 8047.99518826
0.25000001 162847.36822738 7970.56481496
0.25100001 160630.70849755 6679.02517531
0.25200001 158439.75707899 7215.34687873
0.25300001 156272.16765972 5953.96986952
0.25400001 154127.38390902 8843.05907016
0.25500001 152005.59556495 6420.71666044
0.25600001 149907.23289282 6356.81651158
0.25700001 147830.72509957 5721.04933204
0.25800001 145777.34383460 7928.83010631
0.25900001 143745.91402713 7848.52727723
0.26000001 141736.41994451 7213.67543439
0.26100001 139747.69660895 8787.33557855
0.26200001 137781.55859264 8153.22411550
0.26300001 135835.51763912 6992.81277894
0.26400001 133910.90976457 5855.25480652
0.26500001 132007.52265568 5267.10040319
0.26600001 130123.59494400 6253.74026893
0.26700001 128261.17617965 6187.31943169
0.26800001 126419.21109614 5611.11695003
0.26900001 124595.72112873 8578.41580566
0.27000001 122793.34630928 5989.85971642
0.27100001 121009.84641401 5924.64236080
0.27200001 119247.34212459 6836.45044753
0.27300001 117503.15381387 5312.31783533
0.27400001 115776.34750250 5253.35201654
0.27500001 114071.41274004 5667.06805312
0.27600001 112382.92435839 7004.26609212
0.27700001 110714.84369895 5078.49012082
0.27800001 109064.29402924 6390.07728960
0.27900001 107433.36428538 5865.86196760
0.28000001 105819.21325243 4460.28004969
0.28100001 104224.13626156 4849.54928977
0.28200001 102647.59441023 6100.34682453
0.28300001 101088.45922407 6459.55285015
0.28400001 99546.85735908  5532.31685958
0.28500001 98023.44726964  6307.80913036
0.28600001 96517.41035685  4570.58218378
0.28700001 95028.78253014  5747.34103946
0.28800001 93556.81239820  4461.25681037
0.28900001 92104.03654659  5609.13609119
0.29000001 90666.81543896  3957.60668124
0.29100001 89247.49231583  5081.75245301
0.29200001 87844.94962448  4246.86429062
0.29300001 86459.38697409  4194.14506065
0.29400001 85089.90427637  5271.31981945
0.29500001 83738.28697035  4833.37415273
0.29600001 82402.52110221  4772.34223555
0.29700001 81083.30082210  3624.42371832
0.29800001 79780.41211566  5367.22747916
0.29900001 78494.57623147  3885.48170739
0.30000001 77224.07192063  4184.00041473
0.30100001 75970.97613525  4473.93099640
0.30200001 74732.09155693  3396.57372206
0.30300001 73510.92257537  3352.09822813
0.30400001 72305.31057163  3638.76492678
0.30500001 71115.40694474  3917.03679996
0.30600001 69940.22296171  5153.19587179
0.30700001 68782.05420783  4131.05037130
0.30800001 67638.97995235  3762.08024306
0.30900001 66511.46520919  3711.33993438
0.31000001 65399.81854819  3966.17218363
0.31100001 64302.33220208  4514.02393430
0.31200001 63221.01422124  3561.87210986
0.31300001 62154.29044868  4976.69427185
0.31400001 61103.66376849  2887.14824976
0.31500001 60067.08949884  2847.18017705
0.31600002 59045.94400766  3930.68867870
0.31700002 58039.52124936  3045.33382414
0.31800002 57047.90388499  2729.74233015
0.31900002 56071.03674200  3498.83285837
0.32000002 55108.91744712  3980.24175108
0.32100002 54160.68305409  2615.96111538
0.32200002 53228.09974362  3352.57202110
0.32300002 52308.07460279  3559.04156450
0.32400002 51403.08729074  2756.49068649
0.32500002 50512.22954344  3211.06258413
0.32600002 49635.73787915  2921.55966991
0.32700002 48772.49939660  3119.48920912
0.32800002 47924.10065942  2365.05447953
0.32900002 47088.58531280  3030.15060837
0.33000002 46267.81452684  2297.19710004
0.33100002 45458.16605836  2716.58013229
0.33200002 44665.00606889  2677.22059055
0.33300002 43883.83023537  2198.57999891
0.33400002 43116.32318407  3466.55254816
0.33500002 42361.06663420  2348.49764542
0.33600002 41619.92393745  2314.27598014
0.33700002 40890.75341691  2073.16129642
0.33800002 40175.46274909  3064.38356631
0.33900002 39471.91572275  2616.98813635
0.34000002 38781.63567342  1983.68075864
0.34100002 38103.60008312  2736.60068757
0.34200002 37438.59270996  2118.83725477
0.34300002 36784.84811169  2087.90807770
0.34400002 36144.71520436  2805.73365062
0.34500002 35515.61265227  2027.58642234
0.34600002 34899.63076128  2179.83104059
0.34700002 34293.79052879  1969.14954542
0.34800002 33701.26213932  1764.26115655
0.34900002 33119.58442807  2086.53391779
0.35000002 32549.69875282  1885.11589255
0.35100002 31991.76420908  2364.83132234
0.35200002 31443.79583066  2330.92869533
0.35300002 30907.56688541  1805.31106728
0.35400002 30382.58951968  2103.23485912
0.35500002 29868.74039644  1754.48989399
0.35600002 29364.67718409  1886.97424523
0.35700002 28871.83371418  2170.58456144
0.35800002 28390.02734986  1987.44395876
0.35900002 27918.47825907  1959.87726662
0.36000002 27457.53590493  1932.87333158
0.36100002 27005.91958704  1466.42150303
0.36200002 26565.55538112  1591.14401492
0.36300002 26134.21210092  2140.39207245
0.36400002 25712.63047622  2252.42653641
0.36500002 25300.68083259  1805.70967655
0.36600002 24898.65365036  1370.67094838
0.36700002 24505.57809068  1352.70797468
0.36800002 24123.21120118  1468.74178356
0.36900002 23749.01566183  1977.10564750
0.37000002 23383.57986130  1691.68516520
0.37100002 23027.04075123  1798.87250870
0.37200002 22680.08199924  1268.95064797
0.37300002 22341.23086903  1378.67742224
0.37400002 22010.96800126  1238.11700872
0.37500002 21689.63064738  1590.28379440
0.37600002 21376.68130635  2175.93249325
0.37700002 21071.30502830  1314.21735687
0.37800002 20773.97022969  1181.00026350
0.37900002 20485.27708111  1401.19301873
0.38000002 20204.21473846  1501.07220510
0.38100002 19929.88972769  1598.77582969
0.38200002 19664.15799518  1242.67652338
0.38300002 19405.24144152  1453.06454798
0.38400002 19154.35620944  1659.24618525
0.38500002 18909.64320276  1313.84207197
0.38600002 18673.08101732  1842.75308749
0.38700002 18442.77504216  1180.70651414
0.38800002 18219.47031815  1275.72737212
0.38900002 18002.33077001  1369.07731992
0.39000002 17792.92578305  1252.26617594
0.39100002 17589.00254128  1137.65673827
0.39200002 17391.93384360  1332.83091325
0.39300002 17200.74805357  1321.53353557
0.39400002 17016.99594970  1310.73417512
0.39500002 16837.94005536  1200.20842401
0.39600002 16665.02842992  1389.36348603
0.39700002 16497.76791992  1083.40847063
0.39800002 16336.44662285  1271.05728971
0.39900002 16180.43447073  1164.99133709
0.40000002 16029.77071607  1542.70520681
0.40100002 15884.78147693  1053.63760529
0.40200002 15745.04675852  951.78812165
0.40300002 15609.90173497  1135.15210795
0.40400002 15480.21753281  1034.46558564
0.40500002 15355.49243100  1309.20934670
0.40600002 15235.50800504  1302.17893089
0.40700002 15120.12348397  1017.88676117
0.40800002 15009.48166294  1104.99809238
0.40900002 14903.07720166  1283.15500786
0.41000002 14801.55574199  1277.52233662
0.41100002 14703.98078081  999.57666084
0.41200002 14610.30033170  1176.64059297
0.41300002 14521.50975448  901.78579848
0.41400002 14436.14546510  1078.38011734
0.41500002 14354.92615070  1074.89692110
0.41600002 14277.01017448  1160.93513735
0.41700002 14203.18314916  1157.70151334
0.41800002 14133.94135767  1065.98190771
0.41900002 14066.24899517  1240.64322016
0.42000002 14003.24475878  1591.74890715
0.42100002 13943.91236332  882.64969442
0.42200002 13887.80511068  969.29940363
0.42300002 13834.29931332  879.86147802
0.42400002 13783.90098345  966.59610227
0.42500002 13736.98939634  1053.35239683
0.42600002 13692.07346155  1052.37281612
0.42700002 13651.38068358  1139.34428584
0.42800002 13612.47140883  1051.15509200
0.42900002 13577.44288269  1226.04315041
0.43000002 13544.46787716  1225.90984565
0.43100002 13513.13076503  1401.04146411
0.43200002 13485.38946223  1138.63891320
0.43300002 13459.88406302  1226.73389164
0.43400002 13436.63968673  1227.43709355
0.43500002 13415.52621327  1140.58809270
0.43600002 13397.03256373  965.99307879
0.43700002 13380.05374878  1142.79044484
0.43800002 13365.17183918  880.09660732
0.43900002 13352.96929285  969.42561660
0.44000002 13342.18311313  1059.10254571
0.44100002 13333.65893695  1237.63028118
0.44200002 13326.72544331  1239.78532674
0.44300002 13321.67785121  887.22378694
0.44400002 13318.60772058  1155.72223972
0.44500002 13315.96500781  1514.42477211
0.44600002 13315.43937324  1249.92035320
0.44700002 13317.33592903  984.41751853
0.44800002 13319.24884554  1076.46174271
0.44900002 13324.19344858  1349.07465060
0.45000002 13329.80875691  1082.11392617
0.45100002 13336.49012617  1175.47829543
0.45200002 13344.67202338  906.77050696
0.45300002 13353.70056997  1000.32575710
0.45400002 13364.34118971  1550.59776002
0.45500002 13376.01060439  1097.90300244
0.45600002 13388.61657345  1376.68456441
0.45700002 13402.30296184  1381.10738567
0.45800002 13416.54484887  1662.71248192
0.45900002 13431.87303879  1482.87885376
0.46000002 13448.82673227  1115.98369514
0.46100002 13465.49643855  1026.47484216
0.46200002 13483.84540461  1498.32497237
0.46300002 13502.87464739  1127.76014400
0.46400002 13521.95481300  1414.73458936
0.46500002 13542.23286149  1041.26233407
0.46600002 13562.83728099  950.07679656
0.46700002 13583.86969605  1048.94646764
0.46800002 13606.41325633  957.21121795
0.46900002 13628.39664090  1345.12281221
0.47000002 13651.20279937  1253.79478053
0.47100002 13674.55436078  968.15849463
0.47200002 13698.51512480  1263.48260242
0.47300002 13722.93913582  1073.27112068
0.47400002 13746.98625219  979.47281689
0.47500002 13771.78934841  1179.96696730
0.47600002 13797.37376991  1085.92235403
0.47700002 13822.35045121  991.06257433
