# SAXS profile: number of points = 501, q_min = 0, q_max = 0.5, delta_q = 0.001
#    q    intensity    error
0.00000000 1646666.22097350 370.49989972
0.00100000 1646580.01113312 642.16621959
0.00200000 1646321.35151483 963.09802113
0.00300000 1645890.46597244 1580.05490362
0.00400000 1645287.20912865 1357.36199911
0.00500000 1644512.25371796 2812.11606516
0.00600000 1643565.43952262 2243.46691628
0.00700000 1642447.52164139 3547.68679419
0.00800000 1641158.24819715 2658.67647433
0.00900000 1639699.08493911 2459.54873255
0.01000000 1638069.40948279 2973.09610659
0.01100000 1636270.77721616 3534.34503267
0.01200000 1634303.04804208 3824.26930009
0.01300000 1632167.65919086 4455.81790611
0.01400000 1629864.75782063 4767.35462797
0.01500000 1627395.85107614 5858.62532475
0.01600000 1624760.70879000 4557.45399189
0.01700000 1621961.39979252 5255.15517107
0.01800000 1618998.50265107 7382.63350429
0.01900000 1615872.98023054 7271.42873914
0.02000000 1612585.61444868 8635.39635600
0.02100000 1609139.14278430 5841.17535314
0.02200000 1605532.12759295 6646.90331022
0.02300000 1601767.89699053 6343.00116081
0.02400000 1597846.84148128 7190.31111453
0.02500000 1593771.40597184 6837.27964388
0.02600000 1589541.98788124 9012.70348351
0.02700000 1585160.51744510 7323.44192602
0.02800000 1580627.56069841 7563.30322479
0.02900000 1575946.35779877 9219.28661642
0.03000000 1571117.64738180 8766.83687536
0.03100000 1566142.97614927 8269.23529456
0.03200000 1561023.60194248 11590.60077826
0.03300000 1555763.63130215 11901.59232813
0.03400000 1550361.45398355 11395.15721256
0.03500000 1544821.57422538 9176.24057464
0.03600000 1539144.12314893 11104.92536172
0.03700000 1533332.47548936 9613.99506594
0.03800000 1527388.10652026 11615.78708766
0.03900000 1521313.32763046 10953.45646619
0.04000000 1515108.50007973 13976.87656091
0.04100000 1508777.73461591 9505.30016881
0.04200000 1502322.29763518 9689.97926929
0.04300000 1495744.23121783 11846.29486113
0.04400000 1489046.16546443 13066.38070878
0.04500000 1482230.81488517 12272.87171751
0.04600000 1475298.33522824 14561.19524561
0.04700000 1468253.24391398 11628.56623262
0.04800000 1461096.74793496 10739.06159699
0.04900000 1453831.60292418 15265.23254126
0.05000000 1446459.68549995 15491.58395309
0.05100000 1438985.00322348 14591.30861241
0.05200000 1431406.54066780 12517.65078148
0.05300000 1423729.78112738 14991.87529416
0.05400000 1415955.84895672 17522.45444798
0.05500000 1408088.34507314 16559.11971053
0.05600000 1400127.97453360 23942.18948177
0.05700000 1392079.66476138 19377.74983800
0.05800000 1383942.99728469 19596.63375657
0.05900000 1375721.82569351 14857.79641144
0.06000000 1367419.90547250 15014.27126354
0.06100000 1359038.45137082 13902.96400723
0.06200000 1350580.28551138 17868.17801254
0.06300000 1342049.02313277 19325.50683668
0.06400000 1333443.59653475 16901.39837650
0.06500000 1324770.91369644 14426.75592501
0.06600000 1316031.92731700 15871.34578604
0.06700000 1307227.81515931 21333.95894181
0.06800000 1298362.91878500 18813.27957383
0.06900000 1289440.82169918 14893.04218790
0.07000000 1280461.00407156 15000.60136515
0.07100000 1271428.11036458 16477.70908210
0.07200000 1262343.50775201 16587.19446892
0.07300000 1253211.25080387 13910.64553571
0.07400000 1244033.96029776 18193.99752200
0.07500000 1234812.23572874 16892.23217655
0.07600000 1225549.43431612 14155.09662995
0.07700000 1216249.43394396 14230.11904437
0.07800000 1206913.23259458 18592.49922004
0.07900000 1197542.94304849 14370.51599061
0.08000000 1188143.82839931 21653.92228839
0.08100000 1178716.26510106 14498.21074097
0.08200000 1169262.04268544 17468.77573745
0.08300000 1159784.29188459 21919.92414536
0.08400000 1150286.39259337 20532.61307156
0.08500000 1140769.98450779 16187.52684009
0.08600000 1131237.68729983 17715.18301487
0.08700000 1121691.58485504 16286.96257689
0.08800000 1112133.52112347 23755.17312683
0.08900000 1102567.07145171 19350.05301284
0.09000000 1092993.88526438 16411.30395817
0.09100000 1083416.21872400 19436.48787706
0.09200000 1073835.77502777 17976.01171860
0.09300000 1064256.83200556 21008.43085102
0.09400000 1054678.14962372 18034.99720616
0.09500000 1045104.17524521 18059.40099708
0.09600000 1035536.20423121 18080.46297580
0.09700000 1025979.18586872 18098.27368957
0.09800000 1016431.93130447 19622.21935642
0.09900000 1006898.26176927 19634.51702776
0.10000000 997377.83121741 16621.30233889
0.10100000 987874.41651880 16625.92721196
0.10200000 978389.70420813 18139.34596923
0.10300000 968925.67996872 18138.28958225
0.10400000 959484.45063327 27201.38545514
0.10500000 950069.27611757 25680.37374170
0.10600001 940676.92993292 15097.86543583
0.10700001 931314.88314107 18104.76218023
0.10800001 921980.83600975 18089.26485382
0.10900001 912679.40380315 15059.21087152
0.11000001 903410.98149817 19554.33161494
0.11100001 894176.38987077 24035.46249116
0.11200001 884979.08325993 19500.51501766
0.11300001 875818.55583719 20967.09721389
0.11400001 866697.83828137 14950.53841429
0.11500001 857618.22232893 16414.81354832
0.11600001 848580.96862635 17871.11604085
0.11700001 839587.35411344 16346.76655444
0.11800001 830638.13181578 17792.26962148
0.11900001 821734.58644339 14791.22325267
0.12000001 812878.41452429 20655.24148603
0.12100001 804072.45074897 20600.33715863
0.12200001 795315.91186711 17608.29511829
0.12300001 786610.85026898 21946.44375650
0.12400001 777957.69947311 17504.04906289
0.12500001 769357.12604205 20357.19051431
0.12600001 760812.56525826 15942.82805627
0.12700001 752322.58910548 21666.89158732
0.12800001 743888.85793252 15833.67508732
0.12900001 735512.58049216 17210.99519471
0.13000001 727194.66864702 20005.12627742
0.13100001 718934.98605811 17081.89607394
0.13200001 710734.93959631 18432.91152736
0.13300001 702596.63656971 16946.63167298
0.13400001 694518.57647691 19689.60257140
0.13500001 686503.22972289 18206.06651063
0.13600001 678549.77989533 20916.29795149
0.13700001 670660.21847277 22212.26748320
0.13800001 662833.47863217 17966.10228553
0.13900001 655072.03286214 16507.81600660
0.14000001 647375.04256080 13691.98279588
0.14100001 639743.46225846 13626.53638877
0.14200001 632177.18700682 13560.20130087
0.14300001 624678.35148192 14842.35833129
0.14400001 617243.40788838 20137.56713224
0.14500001 609877.39262228 13356.31552847
0.14600001 602577.74594168 15944.20790977
0.14700001 595347.33690201 17181.72495357
0.14800001 588181.51219278 18404.20038480
0.14900001 581085.05374723 19611.62148926
0.15000001 574056.03703056 15602.84382268
0.15100001 567095.40324841 18101.68612582
0.15200001 560203.16117257 15427.99578669
0.15300001 553380.18006196 15339.69931518
0.15400001 546623.15561953 15250.78676148
0.15500001 539936.39541400 13897.96347384
0.15600001 533315.29823084 18839.36379913
0.15700001 526765.95229504 14981.22439034
0.15800001 520281.14622099 18613.05888457
0.15900001 513866.89002950 14799.36713139
0.16000001 507518.17597546 19610.50324536
0.16100001 501240.38063431 24360.28364874
0.16200001 495028.69011464 16944.83286252
0.16300001 488884.45102907 15634.52548198
0.16400001 482807.49176263 14339.38318231
0.16500001 476797.22717373 16621.15212398
0.16600001 470854.58809279 12974.39878746
0.16700001 464976.88911121 15232.64360649
0.16800001 459164.77047452 16295.75847357
0.16900001 453420.64432670 15030.89506916
0.17000001 447740.35118292 16078.35677019
0.17100001 442125.21615235 12547.51422691
0.17200001 436575.41320064 12462.04575831
0.17300001 431089.67308296 15752.01739833
0.17400001 425667.92166650 11173.78347144
0.17500001 420309.59518127 13315.40860420
0.17600001 415012.91447407 15426.03075956
0.17700001 409780.50859189 12035.25410578
0.17800001 404608.55625645 13036.48829832
0.17900001 399498.94707076 14022.41370451
0.18000001 394450.53112370 17134.93188138
0.18100001 389464.11755695 13822.08218500
0.18200001 384535.00118523 13722.13216550
0.18300001 379666.51608077 12574.55560661
0.18400001 374856.61867655 12482.72599162
0.18500001 370106.67857724 10325.97682013
0.18600001 365412.77327096 14349.76028428
0.18700001 360776.17475837 11191.27746973
0.18800001 356196.18142153 13127.61088652
0.18900001 351674.04391495 10022.71072512
0.19000001 347203.67379708 11936.86286915
0.19100001 342792.57130841 12834.15447620
0.19200001 338432.47653690 13716.66892217
0.19300001 334128.63213532 11667.77238550
0.19400001 329875.68248214 11578.63700226
0.19500001 325676.36897748 9574.88570040
0.19600001 321528.45275774 12351.51609638
0.19700001 317431.59616128 12256.03450698
0.19800001 313385.71305503 11225.47677213
0.19900001 309390.15024921 12066.21642997
0.20000001 305442.59562899 11050.91363214
0.20100001 301545.30538871 12791.55245915
0.20200001 297694.54578760 9971.27928243
0.20300001 293893.00350788 12590.37686536
0.20400001 290137.42173390 10706.07136801
0.20500001 286427.90955562 10620.74738833
0.20600001 282764.06077483 10535.78940248
0.20700001 279145.74169056 14805.89083913
0.20800001 275570.58090248 11230.87955557
0.20900001 272041.49883911 8569.30761851
0.21000001 268553.64508616 11899.61257629
0.21100001 265109.08875173 8430.46942084
0.21200001 261706.09686654 8361.51019017
0.21300001 258343.73914160 9951.40130219
0.21400001 255023.26385652 10691.85084266
0.21500001 251743.66913455 10603.44384525
0.21600001 248502.69372285 10515.39198203
0.21700001 245300.98709667 10427.74545450
0.21800001 242137.90750946 7954.23063777
0.21900001 239011.68154745 9464.86303679
0.22000001 235922.85565742 10949.18024877
0.22100001 232872.32864182 7754.64891044
0.22200001 229858.00115679 9995.37565293
0.22300001 226877.89030793 10672.33646473
0.22400001 223932.83265354 9069.28015132
0.22500001 221024.62251342 10489.82908052
0.22600001 218148.28565653 10399.12926900
0.22700001 215307.82678276 9572.58643144
0.22800001 212499.36274399 8029.28880099
0.22900001 209722.64114592 10853.14719256
0.23000001 206979.23405275 7171.83079910
0.23100001 204268.19551814 9241.09360228
0.23200001 201586.70881821 8454.54696768
0.23300001 198936.61931969 9775.74593571
0.23400001 196317.69346181 7612.21892400
0.23500001 193726.78231895 9601.09978582
0.23600001 191166.91730689 10873.57477070
0.23700001 188635.42727865 7407.71357960
0.23800001 186132.67074195 7340.14221789
0.23900001 183657.73097484 8595.18221617
0.24000001 181210.55457521 7860.91422930
0.24100001 178791.83046000 9735.21562903
0.24200001 176399.58604833 8358.69478028
0.24300001 174034.19132700 7643.58204464
0.24400001 171694.45450790 8833.68010230
0.24500001 169380.85073758 8125.19979424
0.24600001 167093.02427844 6190.79684237
0.24700001 164830.62485598 6131.69953471
0.24800001 162592.94505491 6680.13146360
0.24900001 160378.93309223 7818.47335812
0.25000001 158190.38432849 7147.04190208
0.25100001 156024.47514307 7077.27052731
0.25200001 153883.96546421 6423.88644222
0.25300001 151766.48490428 8095.22468778
0.25400001 149671.50968621 8014.90972289
0.25500001 147599.20747682 8501.71475290
0.25600001 145549.92966213 7294.23507013
0.25700001 143522.09564512 7220.59697354
0.25800001 141517.21393499 7147.32722796
0.25900001 139533.93340727 6530.18839243
0.26000001 137572.10288117 6463.13769916
0.26100001 135630.80497065 6396.34906507
0.26200001 133711.73946516 5274.92837149
0.26300001 131812.55982232 5219.77761595
0.26400001 129934.26273085 6197.86462553
0.26500001 128076.87097818 6643.34761199
0.26600001 126238.67723058 5561.44518856
0.26700001 124421.65585112 6502.27604247
0.26800001 122624.75589489 5442.70004795
0.26900001 120846.01587128 6362.54303671
0.27000001 119087.95424569 4840.92556917
0.27100001 117348.51763130 5266.60172052
0.27200001 115629.60539199 5682.03907786
0.27300001 113928.71493312 6087.21152695
0.27400001 112244.97031240 4630.10524450
0.27500001 110582.68658451 5951.56047364
0.27600001 108936.58231760 6336.84129331
0.27700001 107310.37983112 6264.78027103
0.27800001 105701.49427523 4865.96851925
0.27900001 104111.98122175 4809.97376009
0.28000001 102538.79209987 4322.01029156
0.28100001 100984.27703596 4698.79863287
0.28200001 99448.13200554  5488.04542447
0.28300001 97928.91838830  5840.48096911
0.28400001 96426.96841601  4946.70371387
0.28500001 94942.82177425  4073.04724690
0.28600001 93475.76341704  4828.95816669
0.28700001 92025.81881633  4373.06711714
0.28800001 90592.19029438  4712.60596218
0.28900001 89177.29178439  4655.05485149
0.29000001 87777.77364780  4214.65000120
0.29100001 86395.69054244  4162.54456737
0.29200001 85030.22796384  4110.78656550
0.29300001 83681.28079317  4059.37912343
0.29400001 82348.10210670  4008.29405978
0.29500001 81032.47924039  3957.62647344
0.29600001 79732.40613472  4617.70251988
0.29700001 78448.57877644  5259.97745596
0.29800001 77180.75682678  3807.71281830
0.29900001 75929.49764121  3758.51031116
0.30000001 74693.47766013  4046.89281120
0.30100001 73474.45935122  4326.91111603
0.30200001 72269.25886804  3941.56556526
0.30300001 71081.48420036  4213.71058288
0.30400001 69909.12922344  5757.01706410
0.30500001 68752.04808777  4418.00681928
0.30600001 67609.28299887  4358.77068129
0.30700001 66483.30115579  3378.68152469
0.30800001 65372.05206091  3332.99423212
0.30900001 64276.11211003  4184.37509647
0.31000001 63195.62591638  3242.88369743
0.31100001 62129.13972104  4361.46581491
0.31200001 61078.46682079  3154.39756831
0.31300001 60041.92593201  3676.36729888
0.31400001 59021.41905051  2788.76218218
0.31500001 58014.53600195  3299.86696403
0.31600002 57022.83882896  2982.57972617
0.31700002 56045.52450545  3208.04597459
0.31800002 55082.68390582  3426.41851460
0.31900002 54134.25865457  2858.28899230
0.32000002 53200.39401976  3586.23873068
0.32100002 52280.12083098  3030.15594684
0.32200002 51375.10358678  2489.12388664
0.32300002 50482.55139552  3189.48774819
0.32400002 49604.53091800  2418.22099676
0.32500002 48740.35643116  2860.08425081
0.32600002 47890.36274314  2818.82688454
0.32700002 47053.36726022  2778.03093459
0.32800002 46230.83312364  2965.93923949
0.32900002 45420.93754326  3372.50477229
0.33000002 44625.56504315  2880.35723211
0.33100002 43840.80007942  2183.27194734
0.33200002 43072.56925701  2581.76992352
0.33300002 42315.86731142  4240.05010539
0.33400002 41572.61840420  2506.82900849
0.33500002 40841.25005199  2675.91883013
0.33600002 40123.82846199  2231.08558729
0.33700002 39418.10945721  2797.89754177
0.33800002 38725.83230279  2363.05039902
0.33900002 38045.28400567  2328.37149141
0.34000002 37377.50066158  2103.04517432
0.34100002 36721.85551617  2260.59753263
0.34200002 36078.90631338  2413.13776305
0.34300002 35447.03008749  2011.97352305
0.34400002 34828.33732111  2883.78646676
0.34500002 34220.65588252  2131.26254930
0.34600002 33625.76557935  2625.33177194
0.34700002 33040.66839583  2414.61216073
0.34800002 32468.72328171  2379.63284202
0.34900002 31907.39484796  1675.13830886
0.35000002 31357.44344474  1650.96947556
0.35100002 30819.41567888  1789.99174741
0.35200002 30290.92928181  1924.68573773
0.35300002 29774.03427872  2213.40181311
0.35400002 29268.20747394  1714.38533399
0.35500002 28773.06736730  1997.42643124
0.35600002 28287.56822742  1514.79935033
0.35700002 27813.13193443  1792.27830675
0.35800002 27349.58504388  1620.05274681
0.35900002 26895.85674763  2178.56449975
0.36000002 26452.49651703  1432.40275424
0.36100002 26018.37010795  1836.63683292
0.36200002 25595.18194139  1533.02349499
0.36300002 25180.82071518  1512.36016379
0.36400002 24775.98580427  1763.43087315
0.36500002 24380.60197402  1606.19413413
0.36600002 23994.90909385  1717.19575064
0.36700002 23617.88441130  2216.30237814
0.36800002 23251.44799852  1801.75479075
0.36900002 22892.81968309  1524.66186312
0.37000002 22542.85551683  1505.41196272
0.37100002 22201.54511840  1238.84627629
0.37200002 21869.62709333  2202.49024890
0.37300002 21545.65232455  1450.45338320
0.37400002 21229.94914627  1313.60316565
0.37500002 20923.05172156  1652.08424220
0.37600002 20624.29877643  1282.93456616
0.37700002 20332.95411509  1498.74211882
0.37800002 20049.41268529  1709.71374773
0.37900002 19774.26870211  1352.56004330
0.38000002 19506.64135398  1672.20690929
0.38100002 19245.49170962  1323.32007264
0.38200002 18992.86434017  1418.48214044
0.38300002 18746.74402495  1403.75625909
0.38400002 18508.51389939  1603.30009249
0.38500002 18276.23230338  1375.65207065
0.38600002 18051.87779063  1152.70271093
0.38700002 17833.79164938  2075.85344633
0.38800002 17622.30292198  1028.26142421
0.38900002 17416.94112069  1630.22576613
0.39000002 17219.05573521  1110.88743339
0.39100002 17026.47411377  1301.50374292
0.39200002 16840.58539372  1290.57832279
0.39300002 16660.49277675  1280.02572068
0.39400002 16487.59668895  1269.95719513
0.39500002 16319.16774855  1066.29447121
0.39600002 16156.77814045  1828.05874931
0.39700002 15999.87327068  1241.75022337
0.39800002 15848.71675285  1138.25489112
0.39900002 15702.74730910  1130.59785982
0.40000002 15561.90557870  1216.86326438
0.40100002 15426.62682134  1023.24820554
0.40200002 15296.41171486  924.66813197
0.40300002 15170.63355273  1470.94469897
0.40400002 15050.23678294  1097.16231346
0.40500002 14934.56519068  909.51506321
0.40600002 14823.56061220  1176.47194373
0.40700002 14716.83043877  1260.93809174
0.40800002 14614.89489100  896.62384405
0.40900002 14516.95405560  982.07198839
0.41000002 14423.68015738  978.14191622
0.41100002 14334.35185403  974.44928521
0.41200002 14248.72910886  970.97969113
0.41300002 14167.75136301  1319.72610200
0.41400002 14090.18474014  877.11404163
0.41500002 14016.61931099  1049.56450374
0.41600002 13946.21894896  1134.03684757
0.41700002 13879.67522036  1131.33238082
0.41800002 13817.74299915  1215.82326411
0.41900002 13757.11444189  1126.70772618
0.42000002 13701.07168360  951.74498960
0.42100002 13648.57926070  1036.74612977
0.42200002 13599.21537132  1380.59240992
0.42300002 13552.34921254  1206.70123106
0.42400002 13508.31314475  947.27050416
0.42500002 13467.82240574  1032.71267101
0.42600002 13429.08616215  1032.15961133
0.42700002 13394.58131868  945.92537755
0.42800002 13361.53575722  1117.75932674
0.42900002 13332.43870208  859.94233703
0.43000002 13305.22572356  1118.23774893
0.43100002 13279.50695572  860.51209151
0.43200002 13257.30456491  1119.38056398
0.43300002 13237.22319921  1034.09192533
0.43400002 13219.27199730  1293.83630805
0.43500002 13203.38974414  1122.55224924
0.43600002 13189.93648506  864.60037757
0.43700002 13177.97593940  1125.53097832
0.43800002 13168.04246195  1040.53876465
0.43900002 13160.63278734  1042.32216615
0.44000002 13154.51925354  1218.24008580
0.44100002 13150.60651187  1046.26230367
0.44200002 13148.17020330  1223.17433198
0.44300002 13147.54071267  963.18887826
0.44400002 13148.78607228  877.68151192
0.44500002 13150.39186033  1055.71350858
0.44600002 13153.99735463  1058.37067731
0.44700002 13159.95119069  1061.21851431
0.44800002 13165.78310459  975.38708753
0.44900002 13174.58271999  978.21281332
0.45000002 13183.97816652  1159.46501480
0.45100002 13194.33405970  1073.49106997
0.45200002 13206.05002450  987.08625586
0.45300002 13218.68385534  1260.26937850
0.45400002 13232.74021868  1083.76147527
0.45500002 13247.76873901  1359.22113704
0.45600002 13263.63347387  1000.14432950
0.45700002 13280.49153363  1094.84377392
0.45800002 13297.85041303  1007.11274876
0.45900002 13316.30517784  1286.35514115
0.46000002 13336.19952914  1106.63788938
0.46100002 13355.78616698  1203.22283281
0.46200002 13376.98081757  1393.54704272
0.46300002 13398.77423588  932.55473102
0.46400002 13420.51976878  936.08129824
0.46500002 13443.39874826  1503.50978727
0.46600002 13466.60581962  1509.33725180
0.46700002 13490.19086293  1136.41373215
0.46800002 13515.13178467  1140.94747934
0.46900002 13539.45288642  1145.43776848
0.47000002 13564.56790320  1150.00412134
0.47100002 13590.24465681  1058.40830404
0.47200002 13616.30718718  1159.29244886
0.47300002 13642.84322018  1552.00991829
0.47400002 13668.96307339  1071.30503165
0.47500002 13695.78221968  1369.03045557
0.47600002 13723.26752328  1374.65977296
0.47700002 13750.12927679  985.88431588
