# SAXS profile: number of points = 501, q_min = 0, q_max = 0.5, delta_q = 0.001
#    q    intensity    error
0.00000000 1664650.74656090 324.60689558
0.00100000 1664564.04135881 599.24306912
0.00200000 1664303.89768877 898.72413321
0.00300000 1663870.53158683 1197.98682542
0.00400000 1663263.81048534 1372.19269579
0.00500000 1662484.39545773 1496.23601513
0.00600000 1661532.13813356 2093.53057928
0.00700000 1660407.78867184 2390.98731506
0.00800000 1659111.10522837 3135.72012127
0.00900000 1657643.52868226 3729.69809897
0.01000000 1656004.46425877 3278.88898081
0.01100000 1654195.45848340 3275.30715040
0.01200000 1652216.38489211 4510.55092852
0.01300000 1650068.66753449 3465.14435465
0.01400000 1647752.46504474 5190.42049499
0.01500000 1645269.24315100 4343.51099533
0.01600000 1642618.84692835 5864.14954568
0.01700000 1639803.31680885 4870.21606939
0.01800000 1636823.20612046 6997.41952103
0.01900000 1633679.52000700 6371.35041552
0.02000000 1630373.02826271 8730.64796128
0.02100000 1626906.49094494 8053.18749530
0.02200000 1623278.42744312 5600.31082911
0.02300000 1619492.18946419 5830.17214745
0.02400000 1615548.22853006 6664.13674655
0.02500000 1611448.85281640 6913.11589431
0.02600000 1607194.64072170 7160.05245190
0.02700000 1602787.34839829 8751.21932307
0.02800000 1598227.74565061 7647.52011365
0.02900000 1593518.88015186 11473.33646388
0.03000000 1588661.63150988 8864.73231129
0.03100000 1583657.46496087 8361.71179974
0.03200000 1578507.65582265 10939.05855868
0.03300000 1573216.36278340 12837.44611212
0.03400000 1567781.98281949 9053.94136853
0.03500000 1562208.94013771 8435.92866630
0.03600000 1556497.54344056 8638.56176532
0.03700000 1550650.95701134 9722.58195011
0.03800000 1544670.80759579 10843.58957116
0.03900000 1538559.31327759 12923.89883004
0.04000000 1532316.99457047 10366.12494862
0.04100000 1525947.70988824 12497.51232345
0.04200000 1519453.02168727 11760.56693347
0.04300000 1512834.87267240 10983.18168542
0.04400000 1506095.76208191 13215.99092605
0.04500000 1499238.47837907 11379.22057963
0.04600000 1492263.36628906 16832.73155424
0.04700000 1485174.75923138 13901.23639292
0.04800000 1477973.86149497 16294.66258114
0.04900000 1470663.66405100 12132.97579318
0.05000000 1463245.71481806 17910.12838338
0.05100000 1455724.16640253 13625.57883226
0.05200000 1448098.22861906 11512.38145401
0.05300000 1440373.10157790 19833.93853334
0.05400000 1432549.97778372 14182.24544143
0.05500000 1424632.64012508 14360.29768236
0.05600000 1416621.45613227 12112.11401513
0.05700000 1408521.76743005 20832.03791270
0.05800000 1400332.86654866 14871.53573713
0.05900000 1392058.68737154 18792.79315725
0.06000000 1383703.06237216 12660.88361221
0.06100000 1375267.24957368 15347.98322247
0.06200000 1366753.99603243 20665.32138598
0.06300000 1358166.81096917 16949.92259339
0.06400000 1349504.92534267 18420.74309241
0.06500000 1340774.82630766 17255.77282177
0.06600000 1331977.89709052 16063.65419051
0.06700000 1323115.26370160 14845.35395348
0.06800000 1314191.08081588 16322.25398776
0.06900000 1305209.04098831 17816.10424362
0.07000000 1296168.60361378 15184.61590241
0.07100000 1287074.33150320 18070.52446069
0.07200000 1277927.95475351 16791.97411211
0.07300000 1268733.08097400 16899.52543041
0.07400000 1259492.74691877 17003.15288024
0.07500000 1250207.13743774 14252.36203483
0.07600000 1240880.13661054 22931.46599960
0.07700000 1231515.11110985 20172.21846582
0.07800000 1222113.50875356 18826.65948525
0.07900000 1212677.15327405 17462.55182621
0.08000000 1203211.27201288 17542.82116890
0.08100000 1193716.67561926 17619.25895880
0.08200000 1184194.55410276 20640.51204657
0.08300000 1174648.69365789 14800.57423471
0.08400000 1165081.94184607 17825.75454696
0.08500000 1155496.23790893 16396.49238566
0.08600000 1145894.03353765 17944.70140773
0.08700000 1136277.77313580 22498.30096456
0.08800000 1126648.85258842 22561.14433264
0.08900000 1117011.13952367 19603.54641941
0.09000000 1107366.32183316 16627.10610339
0.09100000 1097716.51301814 18178.18630961
0.09200000 1088063.40690736 18214.18228745
0.09300000 1078411.41148087 18246.72193971
0.09400000 1068759.20726722 22844.72912898
0.09500000 1059111.30457787 19826.56455360
0.09600000 1049469.16319611 18323.73245076
0.09700000 1039837.52538142 16814.17357590
0.09800000 1030215.00282747 26007.77896920
0.09900000 1020606.03324824 16840.00034045
0.10000000 1011009.81317785 21443.51914593
0.10100000 1001430.14201091 15321.88189338
0.10200000 991869.11789157 21454.13002912
0.10300000 982328.22347707 24518.91361138
0.10400000 972809.69297460 19918.27940071
0.10500000 963317.12459700 21443.44020243
0.10600001 953847.09384530 16840.17123423
0.10700001 944407.00234342 19889.21240529
0.10800001 934994.77313963 22930.74789041
0.10900001 925614.68867597 18327.17169836
0.11000001 916267.33295727 15255.85181182
0.11100001 906953.72859784 18284.18802923
0.11200001 897677.06022344 16737.18957580
0.11300001 888436.91962221 16711.49924488
0.11400001 879236.54297563 16683.51418850
0.11500001 870076.78296554 16653.27041013
0.11600001 860959.37652851 21153.77287747
0.11700001 851885.51258495 21109.72399602
0.11800001 842855.55098202 22567.45844043
0.11900001 833871.40761677 15009.68604408
0.12000001 824934.36192312 19464.32718644
0.12100001 816047.17379310 20907.12957748
0.12200001 807209.49308647 17871.61901889
0.12300001 798423.29149172 17820.80870571
0.12400001 789688.58545727 16287.32784247
0.12500001 781006.52989987 14761.02411065
0.12600001 772380.41135476 16185.23228264
0.12700001 763808.68923040 20531.17853407
0.12800001 755293.05911770 20460.88993580
0.12900001 746835.17514269 18932.27258218
0.13000001 738435.23530566 15961.27836346
0.13100001 730093.63872314 21683.78209220
0.13200001 721811.47666550 17280.16756596
0.13300001 713591.16322434 17211.81966839
0.13400001 705430.94722726 17141.97282579
0.13500001 697333.59550719 15648.16662096
0.13600001 689298.10817879 14165.07679097
0.13700001 681326.44546504 15513.80389477
0.13800001 673417.45527008 14040.75460448
0.13900001 665574.21918613 15374.76518825
0.14000001 657795.20086468 13912.36915440
0.14100001 650081.63484299 20770.10921281
0.14200001 642433.53181482 15158.21989811
0.14300001 634852.83381329 23311.79715719
0.14400001 627336.06259757 15009.01600562
0.14500001 619888.41225186 17648.22392931
0.14600001 612507.25126437 16206.94263301
0.14700001 605195.27792166 14778.86938406
0.14800001 597948.13823623 14700.55567209
0.14900001 590770.47267350 17280.03714099
0.15000001 583660.24623432 14541.89572106
0.15100001 576618.42880300 17090.97103616
0.15200001 569645.48816190 13073.36457021
0.15300001 562741.73403551 15599.20160358
0.15400001 555904.19122494 23264.59150064
0.15500001 549136.94800411 17989.72726560
0.15600001 542435.63012698 16606.66760009
0.15700001 535806.33045251 19047.91594659
0.15800001 529241.63736781 16409.13774108
0.15900001 522747.63150847 15055.13249806
0.16000001 516319.40909662 18703.67147738
0.16100001 509962.34008766 12392.08544909
0.16200001 503671.55751994 14777.72419523
0.16300001 497448.44048881 13460.95543509
0.16400001 491293.03573089 15807.35417090
0.16500001 485204.37134510 12081.58941688
0.16600001 479183.60530143 15604.61484338
0.16700001 473228.10247655 13117.88362001
0.16800001 467338.26842747 16585.83592961
0.16900001 461516.80705769 18829.88661706
0.17000001 455759.61290180 12859.25808523
0.17100001 450067.59065006 15095.26770322
0.17200001 444441.37876448 17299.88148536
0.17300001 438879.44520838 13745.70487306
0.17400001 433381.81165060 13651.52771170
0.17500001 427947.84986192 11297.82376992
0.17600001 422575.83694895 12341.32790096
0.17700001 417268.48861099 15597.49684096
0.17800001 412021.98595246 13275.34901441
0.17900001 406837.97152351 13181.55089997
0.18000001 401715.60969656 10906.57931843
0.18100001 396655.46227703 11911.56409484
0.18200001 391653.16060938 11825.96774323
0.18300001 386711.75117842 13875.21828774
0.18400001 381829.18333952 14834.06447351
0.18500001 377006.98445683 13674.04397224
0.18600001 372241.40129311 10441.37179956
0.18700001 367533.18692484 12437.32363314
0.18800001 362882.13468852 14402.79260626
0.18900001 358289.20783155 13274.61577735
0.19000001 353748.45973982 13175.36200553
0.19100001 349267.36978135 11064.79079749
0.19200001 344837.76295227 10981.35908010
0.19300001 340464.78653998 14861.28863470
0.19400001 336143.06079764 12781.84049082
0.19500001 331875.28567652 12684.27401795
0.19600001 327659.41966595 11618.80357042
0.19700001 323495.11892795 14411.70822930
0.19800001 319382.07055912 10486.91078241
0.19900001 315319.92926875 10405.55815763
0.20000001 311305.98182985 15017.40127321
0.20100001 307342.87673779 10243.73856581
0.20200001 303426.59958872 10163.27443358
0.20300001 299560.13287649 15583.11884877
0.20400001 295740.01726905 11822.20774912
0.20500001 291966.32909099 9021.75999534
0.20600001 288238.89675230 12529.74543408
0.20700001 284557.37411137 11541.64763952
0.20800001 280919.36871157 15852.28072573
0.20900001 277327.85918469 11356.57637045
0.21000001 273778.24503191 11264.60642434
0.21100001 270272.26336114 8594.65838118
0.21200001 266808.27550440 9376.97728589
0.21300001 263385.46791833 9300.14131186
0.21400001 260004.93665853 10900.70748476
0.21500001 256665.82315196 10810.76498227
0.21600001 253365.72185022 10721.17102697
0.21700001 250105.22730846 9814.12958359
0.21800001 246884.06438824 8921.15608847
0.21900001 243700.18773923 12063.15986346
0.22000001 240554.04007560 13556.42356944
0.22100001 237446.70594792 9488.37081832
0.22200001 234376.13602446 8623.87033280
0.22300001 231340.35028890 9327.64336471
0.22400001 228339.66516232 10018.40328273
0.22500001 225376.73554823 10696.38037492
0.22600001 222446.12713534 9846.57828327
0.22700001 219551.72426153 7508.66932482
0.22800001 216689.72218045 9676.28000156
0.22900001 213860.05787211 9591.62404916
0.23000001 211064.19385931 8044.71212940
0.23100001 208301.21548771 9423.54743433
0.23200001 205568.22560106 9339.99277191
0.23300001 202867.14286133 7120.63705120
0.23400001 200197.60701925 8468.35917743
0.23500001 197556.62964432 9091.55652623
0.23600001 194947.19179709 6930.37299617
0.23700001 192366.50235245 7554.23290468
0.23800001 189815.18686023 6804.87477080
0.23900001 187292.04777111 10788.02246188
0.24000001 184797.22165308 8016.50385449
0.24100001 182331.34165320 11913.53042714
0.24200001 179892.27465148 7212.78109333
0.24300001 177480.54148012 9094.10337562
0.24400001 175095.14119921 8365.17076649
0.24500001 172736.22170190 7011.36357055
0.24600001 170403.53467964 8207.48663610
0.24700001 168096.82084901 8129.16264082
0.24800001 165815.23813407 6812.51938102
0.24900001 163557.79026146 8586.78439495
0.25000001 161326.27179615 6073.93442047
0.25100001 159117.99478668 9021.99073123
0.25200001 156935.30198600 6551.26449134
0.25300001 154776.35094167 5896.97924987
0.25400001 152640.25919110 7590.03724737
0.25500001 150527.27407114 6358.27235759
0.25600001 148437.91364668 6866.73821018
0.25700001 146370.37560652 7363.89394517
0.25800001 144326.22952435 8971.31885170
0.25900001 142304.10753551 6104.84650212
0.26000001 140303.91862792 6591.47840902
0.26100001 138324.77544136 5436.16393206
0.26200001 136368.13914844 5917.69567835
0.26300001 134431.93026315 6388.20562838
0.26400001 132517.09320655 5267.55470421
0.26500001 130623.60015287 8339.01102835
0.26600001 128749.74495855 9797.21230622
0.26700001 126897.45456635 5611.40570646
0.26800001 125065.69380729 5551.04108232
0.26900001 123252.55518673 5990.07446553
0.27000001 121460.51733490 6418.58134230
0.27100001 119687.49316680 10254.82489982
0.27200001 117935.48739166 5795.35012468
0.27300001 116201.97959085 6686.26222208
0.27400001 114485.85151563 6139.30407807
0.27500001 112791.72064315 7004.36618342
0.27600001 111114.24421143 6463.51589167
0.27700001 109456.93263045 5477.22516805
0.27800001 107817.37986858 4963.37331715
0.27900001 106197.60355865 5352.35947267
0.28000001 104594.55082550 5731.25868373
0.28100001 103010.55949325 5664.55093463
0.28200001 101445.41899085 5167.62988798
0.28300001 99897.60868236  5106.76599755
0.28400001 98367.36613037  7569.36918200
0.28500001 96855.33947776  4570.60368629
0.28600001 95360.74466722  4926.33630268
0.28700001 93883.71277682  5272.50955911
0.28800001 92423.29836873  5208.51522610
0.28900001 90982.01928545  4749.26163150
0.29000001 89556.46573785  4300.05390594
0.29100001 88148.78585078  3860.91700302
0.29200001 86757.98196585  4575.61618547
0.29300001 85384.07790630  4141.98181530
0.29400001 84026.40035883  4089.98523107
0.29500001 82686.57439927  4038.41248483
0.29600001 81362.62222222  5799.52798653
0.29700001 80055.20197584  3936.31446749
0.29800001 78764.13018811  3885.82854678
0.29900001 77490.07627909  4881.87503669
0.30000001 76231.48206222  5162.77736707
0.30100001 74990.34078209  5095.59389737
0.30200001 73763.33204177  3352.54360001
0.30300001 72553.93949734  3970.15175725
0.30400001 71360.40353032  4570.63406250
0.30500001 70182.31253365  3543.50512758
0.30600001 69019.05088823  3496.16018826
0.30700001 67872.74506929  3449.29306772
0.30800001 66741.51032122  4021.50989480
0.30900001 65625.89790722  3356.76483688
0.31000001 64526.03299169  3010.13958158
0.31100001 63440.43831526  4750.42024596
0.31200001 62370.97835764  3513.98108704
0.31300001 61315.95036479  3754.37581859
0.31400001 60277.15432635  3132.90524444
0.31500001 59252.42774483  3370.27824970
0.31600002 58242.97818369  4708.07136439
0.31700002 57248.28977406  3003.81790667
0.31800002 56268.29629077  4038.65715749
0.31900002 55303.02692914  3716.36358560
0.32000002 54352.59253964  2878.78520017
0.32100002 53415.98885898  3611.98933767
0.32200002 52494.86131970  2543.37615137
0.32300002 51586.53752111  2757.81642646
0.32400002 50692.81151152  3212.65708167
0.32500002 49813.25415398  2435.86824347
0.32600002 48948.20151012  3121.18221709
0.32700002 48096.29999394  3312.87330046
0.32800002 47259.09294222  3031.90725128
0.32900002 46434.87682485  2528.37916284
0.33000002 45625.29070559  3624.47326529
0.33100002 44826.64718755  2902.07727635
0.33200002 44044.66244783  3300.04649018
0.33300002 43274.45226375  2168.05016108
0.33400002 42517.86661550  2136.52289861
0.33500002 41773.43410680  2105.38117869
0.33600002 41043.15943984  2904.62453111
0.33700002 40324.63413249  2657.79676154
0.33800002 39619.92984925  2216.14088107
0.33900002 38927.04771335  3573.50314932
0.34000002 38247.18632993  2738.88114279
0.34100002 37579.66362364  2313.40420223
0.34200002 36925.01737665  1899.79223400
0.34300002 36281.50050762  2059.33806634
0.34400002 35651.50217206  2213.95838974
0.34500002 35032.61862340  2727.28948900
0.34600002 34426.73869193  1791.91183378
0.34700002 33830.81200291  2295.75901125
0.34800002 33248.18240504  2088.65091761
0.34900002 32676.32386882  1715.50708436
0.35000002 32116.04064048  2536.36442971
0.35100002 31567.84226273  2333.49501058
0.35200002 31029.33514677  2135.90438599
0.35300002 30502.50686557  1619.68319128
0.35400002 29986.92727207  1916.16474344
0.35500002 29482.27878788  2046.65989039
0.35600002 28987.35257245  2173.18192529
0.35700002 28503.57228502  2295.96285631
0.35800002 28030.88083806  1509.46300463
0.35900002 27568.13794199  1935.28337519
0.36000002 27115.90389938  1615.15889227
0.36100002 26672.99531835  1593.17808583
0.36200002 26241.19087737  2000.36607533
0.36300002 25818.28529608  1832.58197712
0.36400002 25405.07159145  2225.48437683
0.36500002 25001.42117009  1372.57808725
0.36600002 24607.58909502  1490.11262823
0.36700002 24222.45252555  2005.61916412
0.36800002 23848.14272745  1583.99371499
0.36900002 23481.74746442  1303.23704601
0.37000002 23124.06521827  1672.91057746
0.37100002 22775.05580606  1525.01780901
0.37200002 22435.69167473  1506.33241040
0.37300002 22104.28091939  1612.06528382
0.37400002 21781.29380164  1347.71761782
0.37500002 21467.16601858  1331.82304288
0.37600002 21161.33451953  1795.01028565
0.37700002 20862.96551136  1301.22322058
0.37800002 20572.42462996  1754.31359343
0.37900002 20290.50888991  1619.18268612
0.38000002 20016.07758940  1372.70266611
0.38100002 19748.31312473  1471.05191435
0.38200002 19489.04956966  1567.50433115
0.38300002 19236.43199407  1551.22594949
0.38400002 18991.76247295  1425.80663520
0.38500002 18753.05874281  1628.70322897
0.38600002 18522.44681191  1612.84213256
0.38700002 18298.12396952  1277.94103857
0.38800002 18080.46693490  1265.99435476
0.38900002 17869.05733152  1254.40788410
0.39000002 17665.13228546  1346.87807491
0.39100002 17466.63007113  1129.74168652
0.39200002 17274.86904523  1018.35357846
0.39300002 17088.91048349  1110.95012316
0.39400002 16910.24582722  1102.12532400
0.39500002 16736.13902542  1093.53937573
0.39600002 16568.03289257  1085.28904605
0.39700002 16405.51637026  1273.23218582
0.39800002 16248.90182238  1264.24586619
0.39900002 16097.41333094  1255.59829930
0.40000002 15951.08293920  1055.40345268
0.40100002 15810.37781927  1144.03899321
0.40200002 15674.89584659  1326.56649835
0.40300002 15543.82118359  941.95560836
0.40400002 15418.12117050  1404.97635823
0.40500002 15297.28919714  1211.08644312
0.40600002 15181.03829574  1204.84316143
0.40700002 15069.27070449  1014.46335189
0.40800002 14962.26830795  1009.72872460
0.40900002 14859.27722158  1096.61471091
0.41000002 14761.03968010  1001.01995334
0.41100002 14666.73567280  1178.32559978
0.41200002 14576.18618967  993.29425496
0.41300002 14490.33442747  1169.80475376
0.41400002 14407.91314333  896.89263567
0.41500002 14329.54536510  983.58004047
0.41600002 14254.33755620  1069.93062767
0.41700002 14183.08889059  1156.06363025
0.41800002 14116.40081723  975.93741674
0.41900002 14051.06096550  1062.26025933
0.42000002 13990.40019469  971.84319557
0.42100002 13933.30309970  1146.57156640
0.42200002 13879.32276087  1144.83599218
0.42300002 13827.87177001  879.45268625
0.42400002 13779.36497159  1141.96492613
0.42500002 13734.32133604  1140.91012745
0.42600002 13691.10122779  1139.98959775
0.42700002 13652.10866294  1051.75850123
0.42800002 13614.67936344  963.71512441
0.42900002 13581.16977135  1489.17533600
0.43000002 13549.53278566  1138.77053693
0.43100002 13519.47446576  1051.27438427
0.43200002 13492.92377041  1051.63852850
0.43300002 13468.56409682  1315.20534638
0.43400002 13446.35294801  1403.79931430
0.43500002 13426.17821727  965.87930672
0.43600002 13408.50510075  966.82030611
0.43700002 13392.36401685  1319.81753641
0.43800002 13378.15559430  880.95158763
0.43900002 13366.58537169  882.19467634
0.44000002 13356.33573649  1060.22598101
0.44100002 13348.26403951  1150.48693209
0.44200002 13341.76048680  1152.52803427
0.44300002 13337.00717289  1332.36707971
0.44400002 13334.16742816  979.06128981
0.44500002 13331.71867595  981.08122386
0.44600002 13331.26749233  983.24768049
0.44700002 13333.24474549  985.59349830
0.44800002 13335.04363981  1077.73827805
0.44900002 13339.93303395  1260.62373145
0.45000002 13345.31803834  1263.93513131
0.45100002 13351.70083825  1176.81896766
0.45200002 13359.60549055  1089.34228333
0.45300002 13368.27333376  1274.53124004
0.45400002 13378.44752299  1278.31072140
0.45500002 13389.64479658  1007.43692224
0.45600002 13401.67254952  1194.29010585
0.45700002 13414.73050873  1013.75123259
0.45800002 13428.31805986  1479.26358758
0.45900002 13442.93212367  1113.07483259
0.46000002 13459.12887363  1023.76868629
0.46100002 13474.97610655  1120.57906613
0.46200002 13492.45669844  1030.75627833
0.46300002 13510.52036609  940.33226205
0.46400002 13528.60783132  1226.70657325
0.46500002 13547.84567973  946.99445790
0.46600002 13567.41098213  1140.47662121
0.46700002 13587.30800715  1049.21197404
0.46800002 13608.70425219  957.37238952
0.46900002 13629.49420798  1249.14320337
0.47000002 13651.00993533  1157.33267717
0.47100002 13673.12422048  1161.66868883
0.47200002 13695.71158970  1263.22401835
0.47300002 13718.73890288  1268.02309689
0.47400002 13741.37879235  1174.88794243
0.47500002 13764.74320442  1081.08298252
0.47600002 13788.84559802  1282.56953409
0.47700002 13812.30653220  1188.41091036
