# SAXS profile: number of points = 501, q_min = 0, q_max = 0.5, delta_q = 0.001
#    q    intensity    error
0.00000000 1682732.95097188 302.89193117
0.00100000 1682645.34076312 605.75233706
0.00200000 1682382.46594650 908.48656038
0.00300000 1681944.55987701 1211.00012625
0.00400000 1681331.48331165 1891.49799060
0.00500000 1680543.91115750 1814.98749589
0.00600000 1679581.66614542 2645.34123188
0.00700000 1678445.53884523 2819.78862245
0.00800000 1677135.27631457 3169.78580606
0.00900000 1675652.30086232 3518.86998223
0.01000000 1673996.06431598 2762.09362539
0.01100000 1672168.08378391 4213.86375460
0.01200000 1670168.27190639 3908.19392761
0.01300000 1667998.05400307 5604.47370863
0.01400000 1665657.58430732 4872.04865008
0.01500000 1663148.28314384 4390.71166301
0.01600000 1660470.06429599 4657.61873856
0.01700000 1657625.04860888 6713.38174802
0.01800000 1654613.67863254 4715.64919630
0.01900000 1651437.06523558 7431.46712889
0.02000000 1648095.84909217 6229.80259138
0.02100000 1644592.92664662 7055.30397519
0.02200000 1640926.76938336 6227.31737273
0.02300000 1637100.83591196 7661.63226081
0.02400000 1633115.44571101 6736.60152073
0.02500000 1628972.96070763 6352.99483690
0.02600000 1624674.15652689 7895.91676187
0.02700000 1620220.57604538 8846.40475038
0.02800000 1615613.04651147 7730.70878208
0.02900000 1610854.79984805 9423.50101178
0.03000000 1605946.41875999 8961.18142858
0.03100000 1600889.64442811 12294.83303493
0.03200000 1595685.72468849 8688.50917111
0.03300000 1590338.70393467 13788.23719876
0.03400000 1584847.35640647 9984.53880605
0.03500000 1579215.58251384 10233.31744724
0.03600000 1573444.04113764 8732.61483188
0.03700000 1567536.00869577 12508.93792790
0.03800000 1561492.77334522 13702.09972023
0.03900000 1555316.95948709 10265.09240799
0.04000000 1549008.94064075 10479.04596902
0.04100000 1542572.46921799 10690.02770734
0.04200000 1536009.50517363 15851.61882879
0.04300000 1529321.49497650 12112.22680244
0.04400000 1522511.44005913 10276.95269768
0.04500000 1515581.78065276 12549.01772689
0.04600000 1508533.26421269 14889.22400993
0.04700000 1501369.73611890 10809.86260280
0.04800000 1494092.76460652 13177.89879697
0.04900000 1486705.43099927 15610.40775212
0.05000000 1479209.20552230 12447.54604410
0.05100000 1471608.29552340 11478.54523980
0.05200000 1463901.64321341 13965.62232707
0.05300000 1456094.95159713 15332.68055509
0.05400000 1448189.14516628 13142.31710526
0.05500000 1440188.08521694 13307.33852818
0.05600000 1432092.03986666 18366.58126835
0.05700000 1423906.80810250 12387.98980874
0.05800000 1415631.19146411 15034.00395532
0.05900000 1407269.55424467 17731.59721165
0.06000000 1398825.39380343 14079.17824639
0.06100000 1390300.20507222 23273.62652052
0.06200000 1381696.84008947 14362.73932410
0.06300000 1373018.56606140 13180.97885047
0.06400000 1364264.84956138 14631.74119582
0.06500000 1355442.33911245 16102.65574190
0.06600000 1346551.97036697 17592.70231598
0.06700000 1337595.43523584 20465.21111686
0.06800000 1328576.49043976 15125.84405168
0.06900000 1319499.18626949 16625.69052539
0.07000000 1310362.68842199 15350.89961372
0.07100000 1301171.79423689 16863.18724314
0.07200000 1291928.31192514 21219.92351746
0.07300000 1282635.72694829 24203.33730158
0.07400000 1273297.18620732 22919.35042583
0.07500000 1263912.92818047 14408.60805662
0.07600000 1254486.87248380 20285.05367904
0.07700000 1245022.32159216 21850.14276846
0.07800000 1235520.82261331 20497.29140840
0.07900000 1225984.03130785 20596.53269203
0.08000000 1216417.29905183 19213.31213984
0.08100000 1206821.68992342 16328.29823076
0.08200000 1197198.34598884 17886.14412838
0.08300000 1187550.82757546 14963.14112970
0.08400000 1177882.22322170 25530.59838670
0.08500000 1168194.64691704 16576.68281795
0.08600000 1158490.20658370 18141.95748689
0.08700000 1148771.51393006 24262.05551349
0.08800000 1139039.97266205 19768.03965393
0.08900000 1129299.50929562 16770.09850073
0.09000000 1119552.13816773 16810.07614425
0.09100000 1109799.43129049 18378.27944560
0.09200000 1100043.44546402 16880.16746379
0.09300000 1090288.78137549 15373.07253981
0.09400000 1080533.72588508 18477.12758101
0.09500000 1070783.07983608 16961.20478183
0.09600000 1061038.25910285 18525.72887479
0.09700000 1051303.88075604 18545.00132839
0.09800000 1041578.85099873 27841.40399623
0.09900000 1031867.51603339 18573.61616198
0.10000000 1022169.25418602 17034.45142209
0.10100000 1012487.54697798 20138.37825654
0.10200000 1002824.88194822 18592.37418584
0.10300000 993182.40052115 21691.10464775
0.10400000 983562.43542131 20138.44181267
0.10500000 973968.87051867 17034.71634684
0.10600001 964397.95122768 17026.44663008
0.10700001 954857.68183223 17015.56469096
0.10800001 945345.18169091 17002.03389286
0.10900001 935865.55251680 20074.31704630
0.11000001 926418.85098982 21594.82443303
0.11100001 917006.34850705 21567.99033216
0.11200001 907631.16107175 18461.21868530
0.11300001 898292.87953502 19969.05165222
0.11400001 888994.86851614 18402.19464474
0.11500001 879737.99244440 19899.67432613
0.11600001 870523.90651462 16805.46480666
0.11700001 861354.05804431 16770.56429993
0.11800001 852228.39956727 19775.96094337
0.11900001 843149.36742794 15176.68932855
0.12000001 834117.79928189 16653.16264711
0.12100001 825136.68144645 15100.00198180
0.12200001 816205.61798169 19576.69266957
0.12300001 807326.88536019 18019.53693022
0.12400001 798499.96759606 25452.18766637
0.12500001 789726.60043298 14925.83345150
0.12600001 781009.66557460 17853.88179637
0.12700001 772347.87725269 17794.89593051
0.12800001 763742.76449182 14778.42318941
0.12900001 755196.11350447 16198.95739816
0.13000001 746708.16769917 19074.66104296
0.13100001 738279.12050886 14617.92727513
0.13200001 729910.50366749 14561.71523461
0.13300001 721604.22574927 20305.94386987
0.13400001 713358.69300565 18779.16847873
0.13500001 705177.26057672 17262.74015283
0.13600001 697057.95629476 15756.99584500
0.13700001 689003.62245366 18541.08835450
0.13800001 681012.45840352 15619.02147001
0.13900001 673088.07950533 21202.27550428
0.14000001 665228.52357170 15476.54233078
0.14100001 657435.32924726 15403.71049075
0.14200001 649708.26453396 16723.49151787
0.14300001 642049.80088308 15255.10398853
0.14400001 634455.64143239 22079.05736331
0.14500001 626931.68862127 17848.74601701
0.14600001 619474.84551774 20489.13148206
0.14700001 612088.21796094 14947.19498776
0.14800001 604767.23929571 17571.51296674
0.14900001 597516.43384298 17477.35651450
0.15000001 590334.07474058 13371.06742376
0.15100001 583220.95823388 18616.41386524
0.15200001 576177.56425336 22479.56873009
0.15300001 569204.30955497 15778.34420543
0.15400001 562298.04177633 13073.43008825
0.15500001 555462.74095218 14297.61162686
0.15600001 548694.30128828 12921.75140518
0.15700001 541998.94939630 14129.91327765
0.15800001 535368.94635195 14045.40497047
0.15900001 528810.45595844 16498.88700466
0.16000001 522318.54912214 21443.78904641
0.16100001 515898.65791427 15043.60557490
0.16200001 509546.13137720 13704.24385031
0.16300001 503261.75372485 18570.35958911
0.16400001 497046.27239587 13532.08540482
0.16500001 490898.22040662 18335.04939781
0.16600001 484818.97641635 13359.18752588
0.16700001 478805.64874673 15685.67379354
0.16800001 472859.07643808 13185.67596906
0.16900001 466981.61592486 14289.63812203
0.17000001 461169.30322000 13011.89250477
0.17100001 455422.91198339 15274.88518922
0.17200001 449743.03471271 15172.08199250
0.17300001 444128.53651220 17387.63302557
0.17400001 438578.97788452 14966.50832712
0.17500001 433093.81577330 11433.67727640
0.17600001 427671.35336101 13625.60996161
0.17700001 422314.55010423 15786.11862848
0.17800001 417019.34964473 11196.97006682
0.17900001 411787.35641402 12230.08506317
0.18000001 406617.84950230 16559.51270317
0.18100001 401511.15960711 14249.63172756
0.18200001 396463.09869234 15236.07760247
0.18300001 391476.79704970 14046.18814168
0.18400001 386549.96570010 18235.49549336
0.18500001 381684.25389995 15973.48678033
0.18600001 376875.93134833 10571.37037375
0.18700001 372125.64913670 12592.73256173
0.18800001 367433.26475560 13541.75361236
0.18900001 362799.68165331 11373.77055721
0.19000001 358218.89560192 12315.56621269
0.19100001 353698.61170494 13242.47664794
0.19200001 349230.23952137 13143.28068542
0.19300001 344819.37948542 14047.94218404
0.19400001 340460.24867331 14937.69411641
0.19500001 336155.71700306 11859.57425629
0.19600001 331903.76689108 13730.85948515
0.19700001 327703.98688820 10706.08975758
0.19800001 323556.04406808 10623.96320905
0.19900001 319459.75811865 9583.79319649
0.20000001 315411.99583165 9509.67212376
0.20100001 311415.79875068 11323.07897773
0.20200001 307466.99782670 11234.84463159
0.20300001 303568.45238733 13004.87311494
0.20400001 299716.78500742 11059.54988951
0.20500001 295912.18412925 10972.42430614
0.20600001 292154.44429058 9071.39592401
0.20700001 288442.95314416 9899.36261984
0.20800001 284775.58980679 12498.80122744
0.20900001 281155.03126063 9742.02229370
0.21000001 277577.01033316 10542.37535082
0.21100001 274043.08778637 13943.31296572
0.21200001 270551.46431557 17288.23938706
0.21300001 267101.57200297 10288.75303996
0.21400001 263694.39617483 11055.38808229
0.21500001 260329.11628860 10121.59651983
0.21600001 257003.11298429 12548.17758472
0.21700001 253717.13589610 9955.86088327
0.21800001 250470.99745514 8227.97265542
0.21900001 247262.46727084 9791.59416689
0.22000001 244091.88411574 8900.81097513
0.22100001 240960.65531859 11233.58628212
0.22200001 237866.43846705 8752.29601724
0.22300001 234807.34285353 8678.47980223
0.22400001 231783.59860440 9387.23618737
0.22500001 228798.12512787 9307.50817033
0.22600001 225845.30867394 8459.03643640
0.22700001 222928.75282019 9148.99644839
0.22800001 220044.95731316 10581.96249761
0.22900001 217193.82846042 9741.14366712
0.23000001 214376.68875782 10399.41366345
0.23100001 211592.72918143 9572.45552088
0.23200001 208838.99305348 10218.49241338
0.23300001 206117.53664829 8681.67105422
0.23400001 203427.60947790 10039.15300254
0.23500001 200766.57587630 7817.85083438
0.23600001 198137.25086247 7043.77960131
0.23700001 195536.83528108 9772.93148959
0.23800001 192966.11636411 9684.96983840
0.23900001 190423.64376921 7540.77664994
0.24000001 187909.73186361 7472.23084100
0.24100001 185424.86610529 6730.92295800
0.24200001 182966.91991103 8669.88791009
0.24300001 180536.58785610 9250.69519933
0.24400001 178132.69616401 8510.28996180
0.24500001 175755.26886547 9079.51761909
0.24600001 173404.45178832 10279.41638828
0.24700001 171079.52928514 8909.82230666
0.24800001 168779.88308941 9455.89339741
0.24900001 166504.48246182 7492.70206524
0.25000001 164255.16189419 8657.88999303
0.25100001 162029.01190493 6737.16663374
0.25200001 159828.65045729 6672.04732899
0.25300001 157652.00230019 7808.50404335
0.25400001 155498.48976976 7732.16276962
0.25500001 153367.98519727 8245.06327430
0.25600001 151261.26660782 6414.23431398
0.25700001 149176.26941731 8659.68284939
0.25800001 147114.87195007 6858.49565482
0.25900001 145075.51143218 6789.53425627
0.26000001 143057.97296420 6720.86388786
0.26100001 141061.68987995 8315.58701188
0.26200001 139087.76959067 7133.11660097
0.26300001 137134.45648059 5973.57720695
0.26400001 135202.47408427 8061.44789873
0.26500001 133291.84060176 6382.01363000
0.26600001 131400.88004402 7893.90824218
0.26700001 129531.47766090 7290.03190772
0.26800001 127682.55492762 5667.19046864
0.26900001 125852.34688038 6626.12637681
0.27000001 124043.14018295 6555.06005317
0.27100001 122252.95695335 5985.50505569
0.27200001 120483.91326097 5427.19812967
0.27300001 118733.21762257 5367.92902275
0.27400001 116999.90028257 8204.61839560
0.27500001 115288.55296972 4772.94631883
0.27600001 113593.92578539 6607.75897565
0.27700001 111919.35325551 5133.74097679
0.27800001 110262.57516107 6921.73348332
0.27900001 108625.57619712 6387.18418268
0.28000001 107005.18787013 4510.26888219
0.28100001 105403.84902131 4904.44132708
0.28200001 103821.31709854 5729.37965525
0.28300001 102256.19190119 5662.94817552
0.28400001 100708.59677750 4735.82198761
0.28500001 99179.09870196  7658.61036426
0.28600001 97666.94902675  5886.38729646
0.28700001 96172.53218933  4570.11894595
0.28800001 94694.63324089  4515.51379983
0.28900001 93235.74773534  5272.48178400
0.29000001 91792.49387728  6010.11382110
0.29100001 90367.29046188  4353.89626054
0.29200001 88958.76124451  5864.60661265
0.29300001 87567.21306374  4634.05713469
0.29400001 86191.84283659  3813.98922606
0.29500001 84834.29821902  4143.30732115
0.29600001 83492.59765716  4091.55494187
0.29700001 82167.34079537  5876.60849187
0.29800001 80858.40639155  5439.74954750
0.29900001 79566.52609923  4654.64199715
0.30000001 78290.16147799  4241.76114968
0.30100001 77031.05133470  3838.45746972
0.30200001 75786.30267128  5511.18019116
0.30300001 74558.85083474  5779.80239033
0.30400001 73347.44537285  5033.46867701
0.30500001 72151.23998562  3311.74207213
0.30600001 70970.20119676  3921.81350380
0.30700001 69805.89425828  3547.53571416
0.30800001 68656.68883378  4136.90898154
0.30900001 67523.07528723  3139.82314951
0.31000001 66405.16365377  3717.36123734
0.31100001 65301.60263431  3667.33817757
0.31200001 64214.11296331  3617.82329564
0.31300001 63141.12547903  2973.94715087
0.31400001 62084.41594271  2933.48879218
0.31500001 61041.73696903  3182.71631626
0.31600002 60014.31245968  3424.41683109
0.31700002 59001.62188396  3377.25299654
0.31800002 58003.70836101  3053.02533414
0.31900002 57020.51974339  3284.38209273
0.32000002 56052.24871274  3238.69908397
0.32100002 55097.73765817  2661.22085490
0.32200002 54158.78449552  2886.39255636
0.32300002 53232.59699153  3104.52520355
0.32400002 52321.18523862  3315.85527151
0.32500002 51423.78262180  3771.93463392
0.32600002 50541.08912842  3470.65675479
0.32700002 49671.52699518  3421.37494144
0.32800002 48816.66291356  3131.83315752
0.32900002 47974.86288528  3087.18257286
0.33000002 47147.83356432  2809.06805678
0.33100002 46331.73809621  2538.05273310
0.33200002 45532.31962360  2956.64131477
0.33300002 44744.70103925  2241.70962822
0.33400002 43970.94242600  2209.53996154
0.33500002 43209.23337869  2177.74546542
0.33600002 42461.81025000  2361.08907076
0.33700002 41726.19986466  2327.07027666
0.33800002 41004.52872884  2502.09646153
0.33900002 40294.70632777  2877.04216805
0.34000002 39598.00375616  3240.70078088
0.34100002 38913.70892586  2794.78270741
0.34200002 38242.41461844  2754.60125542
0.34300002 37582.24070196  3684.56305292
0.34400002 36935.71095230  3440.56163815
0.34500002 36300.46187923  2449.19227899
0.34600002 35678.26048014  2228.46425513
0.34700002 35066.11233503  1830.45115058
0.34800002 34467.39567615  2165.24189892
0.34900002 33879.57355001  1956.54546518
0.35000002 33303.32861232  1928.76236793
0.35100002 32739.31968772  1728.63616138
0.35200002 32185.12470287  1874.62267711
0.35300002 31642.65603389  2016.27013798
0.35400002 31111.66959878  1822.36613306
0.35500002 30591.70239889  1796.95668402
0.35600002 30081.53239686  1771.95274976
0.35700002 29582.58945068  2224.01918024
0.35800002 29095.01854039  1880.12018713
0.35900002 28617.38780131  2472.54242315
0.36000002 28150.38216046  1981.64624605
0.36100002 27692.87967276  2556.32984368
0.36200002 27246.71916381  2077.01750024
0.36300002 26809.33568856  2195.68469690
0.36400002 26382.01738339  2311.06483225
0.36500002 25964.23684514  2280.69867251
0.36600002 25556.49065645  1547.57336501
0.36700002 25157.48343600  1805.30109688
0.36800002 24769.58493581  2056.49488671
0.36900002 24389.63951915  1759.71257466
0.37000002 24018.60740381  1603.96267841
0.37100002 23656.27181838  1716.02603899
0.37200002 23303.89135517  1564.62333970
0.37300002 22959.50472592  1803.23958659
0.37400002 22623.78280609  1781.62298038
0.37500002 22296.93862504  1760.56635723
0.37600002 21978.58433433  1367.17790328
0.37700002 21667.85864060  2211.42175762
0.37800002 21365.13584319  1457.52963627
0.37900002 21071.10921158  1321.15861015
0.38000002 20784.81561332  1306.63749543
0.38100002 20505.31940455  1527.44131480
0.38200002 20234.49874471  1162.47200795
0.38300002 19970.30472288  1380.34752784
0.38400002 19714.45510169  1935.46672130
0.38500002 19464.42160442  1352.38807714
0.38600002 19222.92113314  1227.47968711
0.38700002 18987.68502841  1547.11664941
0.38800002 18759.37092949  1751.37495295
0.38900002 18537.38759631  1518.21211606
0.39000002 18323.15582237  1182.11845388
0.39100002 18114.27308238  1278.14316925
0.39200002 17912.44202408  1161.53235808
0.39300002 17716.53583051  1465.86624406
0.39400002 17528.01352004  1453.94879037
0.39500002 17344.30598631  1236.30218928
0.39600002 17166.67334242  1533.41316896
0.39700002 16994.83969277  1116.05117550
0.39800002 16828.99186438  1410.10129513
0.39900002 16668.41288729  1400.14674887
0.40000002 16513.13969696  1092.59193982
0.40100002 16363.59570179  1085.39735432
0.40200002 16219.59709167  1274.61709784
0.40300002 16079.99202052  1364.22658766
0.40400002 15945.89711375  1065.58462511
0.40500002 15816.88192425  963.24815483
0.40600002 15692.50630106  1053.83031058
0.40700002 15572.82018091  1143.66796827
0.40800002 15458.06111827  1327.69293236
0.40900002 15347.39868347  1038.25157013
0.41000002 15241.60746854  1127.57417395
0.41100002 15139.92046621  935.64712914
0.41200002 15042.11004090  1025.04463731
0.41300002 14949.09567234  1299.67443934
0.41400002 14859.69844304  1110.01952629
0.41500002 14774.46787617  1014.11952307
0.41600002 14692.42433091  919.01118544
0.41700002 14614.60736854  1007.96951797
0.41800002 14541.36581116  1188.10234990
0.41900002 14469.68887499  1093.90853078
0.42000002 14402.76672867  1273.34866682
0.42100002 14339.48024885  1361.53371414
0.42200002 14279.51339025  1177.84571781
0.42300002 14222.08277291  1266.33431011
0.42400002 14167.79202624  993.51646292
0.42500002 14117.00955979  1082.49234434
0.42600002 14068.23083164  1171.39129570
0.42700002 14023.73522699  1260.45338193
0.42800002 13980.92967350  1169.57472726
0.42900002 13942.12025714  1258.97351888
0.43000002 13905.31099538  1528.26327737
0.43100002 13870.12693456  988.66269475
0.43200002 13838.61929328  988.70020226
0.43300002 13809.37541830  898.99038233
0.43400002 13782.36377036  1079.15913436
0.43500002 13757.53326825  989.71699022
0.43600002 13735.19894805  1170.44503382
0.43700002 13714.54814187  991.15044118
0.43800002 13695.89488963  1533.18702608
0.43900002 13679.96003140  1083.45288583
0.44000002 13665.45371951  1175.16074830
0.44100002 13653.19037831  995.72722148
0.44200002 13642.55841270  1087.85765938
0.44300002 13633.75137257  1271.21103822
0.44400002 13626.96141378  1000.55968922
0.44500002 13620.65260690  1457.95472414
0.44600002 13616.26913518  1095.56506654
0.44700002 13614.53556696  1097.87620015
0.44800002 13612.60249845  1191.85146824
0.44900002 13613.86183426  1194.61643257
0.45000002 13615.72751922  1013.21441136
0.45100002 13618.57797734  1108.00755675
0.45200002 13623.02366733  1110.82140248
0.45300002 13628.31655244  1577.75028205
0.45400002 13635.11124814  1209.77530283
0.45500002 13643.05520035  1026.50352192
0.45600002 13651.81723815  1029.41532763
0.45700002 13661.69577346  938.55854412
0.45800002 13672.14536558  1411.99087955
0.45900002 13683.69311177  1227.42733030
0.46000002 13696.83066996  947.13588572
0.46100002 13709.64145966  1235.10165764
0.46200002 13724.18542133  1048.45919495
0.46300002 13739.32333684  1051.88264452
0.46400002 13754.52328968  1247.19145840
0.46500002 13770.87846762  1058.84289556
0.46600002 13787.72632639  1158.99632993
0.46700002 13804.75014889  1356.73090894
0.46800002 13823.36892689  1458.71107515
0.46900002 13841.44888346  1073.40441179
0.47000002 13860.28950899  1272.99835029
0.47100002 13879.77079260  1474.03172804
0.47200002 13899.67250781  1282.03635452
0.47300002 13920.06141125  1088.68805457
0.47400002 13940.08453906  993.23107048
0.47500002 13960.84817469  996.80460692
0.47600002 13982.44003431  1400.62108462
0.47700002 14003.34380660  1305.25173808
