# SAXS profile: number of points = 501, q_min = 0, q_max = 0.5, delta_q = 0.001
#    q    intensity    error
0.00000000 1664650.74656090 324.60689558
0.00100000 1664563.61539985 649.17982542
0.00200000 1664302.18251685 1198.29760936
0.00300000 1663866.67697995 1197.98405010
0.00400000 1663256.96235321 1247.44276917
0.00500000 1662473.70359013 1795.47167094
0.00600000 1661516.74029643 1744.59264834
0.00700000 1660386.84024595 2988.69643665
0.00800000 1659083.77498989 2463.73950988
0.00900000 1657608.96155392 3232.33761321
0.01000000 1655961.81568295 3825.27195940
0.01100000 1654143.86885826 3275.20500294
0.01200000 1652155.10115381 3543.87284735
0.01300000 1649996.81692935 4850.99085572
0.01400000 1647669.25624472 4077.98158999
0.01500000 1645173.81556262 6317.46773307
0.01600000 1642510.39047236 5026.08201953
0.01700000 1639681.10789806 6640.70878488
0.01800000 1636686.41641827 5597.46779602
0.01900000 1633527.39249008 5880.69887832
0.02000000 1630204.75283210 7189.20328520
0.02100000 1626721.27993157 5904.99851388
0.02200000 1623075.54921425 6719.53307903
0.02300000 1619270.91634707 8161.12578987
0.02400000 1615307.76627428 7268.88527968
0.02500000 1611188.51184216 6911.99903148
0.02600000 1606913.71721014 9111.20119331
0.02700000 1602485.21949564 6730.43823014
0.02800000 1597903.50979491 11816.49699683
0.02900000 1593172.05698436 8603.12950272
0.03000000 1588291.40564667 10339.77752603
0.03100000 1583263.21733067 9879.56293073
0.03200000 1578088.81870639 9373.84801486
0.03300000 1572772.17582161 8021.13846647
0.03400000 1567312.06173297 9874.06644451
0.03500000 1561712.45480392 10963.22193898
0.03600000 1555973.85906919 12953.48297538
0.03700000 1550099.80911263 9719.12625262
0.03800000 1544091.24933163 10839.52107196
0.03900000 1537950.99713855 11996.01833322
0.04000000 1531679.39395041 10361.81158023
0.04100000 1525280.31526079 14413.89964754
0.04200000 1518755.36051761 12734.76428874
0.04300000 1512106.30505956 13971.86290730
0.04400000 1505336.13473264 11177.12131948
0.04500000 1498447.11212857 10339.28555410
0.04600000 1491439.93664569 11566.11724636
0.04700000 1484318.60790140 12824.51336871
0.04800000 1477084.76953708 16284.86034185
0.04900000 1469741.24189675 11023.05982732
0.05000000 1462289.65074116 14542.47125381
0.05100000 1454734.11781294 13616.31197703
0.05200000 1447073.69127090 11504.23638172
0.05300000 1439313.89101466 15155.97597892
0.05400000 1431455.86288453 12990.46256147
0.05500000 1423503.22107944 13153.17037636
0.05600000 1415456.51912120 13312.36918355
0.05700000 1407321.18684912 14692.43387653
0.05800000 1399096.26230561 14858.40299946
0.05900000 1390786.11338002 16272.19828655
0.06000000 1382394.13861110 16443.57904700
0.06100000 1373921.72836179 14055.21993796
0.06200000 1365371.95345761 14193.04211962
0.06300000 1356748.03012205 16932.21620759
0.06400000 1348049.21213057 15772.17651954
0.06500000 1339282.39141130 15910.67555423
0.06600000 1330448.32456362 17382.30817372
0.06700000 1321548.69165667 16175.75674289
0.06800000 1312587.46425857 16302.33706919
0.06900000 1303568.32245553 15056.21482928
0.07000000 1294490.81555526 17922.22618063
0.07100000 1285359.51009235 16658.26003103
0.07200000 1276176.11326317 15371.54200436
0.07300000 1266944.37079937 15469.39149229
0.07400000 1257667.11972232 14148.75575995
0.07500000 1248344.95184935 18500.47305357
0.07600000 1238981.38748477 20034.32997485
0.07700000 1229580.15345824 15824.69731700
0.07800000 1220142.22971646 17350.42332024
0.07900000 1210669.69582784 14528.03703135
0.08000000 1201167.88919408 17513.02864600
0.08100000 1191637.66567238 14657.14397546
0.08200000 1182080.20497606 14716.89924255
0.08300000 1172499.13038818 19205.53665711
0.08400000 1162897.46403898 20757.72070744
0.08500000 1153277.25609473 19340.46049265
0.08600000 1143640.73358563 16416.96350142
0.08700000 1133990.44337151 22453.01183310
0.08800000 1124327.93229414 16510.75646115
0.08900000 1114656.91244955 19562.22973232
0.09000000 1104979.31910594 19607.85893862
0.09100000 1095296.77915485 19649.62514120
0.09200000 1085611.61480905 15144.28273817
0.09300000 1075928.15562863 18204.70524871
0.09400000 1066244.80169333 16713.38805203
0.09500000 1056565.96518503 19778.91579793
0.09600000 1046893.48049444 18278.76102868
0.09700000 1037232.07631330 19821.50591021
0.09800000 1027580.14006369 24415.30527586
0.09900000 1017942.31005366 21376.78951632
0.10000000 1008317.86739192 18331.21969125
0.10100000 998710.46712578 19864.35212539
0.10200000 989122.42839081 25979.30180366
0.10300000 979554.76938607 16809.16063338
0.10400000 970010.25840007 16805.42851739
0.10500000 960492.26354272 16799.01047974
0.10600001 950997.09140959 22895.25605299
0.10700001 941532.84960189 21353.96603384
0.10800001 932096.84651820 16763.76257356
0.10900001 922694.04828022 16746.89776449
0.11000001 913324.34191457 16727.53610952
0.11100001 903989.04767465 18224.42005901
0.11200001 894691.32617823 19714.52430044
0.11300001 885430.77916622 19683.12714756
0.11400001 876210.63384204 18137.56097453
0.11500001 867031.95708118 21120.89946904
0.11600001 857896.18464037 18067.29449934
0.11700001 848804.76107428 16526.22947642
0.11800001 839757.92342425 16488.64760302
0.11900001 830757.77800716 22430.46106270
0.12000001 821805.25200394 22373.64903972
0.12100001 812903.51406127 20826.58901135
0.12200001 804051.82129736 20768.65952255
0.12300001 795252.47558465 16270.86641705
0.12400001 786505.45066750 22120.46684228
0.12500001 777811.62574788 14700.64041934
0.12600001 769174.57354190 16118.05394811
0.12700001 760592.74925283 17524.05776863
0.12800001 752067.81149053 20373.51797347
0.12900001 743601.18319331 14500.22375570
0.13000001 735193.49655875 21669.82933247
0.13100001 726844.74147123 17269.83187142
0.13200001 718556.44071564 21502.80250206
0.13300001 710330.61474876 22844.23364727
0.13400001 702165.65351206 15640.74066937
0.13500001 694064.45832012 21238.37342595
0.13600001 686025.68237600 19736.95981257
0.13700001 678051.75655937 14035.67202261
0.13800001 670141.24475866 15369.69017331
0.13900001 662297.11539970 20862.36011892
0.14000001 654518.05323459 13843.05747876
0.14100001 646805.28364939 13776.95319149
0.14200001 639158.63778676 15080.94876988
0.14300001 631580.32117885 13642.13558093
0.14400001 624066.70513613 20360.17721545
0.14500001 616622.79356263 14854.44379764
0.14600001 609246.14536273 14777.26595288
0.14700001 601939.56092834 16035.67065964
0.14800001 594698.58212390 18608.11951256
0.14900001 587527.71792518 15863.24913242
0.15000001 580425.07317955 23663.93135006
0.15100001 573391.72038782 18302.66457839
0.15200001 566427.75153630 12999.51751117
0.15300001 559533.84194796 18095.32530250
0.15400001 552706.80327894 14135.47716093
0.15500001 545950.77692113 22995.44780914
0.15600001 539261.38133794 15239.52735584
0.15700001 532644.67771601 18935.51918650
0.15800001 526093.36208200 13802.06000566
0.15900001 519613.53870054 16211.94317267
0.16000001 513199.94610620 12393.77928348
0.16100001 506858.05743072 13548.31651466
0.16200001 500583.42997379 13463.19198469
0.16300001 494376.99128072 18242.51183945
0.16400001 488238.84675370 15709.08563592
0.16500001 482168.11387043 14407.18392263
0.16600001 476165.92597748 14313.54841067
0.16700001 470229.49389743 18959.65408912
0.16800001 464359.51673903 11771.51430514
0.16900001 458558.48473724 17539.86286940
0.17000001 452822.29776608 13937.87098338
0.17100001 447151.77905822 17304.77466671
0.17200001 441547.59877543 21770.50538569
0.17300001 436008.23452988 14793.76009623
0.17400001 430533.70689081 14691.96344149
0.17500001 425123.45623948 12345.58575225
0.17600001 419775.48419381 12259.54359489
0.17700001 414492.77940071 11066.95773270
0.17800001 409271.65005513 12087.83875531
0.17900001 404113.18068110 13093.26767251
0.18000001 399016.94443349 12999.97266370
0.18100001 393983.31849479 15058.04314416
0.18200001 389007.92571537 18153.05571102
0.18300001 384093.79748481 14841.38503591
0.18400001 379239.07146364 11576.27320330
0.18500001 374445.10346221 14625.82643219
0.18600001 369707.93515674 14518.43129951
0.18700001 365028.68891280 17499.47617324
0.18800001 360406.83685839 13282.79459998
0.18900001 355843.67450011 10141.54520242
0.19000001 351332.92253012 11072.25757669
0.19100001 346882.07183611 13986.28579728
0.19200001 342482.91927079 13880.83337393
0.19300001 338140.77197641 12791.86600832
0.19400001 333850.22026746 10741.63134469
0.19500001 329613.73912599 10659.70882706
0.19600001 325429.48439332 12501.37423374
0.19700001 321296.96891352 10496.77247046
0.19800001 317215.96191786 11362.67629288
0.19900001 313186.02420009 12214.25552105
0.20000001 309204.53967007 13051.52423630
0.20100001 305274.00278823 12949.72381031
0.20200001 301390.51112019 10095.07564710
0.20300001 297556.92623940 16389.43627191
0.20400001 293769.90003085 14453.47976467
0.20500001 290029.14980789 9858.09126793
0.20600001 286334.97953627 13336.05230227
0.20700001 282686.79389148 11465.77690222
0.20800001 279082.23068695 13123.84251842
0.20900001 275524.19711684 11282.71640528
0.21000001 272008.11325936 10330.86862995
0.21100001 268535.76670063 10247.32534172
0.21200001 265105.23191229 11858.15758402
0.21300001 261716.01900460 8401.08460721
0.21400001 258369.08095767 9998.88390577
0.21500001 255063.57128705 10743.27813053
0.21600001 251796.88463756 11474.38457543
0.21700001 248569.92011933 8941.06044942
0.21800001 245382.10319720 8866.88271826
0.21900001 242231.71299558 11990.47036021
0.22000001 239118.75952649 8719.46597841
0.22100001 236044.63128361 9432.34391209
0.22200001 233007.06659845 10132.31277013
0.22300001 230004.21991493 13137.84166277
0.22400001 227036.44972982 9194.97664885
0.22500001 224106.17245609 10636.07944772
0.22600001 221208.09977847 12804.63146118
0.22700001 218345.97275686 9707.66240784
0.22800001 215516.28499938 7402.98473982
0.22900001 212718.65173297 9540.43198140
0.23000001 209954.55520371 9457.40338641
0.23100001 207223.24086695 7932.50603554
0.23200001 204521.75283039 7862.83915943
0.23300001 201851.82520558 10627.49909970
0.23400001 199213.13727426 8426.71610525
0.23500001 196603.02962821 11135.59612481
0.23600001 194023.94634313 7587.30678061
0.23700001 191473.44526670 9569.84324706
0.23800001 188952.17307312 10160.90358760
0.23900001 186458.70889010 6712.51383754
0.24000001 183993.28970580 7316.49351122
0.24100001 181556.44544156 7908.59913752
0.24200001 179146.27500561 7182.87023611
0.24300001 176762.93845226 7763.42862405
0.24400001 174405.71032586 8973.17422073
0.24500001 172074.61044846 8889.37479627
0.24600001 169769.43747939 8176.94534301
0.24700001 167489.85263780 8099.80965673
0.24800001 165235.11059151 7405.83800706
0.24900001 163004.23763587 6723.92512057
0.25000001 160798.85019227 13318.96939152
0.25100001 158616.28925999 6595.26561945
0.25200001 156458.97292149 5937.61830328
0.25300001 154325.05923272 7055.74204193
0.25400001 152213.67985076 8733.26029462
0.25500001 150124.97133497 7494.23892361
0.25600001 148059.53435893 10273.85157525
0.25700001 146015.54157201 7346.04224405
0.25800001 143994.44847082 6153.60304655
0.25900001 141995.09775125 5537.80907432
0.26000001 140017.25280151 8770.68113048
0.26100001 138059.96677796 7596.05973154
0.26200001 136124.93122573 6444.15454914
0.26300001 134209.87573712 8503.53812907
0.26400001 132315.75307649 6311.46172040
0.26500001 130442.53695405 5725.12321782
0.26600001 128588.62973484 10299.94972915
0.26700001 126755.81772299 6114.70093631
0.26800001 124943.12642195 8570.47416248
0.26900001 123148.60954554 7481.27838392
0.27000001 121374.86724201 5427.27744556
0.27100001 119619.62127962 4880.48077917
0.27200001 117885.02428078 5310.13117002
0.27300001 116168.53377275 6206.88505321
0.27400001 114468.97404856 5666.21448356
0.27500001 112790.97937902 5603.45612074
0.27600001 111129.33333250 5079.16642034
0.27700001 109487.31355919 5022.18331064
0.27800001 107862.59762993 5416.85990934
0.27900001 106257.41492023 5801.65512922
0.28000001 104668.45320149 4852.95306237
0.28100001 103098.10648735 6105.47015515
0.28200001 101546.22310054 6897.01979942
0.28300001 100011.28772022 4686.52916438
0.28400001 98493.52157912  5052.71789616
0.28500001 96993.56927717  4993.22918273
0.28600001 95510.60146513  5756.42422277
0.28700001 94044.83080061  4469.01057117
0.28800001 92595.28592974  4415.40641855
0.28900001 91164.49099295  5551.91776426
0.29000001 89749.00909682  5876.31664877
0.29100001 88351.00810718  6191.63894123
0.29200001 86969.54215527  3822.31155865
0.29300001 85604.60610592  5285.22863116
0.29400001 84255.47119866  4846.79621013
0.29500001 82923.87239818  5890.91217403
0.29600001 81607.78267897  4362.75226854
0.29700001 80307.81553539  5025.66333411
0.29800001 79023.84143573  4961.90723864
0.29900001 77756.57398866  3848.95059464
0.30000001 76504.38476039  3799.59044900
0.30100001 75269.33770258  4091.64139121
0.30200001 74048.11759762  7067.52291869
0.30300001 72844.05312807  5314.70236783
0.30400001 71655.66776229  3278.24695532
0.30500001 70482.24788822  3235.13533123
0.30600001 69323.49330866  3192.34701800
0.30700001 68181.34682049  3149.97837224
0.30800001 67053.87536553  4661.92090550
0.30900001 65941.80143545  3372.92330311
0.31000001 64845.08815888  5142.53995991
0.31100001 63762.50722989  4177.71967150
0.31200001 62695.68266646  4120.98741678
0.31300001 61643.02691951  3774.40271699
0.31400001 60606.31270791  3150.01325214
0.31500001 59583.42950114  4801.23297653
0.31600002 58575.63900226  3620.85329636
0.31700002 57582.24553277  3570.67521455
0.31800002 56603.29778381  2979.31471992
0.31900002 55638.88447305  3738.93321362
0.32000002 54689.06058614  2896.60623110
0.32100002 53752.81752161  2596.26120923
0.32200002 52831.80501378  3071.64128894
0.32300002 51923.47000897  4037.56921908
0.32400002 51029.50917715  2487.68869018
0.32500002 50149.35901031  3187.99490324
0.32600002 49283.64280563  2659.09907349
0.32700002 48430.85138321  2621.07780097
0.32800002 47592.62973948  2818.43566663
0.32900002 46767.15499430  2314.97428184
0.33000002 45956.15447448  2509.89549548
0.33100002 45155.92159169  2473.64150193
0.33200002 44372.15626298  2881.30610338
0.33300002 43600.04960407  2184.36258860
0.33400002 42841.42529753  2152.78172315
0.33500002 42094.84761622  2545.89650439
0.33600002 41362.19501015  2299.94496246
0.33700002 40641.24628869  2472.61354130
0.33800002 39933.95618675  2233.70594509
0.33900002 39238.38741404  2801.62099404
0.34000002 38555.74116681  2169.33887949
0.34100002 37885.23515418  1943.51265545
0.34200002 37227.59700942  2681.50393958
0.34300002 36580.99297310  2453.85312485
0.34400002 35947.74790297  2976.47366733
0.34500002 35325.62342371  2016.73993677
0.34600002 34716.33129455  1987.68364241
0.34700002 34117.03533680  2315.18212760
0.34800002 33530.85621406  2281.94252772
0.34900002 32955.51178229  2422.23023072
0.35000002 32391.55545869  2387.58166594
0.35100002 31839.68135320  1849.24878058
0.35200002 31297.42984117  1822.91888744
0.35300002 30766.82701165  2450.57788755
0.35400002 30247.48922929  2738.15409217
0.35500002 29738.99044907  1905.67459824
0.35600002 29240.18980744  2035.55590986
0.35700002 28752.61919384  1544.01572384
0.35800002 28276.01333985  1522.66339047
0.35900002 27809.37717132  1501.70643838
0.36000002 27353.21587152  2073.64739344
0.36100002 26906.40954038  1753.22172869
0.36200002 26470.68785643  1441.32902205
0.36300002 26043.84928802  1564.19366233
0.36400002 25626.80786537  1683.68135651
0.36500002 25219.27046297  1938.35321960
0.36600002 24821.57749013  1776.35627722
0.36700002 24432.57196787  1618.41364381
0.36800002 24054.42829275  1597.69520289
0.36900002 23684.27559666  1971.71603682
0.37000002 23322.85305347  2336.25030103
0.37100002 22970.07556808  1922.59541612
0.37200002 22627.06260406  1392.58263393
0.37300002 22291.96541206  1250.57931886
0.37400002 21965.45690991  1359.11271068
0.37500002 21647.70238951  1709.30266165
0.37600002 21338.37608357  1568.69079210
0.37700002 21036.56175617  1550.60504050
0.37800002 20742.66748089  1179.22070215
0.37900002 20457.40096608  1632.50067443
0.38000002 20179.72360175  1153.27125847
0.38100002 19908.75896800  1483.00352578
0.38200002 19646.35760271  1354.41995729
0.38300002 19390.64965890  1675.35220990
0.38400002 19143.03227713  1437.16321629
0.38500002 18901.36976605  1422.70616969
0.38600002 18667.91697602  1300.40715816
0.38700002 18440.76719916  1180.57797202
0.38800002 18220.46578331  1169.48065171
0.38900002 18006.40120881  1264.04942474
0.39000002 17799.99542221  1774.74862765
0.39100002 17598.99948964  1552.23182853
0.39200002 17404.87403380  1128.61911019
0.39300002 17216.65473418  1628.00694879
0.39400002 17035.69882505  1009.36520321
0.39500002 16859.50874699  1602.32778723
0.39600002 16689.37280256  1391.39307647
0.39700002 16524.91802476  1282.49894866
0.39800002 16366.47774079  1077.48711311
0.39900002 16213.21628240  972.79302303
0.40000002 16065.15845818  1739.37478868
0.40100002 15922.90369799  960.15113848
0.40200002 15785.94246719  1049.68629409
0.40300002 15653.41767312  1233.17630272
0.40400002 15526.36620348  1414.84018733
0.40500002 15404.36170102  1313.37594086
0.40600002 15286.97206417  1213.25059536
0.40700002 15174.17967284  1114.39180797
0.40800002 15066.17669759  1478.89597471
0.40900002 14962.35472076  1196.24031660
0.41000002 14863.35119210  1007.95820885
0.41100002 14768.36834992  1277.75929018
0.41200002 14677.24516473  1091.10645725
0.41300002 14590.90092723  1087.31398862
0.41400002 14508.04273097  1445.00112447
0.41500002 14429.34461689  1260.54760546
0.41600002 14353.85032272  1077.40005627
0.41700002 14282.49034485  1522.37071799
0.41800002 14215.73588346  1161.49675539
0.41900002 14150.46519109  1248.07108899
0.42000002 14089.84107423  1334.66025900
0.42100002 14032.93745892  888.28498324
0.42200002 13979.22257058  1241.77439979
0.42300002 13928.06746621  1505.90272580
0.42400002 13880.01600873  1504.24680623
0.42500002 13835.48849823  1060.90530832
0.42600002 13792.83757791  1060.11754647
0.42700002 13754.52865747  971.34485982
0.42800002 13717.82924717  971.01658927
0.42900002 13685.07498942  882.68737865
0.43000002 13654.37295217  1147.58182915
0.43100002 13625.22527991  1147.78903197
0.43200002 13599.69327213  971.63013187
0.43300002 13576.38992778  1148.96993404
0.43400002 13555.27508914  972.92991563
0.43500002 13536.36261320  973.80597254
0.43600002 13519.95544759  974.85643375
0.43700002 13505.15908618  1330.93349101
0.43800002 13492.33392386  977.31725409
0.43900002 13482.18480649  1245.75393516
0.44000002 13473.44321520  1158.64880420
0.44100002 13466.92293741  1071.42843968
0.44200002 13462.01446937  1252.37126544
0.44300002 13458.93891994  1075.63844946
0.44400002 13457.78637601  1347.46092476
0.44500002 13457.08149446  1260.39031250
0.44600002 13458.40979820  1353.57962960
0.44700002 13462.23264651  995.12828439
0.44800002 13465.91675296  1269.70135081
0.44900002 13472.73610395  909.40973012
0.45000002 13480.06754300  1094.31193500
0.45100002 13488.42920724  1280.32176103
0.45200002 13498.32016868  1008.93198882
0.45300002 13509.12996660  1103.96615319
0.45400002 13521.35438689  1107.39897677
0.45500002 13534.67632168  1296.08066599
0.45600002 13548.84377656  1021.65061339
0.45700002 13564.03785964  1025.03438963
0.45800002 13579.81699488  934.97044441
0.45900002 13596.67979730  938.17095048
0.46000002 13615.08796740  1129.78005308
0.46100002 13633.14932768  1417.16593978
0.46200002 13652.88663099  1043.01232361
0.46300002 13673.25384239  1237.15606629
0.46400002 13693.58087190  1050.64004219
0.46500002 13715.10543118  958.68591508
0.46600002 13737.03847982  1443.41938668
0.46700002 13759.24594692  1062.48902238
0.46800002 13782.89746942  1163.55225952
0.46900002 13805.99903298  1070.65527575
0.47000002 13829.85332171  1172.49502019
0.47100002 13854.29700485  1177.06112932
0.47200002 13879.17375209  984.72742438
0.47300002 13904.52709385  1384.05669252
0.47400002 13929.50004494  1290.22000282
0.47500002 13955.15243384  996.39793100
0.47600002 13981.49917507  1100.41394473
0.47700002 14007.25333844  1305.61614556
