# SAXS profile: number of points = 501, q_min = 0, q_max = 0.5, delta_q = 0.001
#    q    intensity    error
0.00000000 1682732.95097187 378.61491397
0.00100000 1682645.28514918 555.27295729
0.00200000 1682382.25097076 1059.90085167
0.00300000 1681944.07366657 1110.08312816
0.00400000 1681330.61958547 1387.09781386
0.00500000 1680542.56797406 2419.98139367
0.00600000 1679579.72739628 1763.55878556
0.00700000 1678442.89589556 3222.61049405
0.00800000 1677131.83950609 2943.36650260
0.00900000 1675647.95700522 2764.81924725
0.01000000 1673990.68262270 3590.71016927
0.01100000 1672161.58533228 3912.85828004
0.01200000 1670160.58061996 4233.85725750
0.01300000 1667989.00406015 4903.88788822
0.01400000 1665647.11931475 4872.01803998
0.01500000 1663136.29132838 5588.13818770
0.01600000 1660456.42194599 4657.58047177
0.01700000 1657609.67698609 5370.65559436
0.01800000 1654596.52243906 6601.84042160
0.01900000 1651417.92422680 6440.53019510
0.02000000 1648074.69269694 11421.15813703
0.02100000 1644569.59845538 6512.49590515
0.02200000 1640901.30546495 7925.55366547
0.02300000 1637072.97679560 6482.80928320
0.02400000 1633085.18712035 9186.10459642
0.02500000 1628940.27241349 7623.44082306
0.02600000 1624638.86956292 6579.78772268
0.02700000 1620182.62279271 10887.62772383
0.02800000 1615572.28445770 9136.06168758
0.02900000 1610811.18684817 10148.11094309
0.03000000 1605899.85808789 8960.92162002
0.03100000 1600840.08844832 7684.03277812
0.03200000 1595633.06003545 9478.06081315
0.03300000 1590282.88302907 10543.57600055
0.03400000 1584788.34779410 9152.15313079
0.03500000 1579153.21852811 11085.65610598
0.03600000 1573378.18888955 12225.14909264
0.03700000 1567466.80213051 10721.47342241
0.03800000 1561420.00353046 13701.46116508
0.03900000 1555240.57128412 9331.44385984
0.04000000 1548928.88006945 13336.27827539
0.04100000 1542488.70852259 12632.98310855
0.04200000 1535921.86494540 11888.03578620
0.04300000 1529230.11126293 12111.50304339
0.04400000 1522416.05923786 11303.93976482
0.04500000 1515482.55757837 13593.87917312
0.04600000 1508429.93602819 12761.31785203
0.04700000 1501262.30938565 15132.72478240
0.04800000 1493981.24688706 15373.06774575
0.04900000 1486589.76467912 16724.13563111
0.05000000 1479089.28918313 13578.04030698
0.05100000 1471484.12982361 13773.09209676
0.05200000 1463773.19754034 13964.39695529
0.05300000 1455962.26423184 11793.29489006
0.05400000 1448052.06114900 15530.35908006
0.05500000 1440046.56912511 13306.03091943
0.05600000 1431946.12640086 15916.08193766
0.05700000 1423756.45140901 17341.35438763
0.05800000 1415476.43589740 15032.36045113
0.05900000 1407110.24388668 15196.79134375
0.06000000 1398661.50916931 15357.30408815
0.06100000 1390131.85913660 18099.51765177
0.06200000 1381523.88326060 14360.94143777
0.06300000 1372841.18575424 13179.27599944
0.06400000 1364082.94651949 21279.69496089
0.06500000 1355255.81188101 13417.03316524
0.06600000 1346360.91773235 16237.11342756
0.06700000 1337399.72974229 13641.47788178
0.06800000 1328376.22395688 16498.43347382
0.06900000 1319294.33944512 19393.62769783
0.07000000 1310153.37871502 15348.44755039
0.07100000 1300957.91075214 18265.44992247
0.07200000 1291709.88487301 21216.33585296
0.07300000 1282412.76977924 14234.78241153
0.07400000 1273069.64786081 17186.44105155
0.07500000 1263681.03678962 15846.56094411
0.07600000 1254250.38473621 15935.25188513
0.07700000 1244781.48501323 17476.73286904
0.07800000 1235275.61884601 17565.62012375
0.07900000 1225734.31316275 17650.57493742
0.08000000 1216163.19129762 20686.93685442
0.08100000 1206563.38561329 16324.80337328
0.08200000 1196935.67996386 14901.84991482
0.08300000 1187283.97406584 22439.66816298
0.08400000 1177611.26727687 18017.45323505
0.08500000 1167919.40518577 21092.62544785
0.08600000 1158210.75375651 22671.97656927
0.08700000 1148488.16284724 15160.04446146
0.08800000 1138752.52668018 16722.58163965
0.08900000 1129008.05479020 19814.09229223
0.09000000 1119256.79670027 19861.21279044
0.09100000 1109500.18594602 19904.43427101
0.09200000 1099740.61692057 16875.52055957
0.09300000 1089982.24939142 18442.50052636
0.09400000 1080223.61079864 18471.82461279
0.09500000 1070469.21926278 18497.70897830
0.09600000 1060720.86570952 20063.53611804
0.09700000 1050983.22288988 21629.23574392
0.09800000 1041254.73055888 18555.16017098
0.09900000 1031540.08018743 15473.10193039
0.10000000 1021838.49249456 21673.19544504
0.10100000 1012153.66631294 18583.14218750
0.10200000 1002488.08546126 20134.97414356
0.10300000 992842.59621897 23232.51784440
0.10400000 983219.75225032 20131.42537441
0.10500000 973623.45531154 17028.67503459
0.10600001 964049.67525960 26304.09662716
0.10700001 954506.88906008 17009.31356347
0.10800001 944991.76243613 18540.73925156
0.10900001 935509.62032907 16979.50040812
0.11000001 926060.83634115 21586.47911118
0.11100001 916645.99774813 20019.54953321
0.11200001 907268.69683327 15378.20513529
0.11300001 897928.29532108 24567.31931663
0.11400001 888628.37443554 19927.49223499
0.11500001 879369.59645614 19891.34120848
0.11600001 870153.82242766 16798.32033302
0.11700001 860982.31484717 22859.08153574
0.11800001 851855.10362581 16726.17574747
0.11900001 842774.67428847 18203.93382207
0.12000001 833741.76723963 21185.37930349
0.12100001 824759.56564848 21130.34106732
0.12200001 815827.42452751 22578.02503748
0.12300001 806947.53844990 19511.99239901
0.12400001 798119.82953598 16461.22225979
0.12500001 789345.61927738 17902.35948878
0.12600001 780628.04769834 19332.25451225
0.12700001 771965.71204588 20750.43931769
0.12800001 763360.22189085 19202.32728666
0.12900001 754813.34932736 23550.17760898
0.13000001 746325.17017099 14665.29028511
0.13100001 737895.98511667 17532.40943281
0.13200001 729527.40881245 21831.10873784
0.13300001 721221.35577212 18845.51491476
0.13400001 712976.14498284 21656.65142487
0.13500001 704795.06084814 14377.81991919
0.13600001 696676.23163049 18611.70640556
0.13700001 688622.71932293 19956.28734698
0.13800001 680632.29260113 14191.18396993
0.13900001 672708.53526674 18364.94387884
0.14000001 664850.08851197 18280.05404573
0.14100001 657057.97462669 15394.86907157
0.14200001 649332.19614117 16713.81151699
0.14300001 641674.93943848 15246.19728018
0.14400001 634082.27508609 17928.67717375
0.14500001 626559.89261270 13721.66229550
0.14600001 619104.78293565 24572.26999390
0.14700001 611720.09187470 17654.24268437
0.14800001 604400.90154696 14859.19686557
0.14900001 597152.17624565 13435.92459944
0.15000001 589971.85300643 16035.43572131
0.15100001 582861.00825225 15947.07793824
0.15200001 575820.10066853 22465.62228767
0.15300001 568849.33475874 13140.42025301
0.15400001 561945.56349058 19597.85245158
0.15500001 555113.03711795 12989.64568158
0.15600001 548347.37593054 16787.65570641
0.15700001 541654.94475877 23107.00103399
0.15800001 535027.92536583 16588.54160893
0.15900001 528472.68596920 13951.67956811
0.16000001 521984.12043004 15127.10052410
0.16100001 515567.46170582 17539.60587518
0.16200001 509218.44302814 14940.46982373
0.16300001 502937.59371452 14846.71846733
0.16400001 496725.68473201 14752.75353301
0.16500001 490581.29732554 12215.47488011
0.16600001 484506.07416073 15777.94104997
0.16700001 478496.53541957 15675.54724046
0.16800001 472554.03853150 11979.24544239
0.16900001 466680.87511485 20230.61689148
0.17000001 460872.66900802 21278.49213286
0.17100001 455130.72191277 15265.08513379
0.17200001 449455.20980720 11663.36324527
0.17300001 443845.06543374 16218.09945684
0.17400001 438300.11323386 12655.91636732
0.17500001 432819.69311149 11426.44043779
0.17600001 427401.94365785 14751.77878206
0.17700001 422050.01113864 13522.48299556
0.17800001 416759.68535316 12308.99788829
0.17900001 411532.63704677 14444.79624262
0.18000001 406368.05188853 15446.05038188
0.18100001 401266.68320602 12050.03906588
0.18200001 396223.77309493 14139.24601080
0.18300001 391242.68895332 12957.95847026
0.18400001 386321.24461632 15008.58106236
0.18500001 381460.82672220 12771.30908200
0.18600001 376657.95974554 11621.78189700
0.18700001 371913.24165789 10487.95391025
0.18800001 367226.32379142 13534.12680277
0.18900001 362598.43301738 13434.27257803
0.19000001 358023.45307422 11283.10965675
0.19100001 353508.75260819 19343.99985673
0.19200001 349046.19448651 14146.84293100
0.19300001 344641.09463580 11031.96196058
0.19400001 340287.78645744 9953.41822422
0.19500001 335989.24992691 11853.70129757
0.19600001 331743.18612175 11763.61393578
0.19700001 327549.42420969 17510.79304577
0.19800001 323407.56517297 10619.08790430
0.19900001 319317.11918012 12453.36823657
0.20000001 315275.58867225 14258.33917157
0.20100001 311285.46158655 11318.33991822
0.20200001 307342.75836992 12166.16366509
0.20300001 303450.41287114 9285.58307274
0.20400001 299604.99011586 9212.85388152
0.20500001 295806.45356686 14624.67175561
0.20600001 292054.96175190 14509.29118566
0.20700001 288349.77117037 11695.46727150
0.20800001 284688.53414361 8924.98596729
0.20900001 281074.29679538 14166.14522814
0.21000001 277502.47403234 8782.95371831
0.21100001 273974.84956937 9583.64069099
0.21200001 270489.47660310 8642.13918602
0.21300001 267045.86320823 10286.60713709
0.21400001 263644.93829948 12753.82449319
0.21500001 260285.82725336 11806.56568240
0.21600001 256966.07022192 10873.51977552
0.21700001 253686.40569501 8295.54585844
0.21800001 250446.39611006 9872.59740144
0.21900001 247244.19317241 11422.68226465
0.22000001 244079.69064489 9709.49055294
0.22100001 240954.65947242 8826.16959381
0.22200001 237866.57935398 9547.96494674
0.22300001 234813.55507910 8678.70940610
0.22400001 231795.90624056 10170.04586721
0.22500001 228816.54677699 10083.94569330
0.22600001 225869.68429418 9229.03573668
0.22700001 222959.23258848 10675.28856116
0.22800001 220081.30662650 8315.77256414
0.22900001 217236.12491945 11241.96999623
0.23000001 214424.85336304 10401.75012856
0.23100001 211646.76428718 8838.36929462
0.23200001 208898.86293316 8761.21872577
0.23300001 206183.16017864 7237.02926454
0.23400001 203499.00474445 7890.67428216
0.23500001 200843.60582246 9953.80957534
0.23600001 198219.83719338 8456.05865462
0.23700001 195625.04732732 9777.34032787
0.23800001 193059.89073429 6921.19741019
0.23900001 190522.91429591 6858.82523907
0.24000001 188014.32801062 10195.07741861
0.24100001 185534.83544892 8755.38929897
0.24200001 183082.15137336 7340.67920654
0.24300001 180656.99968024 9256.86510149
0.24400001 178258.26457092 7206.09068615
0.24500001 175885.93095070 7788.22939091
0.24600001 173540.13678847 9001.52732104
0.24700001 171220.12197735 6369.38883887
0.24800001 168925.30057373 7571.23232988
0.24900001 166654.75419609 8124.41965140
0.25000001 164410.15173993 6809.04675643
0.25100001 162188.65066418 6130.73128514
0.25200001 159992.82885263 6678.90095643
0.25300001 157820.68538197 6614.26523728
0.25400001 155671.59263106 7740.77030980
0.25500001 153545.41696756 5896.14429051
0.25600001 151442.89534512 7005.74867013
0.25700001 149362.11182753 6936.37680145
0.25800001 147304.71382436 6867.34608341
0.25900001 145269.38042078 6232.05671492
0.26000001 143255.75561420 10095.23357579
0.26100001 141263.30606495 7217.14264835
0.26200001 139293.15355358 6594.13820124
0.26300001 137343.40870567 7070.43901472
0.26400001 135415.03273267 8612.39648932
0.26500001 133507.86605904 5859.66051860
0.26600001 131620.19553970 6325.66689697
0.26700001 129754.08009244 6259.33711985
0.26800001 127908.40203724 5677.21469307
0.26900001 126081.24077245 5616.91954221
0.27000001 124274.98912364 5556.95640163
0.27100001 122487.72194718 5497.24922113
0.27200001 120721.42205658 4943.54246716
0.27300001 118973.46051777 5378.79040455
0.27400001 117242.69288194 6287.13970333
0.27500001 115533.84250037 6218.03169764
0.27600001 113841.67976485 6149.15862351
0.27700001 112169.44953365 5612.95952031
0.27800001 110514.80348471 6937.56711709
0.27900001 108879.94088507 6402.14082704
0.28000001 107261.61135615 4973.18484590
0.28100001 105662.21501775 5363.41428815
0.28200001 104081.45386320 6185.56109585
0.28300001 102518.03898866 4803.99553438
0.28400001 100972.03023373 5611.52084584
0.28500001 99444.09028601  5119.38201023
0.28600001 97933.38891441  4637.63585155
0.28700001 96440.24515950  5416.08442451
0.28800001 94963.49532356  4528.33448884
0.28900001 93505.82267637  5694.50487053
0.29000001 92063.58891155  4018.57584621
0.29100001 90639.30301277  4764.00199185
0.29200001 89231.65078863  5098.25060914
0.29300001 87840.78476267  5035.91242882
0.29400001 86466.01615370  4591.34567510
0.29500001 85109.03076329  6424.02994611
0.29600001 83767.77455755  4105.03998652
0.29700001 82442.84807487  5527.79322510
0.29800001 81134.17029117  3638.86770982
0.29900001 79842.46897554  4670.78465618
0.30000001 78566.17641569  3901.98933640
0.30100001 77307.04575814  4552.61214022
0.30200001 76062.18886098  3802.72931213
0.30300001 74834.54283025  5801.17403484
0.30400001 73622.71275147  3705.06319462
0.30500001 72426.21632210  4986.54522985
0.30600001 71244.64362769  3936.97919325
0.30700001 70079.77482167  3561.45432505
0.30800001 68929.89975724  3194.90100501
0.30900001 67795.59644708  3782.99446085
0.31000001 66676.82715036  4665.71120074
0.31100001 65572.37195507  4296.30201391
0.31200001 64483.84457296  4844.02663366
0.31300001 63409.78521081  3285.26112732
0.31400001 62351.91780492  4124.57955808
0.31500001 61307.96444119  3196.59741731
0.31600002 60279.24412905  4586.04511048
0.31700002 59265.14975373  3675.03211023
0.31800002 58265.70606454  3066.81558392
0.31900002 57280.93570785  3299.38205299
0.32000002 56311.10693530  3253.65591278
0.32100002 55354.94505014  4010.46595878
0.32200002 54414.18315321  2900.00402847
0.32300002 53486.18979475  3119.31473653
0.32400002 52572.82531062  4100.68056840
0.32500002 51673.42217646  2526.83046408
0.32600002 50788.68934276  3487.65946232
0.32700002 49917.01632339  2947.10078329
0.32800002 49060.00559978  2663.22253010
0.32900002 48215.97774763  2864.02921383
0.33000002 47386.61563175  3293.84380854
0.33100002 46568.17581791  2319.09526555
0.33200002 45766.23809268  4343.44503187
0.33300002 44976.19348011  3379.96110009
0.33400002 44199.88904510  2665.25343563
0.33500002 43435.56580876  3064.81366860
0.33600002 42685.55181441  2373.53022104
0.33700002 41947.23445025  2552.06986481
0.33800002 41222.82079781  2305.79859052
0.33900002 40510.15111147  2272.61958498
0.34000002 39810.67817208  2443.57954193
0.34100002 39123.45940681  3010.55034393
0.34200002 38449.26272655  2176.03612706
0.34300002 37786.09196296  2339.71492515
0.34400002 37136.56837606  3459.27150806
0.34500002 36498.29365157  1894.26153023
0.34600002 35872.96767508  2053.90686151
0.34700002 35257.72393872  2760.67991515
0.34800002 34655.79212593  2177.07696446
0.34900002 34064.84173271  2146.08513080
0.35000002 33485.30289385  2291.90166512
0.35100002 32918.07632670  1911.88196361
0.35200002 32360.48359905  2398.88276282
0.35300002 31814.79119879  2365.11168974
0.35400002 31280.45515817  1832.25274767
0.35500002 30757.15400343  2627.89136252
0.35600002 30243.57300749  2267.36077576
0.35700002 29741.24980556  1916.52622825
0.35800002 29250.24459340  2205.17604434
0.35900002 28769.13938595  2174.94704060
0.36000002 28298.69522085  1532.37441879
0.36100002 27837.69961642  1662.74587685
0.36200002 27388.01626693  1789.53306765
0.36300002 26947.11812783  1765.57526337
0.36400002 26516.26872611  1596.94235967
0.36500002 26095.01132587  1432.61618965
0.36600002 25683.73656221  1696.66771767
0.36700002 25281.15371595  1814.17567659
0.36800002 24889.70965530  1790.93914308
0.36900002 24506.20491718  1632.11332480
0.37000002 24131.63441677  1611.51062269
0.37100002 23765.73797745  1326.12824196
0.37200002 23409.81709574  1702.71312712
0.37300002 23061.85065563  2199.40880121
0.37400002 22722.55319440  1278.14367773
0.37500002 22392.13310958  1515.49964065
0.37600002 22070.24299784  1497.68676078
0.37700002 21755.96146168  1356.91938064
0.37800002 21449.72787610  1463.30050503
0.37900002 21152.17899957  1687.94396413
0.38000002 20862.34421965  1311.51133150
0.38100002 20579.32166249  1886.71229940
0.38200002 20305.01833018  1516.48036583
0.38300002 20037.31649376  1154.14948472
0.38400002 19778.06083242  1827.49290749
0.38500002 19524.55196740  1130.47161247
0.38600002 19279.61042209  1231.09958183
0.38700002 19040.92465042  1108.18186715
0.38800002 18809.23499672  1646.27837108
0.38900002 18583.85312981  1087.15545960
0.39000002 18366.26882102  1400.33623260
0.39100002 18154.04619433  1280.94956016
0.39200002 17948.87379156  1269.70339217
0.39300002 17749.67445054  1468.60813362
0.39400002 17557.82894449  1768.51240422
0.39500002 17370.95824232  1135.01846533
0.39600002 17190.05605383  1228.40146381
0.39700002 17015.04867225  1320.53799002
0.39800002 16845.98952323  1109.05577281
0.39900002 16682.26731844  1301.21691249
0.40000002 16523.85650428  993.91001582
0.40100002 16371.28113718  1382.06361908
0.40200002 16224.24914037  1176.90708840
0.40300002 16081.56126666  1266.90545661
0.40400002 15944.49209653  1162.35352891
0.40500002 15812.53914004  962.98367926
0.40600002 15685.21908505  957.58267051
0.40700002 15562.63942997  1142.92029389
0.40800002 15445.01655681  1137.06217279
0.40900002 15331.55702282  1414.33620237
0.41000002 15222.97322111  938.49634355
0.41100002 15118.49542199  1121.18767362
0.41200002 15018.03639319  1023.40413851
0.41300002 14922.32095900  1112.01141055
0.41400002 14830.26295147  1015.50230372
0.41500002 14742.43970056  1103.91393708
0.41600002 14657.83913098  916.84788109
0.41700002 14577.48799218  1188.21110254
0.41800002 14501.76392203  1093.72308682
0.41900002 14427.62562130  999.83450293
0.42000002 14358.31095884  1088.07285602
0.42100002 14292.63605240  995.19629549
0.42200002 14230.35347538  1173.79076204
0.42300002 14170.62560939  991.37701461
0.42400002 14114.14936182  1259.68789023
0.42500002 14061.10562660  988.35516133
0.42600002 14010.20586188  897.35372798
0.42700002 13963.53914850  1075.75110698
0.42800002 13918.63424725  1074.79698750
0.42900002 13877.79508573  895.11782545
0.43000002 13839.01646650  1163.10019404
0.43100002 13801.86219145  894.36071239
0.43200002 13768.45464855  1073.11340616
0.43300002 13737.31856038  894.29948066
0.43400002 13708.49687436  1341.71919516
0.43500002 13681.86058926  1252.71121492
0.43600002 13657.79046801  1074.32184912
0.43700002 13635.45283257  1164.60408162
0.43800002 13615.10992537  986.21053418
0.43900002 13597.58459479  1256.41687610
0.44000002 13581.46721479  898.41409883
0.44100002 13567.66917790  1079.44381095
0.44200002 13555.56683518  990.84420477
0.44300002 13545.32459726  1082.54239312
0.44400002 13537.11843498  1174.68350786
0.44500002 13529.41998695  1176.65371203
0.44600002 13523.76413090  906.76842795
0.44700002 13520.76203277  999.45477683
0.44800002 13517.56151528  1001.44859232
0.44900002 13517.62311111  912.43960324
0.45000002 13518.33849653  914.51564263
0.45100002 13520.05686832  1008.32588903
0.45200002 13523.40643623  1470.26481743
0.45300002 13527.66428653  1381.85097236
0.45400002 13533.51870824  1016.02896517
0.45500002 13540.49270023  1111.40369351
0.45600002 13548.33576887  1207.35999926
0.45700002 13557.32119523  1024.52681128
0.45800002 13566.96943049  1214.31165643
0.45900002 13577.70891204  1030.54815527
0.46000002 13590.12367695  1503.61135488
0.46100002 13602.16988540  1319.68258483
0.46200002 13616.06934812  945.63606105
0.46300002 13630.54111572  1043.55427728
0.46400002 13645.11368498  1046.92139710
0.46500002 13660.91145451  1336.85685830
0.46600002 13677.28276654  1245.52181417
0.46700002 13693.81029104  961.30552799
0.46800002 13711.98515716  1061.10202168
0.46900002 13729.59768352  1258.31768733
0.47000002 13748.08865027  1262.69326193
0.47100002 13767.21613364  1462.07842269
0.47200002 13786.84438497  1271.62965212
0.47300002 13806.94926056  981.67413895
0.47400002 13826.74163971  1379.21754393
0.47500002 13847.33574839  988.69981930
0.47600002 13868.70474877  1091.53645899
0.47700002 13889.51049774  1294.64133486
