# SAXS profile: number of points = 501, q_min = 0, q_max = 0.5, delta_q = 0.001
#    q    intensity    error
0.00000000 1682732.95097188 378.61491397
0.00100000 1682645.42122694 706.71109370
0.00200000 1682382.78893742 757.07227899
0.00300000 1681945.29081178 1311.91737357
0.00400000 1681332.78994694 1513.19956845
0.00500000 1680545.94650530 1966.23883524
0.00600000 1679584.59833111 2292.63307006
0.00700000 1678449.52435811 3222.62322070
0.00800000 1677140.47545724 2716.96768495
0.00900000 1675658.88876448 4021.58150495
0.01000000 1674004.17752947 2762.10701219
0.01100000 1672177.91869501 3611.90446164
0.01200000 1670179.97222359 3582.53619749
0.01300000 1668011.75676060 4903.95478116
0.01400000 1665673.45671592 5246.87162125
0.01500000 1663166.54597318 5588.23984331
0.01600000 1660490.79939400 7621.65310993
0.01700000 1657648.42817139 6265.91133957
0.01800000 1654639.90668322 6602.01352474
0.01900000 1651466.25744744 5945.27879508
0.02000000 1648128.17561951 6229.92478566
0.02100000 1644628.50517307 7055.45660708
0.02200000 1640965.85073175 6793.59893068
0.02300000 1637143.47866206 6483.08847060
0.02400000 1633161.81243443 6736.79278347
0.02500000 1629023.30588234 9529.78677464
0.02600000 1624728.50051702 6580.15072806
0.02700000 1620279.17157292 8166.20739875
0.02800000 1615675.98079313 7731.00992264
0.02900000 1610922.19624571 10148.81030232
0.03000000 1606018.45413802 11201.97923251
0.03100000 1600966.48383959 8453.10342363
0.03200000 1595767.53076779 7899.04964112
0.03300000 1590425.66502337 10544.52264521
0.03400000 1584939.60994053 9153.02666973
0.03500000 1579313.21082630 11939.60842519
0.03600000 1573547.06431746 13099.77991583
0.03700000 1567644.74066518 13403.36315256
0.03800000 1561607.34980923 10048.94376108
0.03900000 1555437.55216722 11199.15089424
0.04000000 1549135.53984063 9527.18401150
0.04100000 1542705.35243745 13606.66183939
0.04200000 1536148.69597252 18825.50314251
0.04300000 1529467.19452583 11103.93234768
0.04400000 1522663.64388326 15416.97011031
0.04500000 1515740.98569071 13596.19727339
0.04600000 1508699.27472737 14890.86253379
0.04700000 1501542.70761906 12973.32959719
0.04800000 1494272.94878491 12081.19735304
0.04900000 1486892.76705099 11151.69627197
0.05000000 1479404.03794447 13580.92970074
0.05100000 1471810.64167774 13776.14824785
0.05200000 1464111.53204843 12803.65594443
0.05300000 1456312.75495841 12975.74725158
0.05400000 1448414.83628178 17924.13443486
0.05500000 1440421.59435894 13309.49615276
0.05600000 1432333.79529955 15920.39087767
0.05700000 1424156.78751942 19824.26340764
0.05800000 1415889.60904017 15036.74835011
0.05900000 1407536.33805126 16468.17592436
0.06000000 1399100.69318872 14081.94913484
0.06100000 1390584.09913428 15518.91927156
0.06200000 1381989.46912268 19589.70164051
0.06300000 1373320.24829599 15820.65000007
0.06400000 1364575.46535280 18626.45597316
0.06500000 1355762.11602075 14764.25013410
0.06600000 1346880.91789270 18950.61540142
0.06700000 1337933.64323519 17741.00093956
0.06800000 1328923.96008832 17880.67271997
0.06900000 1319856.17709993 18016.03766091
0.07000000 1310729.19206260 23730.75313357
0.07100000 1301548.05304021 16868.06355746
0.07200000 1292314.26369997 14150.84185044
0.07300000 1283031.61132884 18514.14701897
0.07400000 1273702.86631641 17194.98950110
0.07500000 1264328.78374758 20178.68833444
0.07600000 1254912.49955975 18842.51206424
0.07700000 1245458.27456560 24772.16624264
0.07800000 1235966.91068145 17575.45029411
0.07900000 1226440.46832253 16189.01494118
0.08000000 1216884.15850793 20699.20050724
0.08100000 1207298.85194567 23759.64252105
0.08200000 1197686.27075626 14911.19477063
0.08300000 1188049.09392813 16466.36121464
0.08400000 1178391.30497196 18029.38781235
0.08500000 1168714.42013529 18091.70007301
0.08600000 1159020.80861135 22687.83339380
0.08700000 1149312.78187632 18205.11531979
0.08800000 1139592.29371160 18256.26940264
0.08900000 1129862.69822519 19829.09128522
0.09000000 1120126.24821184 22934.58600950
0.09100000 1110384.61310484 22984.96257113
0.09200000 1100639.91128588 16889.32023226
0.09300000 1090896.35650740 21534.29508940
0.09400000 1081152.47611978 15406.42350877
0.09500000 1071413.10367380 18514.01930169
0.09600000 1061679.64745389 18536.92751592
0.09700000 1051956.46790169 17010.13688566
0.09800000 1042242.98780806 17025.04000632
0.09900000 1032542.90001894 18585.77307429
0.10000000 1022856.03154399 15496.26960664
0.10100000 1013185.81398673 20152.26678799
0.10200000 1003534.72091797 21706.45703445
0.10300000 993903.74390728 15504.89913432
0.10400000 984295.61813633 17052.92238647
0.10500000 974713.39550943 17047.73808955
0.10600001 965153.97881099 17039.79429769
0.10700001 955625.56292931 17029.24833276
0.10800001 946124.48833604 17016.04972353
0.10900001 936656.54834269 15454.83377505
0.11000001 927221.72714657 16982.06673203
0.11100001 917820.77958341 18503.26778741
0.11200001 908457.23113369 15398.35079263
0.11300001 899130.66022120 15375.13501366
0.11400001 889844.33541691 15349.81550868
0.11500001 880599.39031084 21451.40215808
0.11600001 871396.93970165 19880.92211552
0.11700001 862238.84922148 15261.62834997
0.11800001 853124.93993674 16751.10898461
0.11900001 844057.62949802 18231.64565590
0.12000001 835037.73218217 18187.12266363
0.12100001 826068.44756954 16628.75863292
0.12200001 817149.14477457 16584.04267450
0.12300001 808281.95401940 21047.66307431
0.12400001 799466.73432592 23984.00315984
0.12500001 790704.91039739 17933.18821283
0.12600001 781999.70737746 14897.09512754
0.12700001 773349.65910588 16333.14557004
0.12800001 764756.22110000 19237.44364842
0.12900001 756221.03560123 22119.46633387
0.13000001 747744.74952849 23509.09603327
0.13100001 739327.12837291 16102.54561500
0.13200001 730970.05455809 18957.70925864
0.13300001 722675.35721489 17430.93043777
0.13400001 714441.41674422 21701.15905672
0.13500001 706271.40044655 15848.73097326
0.13600001 698163.24208372 17216.70636157
0.13700001 690120.46115875 14285.49421959
0.13800001 682140.69813151 17067.16107207
0.13900001 674227.36229222 26901.67302409
0.14000001 666379.22062694 14093.92118094
0.14100001 658597.19865010 14028.12099285
0.14200001 650881.36637329 19545.96835408
0.14300001 643233.78467816 15283.23544483
0.14400001 635650.94667119 17973.03136491
0.14500001 628137.73635455 19258.70390510
0.14600001 620692.08162158 21898.01767263
0.14700001 613316.43908349 14977.18814899
0.14800001 606006.22748780 21670.78371736
0.14900001 598766.05620546 18861.13166036
0.15000001 591594.45964508 13399.61514319
0.15100001 584492.17872883 14659.06453421
0.15200001 577459.26512694 17228.49798802
0.15300001 570496.68403669 18449.86363238
0.15400001 563600.79020948 17034.83468797
0.15500001 556775.96575359 19542.83732024
0.15600001 550017.86594001 14248.21348962
0.15700001 543332.74159356 19315.47987528
0.15800001 536712.76010614 16640.77991251
0.15900001 530164.65659301 13996.34759469
0.16000001 523682.98710315 15176.33368261
0.16100001 517272.99393424 16340.65464973
0.16200001 510930.43421558 13741.47467691
0.16300001 504655.83622473 16138.89440435
0.16400001 498449.94441072 16037.62771854
0.16500001 492311.65660200 15936.12907657
0.16600001 486242.01227840 13398.39928091
0.16700001 480238.12979217 13312.20158637
0.16800001 474301.18039864 19237.65678530
0.16900001 468433.13651237 14334.05465410
0.17000001 462629.81673474 17799.68303936
0.17100001 456892.69869842 12966.61540136
0.17200001 451221.77043321 15221.96714439
0.17300001 445616.25042590 19771.99396512
0.17400001 440075.62859284 15017.58153495
0.17500001 434599.24070470 16062.78869505
0.17600001 429185.50016869 17092.31335147
0.17700001 423837.31265960 14711.39381724
0.17800001 418550.45095160 20228.54424993
0.17900001 413326.98160260 16739.74354558
0.18000001 408165.45055825 11081.69250610
0.18100001 403067.17928738 12104.10796576
0.18200001 398027.10021265 16388.76662543
0.18300001 393048.78020496 13017.77621534
0.18400001 388129.79680002 12924.72284401
0.18500001 383271.89915674 13901.27243914
0.18600001 378471.03546683 13800.94696030
0.18700001 373728.45323261 11593.05716699
0.18800001 369043.43125418 11508.61994740
0.18900001 364417.21985084 13501.65863339
0.19000001 359843.58340928 19588.08638840
0.19100001 355330.34584168 15350.27166566
0.19200001 350868.76743037 10157.65129707
0.19300001 346464.81714527 14114.97731747
0.19400001 342112.37605052 13008.82371404
0.19500001 337814.62122316 9931.75033329
0.19600001 333569.03847309 12814.05521849
0.19700001 329375.59892271 9782.45575030
0.19800001 325233.90154442 10679.05566189
0.19900001 321143.41000679 11561.16330662
0.20000001 317101.80475502 13384.86781129
0.20100001 313111.44596501 14230.91589170
0.20200001 309168.31191905 9414.17554288
0.20300001 305275.23449307 11209.70714041
0.20400001 301429.04075450 11122.73212957
0.20500001 297629.81583064 9196.76174387
0.20600001 293877.21304345 15512.30942373
0.20700001 290170.83470320 12674.66265896
0.20800001 286508.40466398 8982.03891080
0.20900001 282892.77102774 12475.57179206
0.21000001 279319.21303032 8840.45351032
0.21100001 275789.81985394 8770.11668595
0.21200001 272302.60429594 17400.13723709
0.21300001 268856.84137980 12082.42702281
0.21400001 265453.71153621 9416.97086195
0.21500001 262092.37966263 11039.33155330
0.21600001 258770.15805043 10107.56285132
0.21700001 255488.01223299 8354.45839501
0.21800001 252245.24000679 10772.13348380
0.21900001 249040.08839733 12327.48495853
0.22000001 245872.75905745 8965.75058295
0.22100001 242744.53178721 10508.41127794
0.22200001 239653.42255417 8818.04809984
0.22300001 236596.98499568 10334.55679328
0.22400001 233576.03805787 8671.51082294
0.22500001 230592.93451976 8598.81093486
0.22600001 227642.41780974 7751.22469296
0.22700001 224728.16070274 9222.84415138
0.22800001 221846.31350918 10668.58972117
0.22900001 218997.06716384 10577.55884424
0.23000001 216181.80399947 8239.76984911
0.23100001 213399.39703029 11139.44905180
0.23200001 210646.98156262 8098.32358917
0.23300001 207926.83463837 8757.87868917
0.23400001 205238.11448905 9405.03704127
0.23500001 202578.00427496 7171.26169051
0.23600001 199949.49418661 8529.84582544
0.23700001 197349.86590049 9863.54676423
0.23800001 194779.62383897 8379.41981389
0.23900001 192237.56705061 8996.71856351
0.24000001 189723.80432824 7544.36743596
0.24100001 187239.01941354 7476.45439883
0.24200001 184780.85685642 7408.78880611
0.24300001 182350.39965288 8008.82993159
0.24400001 179946.02396473 9258.22337093
0.24500001 177568.00479009 7862.71162405
0.24600001 175216.60920338 8439.30838150
0.24700001 172890.60245953 7717.83685889
0.24800001 170589.93077674 10194.45474548
0.24900001 168313.44536966 6942.92994995
0.25000001 166062.72666306 6877.48815011
0.25100001 163834.88889451 7431.55091183
0.25200001 161633.05548258 8587.56464406
0.25300001 159454.52287891 6682.73937002
0.25400001 157299.05997458 7821.69612729
0.25500001 155166.36209425 7150.06630359
0.25600001 153057.21605743 6490.39155399
0.25700001 150969.87445558 6426.78785965
0.25800001 148905.81593321 6941.98946726
0.25900001 146863.61172184 5727.68112816
0.26000001 144843.12057761 5670.60843892
0.26100001 142843.70854055 6736.50961352
0.26200001 140866.62047167 7780.06381678
0.26300001 138909.87928364 8251.24721988
0.26400001 136974.46926774 6533.68249323
0.26500001 135060.07300305 7544.45603495
0.26600001 133165.17027370 6399.91838620
0.26700001 131291.76865707 6861.30815470
0.26800001 129438.56855536 7311.98508370
0.26900001 127604.09533708 6201.55932685
0.27000001 125790.33172594 5113.37722664
0.27100001 123995.65906315 6070.82775502
0.27200001 122221.71651928 6005.97543398
0.27300001 120466.03730393 5446.26980425
0.27400001 118727.60045806 4897.51375067
0.27500001 117011.02662604 5328.68240473
0.27600001 115310.80814044 6707.63002697
0.27700001 113630.95050445 6633.77520440
0.27800001 111968.34687019 6560.22575360
0.27900001 110325.45292062 5560.40309036
0.28000001 108699.13364038 6872.50304968
0.28100001 107091.62087501 5888.96851064
0.28200001 105502.67060298 4926.44743697
0.28300001 103931.06422387 5755.70260914
0.28400001 102376.94596747 4814.27611198
0.28500001 100840.64438115 6056.48938819
0.28600001 99321.75083001  5130.96189074
0.28700001 97820.14935395  5493.57984774
0.28800001 96335.09598185  5846.57725187
0.28900001 94868.92292791  4539.47817697
0.29000001 93418.23196618  4485.47662017
0.29100001 91985.46832040  5237.65281409
0.29200001 90569.18726950  4776.61916270
0.29300001 89169.76165349  3932.38667506
0.29400001 87786.33869265  3884.54567103
0.29500001 86420.67887161  4604.49398824
0.29600001 85070.61025544  4926.86462617
0.29700001 83737.09592711  6363.18222072
0.29800001 82419.60601856  5175.12730689
0.29900001 81119.11273653  4380.43229514
0.30000001 79833.96197175  3604.50355366
0.30100001 78565.81081102  6406.25651680
0.30200001 77312.11008657  4919.36979769
0.30300001 76075.44466272  3815.94448493
0.30400001 74854.66027931  4109.52104389
0.30500001 73649.20209547  4056.59824347
0.30600001 72458.51529012  4004.05774449
0.30700001 71284.55215361  4940.01969812
0.30800001 70125.61024526  3575.35440763
0.30900001 68982.07000993  4169.96632952
0.31000001 67854.12276686  4431.55296771
0.31100001 66740.50105823  4997.52895585
0.31200001 65642.73794084  4006.50469991
0.31300001 64559.46385764  3952.97615916
0.31400001 63492.47369730  3900.02538151
0.31500001 62439.07354459  2959.61222614
0.31600002 61401.03786522  3503.54338647
0.31700002 60377.54913162  4608.01476791
0.31800002 59368.78113390  4545.27409882
0.31900002 58374.62577150  3082.18038667
0.32000002 57395.38441869  4145.38183592
0.32100002 56429.63804420  3543.21714057
0.32200002 55479.58668844  3225.58332280
0.32300002 54541.88413770  4506.25068083
0.32400002 53619.20304511  2875.32989944
0.32500002 52710.33187598  2577.53535079
0.32600002 51816.00629850  2795.73275222
0.32700002 50934.82988443  3007.19249877
0.32800002 50068.15085605  2965.03603410
0.32900002 49214.52732453  2923.34306151
0.33000002 48375.58863314  3122.40251618
0.33100002 47547.53515307  3551.80104413
0.33200002 46735.94037789  3735.13653188
0.33300002 45936.21854915  3452.10698744
0.33400002 45150.30887688  2949.44406706
0.33500002 44376.21401290  2683.87355060
0.33600002 43616.52976127  3086.74195738
0.33700002 42868.52455243  2390.77772751
0.33800002 42134.47489499  3213.80722481
0.33900002 41411.99690189  2745.61552462
0.34000002 40702.74090152  2914.72341399
0.34100002 40005.79136044  2052.29719398
0.34200002 39321.93446810  2023.11362420
0.34300002 38648.98622802  2393.14534058
0.34400002 37989.77789042  2162.56820883
0.34500002 37341.60500137  2713.24114790
0.34600002 36706.47931291  2865.85850808
0.34700002 36081.42638041  2448.48571014
0.34800002 35469.83529722  2042.53056233
0.34900002 34868.98652373  2562.87063088
0.35000002 34279.80491416  2165.79817705
0.35100002 33702.63456901  2669.24878429
0.35200002 33135.37349640  1929.96992071
0.35300002 32579.87454040  2248.98884604
0.35400002 32035.75772760  1876.49459777
0.35500002 31502.65735696  1850.46618079
0.35600002 30979.33449098  1824.83778462
0.35700002 30467.18373052  2126.91419697
0.35800002 29966.33578568  1936.42471019
0.35900002 29475.50940006  2705.85189109
0.36000002 28995.34564254  1727.10784500
0.36100002 28524.51865490  2013.54586722
0.36200002 28065.17645729  2139.40850268
0.36300002 27614.53093123  2261.63019039
0.36400002 27173.94106439  1785.32801250
0.36500002 26742.85409905  1468.18275958
0.36600002 26321.94087034  1883.72978761
0.36700002 25909.72106348  1716.26000454
0.36800002 25508.57675106  1694.27974806
0.36900002 25115.38525818  1951.46552700
0.37000002 24731.11519784  1651.54395114
0.37100002 24355.71525834  1902.66856611
0.37200002 23990.17358111  1342.25027545
0.37300002 23632.55765067  1325.78654701
0.37400002 23283.69799744  1571.64968928
0.37500002 22943.78079595  2070.44687711
0.37600002 22612.19319032  1918.07937823
0.37700002 22288.47032072  1516.50759246
0.37800002 21972.83866931  1498.98712503
0.37900002 21665.82251944  1728.93271896
0.38000002 21366.51234044  1587.42510953
0.38100002 21074.03698885  1328.29661433
0.38200002 20790.29729822  1194.40263637
0.38300002 20513.31324168  1536.03696830
0.38400002 20244.72939919  1286.04649601
0.38500002 19981.94922441  1388.34589788
0.38600002 19727.81075995  1374.23936264
0.38700002 19479.81220225  1133.72512388
0.38800002 19238.92704107  1234.85059063
0.38900002 19004.38726854  1556.45939103
0.39000002 18777.69698976  1101.31198063
0.39100002 18556.31879641  1091.11159692
0.39200002 18342.13234329  1297.52250344
0.39300002 18133.80915919  1178.87898929
0.39400002 17933.10097479  1275.04353972
0.39500002 17737.31578924  1369.67559014
0.39600002 17547.53011696  1462.93765516
0.39700002 17363.66062989  1243.93270646
0.39800002 17185.76505401  1234.28170466
0.39900002 17013.28476641  1224.95656122
0.40000002 16846.24647691  1317.29230567
0.40100002 16684.98656714  1207.32568520
0.40200002 16529.34440073  1698.63815782
0.40300002 16378.14481382  1091.76718502
0.40400002 16232.61273188  1479.19690528
0.40500002 16092.07656211  1078.00825997
0.40600002 15956.45022672  1363.79786550
0.40700002 15825.52215440  1065.37420191
0.40800002 15699.56167055  1155.80178495
0.40900002 15577.88153505  1245.45168774
0.41000002 15461.13741135  1143.81499989
0.41100002 15348.52302061  1043.39264438
0.41200002 15239.97169437  1038.52792032
0.41300002 15136.29054409  1127.95642479
0.41400002 15036.34158449  1123.21476958
0.41500002 14940.61726360  1025.52401757
0.41600002 14848.18914383  1300.25598494
0.41700002 14760.10741209  1018.00465645
0.41800002 14676.62954410  922.42621056
0.41900002 14594.92964371  1287.27285557
0.42000002 14518.14780833  916.82107754
0.42100002 14444.85716905  1280.10330298
0.42200002 14375.20966246  1003.31780593
0.42300002 14308.12258127  1182.99563108
0.42400002 14244.34360771  1089.69233763
0.42500002 14184.11516452  906.36500196
0.42600002 14126.13075689  995.25658964
0.42700002 14072.35534653  993.78978166
0.42800002 14020.52700841  992.44305132
0.42900002 13972.72169432  1081.48871039
0.43000002 13927.14873304  990.42922908
0.43100002 13883.23752303  1079.56060095
0.43200002 13843.16432827  1258.75899202
0.43300002 13805.34683884  1258.21937052
0.43400002 13770.07864892  1168.04697675
0.43500002 13736.91170879  898.39406833
0.43600002 13706.51726659  1437.53959904
0.43700002 13677.85780963  1168.22589088
0.43800002 13651.35599042  1078.73020148
0.43900002 13627.70982108  1169.25755806
0.44000002 13605.55490566  990.00824963
0.44100002 13585.79482666  1621.32883145
0.44200002 13567.83391276  1081.89912747
0.44300002 13551.75786729  1173.31125175
0.44400002 13537.93684923  994.02306026
0.44500002 13524.60601345  1085.75542221
0.44600002 13513.39078732  996.68018475
0.44700002 13504.91674508  1361.29567242
0.44800002 13496.39519942  1363.47338964
0.44900002 13491.07292223  1183.84170503
0.45000002 13486.70813587  1003.61343349
0.45100002 13483.40065369  1188.42698994
0.45200002 13481.67466384  1190.90378787
0.45300002 13480.98844991  1101.66642834
0.45400002 13481.97528281  1564.24625632
0.45500002 13484.21647275  922.32045045
0.45600002 13487.42889640  1294.38861253
0.45700002 13491.85898473  1204.95798303
0.45800002 13496.96669904  1022.19282140
0.45900002 13503.36470403  1118.07865048
0.46000002 13511.44822271  1401.47503332
0.46100002 13519.26895861  1592.70515150
0.46200002 13529.06470636  1409.39038258
0.46300002 13539.49888749  1225.05391740
0.46400002 13550.11595341  945.12063254
0.46500002 13562.10882548  1327.18803256
0.46600002 13574.63244664  1141.08365755
0.46700002 13587.56928645  1144.61689094
0.46800002 13602.14925461  1052.60236996
0.46900002 13616.27483572  1055.94216356
0.47000002 13631.36601560  1155.66726558
0.47100002 13647.12363030  1256.08131847
0.47200002 13663.55200177  1066.37196652
0.47300002 13680.56588479  1459.03242077
0.47400002 13697.32137844  1561.49471115
0.47500002 13714.90214847  1077.16846580
0.47600002 13733.51505415  1473.94957305
0.47700002 13751.47505159  1281.77505031
