# SAXS profile: number of points = 501, q_min = 0, q_max = 0.5, delta_q = 0.001
#    q    intensity    error
0.00000000 1682732.95097188 277.65093691
0.00100000 1682645.40230960 605.75235922
0.00200000 1682382.71965051 908.48669738
0.00300000 1681945.12834483 1009.16711296
0.00400000 1681332.50355760 1387.09936814
0.00500000 1680545.49842194 1814.98921014
0.00600000 1679583.95942655 1939.91955212
0.00700000 1678448.64799833 2416.96615357
0.00800000 1677139.33892223 2943.37966408
0.00900000 1675657.46496686 2513.48630490
0.01000000 1674002.40667535 3038.31449931
0.01100000 1672175.75936543 3009.91649791
0.01200000 1670177.44188364 3582.53076991
0.01300000 1668008.76788605 4203.38228046
0.01400000 1665670.00600197 4872.08498354
0.01500000 1663162.56555682 4789.90840209
0.01600000 1660486.29629171 4657.66426931
0.01700000 1657643.33289223 5370.76463950
0.01800000 1654634.19481961 6601.99073440
0.01900000 1651459.87621643 6440.69380786
0.02000000 1648121.13387464 7787.37270982
0.02100000 1644620.75084254 6512.69846861
0.02200000 1640957.35487426 5661.30313152
0.02300000 1637134.17630084 7661.78829384
0.02400000 1633151.67847546 7349.18288824
0.02500000 1629012.39346259 8259.09321205
0.02600000 1624716.65713424 9870.15414353
0.02700000 1620266.46419429 11568.70308421
0.02800000 1615662.26939288 7730.94431358
0.02900000 1610907.50720360 8698.90093830
0.03000000 1606002.81165884 9708.28744272
0.03100000 1600949.75194705 7684.55916294
0.03200000 1595749.72698825 14218.13072233
0.03300000 1590406.76865160 10544.39736226
0.03400000 1584919.55078529 10817.07643321
0.03500000 1579291.97321116 11939.44786882
0.03600000 1573524.67978522 15719.51227751
0.03700000 1567621.18756004 12509.61765527
0.03800000 1561582.49094129 10962.30959374
0.03900000 1555411.36124607 11198.96231960
0.04000000 1549108.06118820 11432.41802134
0.04100000 1542676.52757372 12634.52134665
0.04200000 1536118.48413098 10898.76115053
0.04300000 1529435.57389221 14131.98535874
0.04400000 1522630.67808316 13361.08482069
0.04500000 1515706.49500383 14641.72542206
0.04600000 1508663.24925076 13826.89932215
0.04700000 1501505.15477043 12973.00514056
0.04800000 1494233.89064478 12080.88156796
0.04900000 1486852.23444764 13381.67073291
0.05000000 1479361.83274492 13580.54225699
0.05100000 1471766.73724660 11479.78108530
0.05200000 1464066.12519784 16295.05673282
0.05300000 1456265.55786684 14154.90188234
0.05400000 1448365.96601928 15533.72570995
0.05500000 1440371.07688778 13309.02937130
0.05600000 1432281.56310481 13470.60872960
0.05700000 1424102.75495208 16106.60291034
0.05800000 1415833.75592611 17542.18105501
0.05900000 1407478.67075973 20267.69380556
0.06000000 1399041.24003749 14081.35073884
0.06100000 1390522.81087695 14225.04902003
0.06200000 1381926.32817146 18282.88617631
0.06300000 1373255.19408629 14501.57552758
0.06400000 1364508.57943057 14634.35519879
0.06500000 1355693.20768338 24158.45409100
0.06600000 1346810.05104484 20303.16246946
0.06700000 1337860.73471845 15010.79814603
0.06800000 1328849.23913935 17879.66734955
0.06900000 1319779.40949992 15243.45289341
0.07000000 1310650.40116803 23729.32662436
0.07100000 1301467.09889004 16867.01439163
0.07200000 1292231.23811254 21224.89908032
0.07300000 1282946.55085208 14240.70738171
0.07400000 1273615.66166008 20059.44761122
0.07500000 1264239.54132969 18736.03088071
0.07600000 1254821.18066788 15942.50384778
0.07700000 1245364.85579269 14570.76949598
0.07800000 1235871.29634491 17574.09065818
0.07900000 1226342.68364260 16187.72418335
0.08000000 1216784.16708044 19219.10682062
0.08100000 1207196.86247536 16333.37431562
0.08200000 1197581.84643897 14909.89468781
0.08300000 1187942.65933973 16464.88603118
0.08400000 1178282.51879661 19530.03366577
0.08500000 1168603.33537460 34672.46258827
0.08600000 1158907.39139708 15123.74216781
0.08700000 1149197.27079768 18203.28562422
0.08800000 1139474.48088908 18254.38204114
0.08900000 1129742.64816066 16776.67911318
0.09000000 1120003.93898141 19874.47083084
0.09100000 1110260.02036137 15321.58900081
0.09200000 1100512.96294840 16887.37220993
0.09300000 1090767.19350886 16917.79996633
0.09400000 1081021.07000619 24647.28155450
0.09500000 1071279.22740562 23139.63239959
0.09600000 1061543.45124108 20079.09532410
0.09700000 1051818.21403505 20100.24701518
0.09800000 1042102.11336246 34045.47764429
0.09900000 1032399.90680733 17034.59926333
0.10000000 1022710.51089322 17043.47146554
0.10100000 1013038.03062999 15499.48259761
0.10200000 1003384.68904864 21703.21184496
0.10300000 993751.22370923 18603.02378294
0.10400000 984140.71992907 18600.26048171
0.10500000 974556.35178746 23243.17008371
0.10600001 964994.57774607 23232.24555240
0.10700001 955463.67497457 20122.06594186
0.10800001 945960.41756707 17013.09891061
0.10900001 936490.18829115 26268.55101791
0.11000001 927052.97293769 16978.97599855
0.11100001 917649.77074936 16958.16856173
0.11200001 908283.83940920 20014.03534358
0.11300001 898954.99143963 16909.34418508
0.11400001 889666.26879690 18416.09263121
0.11500001 880419.00552274 21447.00798443
0.11600001 871214.20363355 24463.69599006
0.11700001 862053.79625708 18310.02349481
0.11800001 852937.55425355 21314.91048469
0.11900001 843867.95563985 22784.43587546
0.12000001 834845.78650413 16667.69691269
0.12100001 825874.33894578 22670.25167201
0.12200001 816952.61445796 21101.88702559
0.12300001 808083.19309910 16533.38290977
0.12400001 799265.89738799 16484.85991035
0.12500001 790501.67362628 14940.48233554
0.12600001 781794.23761299 22339.77139252
0.12700001 773141.91313929 20782.05560457
0.12800001 764546.26069571 19232.16209420
0.12900001 756008.85964248 16216.39080364
0.13000001 747530.41806716 17626.76808886
0.13100001 739110.60629686 14634.39069451
0.13200001 730751.32968737 18952.03662885
0.13300001 722454.52690569 14521.33667538
0.13400001 714218.47909349 21694.38732526
0.13500001 706046.23695232 14403.34391292
0.13600001 697936.10139064 18645.36382779
0.13700001 689891.04868162 17136.89445731
0.13800001 681909.15834538 14217.80662195
0.13900001 673993.81967842 15569.25796879
0.14000001 666143.64023328 21133.40798306
0.14100001 658359.52321506 19632.28190819
0.14200001 650641.74406022 19538.77249568
0.14300001 642992.06464150 16666.35510162
0.14400001 635407.33008934 15202.12108947
0.14500001 627892.14671567 17876.09026025
0.14600001 620444.44648044 16416.96082833
0.14700001 613066.82504744 16332.10098976
0.14800001 605754.77198726 14892.48177191
0.14900001 598512.77674768 14813.19192340
0.15000001 591339.20520007 18751.36708164
0.15100001 584235.02376166 15984.67100436
0.15200001 577200.27470286 14571.42162246
0.15300001 570235.79533446 21075.91599011
0.15400001 563338.03442259 15717.13190210
0.15500001 556511.50278935 16929.08071379
0.15600001 549751.71076363 12946.65339950
0.15700001 543064.71900923 15444.76133757
0.15800001 536443.11583798 15353.00269993
0.15900001 529893.25490196 16532.67033329
0.16000001 523409.84346123 13904.38314787
0.16100001 516998.09615928 13819.35976267
0.16200001 510653.88035286 14982.58555682
0.16300001 504377.75494036 21093.07870736
0.16400001 498170.28727943 13562.68671147
0.16500001 492030.37287156 13476.71254921
0.16600001 485959.17848933 14607.93359507
0.16700001 479953.83290169 19351.73945628
0.16800001 474015.24776139 15621.17322755
0.16900001 468145.73148440 17906.57507479
0.17000001 462341.09202219 15416.76444145
0.17100001 456602.53308375 14136.41509181
0.17200001 450930.22430330 11701.63987326
0.17300001 445323.21467221 13947.52374220
0.17400001 439781.21233110 23088.51473776
0.17500001 434303.58049957 16051.86109335
0.17600001 428888.46984743 13664.38729470
0.17700001 423538.90098245 12439.33810937
0.17800001 418250.99413883 12353.04369535
0.17900001 413026.19010982 15612.39072358
0.18000001 407863.52958659 13288.19442160
0.18100001 402764.03996846 15393.64233474
0.18200001 397722.82601328 12009.24129876
0.18300001 392743.29287286 11923.68693489
0.18400001 387823.27460366 12914.51565439
0.18500001 382964.34253187 12821.64679369
0.18600001 378162.36854498 13789.69142047
0.18700001 373418.74932957 10530.40922860
0.18800001 368732.62129230 17771.06952280
0.18900001 364105.55764672 11414.70977154
0.19000001 359531.00958986 14420.78947601
0.19100001 355016.76982466 10224.48345406
0.19200001 350554.47342631 10148.55248522
0.19300001 346149.42762080 10072.94881974
0.19400001 341796.24546851 12996.80284809
0.19500001 337497.57365610 11906.91496125
0.19600001 333251.38906003 10832.33691329
0.19700001 329057.11955573 9772.99691265
0.19800001 324914.70987994 13578.18636757
0.19900001 320823.54870059 11549.64829906
0.20000001 316781.27640810 10506.05152860
0.20100001 312790.26940438 15164.07297741
0.20200001 308846.55616788 9404.37807980
0.20300001 304953.02867628 10264.71943040
0.20400001 301106.25845012 12036.72325047
0.20500001 297306.38439668 12861.47479692
0.20600001 293553.22880318 13672.24227777
0.20700001 289846.49319268 11756.17431960
0.20800001 286183.47187556 14354.96362784
0.20900001 282567.52673496 13351.31626936
0.21000001 278993.53856131 10596.17509546
0.21100001 275463.76836192 9635.72307281
0.21200001 271976.21014670 10427.56838998
0.21300001 268530.22188592 9481.80258305
0.21400001 265126.81544338 11115.44226296
0.21500001 261765.20374164 10177.43160264
0.21600001 258442.70209887 9253.54138614
0.21700001 255160.35241495 9178.11831030
0.21800001 251917.40666526 11585.68208031
0.21900001 248712.21800643 9028.25394050
0.22000001 245544.66145981 8953.78650349
0.22100001 242416.44132247 8879.71466551
0.22200001 239325.08469777 8805.96690784
0.22300001 236268.72259329 8732.49239997
0.22400001 233247.69082098 13382.58689367
0.22500001 230264.71785311 10147.76659565
0.22600001 227314.13596251 9288.05603464
0.22700001 224400.01115930 8441.92881902
0.22800001 221518.26727652 9130.98340894
0.22900001 218669.12699407 7544.08523806
0.23000001 215853.99413150 12714.88012563
0.23100001 213071.80159782 8897.87885553
0.23200001 210319.73707365 8085.74267420
0.23300001 207599.68841625 8744.09928964
0.23400001 204911.16787892 7945.43091029
0.23500001 202251.39478018 8591.63965661
0.23600001 199623.21926435 7806.26635855
0.23700001 197023.86183557 10550.62830032
0.23800001 194454.01758327 9062.52991811
0.23900001 191912.33113091 8290.61309700
0.24000001 189398.91956084 8216.12551918
0.24100001 186914.56093542 9498.99843605
0.24200001 184457.03068598 8068.15090384
0.24300001 182026.84803533 7994.61954388
0.24400001 179623.00149750 6601.14561729
0.24500001 177245.56421729 10464.57860641
0.24600001 174894.51285302 7775.81040928
0.24700001 172569.17308732 8345.44560529
0.24800001 170269.12550298 8267.41777990
0.24900001 167993.28884157 7559.69835550
0.25000001 165743.18886866 8112.30076295
0.25100001 163516.13851418 6180.91032825
0.25200001 161314.81951952 8570.65676655
0.25300001 159137.07643399 6669.43518888
0.25400001 156982.27625778 7205.48682113
0.25500001 154850.28271233 7135.50136498
0.25600001 152741.95879695 8243.48390629
0.25700001 150655.51483844 8162.51618014
0.25800001 148592.12254812 6350.08465754
0.25900001 146550.81662268 5715.48211871
0.26000001 144531.22827238 7921.75699643
0.26100001 142532.66640232 6721.84086559
0.26200001 140556.50156289 7208.44052373
0.26300001 138600.63115774 8781.73640568
0.26400001 136666.10079838 8148.71664569
0.26500001 134752.66627199 5914.29480254
0.26600001 132858.80412546 6385.19442841
0.26700001 130986.29732814 7898.47410264
0.26800001 129134.22349990 7294.79263071
0.26900001 127300.62860890 5671.24327290
0.27000001 125488.01049835 6121.30544178
0.27100001 123694.38331448 5046.73107806
0.27200001 121921.45921700 4992.68399121
0.27300001 120166.98424145 5432.74961466
0.27400001 118429.63862447 8304.87880157
0.27500001 116714.23909638 7731.15156362
0.27600001 115015.24745202 6690.43726092
0.27700001 113336.49401506 8979.65084579
0.27800001 111675.05245447 5140.96128305
0.27900001 110033.38759195 6469.96349662
0.28000001 108408.31752754 5940.23404006
0.28100001 106802.07159016 6324.81897892
0.28200001 105214.43080300 5359.62335877
0.28300001 103644.06360747 4415.23731865
0.28400001 102091.18466616 4364.39835105
0.28500001 100556.26564783 4745.25040052
0.28600001 99038.63313615  5969.05870164
0.28700001 97538.36533832  5477.75485668
0.28800001 96054.60521188  4996.76079963
0.28900001 94589.90044804  5349.05912353
0.29000001 93140.54776178  4472.14361247
0.29100001 91709.12853094  6025.29002969
0.29200001 90294.29802116  5158.96496164
0.29300001 88896.32394415  5880.49210726
0.29400001 87514.29397403  5808.76153749
0.29500001 86150.11901383  4972.58510487
0.29600001 84801.48410588  4155.69692533
0.29700001 83469.39560471  3731.08216015
0.29800001 82153.39435924  4053.03790258
0.29900001 80854.41663597  3638.44892086
0.30000001 79570.65175026  3592.61509660
0.30100001 78304.13787100  3901.89537483
0.30200001 77051.90952803  4202.41134460
0.30300001 75816.82864896  4494.42181508
0.30400001 74597.59479130  5801.82820956
0.30500001 73393.62017018  4042.52079036
0.30600001 72204.52905083  3657.52059223
0.30700001 71032.15620826  3609.85434941
0.30800001 69874.79114918  4858.04508464
0.30900001 68732.88260125  3835.29503073
0.31000001 67606.57205158  3784.61608263
0.31100001 66494.59711383  3111.94729226
0.31200001 65398.42207728  5219.77530523
0.31300001 64316.77844190  3332.25244884
0.31400001 63251.33538304  3586.35088602
0.31500001 62199.59258547  3537.91299377
0.31600002 61163.28749204  3199.14590374
0.31700002 60141.52920955  3729.37640286
0.31800002 59134.42373284  3395.49877151
0.31900002 58141.98461216  3348.97847223
0.32000002 57164.30660302  2752.46149326
0.32100002 56200.36451820  4071.71660214
0.32200002 55251.97262583  2944.65402052
0.32300002 54316.06493565  4223.61740939
0.32400002 53394.99226254  3644.20839448
0.32500002 52487.86666073  3593.31952174
0.32600002 51595.27233690  3543.04751915
0.32700002 50715.80067413  3243.78276472
0.32800002 49850.94272939  2706.15855421
0.32900002 48999.07590148  3395.63612077
0.33000002 48161.80820817  2869.48066892
0.33100002 47335.53615572  2593.04079340
0.33200002 46525.74288037  2788.75316031
0.33300002 45727.83715099  2978.25417468
0.33400002 44943.61009040  2935.94146819
0.33500002 44171.38872582  2448.86190693
0.33600002 43413.43907201  3072.36922862
0.33700002 42667.21250511  2379.55055410
0.33800002 41934.94995773  2772.10999824
0.33900002 41214.32279245  2101.93056196
0.34000002 40506.94618179  3107.89559298
0.34100002 39811.74627417  2655.04548476
0.34200002 39129.61425296  2415.86249839
0.34300002 38458.53070039  2381.35233375
0.34400002 37801.15671457  2151.83094789
0.34500002 37154.84961060  2699.67150056
0.34600002 36521.48654974  2471.22650443
0.34700002 35898.35706656  1873.89432762
0.34800002 35288.44711016  2586.29041119
0.34900002 34689.47742708  2731.79647676
0.35000002 34102.13386635  2154.57291972
0.35100002 33526.80623010  1947.23699807
0.35200002 32961.38755559  2792.48888597
0.35300002 32407.73987493  2065.02128264
0.35400002 31865.40582529  2545.24941085
0.35500002 31334.17255222  2175.21836160
0.35600002 30812.66619445  2640.02936458
0.35700002 30302.42124766  1789.96410788
0.35800002 29803.36288038  2086.38451726
0.35900002 29314.44037884  2057.87381207
0.36000002 28836.11206366  1717.62309643
0.36100002 28367.16774736  1848.40473797
0.36200002 27909.59659655  2127.54864933
0.36300002 27460.87800209  1949.17321291
0.36400002 27022.14711546  1775.35514958
0.36500002 26592.94169038  1897.93833834
0.36600002 26173.82335429  2161.30356586
0.36700002 25763.49019352  1848.78814386
0.36800002 25364.18149044  3088.59652639
0.36900002 24972.89444616  1663.19484890
0.37000002 24590.49663216  1368.46120240
0.37100002 24216.90279954  1486.43356425
0.37200002 23853.16744140  1601.50173788
0.37300002 23497.43889984  1450.02702320
0.37400002 23150.46389429  1692.87775246
0.37500002 22812.35724347  1929.92551422
0.37600002 22482.70400067  1398.53666861
0.37700002 22160.79184445  1382.16865281
0.37800002 21846.96613727  1614.60010886
0.37900002 21541.83681084  1596.25018330
0.38000002 21244.42390787  1335.53077224
0.38100002 20953.80349386  2281.24069445
0.38200002 20671.88209087  1306.35965062
0.38300002 20396.76367263  1644.79510048
0.38400002 20129.96885463  1278.75633207
0.38500002 19869.09983819  1725.63140270
0.38600002 19616.78911937  1366.50559479
0.38700002 19370.61556816  1465.58084332
0.38800002 19131.60776425  1339.59523912
0.38900002 18898.88577398  1437.26033120
0.39000002 18674.01818071  1204.75434000
0.39100002 18454.57333084  1410.66765224
0.39200002 18242.19393116  1182.91512151
0.39300002 18035.75165552  1598.86946001
0.39400002 17836.82030687  1268.19798390
0.39500002 17642.84538633  1152.78357216
0.39600002 17454.89246219  1143.38278491
0.39700002 17272.83696789  1237.42609901
0.39800002 17096.85657773  1125.57160612
0.39900002 16926.20160993  1624.91543154
0.40000002 16760.93701086  1411.43857256
0.40100002 16601.53956366  1701.82390130
0.40200002 16447.66305926  1292.53966275
0.40300002 16298.27224987  1185.21041417
0.40400002 16154.53993094  1275.80485149
0.40500002 16015.90549896  1267.97929843
0.40600002 15882.01004299  1454.39513860
0.40700002 15752.96852570  1156.89806334
0.40800002 15628.73448544  1054.70519672
0.40900002 15508.86722430  1430.69306923
0.41000002 15393.97626227  1043.94254969
0.41100002 15283.15017677  944.49872568
0.41200002 15176.42552737  1034.19756657
0.41300002 15074.56909983  1216.97002109
0.41400002 14976.33058012  1305.18727190
0.41500002 14882.39583208  1114.39385271
0.41600002 14791.76834583  925.22515387
0.41700002 14705.45804709  922.03226324
0.41800002 14623.80361657  919.10610085
0.41900002 14543.85769196  1191.14200141
0.42000002 14468.77770316  1096.44402630
0.42100002 14397.35613805  1184.75849274
0.42200002 14329.42254800  909.20190375
0.42300002 14264.12502053  1088.63807315
0.42400002 14202.12652112  1267.53985207
0.42500002 14143.63297365  1174.91164680
0.42600002 14087.38222090  1533.90468581
0.42700002 14035.39113492  1261.50101498
0.42800002 13985.33223200  899.95617177
0.42900002 13939.30131525  899.08497744
0.43000002 13895.44333037  1167.84259004
0.43100002 13853.30581868  1077.23311151
0.43200002 13814.94726353  1256.19321420
0.43300002 13778.89247227  1255.80831943
0.43400002 13745.29812826  986.56881991
0.43500002 13713.89302605  1165.95524033
0.43600002 13685.27217286  986.77659679
0.43700002 13658.36389594  1076.82546059
0.43800002 13633.50915498  897.76662040
0.43900002 13611.57146488  988.20013518
0.44000002 13591.14581012  1168.77063933
0.44100002 13573.08315921  1169.86409293
0.44200002 13556.84032682  990.93729065
0.44300002 13542.47789946  1262.70069919
0.44400002 13530.27876122  1445.03384018
0.44500002 13518.60783462  904.39490700
0.44600002 13509.13105311  1630.41710407
0.44700002 13502.32418645  998.09185116
0.44800002 13495.53263921  999.81658296
0.44900002 13491.96144558  1001.77818481
0.45000002 13489.18070565  1003.79742978
0.45100002 13487.53076517  1005.90009214
0.45200002 13487.49143686  1283.06512120
0.45300002 13488.50097185  1469.70713555
0.45400002 13491.18172201  1012.85051578
0.45500002 13495.05670041  923.06192206
0.45600002 13499.95131230  1110.50604758
0.45700002 13505.98786860  1206.21983371
0.45800002 13512.80605663  1209.46376342
0.45900002 13520.77016265  1119.51982253
0.46000002 13530.51027676  1309.88876197
0.46100002 13539.99663529  1219.81835469
0.46200002 13551.37703391  1129.37181553
0.46300002 13563.45876902  1227.22180758
0.46400002 13575.69858801  1136.28602567
0.46500002 13589.28392210  1044.88009029
0.46600002 13603.40614312  1334.08610369
0.46700002 13617.93589951  1147.17497455
0.46800002 13634.11350981  1150.99191705
0.46900002 13649.84843858  1347.24010474
0.47000002 13666.53521559  1062.09483462
0.47100002 13683.84696462  1453.22461652
0.47200002 13701.89522423  1166.57941468
0.47300002 13720.51644717  1268.18739532
0.47400002 13738.81783805  1174.66898083
0.47500002 13758.01321336  1277.01884699
0.47600002 13778.07356285  1380.14969421
0.47700002 13797.65045088  1187.14990106
