# SAXS profile: number of points = 501, q_min = 0, q_max = 0.5, delta_q = 0.001
#    q    intensity    error
0.00000000 1682732.95097188 378.61491397
0.00100000 1682645.47551745 605.75238557
0.00200000 1682383.00556575 1059.90132707
0.00300000 1681945.78381791 1715.58476061
0.00400000 1681333.66196034 1639.30038270
0.00500000 1680547.30576270 1966.24042557
0.00600000 1679586.54847612 1939.92254247
0.00700000 1678452.18618627 2819.79978998
0.00800000 1677143.95643052 2490.55888045
0.00900000 1675663.29241050 3770.24256909
0.01000000 1674009.58879369 3590.75072301
0.01100000 1672184.48487446 3912.91186497
0.01200000 1670187.78671511 4559.61285764
0.01300000 1668020.89849180 5604.55046612
0.01400000 1665684.03250153 4497.34708713
0.01500000 1663178.71847143 5987.44365311
0.01600000 1660504.63163723 5081.14439995
0.01700000 1657664.02675992 5818.40099493
0.01800000 1654657.37613325 5187.35110760
0.01900000 1651485.65969743 4954.45720265
0.02000000 1648149.67678614 5710.83888840
0.02100000 1644652.20088234 6512.82301078
0.02200000 1640991.82069301 6227.56424246
0.02300000 1637171.77210750 6483.20051265
0.02400000 1633192.58079042 8574.26144012
0.02500000 1629056.66033880 8894.64977167
0.02600000 1624764.54362720 6580.29670266
0.02700000 1620317.94957297 7485.86926989
0.02800000 1615717.60186168 10542.55783562
0.02900000 1610966.77432098 9424.15606248
0.03000000 1606066.05331715 8215.02824032
0.03100000 1601017.19470749 8453.37117702
0.03200000 1595821.42014273 8689.24803289
0.03300000 1590482.89855567 9733.75578789
0.03400000 1585000.23425676 9153.37677517
0.03500000 1579377.29676725 9381.50157602
0.03600000 1573614.76133425 9606.91856192
0.03700000 1567715.98009003 10723.17779974
0.03800000 1561682.35467712 10963.01063720
0.03900000 1555516.29888060 9333.09822550
0.04000000 1549218.25806478 14291.53909290
0.04100000 1542791.97274547 11663.50785475
0.04200000 1536239.34178758 9908.74421422
0.04300000 1529561.97705399 10095.10951715
0.04400000 1522762.54840787 10278.64767911
0.04500000 1515844.08768357 13597.12209831
0.04600000 1508806.71444172 21274.17566260
0.04700000 1501654.53065391 14055.48706061
0.04800000 1494389.23541971 13180.51366967
0.04900000 1487013.56021309 16728.90333109
0.05000000 1479529.32713936 19241.27979544
0.05100000 1471940.58327094 13777.36450122
0.05200000 1464246.17491586 15132.98492297
0.05300000 1456452.08485262 18875.61989963
0.05400000 1448558.94296471 13145.67302044
0.05500000 1440570.64396929 15731.03216599
0.05600000 1432487.78335487 13472.54823114
0.05700000 1424315.63406294 17348.16523267
0.05800000 1416053.36553186 22557.73116620
0.05900000 1407705.19238486 15203.21678784
0.06000000 1399274.65086605 14083.70001894
0.06100000 1390763.10795065 16814.32676088
0.06200000 1382173.68999777 15673.85037723
0.06300000 1373509.69733103 13185.69371088
0.06400000 1364770.08262425 17298.46160625
0.06500000 1355961.88395945 14766.42560706
0.06600000 1347086.02538965 18953.50126404
0.06700000 1338143.92210023 19108.69610186
0.06800000 1329139.64804772 16507.91520147
0.06900000 1320077.23676518 19405.13628898
0.07000000 1310955.65410743 13961.67837005
0.07100000 1301779.79592203 22494.75592714
0.07200000 1292551.46152055 18399.47091670
0.07300000 1283274.22337500 17093.21345627
0.07400000 1273951.04770023 20064.72994160
0.07500000 1264582.28851957 17299.48651782
0.07600000 1255171.56359077 14497.23223911
0.07700000 1245722.70756103 21862.43454279
0.07800000 1236236.82202265 23439.05124475
0.07900000 1226715.69384134 20608.82462317
0.08000000 1217164.84250093 17746.26423616
0.08100000 1207585.04311627 16338.62639994
0.08200000 1197977.87704869 20880.75537679
0.08300000 1188346.20583502 20962.42805474
0.08400000 1178693.69754849 19536.84895390
0.08500000 1169022.19054575 21112.54175239
0.08600000 1159333.94660108 16642.23958484
0.08700000 1149631.34812936 19727.67486027
0.08800000 1139916.13557116 18261.45734948
0.08900000 1130191.96680930 22886.38840286
0.09000000 1120460.83052025 18353.14926607
0.09100000 1110724.40138971 21459.19644303
0.09200000 1100984.96658163 15358.74100547
0.09300000 1091246.60213252 27695.84006361
0.09400000 1081507.93656516 21576.08434850
0.09500000 1071773.61874802 24693.66533662
0.09600000 1062045.23350501 24724.41419824
0.09700000 1052327.20446403 20109.97382273
0.09800000 1042618.63917364 15482.88751970
0.09900000 1032923.65699894 15493.85558354
0.10000000 1023241.56698003 18602.53256252
0.10100000 1013576.21162502 23261.57515083
0.10200000 1003929.99442639 18612.86297215
0.10300000 994303.66129826 17062.25163050
0.10400000 984700.28243938 23263.54526707
0.10500000 975122.81936107 20155.78962451
0.10600001 965567.95196148 30994.73271638
0.10700001 956043.99785567 17036.70484350
0.10800001 946547.52391292 17023.65801874
0.10900001 937083.84065169 17008.07250832
0.11000001 927653.31643596 16989.97129023
0.11100001 918256.52990417 18512.05251429
0.11200001 908897.31569403 16946.39124890
0.11300001 899574.87650142 21535.82355737
0.11400001 890292.52204705 21500.56541978
0.11500001 881051.48114690 16863.32614321
0.11600001 871852.96359290 19891.32630108
0.11700001 862698.46944715 21377.66907968
0.11800001 853588.28623433 19807.51711497
0.11900001 844524.59127894 16721.58769494
0.12000001 835508.13352426 16680.92067157
0.12100001 826542.47068660 16638.30071872
0.12200001 817626.46220091 18102.25072595
0.12300001 808762.48056661 15042.98284728
0.12400001 799950.43552463 14999.07137281
0.12500001 791191.72849286 20934.93412239
0.12600001 782489.29963210 22359.63279065
0.12700001 773842.09713934 19315.09965485
0.12800001 765251.48829745 19249.90209536
0.12900001 756718.89656416 19182.82493203
0.13000001 748245.14977410 14703.01788609
0.13100001 739829.93377148 19043.22339293
0.13200001 731475.26305365 18970.81184159
0.13300001 723182.78423994 17443.16957819
0.13400001 714951.00156856 20268.86185006
0.13500001 706782.80613984 18743.88090257
0.13600001 698676.69637250 17229.36814492
0.13700001 690635.68596120 17155.39124821
0.13800001 682657.56728868 15656.75204407
0.13900001 674745.70813529 19837.52475468
0.14000001 666898.99422008 22567.86302872
0.14100001 659118.27301535 14039.21987736
0.14200001 651403.50671525 19561.64822929
0.14300001 643757.18208261 18076.70252551
0.14400001 636175.22127497 16604.17405849
0.14500001 628662.92930636 15144.49068139
0.14600001 621217.83974771 13697.85401262
0.14700001 613842.77693504 17715.50337810
0.14800001 606532.99977605 14911.61450300
0.14900001 599293.24038880 20226.14781741
0.15000001 592121.82829331 13411.56004364
0.15100001 585019.55465376 14672.29112303
0.15200001 577986.63033051 19897.19068802
0.15300001 571023.80743758 14509.71563169
0.15400001 564127.65173830 15739.16222625
0.15500001 557302.26187864 16953.13560642
0.15600001 550543.70134808 12965.30477864
0.15700001 543857.87933471 18045.20528800
0.15800001 537237.14993695 14094.41729383
0.15900001 530687.84690040 16557.46160481
0.16000001 524205.06809089 16457.41888954
0.16100001 517794.05415938 18873.59416502
0.16200001 511450.03743653 13755.44940620
0.16300001 505174.04209824 13670.01022451
0.16400001 498966.60747951 16054.25135357
0.16500001 492826.43254593 18407.06812461
0.16600001 486755.01101422 18289.82040238
0.16700001 480749.04899023 14537.85192787
0.16800001 474809.97307687 18054.65007872
0.16900001 468939.61797506 13153.75690530
0.17000001 463134.01467745 15443.20444864
0.17100001 457394.35142635 12980.85230645
0.17200001 451720.79407162 17583.23273957
0.17300001 446112.46280640 17465.30374366
0.17400001 440568.97738197 13877.92344293
0.17500001 435089.47342296 11486.36264084
0.17600001 429672.66781153 12548.59085609
0.17700001 424321.20985590 12462.31452207
0.17800001 419030.80092407 11250.97753622
0.17900001 413803.85860804 12289.97518116
0.18000001 408638.74256803 13313.45086173
0.18100001 403536.61120609 13219.86000757
0.18200001 398492.63281538 12032.48561625
0.18300001 393510.30713578 10860.88499001
0.18400001 388587.26491200 15096.61595501
0.18500001 383725.05048474 12847.11529715
0.18600001 378919.81385894 17005.92204941
0.18700001 374172.73458719 12662.00593664
0.18800001 369483.04429382 12569.81376075
0.18900001 364852.11464069 14557.60006197
0.19000001 360273.63417109 11354.02411737
0.19100001 355755.43955648 11270.33285767
0.19200001 351288.89825734 14237.73971912
0.19300001 346879.63539172 13122.45722694
0.19400001 342521.88585566 10018.76563470
0.19500001 338218.70416928 11932.35644696
0.19600001 333967.66622485 16776.86650562
0.19700001 329768.56054964 11752.95205341
0.19800001 325621.28051852 9719.79568282
0.19900001 321524.98899886 15433.20020132
0.20000001 317477.54886621 12443.53311591
0.20100001 313481.07480529 11398.17241862
0.20200001 309531.94230014 9425.24808851
0.20300001 305632.58495622 11222.82905004
0.20400001 301780.21587669 11135.69049219
0.20500001 297974.52919626 10128.15472611
0.20600001 294215.57396878 13703.09100531
0.20700001 290502.53074722 10876.41526529
0.20800001 286833.44285685 9891.45174449
0.20900001 283211.16112854 10705.38239672
0.21000001 279630.83871688 9735.34811014
0.21100001 276094.58696506 14925.67407692
0.21200001 272600.39418791 13064.37450907
0.21300001 269147.60254165 8639.63845003
0.21400001 265737.37071004 10284.03673267
0.21500001 262368.87229768 11050.97742364
0.21600001 259039.41122312 10118.07988074
0.21700001 255750.04558868 12544.54032923
0.21800001 252499.85212372 10783.00669477
0.21900001 249287.30055846 10694.42569961
0.22000001 246112.49711535 10606.21856467
0.22100001 242976.71878871 11327.57516554
0.22200001 239877.97755765 8023.91872871
0.22300001 236813.84582378 8752.64015552
0.22400001 233785.25654423 9468.30333776
0.22500001 230794.38675817 10953.50211350
0.22600001 227836.09877542 8533.60148317
0.22700001 224914.03460544 9999.67845143
0.22800001 222024.30146501 7626.53511598
0.22900001 219167.16672790 12098.02817551
0.23000001 216343.92439274 13493.37120250
0.23100001 213553.48313957 8174.82772119
0.23200001 210793.14147070 11787.55302852
0.23300001 208064.95422281 8033.38826248
0.23400001 205368.22168819 11582.76825102
0.23500001 202699.93658858 12916.04057030
0.23600001 200063.39367508 8534.70477784
0.23700001 197455.62867073 13393.41592622
0.23800001 194877.16202191 9780.88522450
0.23900001 192327.00763040 9693.28164306
0.24000001 189805.09345992 8233.74534375
0.24100001 187312.12925156 6799.43061345
0.24200001 184845.86620822 10106.44821299
0.24300001 182407.15066849 7343.71223329
0.24400001 179994.66525381 9260.72596537
0.24500001 177608.46188544 7209.12780895
0.24600001 175248.87217591 8440.86232765
0.24700001 172914.81956322 10935.13370647
0.24800001 170606.01611070 7646.56200382
0.24900001 168321.31590445 10099.27943204
0.25000001 166062.48470081 6252.25284477
0.25100001 163826.59288011 8050.43915499
0.25200001 161616.76435024 7973.36344644
0.25300001 159430.09923773 6074.28706833
0.25400001 157266.61366878 7820.08273466
0.25500001 155126.01561672 8935.25892227
0.25600001 153008.88527682 8257.88992909
0.25700001 150913.60243951 7592.46369796
0.25800001 148841.64930063 6360.74818382
0.25900001 146791.56968923 6869.84578650
0.26000001 144763.30570476 7367.72879245
0.26100001 142756.20029143 6732.38272429
0.26200001 140771.39501645 6664.11815540
0.26300001 138806.85964121 6596.10228226
0.26400001 136863.85318318 6528.40610575
0.26500001 134941.96427744 6999.44001828
0.26600001 133039.53603554 7992.35050553
0.26700001 131158.67594147 8436.12643575
0.26800001 129298.09757560 5738.89633246
0.26900001 127456.30658894 6710.57485946
0.27000001 125635.30630785 5107.07544309
0.27100001 123833.35436335 6568.12142625
0.27200001 122052.39298900 6997.26402119
0.27300001 120289.64325593 7415.85685768
0.27400001 118544.27847022 5378.94689014
0.27500001 116820.68431607 4836.37655957
0.27600001 115113.74634758 5261.27402581
0.27700001 113427.09665253 5202.90116969
0.27800001 111757.89175910 6080.18838891
0.27900001 110108.42917951 6474.37594217
0.28000001 108475.61660060 5486.69694733
0.28100001 106861.72676943 5424.30150754
0.28200001 105266.46953157 5809.13039604
0.28300001 103688.60631572 5300.56180574
0.28400001 102128.41916888 5239.18815134
0.28500001 100586.07941835 5178.17161355
0.28600001 99061.24967889  4691.04570058
0.28700001 97553.83303986  4214.32578680
0.28800001 96063.09718677  4997.20255219
0.28900001 94591.24115669  4114.71918508
0.29000001 93135.06083019  4878.41471720
0.29100001 91696.94136924  4417.95884429
0.29200001 90275.31777140  5157.88052502
0.29300001 88870.73879778  5094.95969645
0.29400001 87482.24591766  4258.19852161
0.29500001 86111.60510860  4588.02653737
0.29600001 84756.72791997  4153.50364833
0.29700001 83418.37641058  4101.68176227
0.29800001 82096.34212463  5154.82956603
0.29900001 80791.39209519  3635.61281639
0.30000001 79501.82251710  5025.31043920
0.30100001 78229.44038619  4606.93196244
0.30200001 76971.55341315  5597.37162919
0.30300001 75730.94871268  5179.99713717
0.30400001 74506.17409487  4772.12067670
0.30500001 73296.98034363  4710.06417987
0.30600001 72102.67794658  4648.45986729
0.30700001 70925.18421092  3604.41803224
0.30800001 69762.89933028  4203.56369816
0.30900001 68616.07276924  3828.77704179
0.31000001 67485.03179081  3777.81225851
0.31100001 66368.31603543  4348.45227252
0.31200001 65267.72948366  4596.48006651
0.31300001 64181.73374577  3929.84774332
0.31400001 63112.09617273  4771.27469656
0.31500001 62056.23327183  2941.46559635
0.31600002 61015.83041752  3191.43316109
0.31700002 59990.14096379  3433.83583135
0.31800002 58979.33117216  3951.02558230
0.31900002 57983.24469245  3618.15464012
0.32000002 57002.19582011  3842.51820217
0.32100002 56034.75932252  2706.47900343
0.32200002 55083.15812902  2935.65705149
0.32300002 54143.98350250  2894.53749510
0.32400002 53220.10866126  2853.92846210
0.32500002 52310.11153454  2813.76103268
0.32600002 51414.77415324  2774.08427080
0.32700002 50532.72860989  2734.83140187
0.32800002 49665.34011413  3921.57544111
0.32900002 48811.07370180  3865.83722024
0.33000002 47971.71237362  3334.51388499
0.33100002 47143.31889321  3052.05860967
0.33200002 46331.46985432  2777.10843458
0.33300002 45531.70830336  2737.36643283
0.33400002 44745.87079257  3372.72017071
0.33500002 43972.00220678  2659.42681941
0.33600002 43212.61941075  2839.71741906
0.33700002 42465.10335498  2368.27892626
0.33800002 41731.61864302  2758.66878104
0.33900002 41009.87617364  2509.80454069
0.34000002 40301.47029529  3916.69857614
0.34100002 39605.55145658  3250.82381751
0.34200002 38922.75154845  2603.34836061
0.34300002 38251.06142295  1973.75486290
0.34400002 37593.20109736  2139.99307382
0.34500002 36946.50886113  2684.53346099
0.34600002 36313.02284902  2079.10222169
0.34700002 35689.69712391  2794.50341715
0.34800002 35079.98768619  2203.72493082
0.34900002 34481.10625749  2715.38724638
0.35000002 33893.99440929  1784.51889017
0.35100002 33319.08121193  1759.24757131
0.35200002 32754.16444253  1907.76639831
0.35300002 32201.08269505  2051.85308651
0.35400002 31659.57306016  2360.22128342
0.35500002 31129.18561758  2327.21802700
0.35600002 30608.64720866  2950.36764419
0.35700002 30099.40720352  2586.14118942
0.35800002 29601.57769292  1753.44953769
0.35900002 29113.87269668  1572.14920009
0.36000002 28636.96802611  1860.83027048
0.36100002 28169.47685798  1835.52319901
0.36200002 27713.54058084  1509.00235610
0.36300002 27266.42821351  1935.37116627
0.36400002 26829.52829153  2056.48344096
0.36500002 26402.21139675  1739.37776921
0.36600002 25985.12484620  1859.62554771
0.36700002 25576.89168232  1835.39783406
0.36800002 25179.69840852  1533.06601022
0.36900002 24790.67342559  2614.17663656
0.37000002 24410.67328059  1901.83564538
0.37100002 24039.57732691  2012.11271758
0.37200002 23678.41818249  1324.80756007
0.37300002 23325.26462866  1570.25688919
0.37400002 22981.01497944  1421.95036921
0.37500002 22645.69684576  1660.38257139
0.37600002 22318.89325348  1262.13347327
0.37700002 21999.92348443  1247.39572066
0.37800002 21689.22215176  1602.94203906
0.37900002 21387.16107762  1340.97506309
0.38000002 21092.88293062  1326.00414825
0.38100002 20805.50536834  1311.37106549
0.38200002 20526.95058457  1650.98271373
0.38300002 20255.16587970  1750.04641491
0.38400002 19991.84818958  1500.88807394
0.38500002 19734.46203275  1828.20064932
0.38600002 19485.75897730  1357.37803466
0.38700002 19243.24628391  1791.93117885
0.38800002 19007.86011375  1109.10869018
0.38900002 18778.93780398  1318.28149629
0.39000002 18557.88587831  1306.10406999
0.39100002 18342.17403333  1294.22386111
0.39200002 18133.72105643  1817.27094177
0.39300002 17931.19057458  1483.62677843
0.39400002 17736.29941254  1155.96336898
0.39500002 17546.32696415  1146.47705815
0.39600002 17362.48633902  1033.93611047
0.39700002 17184.59617639  1333.69657244
0.39800002 17012.60533866  1730.94761219
0.39900002 16846.15672823  1111.84639674
0.40000002 16685.14736322  1304.69515988
0.40100002 16529.96889691  1096.43288888
0.40200002 16380.34188529  1089.21088527
0.40300002 16235.28437325  1082.24410760
0.40400002 16095.86259514  1271.17080868
0.40500002 15961.44139944  1360.87255820
0.40600002 15832.01224097  1256.50771104
0.40700002 15707.21309985  1057.40963598
0.40800002 15587.46251945  1434.43630632
0.40900002 15471.97015818  1332.13669374
0.41000002 15361.41924345  1136.43784948
0.41100002 15255.02365362  1131.31260776
0.41200002 15152.66141533  938.70741916
0.41300002 15055.17894255  1215.40465362
0.41400002 14961.45559794  1117.62078612
0.41500002 14871.94513573  1113.61130453
0.41600002 14785.75064357  1479.75799452
0.41700002 14703.84025561  1014.12391048
0.41800002 14626.59374110  1195.06589824
0.41900002 14551.01589730  1375.07106745
0.42000002 14480.42307407  1188.77038860
0.42100002 14413.28323852  1186.06913390
0.42200002 14349.73476369  1183.63792807
0.42300002 14288.75734891  908.76501045
0.42400002 14231.05509240  907.22980513
0.42500002 14176.89167024  1177.67444685
0.42600002 14124.92936694  904.70176882
0.42700002 14077.16625515  1355.63117461
0.42800002 14031.30703936  993.20611585
0.42900002 13989.46049268  1263.24834235
0.43000002 13949.77817011  1172.40916186
0.43100002 13911.77996265  991.63172273
0.43200002 13877.55850569  1171.75170795
0.43300002 13845.56171580  991.48072145
0.43400002 13816.02124887  1171.94405797
0.43500002 13788.62548766  901.77614963
0.43600002 13763.89992432  1353.33552419
0.43700002 13740.84670731  1173.60577289
0.43800002 13719.94592839  1084.15017864
0.43900002 13701.83575729  1266.04968397
0.44000002 13685.15075588  1267.38187156
0.44100002 13670.85615724  1178.29114803
0.44200002 13658.27459094  1179.87010645
0.44300002 13647.48871971  999.81507099
0.44400002 13638.94912885  1001.43988724
0.44500002 13630.85057035  1003.09434101
0.44600002 13624.72534551  1278.95302879
0.44700002 13621.39940793  1373.03712539
0.44800002 13617.88533676  1192.31400717
0.44900002 13617.51861092  1194.93731474
0.45000002 13618.05170831  1105.51349007
0.45100002 13619.54586216  1754.46998111
0.45200002 13622.62818669  1110.78915499
0.45300002 13626.63168814  1484.75785911
0.45400002 13632.23891679  930.40035017
0.45500002 13638.99094145  1119.48842953
0.45600002 13646.71414190  1029.03052864
0.45700002 13655.55916114  1125.76435060
0.45800002 13664.99146539  1034.91817768
0.45900002 13675.63041915  1132.34225237
0.46000002 13687.87205533  1230.47131673
0.46100002 13699.77151759  1329.15189563
0.46200002 13713.61372311  1047.65157003
0.46300002 13727.96187501  1146.55943014
0.46400002 13742.48275440  1341.95350457
0.46500002 13758.21606845  1442.54902315
0.46600002 13774.47872674  1157.88273665
0.46700002 13790.97602362  1161.75187529
0.46800002 13809.10133895  1651.49955291
0.46900002 13826.66659762  1364.69205787
0.47000002 13845.10743099  1075.97257500
0.47100002 13864.14661112  1177.89795191
0.47200002 13883.75952807  1083.55806373
0.47300002 13903.86547324  1383.99083480
0.47400002 13923.62135850  1091.26387570
0.47500002 13944.13628544  1095.17251577
0.47600002 13965.60114123  1199.08657082
0.47700002 13986.25437048  1504.22172884
