# SAXS profile: number of points = 501, q_min = 0, q_max = 0.5, delta_q = 0.001
#    q    intensity    error
0.00000000 1664650.74656090 274.66737318
0.00100000 1664563.66071764 599.24293209
0.00200000 1664302.35811466 898.72330184
0.00300000 1663867.08415366 1098.15231466
0.00400000 1663257.68218636 1247.44330904
0.00500000 1662474.83170902 1645.85014854
0.00600000 1661518.34457014 2093.51319939
0.00700000 1660389.03696222 2590.20700531
0.00800000 1659086.63597274 2239.76705313
0.00900000 1657612.55685120 3480.98651819
0.01000000 1655966.25695606 4644.98555133
0.01100000 1654149.30105903 3275.21575870
0.01200000 1652161.51333631 3543.88660148
0.01300000 1650004.32816737 4504.51201457
0.01400000 1647677.94330859 5931.64085887
0.01500000 1645183.84236428 3948.44139749
0.01600000 1642521.74314766 5026.11675872
0.01700000 1639693.92495704 4427.17379598
0.01800000 1636700.80607924 7463.35601155
0.01900000 1633543.37311296 5880.75640856
0.02000000 1630222.46194621 6162.24118491
0.02100000 1626740.73148633 6978.71805448
0.02200000 1623096.93396293 7279.59007955
0.02300000 1619294.22673119 8161.24327421
0.02400000 1615333.14057989 9086.24933007
0.02500000 1611215.96655582 8797.23957917
0.02600000 1606943.47983059 7158.93353008
0.02700000 1602517.14086368 8749.74398986
0.02800000 1597937.88680155 9731.44217690
0.02900000 1593208.85019243 10037.21621706
0.03000000 1588330.61181909 10340.03275822
0.03100000 1583305.08040440 10639.81062989
0.03200000 1578133.30782150 10155.28830356
0.03300000 1572819.43140361 8823.51741694
0.03400000 1567362.20168183 11520.11271390
0.03500000 1561765.47828298 9276.88736939
0.03600000 1556029.76591403 12953.94839988
0.03700000 1550158.63093494 14137.44736795
0.03800000 1544153.31172626 9936.62702082
0.03900000 1538016.25354540 10150.90774349
0.04000000 1531747.88663940 10362.27493329
0.04100000 1525352.11165977 13453.60624864
0.04200000 1518830.57392846 10776.10342196
0.04300000 1512185.02151234 9980.42160525
0.04400000 1505418.04205094 11177.72948134
0.04500000 1498532.82543129 15509.81546388
0.04600000 1491529.27318740 11566.81005127
0.04700000 1484411.70985478 19237.97665444
0.04800000 1477181.52480245 16285.92706870
0.04900000 1469841.70620246 14330.95730254
0.05000000 1462394.05052223 14543.50950968
0.05100000 1454842.56977729 12482.54983018
0.05200000 1447185.95441623 14956.66753589
0.05300000 1439430.40673558 11659.38683809
0.05400000 1431576.33629477 14172.60639024
0.05500000 1423627.81807734 13154.32165267
0.05600000 1415585.26320502 12103.25456519
0.05700000 1407454.18301375 17142.79274931
0.05800000 1399233.65828518 12383.21845403
0.05900000 1390927.76099765 15022.02052039
0.06000000 1382540.13181833 16445.31563628
0.06100000 1374072.07794628 15334.64510649
0.06200000 1365526.69526941 12904.22787349
0.06300000 1356907.30249934 23447.35928348
0.06400000 1348212.98506785 15774.09266300
0.06500000 1339450.80086428 17238.73261351
0.06600000 1330621.40925488 13372.74578870
0.06700000 1321726.41857327 14829.77111041
0.06800000 1312769.58241466 21739.46530239
0.06900000 1303755.28716882 15058.37427182
0.07000000 1294682.51830539 13788.36946564
0.07100000 1285556.14765236 16660.80845393
0.07200000 1276377.57058029 15373.96855786
0.07300000 1267150.63331327 19691.52176435
0.07400000 1257878.30600890 19811.58424809
0.07500000 1248560.99587688 15656.95562218
0.07600000 1239202.19389908 17175.34321263
0.07700000 1229805.80770162 17266.47434973
0.07800000 1220372.95321711 15907.56219119
0.07900000 1210905.25530758 17437.03649429
0.08000000 1201408.44583377 16056.82463181
0.08100000 1191883.00199244 20524.22625727
0.08200000 1182330.85979403 16192.02188469
0.08300000 1172754.53259039 19209.72014538
0.08400000 1163158.10424804 17796.31983033
0.08500000 1153542.99598043 19344.91695074
0.08600000 1143911.52936704 19406.46000687
0.08700000 1134266.25100168 14972.31521629
0.08800000 1124608.71620767 18016.23247976
0.08900000 1114942.69406871 15051.72707690
0.09000000 1105270.13212078 15086.93801217
0.09100000 1095592.62799104 18143.01477191
0.09200000 1085912.69098491 16663.33102612
0.09300000 1076234.17545271 18209.88310438
0.09400000 1066555.76004606 19757.94638343
0.09500000 1056882.10978227 19784.83402506
0.09600000 1047214.81858371 18284.37159198
0.09700000 1037558.12807310 15252.10519972
0.09800000 1027911.60339567 18317.38563375
0.09900000 1018278.55361593 15274.17902247
0.10000000 1008659.27581996 16809.30762203
0.10100000 999056.73212176 21399.79620852
0.10200000 989473.60716011 22931.05192453
0.10300000 979911.08762589 15286.61368606
0.10400000 970371.54875803 19868.35839553
0.10500000 960858.33960495 18333.17798223
0.10600001 951368.08766348 19850.29608313
0.10700001 941909.06440302 18310.71307365
0.10800001 932477.65851700 16770.61147768
0.10900001 923079.54079843 18276.97576803
0.11000001 913714.87894883 18256.02414070
0.11100001 904384.15519133 16713.01997467
0.11200001 895091.35098695 15171.79911347
0.11300001 885835.56433172 19692.12552222
0.11400001 876620.17885619 21170.37831617
0.11500001 867446.15802958 18112.27663253
0.11600001 858315.22333930 18076.11945476
0.11700001 849228.44621962 19540.74746778
0.11800001 840186.25730895 17996.79047918
0.11900001 831190.63327821 20946.00494520
0.12000001 822242.51110412 16416.07250747
0.12100001 813345.38126585 26791.59812100
0.12200001 804498.25532198 19295.89156295
0.12300001 795703.21183813 20720.11261248
0.12400001 786960.33883811 19182.15916299
0.12500001 778271.08340276 23534.91867108
0.12600001 769638.38155610 20526.25660337
0.12700001 761060.87897054 21918.55434729
0.12800001 752540.25792428 26210.97841881
0.12900001 744077.69732338 17411.41893800
0.13000001 735674.18253562 18792.79787867
0.13100001 727329.39484640 14401.12269679
0.13200001 719045.31177973 15779.45011085
0.13300001 710823.42871829 17145.06190895
0.13400001 702662.39135550 19920.47973409
0.13500001 694565.23005816 14169.13136124
0.13600001 686530.09592483 14108.19413647
0.13700001 678560.28241872 15450.81835923
0.13800001 670653.56904343 18178.06584612
0.13900001 662812.95205676 13919.07264959
0.14000001 655037.58465109 20781.06835310
0.14100001 647328.49622121 16545.71714376
0.14200001 639685.20926731 15093.37322455
0.14300001 632110.61686207 19115.02595552
0.14400001 624600.19135233 21736.08768435
0.14500001 617159.82725681 18922.12119629
0.14600001 609786.64205717 18824.11452832
0.14700001 602483.49145399 21400.21462603
0.14800001 595245.51459176 14634.11166666
0.14900001 588077.63066236 22493.97043412
0.15000001 580978.31010975 14475.07527936
0.15100001 573948.02054432 18320.42168022
0.15200001 566987.15640277 20819.76936553
0.15300001 560096.33875108 12938.22603569
0.15400001 553272.16062754 18009.00967829
0.15500001 546518.82777495 21740.51999489
0.15600001 539832.21611947 13984.35421857
0.15700001 533218.33650115 17692.18524012
0.15800001 526669.53668416 15073.28285134
0.15900001 520192.22835613 19975.38251173
0.16000001 513781.43000878 14889.38654447
0.16100001 507442.21487716 16030.10032466
0.16200001 501169.97783993 13478.96719029
0.16300001 494965.77220621 17046.62199952
0.16400001 488829.89573084 15728.10263766
0.16500001 482761.54373517 14424.91560783
0.16600001 476761.64205367 16720.03157623
0.16700001 470827.09686162 15424.29642144
0.16800001 464959.40369836 14144.06572834
0.16900001 459160.41990472 18733.74601668
0.17000001 453425.87524847 13956.44909917
0.17100001 447757.44358354 18483.42814394
0.17200001 442154.88378442 14916.09570885
0.17300001 436617.59555744 19372.72362975
0.17400001 431144.71990117 19239.83403421
0.17500001 425736.01893218 12363.37457368
0.17600001 420389.79064860 13393.61936263
0.17700001 415108.79627339 17733.44861436
0.17800001 409888.67725605 11005.51150414
0.17900001 404731.89785689 14206.09028578
0.18000001 399636.92984002 10850.14315766
0.18100001 394604.73202627 15081.79357045
0.18200001 389630.45327191 18182.10596082
0.18300001 384717.64697263 12741.84906965
0.18400001 379864.04437753 11595.35050240
0.18500001 375071.01456659 10464.48180077
0.18600001 370334.82837454 11426.68166933
0.18700001 365656.72929556 13404.97632929
0.18800001 361035.87647558 11258.90433983
0.18900001 356473.31110306 12191.38781574
0.19000001 351963.38045015 17142.37725478
0.19100001 347513.32586342 13010.89953509
0.19200001 343114.71273321 10926.48854328
0.19300001 338773.41496545 10844.13752546
0.19400001 334483.15040679 11740.35913406
0.19500001 330247.42664203 16505.76716355
0.19600001 326063.45545800 11562.21067693
0.19700001 321931.36824395 11473.63450643
0.19800001 317850.78073019 10436.63087850
0.19900001 313820.93837271 9414.62859612
0.20000001 309839.74791606 12144.16949352
0.20100001 305909.39831727 16684.29937276
0.20200001 302026.06574558 11036.03296394
0.20300001 298192.35746979 12774.56119779
0.20400001 294405.19519092 12674.14425202
0.20500001 290664.71669628 15268.61828976
0.20600001 286970.53361906 10692.52258806
0.20700001 283322.11549645 14143.44067413
0.20800001 279717.57526967 9646.06103915
0.20900001 276159.12345551 10438.81536007
0.21000001 272642.71400577 11217.88499806
0.21100001 269170.08574478 14551.33552325
0.21200001 265739.19157499 9339.40432942
0.21300001 262349.42760706 9263.55872674
0.21400001 259002.05635294 8352.81671227
0.21500001 255695.95938513 12426.82421363
0.21600001 252428.81920595 8216.55845362
0.21700001 249201.36347850 9778.66196523
0.21800001 246012.89012469 8081.52382269
0.21900001 242861.57039945 12021.64830317
0.22000001 239747.95330205 8742.40953052
0.22100001 236672.97686205 9457.45260259
0.22200001 233634.79619064 11722.62645316
0.22300001 230630.79099623 9299.03393268
0.22400001 227662.26242858 10757.04240841
0.22500001 224730.94958264 7618.37955110
0.22600001 221832.00675660 12085.40829960
0.22700001 218968.84037027 7488.73469480
0.22800001 216137.98367274 10394.07612636
0.22900001 213339.19597034 8096.22286995
0.23000001 210574.09838356 7296.39285405
0.23100001 207841.41876822 9402.74622976
0.23200001 205138.54783916 7169.59258605
0.23300001 202467.51588490 7817.27115803
0.23400001 199827.67612989 7043.92591672
0.23500001 197216.00884662 7679.59174770
0.23600001 194635.56509189 6919.29466628
0.23700001 192083.80641795 9600.34909885
0.23800001 189560.92638080 7475.33548540
0.23900001 187065.97091249 7407.81279852
0.24000001 184599.03703758 8675.23215592
0.24100001 182160.70713530 7273.67737997
0.24200001 179748.66448888 8517.39086970
0.24300001 177364.10555361 9088.13719846
0.24400001 175005.15128986 7717.72753696
0.24500001 172672.22051812 6371.60523852
0.24600001 170365.76350032 6312.05183628
0.24700001 168084.32862542 6252.73732066
0.24800001 165827.72389417 6813.03235849
0.24900001 163594.97469800 11042.66131452
0.25000001 161387.80748816 8506.75173514
0.25100001 159203.18153477 9026.82082007
0.25200001 157044.37128128 10131.71809254
0.25300001 154908.31630888 5902.00713059
0.25400001 152795.17756917 6428.85740038
0.25500001 150704.60119385 5787.05695964
0.25600001 148637.07035729 9167.93493340
0.25700001 146590.90955410 9076.90954905
0.25800001 144568.02527058 6178.11485225
0.25900001 142566.58326877 5560.09701056
0.26000001 140586.51009042 5503.96213046
0.26100001 138627.32475053 5992.85953252
0.26200001 136690.10228648 8088.63718553
0.26300001 134772.97231837 5870.71095198
0.26400001 132876.78778429 6338.22307722
0.26500001 131001.37840782 6795.04181955
0.26600001 129145.15241074 6206.71631856
0.26700001 127310.26030087 6653.23451816
0.26800001 125495.22018687 5063.73237416
0.26900001 123698.63248488 5009.79485271
0.27000001 121922.46795746 6938.60797981
0.27100001 120165.07847189 4902.73543366
0.27200001 118428.25357659 5334.60093481
0.27300001 116709.16869738 5276.42176651
0.27400001 115007.37662581 5692.86541239
0.27500001 113326.95080276 6568.43037938
0.27600001 111662.81714928 5567.50832655
0.27700001 110018.55683058 5046.55144065
0.27800001 108391.48679988 4989.80233099
0.27900001 106783.90154033 5381.90889235
0.28000001 105192.49906400 5320.63685447
0.28100001 103619.67576359 6574.66873837
0.28200001 102065.25098688 5632.47114229
0.28300001 100527.80691294 5567.23021034
0.28400001 99007.69233013  6772.12647591
0.28500001 97505.06810310  4182.96761961
0.28600001 96019.64614826  4547.01055857
0.28700001 94551.36904118  4901.54320310
0.28800001 93099.46162491  4439.44803772
0.28900001 91665.93803872  3987.46849343
0.29000001 90247.84103358  5515.04582661
0.29100001 88847.37875212  3891.51537355
0.29200001 87463.27542480  7303.62116007
0.29300001 86095.75998465  4176.50551455
0.29400001 84744.02056081  3749.92308732
0.29500001 83409.71632997  4073.73073839
0.29600001 82090.99413884  4022.86935821
0.29700001 80788.44185812  5055.74093081
0.29800001 79501.88059697  3922.22546492
0.29900001 78231.91584002  4928.61093124
0.30000001 76977.26435764  3475.52365028
0.30100001 75739.31808574  4117.18952605
0.30200001 74515.49456603  3725.40232719
0.30300001 73308.70203766  5014.31545676
0.30400001 72117.54731208  4949.06691859
0.30500001 70941.54389744  4233.08212476
0.30600001 69780.06870946  3856.04677944
0.30700001 68635.12783856  3488.03736189
0.30800001 67504.99726194  3754.62812547
0.30900001 66390.16947475  3395.85732941
0.31000001 65290.60360782  3654.96816301
0.31100001 64205.27596101  3305.28776296
0.31200001 63135.63809212  2964.21834877
0.31300001 62080.25300471  4678.36808794
0.31400001 61041.05772283  4614.70418234
0.31500001 60015.20071205  3129.19271328
0.31600002 59004.59681543  3366.80245370
0.31700002 58008.35203383  3597.09807993
0.31800002 57026.66824324  3820.21668650
0.31900002 56059.27390183  3498.09885711
0.32000002 55106.82155856  3184.07230042
0.32100002 54167.65230317  3924.44659519
0.32200002 53243.93761318  2579.66889951
0.32300002 52332.52798300  3052.03317649
0.32400002 51435.92632171  3009.00183230
0.32500002 50552.94910823  2966.44719414
0.32600002 49684.36686759  2680.72014128
0.32700002 48828.85689244  3123.09383473
0.32800002 47987.61297152  2368.18881229
0.32900002 47159.22634048  2334.38181439
0.33000002 46345.52568642  3221.47764301
0.33100002 45542.32036359  2721.60919381
0.33200002 44755.63480293  3353.31609640
0.33300002 43980.63445237  2423.77287945
0.33400002 43219.27093951  2388.94531431
0.33500002 42469.54297328  2568.55808066
0.33600002 41734.12916163  2953.52446064
0.33700002 41010.31674744  2079.22315756
0.33800002 40300.05727057  2254.18381018
0.33900002 39601.54380068  2221.64671243
0.34000002 38915.86932033  2985.82021501
0.34100002 38242.55395192  2746.58035490
0.34200002 37582.02983224  2513.67418437
0.34300002 36932.39807665  2096.28301411
0.34400002 36296.23361445  1878.33017851
0.34500002 35671.11285788  2036.46392950
0.34600002 35058.91848242  2372.26183146
0.34700002 34456.52574624  2697.94609371
0.34800002 33867.57681991  2304.85804964
0.34900002 33289.23116706  2621.52707857
0.35000002 32722.23772973  2756.52143691
0.35100002 32167.36463268  2038.12431966
0.35200002 31622.09590440  2511.58508616
0.35300002 31088.52302492  2146.04084605
0.35400002 30566.30727917  2115.95272162
0.35500002 30054.78401716  1925.91065104
0.35600002 29552.97316393  1582.56178789
0.35700002 29062.27750297  2028.83768858
0.35800002 28582.82515035  2000.94076943
0.35900002 28113.05152997  1973.53631088
0.36000002 27653.82346330  2096.43645605
0.36100002 27203.94944191  1624.89197713
0.36200002 26765.35269868  1603.11087582
0.36300002 26335.33443074  1869.28212644
0.36400002 25915.26335967  1560.74680976
0.36500002 25504.58039071  1820.26198871
0.36600002 25103.89581396  1796.56038903
0.36700002 24711.82263580  2046.13901117
0.36800002 24330.65241156  1616.04200973
0.36900002 23957.26961862  1861.47993754
0.37000002 23592.81026391  1444.23394872
0.37100002 23237.03449785  1685.61456232
0.37200002 22890.96023592  1280.74928587
0.37300002 22552.75787722  1391.73075453
0.37400002 22223.10781609  1625.06483603
0.37500002 21902.26903881  1729.40324523
0.37600002 21589.70723182  1465.07760215
0.37700002 21284.81838426  1568.90403743
0.37800002 20987.92624598  1789.74549541
0.37900002 20699.43062747  1415.84112199
0.38000002 20418.59390577  1983.76858489
0.38100002 20144.44274852  1385.13194901
0.38200002 19879.01075141  1598.86891048
0.38300002 19620.01674723  1243.12432000
0.38400002 19369.38647775  1118.58212208
0.38500002 19124.42643397  1328.76521158
0.38600002 18887.91597224  1315.73228896
0.38700002 18657.60341827  1194.45982743
0.38800002 18434.02331712  1505.87543612
0.38900002 18216.85188915  1278.82306320
0.39000002 18007.32610297  1267.35567117
0.39100002 17802.89747263  1570.21563148
0.39200002 17605.59960991  1452.99020464
0.39300002 17414.13125923  1132.09272680
0.39400002 17230.04097925  1225.05597166
0.39500002 17050.65284475  1012.80882696
0.39600002 16877.27941914  1105.54624073
0.39700002 16709.66609591  1695.86409242
0.39800002 16547.78190565  1188.46175277
0.39900002 16391.34564298  1376.87309925
0.40000002 16240.05990407  1172.20757941
0.40100002 16094.51997783  1164.59952077
0.40200002 15954.34534559  964.44022184
0.40300002 15818.55959023  1150.32570790
0.40400002 15688.32201180  953.06560737
0.40500002 15562.90467250  1137.33712735
0.40600002 15442.32642779  1319.85570232
0.40700002 15326.13404591  1031.75539286
0.40800002 15214.97126591  1306.81394395
0.40900002 15107.81176719  1300.78265479
0.41000002 15005.41755153  1202.60924665
0.41100002 14907.15040899  921.26193893
0.41200002 14812.72581960  1376.47261201
0.41300002 14722.95163434  1005.72487380
0.41400002 14636.88850652  1002.26098797
0.41500002 14554.87629165  1089.86918836
0.41600002 14476.08656635  1177.12303492
0.41700002 14401.32320862  993.25930876
0.41800002 14331.25112007  990.79109313
0.41900002 14262.61913280  988.39955274
0.42000002 14198.82156683  1075.98674932
0.42100002 14138.35493887  1342.43686506
0.42200002 14081.38026191  893.46361996
0.42300002 14026.89146349  1070.53240722
0.42400002 13975.40768663  1247.30519514
0.42500002 13927.49031195  1156.95667504
0.42600002 13881.55247065  978.02482566
0.42700002 13839.79618419  1332.77243569
0.42800002 13799.62162986  1420.80911034
0.42900002 13763.52372074  976.52205426
0.43000002 13729.46479449  1065.13192923
0.43100002 13696.89967709  1065.07096936
0.43200002 13668.05238460  1065.28805334
0.43300002 13641.25439850  1243.26398480
0.43400002 13616.83149424  1243.89761594
0.43500002 13594.46022341  1066.89328889
0.43600002 13574.58289330  1601.66511148
0.43700002 13556.34855068  1246.91299878
0.43800002 13540.18725408  1248.26992211
0.43900002 13526.67109407  982.03636797
0.44000002 13514.47564007  983.38086655
0.44100002 13504.56893490  984.88825910
0.44200002 13496.27285237  896.82737354
0.44300002 13489.72017246  988.25694667
0.44400002 13485.26664220  1350.21238654
0.44500002 13481.20408994  1172.46037527
0.44600002 13479.01188941  1265.27490602
0.44700002 13479.50602952  996.40513292
0.44800002 13479.67099616  1180.21265000
0.44900002 13482.92408509  1092.11690265
0.45000002 13487.02891084  1368.59632359
0.45100002 13491.98040038  914.75631450
0.45200002 13498.35675098  1100.65606164
0.45300002 13505.73436772  1195.66272024
0.45400002 13514.54164352  922.36751088
0.45500002 13524.42179616  1017.57754417
0.45600002 13535.13071278  1020.61657977
0.45700002 13546.91080439  1116.80737964
0.45800002 13559.24040445  1213.61986992
0.45900002 13572.76952813  1123.82537019
0.46000002 13587.71665556  1221.46784664
0.46100002 13602.29859889  1036.90327134
0.46200002 13618.73449625  945.82115559
0.46300002 13635.60744839  949.03832339
0.46400002 13652.53837252  952.26459662
0.46500002 13670.64057938  1337.80895050
0.46600002 13689.25892759  1150.71915999
0.46700002 13708.05558251  1347.22776650
0.46800002 13728.30984651  965.78664348
0.46900002 13747.99729970  1260.00401224
0.47000002 13768.46346489  1361.83878586
0.47100002 13789.60264792  976.30391375
0.47200002 13811.05711251  1273.86291315
0.47300002 13833.02771689  983.52831729
0.47400002 13854.59617299  1381.99603376
0.47500002 13876.88598990  1288.05261863
0.47600002 13899.98321361  1193.45261529
0.47700002 13922.30117390  1297.69775393
