# SAXS profile: number of points = 501, q_min = 0, q_max = 0.5, delta_q = 0.001
#    q    intensity    error
0.00000000 1682732.95097188 403.85590823
0.00100000 1682645.17206304 504.79356361
0.00200000 1682381.80320924 832.77901896
0.00300000 1681943.06259256 1210.99904821
0.00400000 1681328.83759339 1387.09634372
0.00500000 1680539.76215245 1663.73443038
0.00600000 1679575.70850763 2116.26547888
0.00700000 1678437.42202244 2014.12499013
0.00800000 1677124.67827356 2716.94209351
0.00900000 1675638.92810128 2513.45849960
0.01000000 1673979.53661684 3038.27299015
0.01100000 1672148.11689595 4213.81343804
0.01200000 1670144.56565258 3908.13845497
0.01300000 1667970.24952555 4553.55898204
0.01400000 1665625.35540934 4497.18865897
0.01500000 1663111.40934624 5987.20134025
0.01600000 1660428.13086243 4657.50111528
0.01700000 1657577.79798136 7608.28243403
0.01800000 1654560.80144810 5658.59819558
0.01900000 1651378.20326022 5944.96179999
0.02000000 1648030.80769789 6748.68646280
0.02100000 1644521.33743922 7597.68892344
0.02200000 1640848.40986619 5660.92727123
0.02300000 1637015.33724352 7661.23212703
0.02400000 1633022.59024030 7960.98549042
0.02500000 1628872.55336162 8893.64454753
0.02600000 1624565.71336944 9211.28801611
0.02700000 1620104.04916753 9526.21224542
0.02800000 1615488.02865168 7730.11057160
0.02900000 1610721.03945248 9422.71851343
0.03000000 1605803.73709182 10453.78280898
0.03100000 1600737.79078345 9220.25009917
0.03200000 1595524.41145573 9477.41544056
0.03300000 1590167.80723832 9731.82742894
0.03400000 1584666.53791887 11647.29959111
0.03500000 1579024.69280775 12790.10060237
0.03600000 1573242.79285819 9604.64769427
0.03700000 1567324.30571922 10720.49874692
0.03800000 1561270.32497051 10960.11818852
0.03900000 1555083.54785006 13062.70240687
0.04000000 1548764.38129362 9524.90138633
0.04100000 1542316.67082782 18461.53140581
0.04200000 1535742.15142550 10896.09106986
0.04300000 1529042.50082558 13119.18526605
0.04400000 1522220.77647942 11302.48979027
0.04500000 1515279.06599586 10455.42604118
0.04600000 1508218.37936601 12759.52808259
0.04700000 1501042.51837803 11888.25729845
0.04800000 1493753.35283062 20860.26654287
0.04900000 1486353.54845547 23410.06947785
0.05000000 1478844.68935298 13575.79488043
0.05100000 1471230.91475028 13770.72200356
0.05200000 1463511.54581407 16288.88426399
0.05300000 1455691.80158244 14149.32497099
0.05400000 1447773.17715192 13138.54219535
0.05500000 1439758.97735786 16931.56636357
0.05600000 1431649.88191451 14688.72847388
0.05700000 1423451.41445465 13622.43067221
0.05800000 1415162.50537305 12524.18875734
0.05900000 1406787.69282188 13927.19880942
0.06000000 1398330.17108669 14074.19382952
0.06100000 1389791.57901508 15510.07474662
0.06200000 1381174.91685544 13052.10357439
0.06300000 1372483.35996290 17128.59313319
0.06400000 1363716.37972075 13296.23532410
0.06500000 1354880.24536317 13413.31505654
0.06600000 1345976.67487276 21643.30594461
0.06700000 1337006.76808862 19092.45754181
0.06800000 1327974.70839873 13744.53887530
0.06900000 1318884.02989902 16617.93955476
0.07000000 1309734.34802380 13948.67145965
0.07100000 1300530.26827676 22473.16408842
0.07200000 1291273.73786937 19795.22732888
0.07300000 1281968.28139492 15652.83344925
0.07400000 1272616.70972473 15748.63252089
0.07500000 1263219.76910167 17280.84725131
0.07600000 1253780.96512085 15929.28790864
0.07700000 1244303.98371346 18925.86447969
0.07800000 1234789.90448567 20485.16547609
0.07900000 1225240.71390307 27935.48958727
0.08000000 1215661.90234912 16247.32208708
0.08100000 1206054.22547320 14834.46766933
0.08200000 1196418.86219463 22343.12329994
0.08300000 1186759.75073218 25420.39505371
0.08400000 1177079.45619577 16508.54014803
0.08500000 1167380.40064858 19576.97023792
0.08600000 1157664.70481636 21150.53515004
0.08700000 1147934.96012927 16668.01640377
0.08800000 1138192.71831269 19753.33555401
0.08900000 1128441.70422715 18280.75646712
0.09000000 1118683.79008913 15270.03445203
0.09100000 1108920.84650615 19894.04092097
0.09200000 1099154.90370620 16866.53278987
0.09300000 1089390.56550720 23040.61154321
0.09400000 1079626.05771359 21538.54086364
0.09500000 1069866.06231196 16946.67922356
0.09600000 1060112.08672010 26221.87369765
0.09700000 1050369.22183687 23160.64243035
0.09800000 1040635.79351180 20089.47493831
0.09900000 1030916.24054150 18556.49320232
0.10000000 1021209.81880781 18565.59537901
0.10100000 1011520.70861887 17023.89432672
0.10200000 1001850.79514653 17026.45506438
0.10300000 992201.00703060 17026.17008157
0.10400000 982574.57971981 17023.10539450
0.10500000 972974.59928278 21658.41559905
0.10600001 963397.56961844 17008.78489194
0.10700001 953851.30919057 21633.34871046
0.10800001 944333.53627808 21615.79566268
0.10900001 934848.75489152 18510.00621804
0.11000001 925397.31168557 24652.58554369
0.11100001 915980.48957204 16927.32024412
0.11200001 906601.05419831 16903.57745130
0.11300001 897259.09463494 23014.69686094
0.11400001 887957.67653503 18380.72476972
0.11500001 878697.97768619 18347.21463802
0.11600001 869481.02294272 16785.33193836
0.11700001 860308.67008435 16750.21059539
0.11800001 851181.09380785 19751.65821208
0.11900001 842100.44737838 24252.49402683
0.12000001 833067.70219506 18144.21540849
0.12100001 824085.99249695 19605.00668506
0.12200001 815154.41839489 16543.55970071
0.12300001 806275.48877027 16496.39727746
0.12400001 797449.15380999 14952.17233845
0.12500001 788676.18984186 14905.98069039
0.12600001 779960.39026921 22287.36920220
0.12700001 771300.10676575 16289.85902257
0.12800001 762696.82395453 16234.00266297
0.12900001 754152.33772161 16176.56840656
0.13000001 745667.17472529 26374.24921318
0.13100001 737241.11636793 14597.37479217
0.13200001 728876.01040707 15995.18480240
0.13300001 720573.57690787 17380.23549437
0.13400001 712332.40929870 17309.67836203
0.13500001 704155.46992410 15801.24949010
0.13600001 696041.30577187 17164.37940965
0.13700001 687992.14887435 21362.15722984
0.13800001 680006.94965779 14178.14556895
0.13900001 672088.66523101 16936.63516252
0.14000001 664235.83307415 14048.58853206
0.14100001 656449.66347658 13982.37849150
0.14200001 648729.98581273 16698.31062240
0.14300001 641079.14305391 22155.69622897
0.14400001 633493.50547072 20667.72659088
0.14500001 625977.97435530 21934.26925610
0.14600001 618529.98232494 17730.16277975
0.14700001 611152.71514618 13567.59091632
0.14800001 603841.46025043 17544.61445531
0.14900001 596600.89171401 16108.22483628
0.15000001 589428.84220062 14685.62029634
0.15100001 582326.71453569 14604.75468968
0.15200001 575294.29088989 15843.60551872
0.15300001 568332.54289050 17067.02706838
0.15400001 561438.11264444 18274.81142898
0.15500001 554615.28809074 14275.79818917
0.15600001 547859.58032077 14192.30309801
0.15700001 541177.09306570 16673.66702430
0.15800001 534560.45882693 15299.12105373
0.15900001 528015.74475578 19008.56770842
0.16000001 521537.93694800 13854.65594900
0.16100001 515132.18235455 13769.48388432
0.16200001 508794.50446704 18660.03933220
0.16300001 502525.30187067 17306.97221345
0.16400001 496325.13174360 15969.26186775
0.16500001 490192.65489437 14646.95721975
0.16600001 484129.39487652 14552.93029708
0.16700001 478132.45314615 15663.61990462
0.16800001 472202.49719283 13167.36725594
0.16900001 466341.96354930 11891.72063201
0.17000001 460546.83363765 11813.02684061
0.17100001 454817.85744009 12907.73140367
0.17200001 449155.75413426 11655.59237019
0.17300001 443559.03778852 15049.95886289
0.17400001 438027.87125285 12648.05537974
0.17500001 432561.29521810 11419.61873308
0.17600001 427157.61216459 11341.03513860
0.17700001 421819.71038817 13515.10415916
0.17800001 416543.91991054 13421.04573342
0.17900001 411331.46428166 11105.95006018
0.18000001 406181.50250752 12130.61114538
0.18100001 401094.86821139 13139.86850329
0.18200001 396066.93704448 16308.05690316
0.18300001 391100.90370961 14032.70108800
0.18400001 386194.83122125 12860.28848720
0.18500001 381349.90333097 11703.62908613
0.18600001 376562.36143783 10562.57473734
0.18700001 371833.15457860 12582.83454541
0.18800001 367161.95119279 17695.37107377
0.18900001 362550.03024724 11365.94398526
0.19000001 357990.81240946 20512.87452027
0.19100001 353492.20285063 13234.74870007
0.19200001 349045.89890715 12125.85510100
0.19300001 344656.73950874 12035.41391235
0.19400001 340319.98827132 12940.66816551
0.19500001 336037.50188538 9879.50302229
0.19600001 331807.89736899 10785.41621366
0.19700001 327630.60588894 10703.69240022
0.19800001 323505.19538405 15450.60886172
0.19900001 319431.39553904 10541.23655097
0.20000001 315406.42121962 10460.45445412
0.20100001 311432.89859562 12267.34245546
0.20200001 307506.94829680 11236.30442183
0.20300001 303631.31740875 13936.67812777
0.20400001 299802.68602563 9218.93303103
0.20500001 296020.95407896 10976.45749607
0.20600001 292285.99367277 11798.12469227
0.20700001 288597.55197313 9004.24404718
0.20800001 284953.05727656 9826.60664469
0.20900001 281355.81255831 11521.52106890
0.21000001 277800.63016676 12309.34650458
0.21100001 274289.67250930 8722.41199813
0.21200001 270820.99927283 11248.55073657
0.21300001 267393.94034243 10300.01506893
0.21400001 264009.66325857 16177.19288097
0.21500001 260667.21948091 10979.30380361
0.21600001 257363.92388963 9214.91573054
0.21700001 254100.75442968 10801.82358151
0.21800001 250877.06342565 11537.83669246
0.21900001 247691.22344104 8173.81076002
0.22000001 244543.21830774 9727.92968424
0.22100001 241434.36020862 8843.74103260
0.22200001 238362.31584998 10365.18579485
0.22300001 235325.50535925 9488.32482474
0.22400001 232323.96851523 9409.12116979
0.22500001 229360.28645942 9330.37689438
0.22600001 226429.10665674 10022.88488012
0.22700001 223534.41111063 10702.82811010
0.22800001 220672.15721827 7580.08895891
0.22900001 217842.41314258 9770.23269149
0.23000001 215046.51743135 8196.49839952
0.23100001 212283.74341702 8126.22208231
0.23200001 209550.89293208 8056.18445978
0.23300001 206849.94176947 9438.56328933
0.23400001 204180.68058457 9356.58013031
0.23500001 201540.02000887 8561.42045490
0.23600001 198930.83535502 7779.19068449
0.23700001 196350.38928859 7710.68015206
0.23800001 193799.40803567 8337.25092804
0.23900001 191276.49425565 8263.14494269
0.24000001 188781.86270273 7506.91112545
0.24100001 186316.09977163 9468.58463827
0.24200001 183877.25968190 8042.79171893
0.24300001 181465.20587001 7305.78953391
0.24400001 179079.71707452 7897.41589656
0.24500001 176720.50630164 8477.28308830
0.24600001 174387.30140224 10337.67971615
0.24700001 172079.95889217 10242.19963778
0.24800001 169797.77760309 8878.72621089
0.24900001 167539.57546570 7539.28125262
0.25000001 165307.04814929 6846.19172298
0.25100001 163097.42272923 6781.59115791
0.25200001 160913.31005509 9770.65664879
0.25300001 158752.70862690 7258.17418181
0.25400001 156614.75251066 5990.51456695
0.25500001 154499.60109403 5932.78496270
0.25600001 152407.84237702 7050.38712193
0.25700001 150337.78843614 7563.49449408
0.25800001 148290.72873257 5761.09508384
0.25900001 146265.47248246 7986.09517540
0.26000001 144261.92778860 6212.64021417
0.26100001 142278.95905094 5591.56335527
0.26200001 140318.44518699 8303.34438683
0.26300001 138377.88112780 6027.74078714
0.26400001 136458.47882033 6509.06974773
0.26500001 134560.10075065 6442.73792880
0.26600001 132681.03346291 6908.03833413
0.26700001 130823.18397433 10518.18448926
0.26800001 128985.58928126 6765.93940592
0.26900001 127166.10692997 5150.22757438
0.27000001 125367.52381081 5096.19008407
0.27100001 123587.62188388 6050.85025378
0.27200001 121828.39489964 5487.76030795
0.27300001 120087.23926342 4935.58576730
0.27400001 118363.17397409 5858.97738899
0.27500001 116660.69608906 6278.67896065
0.27600001 114974.51002174 6210.34845273
0.27700001 113308.20613926 4724.95241962
0.27800001 111659.11377635 4672.93413270
0.27900001 110029.57148883 5545.49066549
0.28000001 108416.36698459 4569.75008468
0.28100001 106821.79727589 5874.13091022
0.28200001 105245.65843246 5361.21409429
0.28300001 103686.52271706 5300.45529217
0.28400001 102144.59130327 6986.69037583
0.28500001 100620.56453570 4748.28466518
0.28600001 99113.43220305  5973.56684162
0.28700001 97623.57754712  5904.27424951
0.28800001 96149.83283445  5418.52408586
0.28900001 94695.08954237  4531.16024908
0.29000001 93255.50220467  4884.72343670
0.29100001 91833.44364954  5631.22703114
0.29200001 90427.93055494  3974.30773602
0.29300001 89038.96214624  5497.26578313
0.29400001 87665.82178468  4655.05535712
0.29500001 86310.16457446  4215.38863736
0.29600001 84970.09755570  3785.41802530
0.29700001 83645.99576060  3738.97618749
0.29800001 82337.98554019  4062.14470892
0.29900001 81046.74898423  4011.81426463
0.30000001 79770.44483165  3961.79933011
0.30100001 78511.27437251  4979.18525642
0.30200001 77266.04181548  4565.26429679
0.30300001 76038.04367391  3814.06845125
0.30400001 74825.40248981  3423.26232597
0.30500001 73627.83309248  3717.46946883
0.30600001 72445.02479502  4003.31225970
0.30700001 71278.72660318  3622.38505747
0.30800001 70127.16285767  4875.59122851
0.30900001 68990.89676545  3849.69222177
0.31000001 67870.14036923  4115.98485756
0.31100001 66763.34569432  5936.59698021
0.31200001 65672.29384995  4008.30864491
0.31300001 64595.51615720  3346.69385056
0.31400001 63534.54940428  3302.20836164
0.31500001 62487.43475932  3258.09500261
0.31600002 61455.40717649  3506.64569952
0.31700002 60437.71718240  4612.60679376
0.31800002 59434.54049124  3412.73147660
0.31900002 58445.92876080  3366.48565602
0.32000002 57471.86122711  4704.35942349
0.32100002 56511.23970049  3275.39160813
0.32200002 55566.02215758  4307.47824162
0.32300002 54633.24559457  3717.24620627
0.32400002 53715.07517881  3666.05405455
0.32500002 52810.68155902  3615.41943073
0.32600002 51920.65694113  3310.72084662
0.32700002 51043.49228515  3013.60792722
0.32800002 50180.96551689  4209.93230139
0.32900002 49331.15720864  4395.40631543
0.33000002 48495.78636446  3370.94226982
0.33100002 47671.33556438  2374.03262353
0.33200002 46863.22411616  2340.81815545
0.33300002 46066.75712723  2538.73910550
0.33400002 45283.80359845  2503.06236244
0.33500002 44513.00400009  2243.45550785
0.33600002 43755.99912774  2875.42561885
0.33700002 43010.75883053  2834.83924877
0.33800002 42279.34633654  2794.87632194
0.33900002 41559.45527292  2755.39201508
0.34000002 40852.61507738  2298.57249619
0.34100002 40157.93721127  2884.14318710
0.34200002 39476.10332853  2234.15017369
0.34300002 38805.33141418  2402.82623496
0.34400002 38148.03758618  1974.16103858
0.34500002 37501.69913383  2140.97210495
0.34600002 36868.31723317  2302.79520345
0.34700002 36244.99632497  2081.18778755
0.34800002 35634.79104621  2052.02953958
0.34900002 35035.39357610  2391.16572482
0.35000002 34447.62238539  2720.50110673
0.35100002 33871.76547604  2324.95809239
0.35200002 33305.75643608  1763.53988682
0.35300002 32751.33555368  2608.64400040
0.35400002 32208.16229676  2572.62708530
0.35500002 31676.03873544  2368.10076802
0.35600002 31153.54069163  1835.09940136
0.35700002 30642.32286005  1974.59137863
0.35800002 30142.08607126  1785.46655300
0.35900002 29652.02725024  1761.33050209
0.36000002 29172.53288872  1895.63127690
0.36100002 28702.34399865  1870.24482354
0.36200002 28243.26396237  1537.84579559
0.36300002 27793.18952826  2428.01315220
0.36400002 27353.02766187  1946.85183605
0.36500002 26922.36836913  2069.25333087
0.36600002 26501.71192954  1604.81124191
0.36700002 26089.81505655  1872.20521714
0.36800002 25688.78090854  2417.18595409
0.36900002 25295.90975817  1544.31536389
0.37000002 24911.79549363  1524.97563338
0.37100002 24536.44481858  1642.96042288
0.37200002 24170.91761160  2028.54435665
0.37300002 23813.37292014  1870.30239775
0.37400002 23464.60452838  1715.84928742
0.37500002 23124.56175355  2086.76055149
0.37600002 22793.20464060  1546.74694018
0.37700002 22469.37040991  1401.41469885
0.37800002 22153.61269051  1385.37623523
0.37900002 21846.54401061  1743.35429463
0.38000002 21547.22321809  1477.70863830
0.38100002 21254.61322923  1339.67833530
0.38200002 20970.80047128  1325.24979856
0.38300002 20693.72720982  1191.95874375
0.38400002 20424.85537972  1297.48899946
0.38500002 20162.16728059  1167.38954085
0.38600002 19907.81273559  1502.34315926
0.38700002 19659.66583786  1487.45038776
0.38800002 19418.75490672  1359.70128298
0.38900002 19184.01295540  1346.71777327
0.39000002 18957.23188691  1556.57838398
0.39100002 18735.87115725  1872.83776961
0.39200002 18521.56922870  1310.21586931
0.39300002 18313.24199697  1190.54391863
0.39400002 18112.40578799  1502.42413129
0.39500002 17916.49749092  1064.24000138
0.39600002 17726.77317852  1055.62939279
0.39700002 17542.82114737  1047.30647212
0.39800002 17365.05716159  1039.29872036
0.39900002 17192.56562759  1237.86478383
0.40000002 17025.52132030  1228.90218712
0.40100002 16864.40226298  1423.69290649
0.40200002 16708.66385561  1111.04265572
0.40300002 16557.61438186  1003.39147908
0.40400002 16412.11048010  1096.73933480
0.40500002 16271.91540580  1090.05566468
0.40600002 16136.30753599  1379.17027045
0.40700002 16005.72344542  1175.46038553
0.40800002 15879.82855909  1363.91853956
0.40900002 15758.46378249  969.14556854
0.41000002 15642.07813650  1446.50124421
0.41100002 15529.76243004  1247.66117275
0.41200002 15421.55938364  1241.97534381
0.41300002 15318.30413826  1046.39340527
0.41400002 15218.67957709  1231.57170313
0.41500002 15123.35746796  1321.17657100
0.41600002 15031.44892545  940.21717484
0.41700002 14943.88299936  1405.47226269
0.41800002 14860.96950902  1027.41317569
0.41900002 14779.82179720  1489.80610775
0.42000002 14703.51156310  1021.37947913
0.42100002 14631.06793792  1111.37597323
0.42200002 14561.97141197  1108.74855585
0.42300002 14495.57010751  1567.26111429
0.42400002 14432.52399272  1012.08079295
0.42500002 14373.15671212  918.44475743
0.42600002 14315.85487027  1375.39582184
0.42700002 14263.01671925  1007.25428844
0.42800002 14212.14797285  1097.46211847
0.42900002 14165.24304206  1187.75568536
0.43000002 14120.60327172  1186.76615821
0.43100002 14077.73069021  1094.68439035
0.43200002 14038.60838020  1002.98842325
0.43300002 14001.89597372  1276.13285952
0.43400002 13967.62521552  1002.52634735
0.43500002 13935.67627168  911.39327136
0.43600002 13906.43866396  1185.03722691
0.43700002 13878.96028904  1367.77160130
0.43800002 13853.60440532  1185.93786132
0.43900002 13831.19047742  1095.43033772
0.44000002 13810.36196052  1004.91103568
0.44100002 13791.91274425  1280.16540159
0.44200002 13775.23003825  1281.50971119
0.44300002 13760.59950985  1008.10156787
0.44400002 13748.03093525  1101.21733010
0.44500002 13736.11811167  918.94634522
0.44600002 13726.44097051  1104.42949283
0.44700002 13719.35943612  1290.71739692
0.44800002 13712.41467444  1200.59052372
0.44900002 13708.75023482  1202.94289011
0.45000002 13705.75545145  1112.63328028
0.45100002 13704.01682481  1207.87210018
0.45200002 13703.96566745  931.18451123
0.45300002 13704.91612709  1213.29628223
0.45400002 13707.55881261  1590.41958661
0.45500002 13711.43018336  1500.57899038
0.45600002 13716.37836932  1034.28355996
0.45700002 13722.50327007  1225.55682513
0.45800002 13729.37967882  1039.79461926
0.45900002 13737.41820039  1042.67009083
0.46000002 13747.24753786  1140.74665476
0.46100002 13756.93855258  1430.03383032
0.46200002 13768.38490159  1147.45725208
0.46300002 13780.73649915  1055.05323638
0.46400002 13793.14167178  1827.93618669
0.46500002 13806.96855605  1544.17143650
0.46600002 13821.26724513  968.17981641
0.46700002 13835.98800301  1068.41504423
0.46800002 13852.40611523  1364.32354295
0.46900002 13868.42909398  1564.35887595
0.47000002 13885.38328957  981.00237590
0.47100002 13902.98375146  984.33129626
0.47200002 13921.25232217  1185.25547889
0.47300002 13940.15887049  1189.37441120
0.47400002 13958.80286083  1292.93417627
0.47500002 13978.31197596  1297.46697911
0.47600002 13998.60554590  1101.76030171
0.47700002 14018.52393138  1507.69232028
