# SAXS profile: number of points = 501, q_min = 0, q_max = 0.5, delta_q = 0.001
#    q    intensity    error
0.00000000 1682732.95097188 328.13292544
0.00100000 1682645.19111565 807.66971092
0.00200000 1682381.87260216 832.77905331
0.00300000 1681943.22523533 1210.99916531
0.00400000 1681329.12377844 1513.19626890
0.00500000 1680540.21463744 1966.23212895
0.00600000 1679576.35293149 1939.91076661
0.00700000 1678438.31074709 2014.12605660
0.00800000 1677125.82599397 2264.11996068
0.00900000 1675640.36274706 2764.80671672
0.01000000 1673981.32065763 3866.89701769
0.01100000 1672150.29073377 3310.85771981
0.01200000 1670147.11549998 3582.46571982
0.01300000 1667973.25815500 3502.74399661
0.01400000 1665628.81893074 3747.66500873
0.01500000 1663115.41138453 4390.62488156
0.01600000 1660432.66446451 5080.92418040
0.01700000 1657582.91261241 5370.56887778
0.01800000 1654566.55172143 4715.51488459
0.01900000 1651384.61628681 6440.40029413
0.02000000 1648037.89326723 7786.97939794
0.02100000 1644529.15630556 5969.64110804
0.02200000 1640856.95048560 6227.05241000
0.02300000 1637024.69768506 7661.27593390
0.02400000 1633032.78384878 8573.42250613
0.02500000 1628883.54618166 8258.43995631
0.02600000 1624577.62529887 6579.53968340
0.02700000 1620116.85047428 9526.28751710
0.02800000 1615501.82924548 7730.17660744
0.02900000 1610735.83750440 7973.14276173
0.03000000 1605819.49285626 11947.29757601
0.03100000 1600754.63714687 8451.98487304
0.03200000 1595542.31764758 11057.10877057
0.03300000 1590186.85911352 12975.92536856
0.03400000 1584686.71902888 14143.32961991
0.03500000 1579046.07390554 9379.53411213
0.03600000 1573265.33669181 10477.94762659
0.03700000 1567348.01981491 11614.04936395
0.03800000 1561295.35301080 10960.29388537
0.03900000 1555109.90643940 13995.98980611
0.04000000 1548792.02070935 9525.07136874
0.04100000 1542345.65812190 12631.81152571
0.04200000 1535772.58634710 10896.30700564
0.04300000 1529074.32139570 11101.08008862
0.04400000 1522253.96359647 11302.73620462
0.04500000 1515313.76988294 13592.36514742
0.04600000 1508254.61547278 14886.47374674
0.04700000 1501080.31431836 15130.89027204
0.04800000 1493792.64230688 14273.18936135
0.04900000 1486394.36855060 11147.95828304
0.05000000 1478887.15014260 15838.88211558
0.05100000 1471275.09213212 13771.13550387
0.05200000 1463557.27530561 15125.86514517
0.05300000 1455739.31213035 18866.38236472
0.05400000 1447822.32879805 19111.25563137
0.05500000 1439809.81609096 13303.84332130
0.05600000 1431702.45311556 17137.47916350
0.05700000 1423505.77505006 14861.40098523
0.05800000 1415218.69410815 17534.56043873
0.05900000 1406845.71613100 13927.77324021
0.06000000 1398390.03555821 12795.26942314
0.06100000 1389853.27401444 15510.76326284
0.06200000 1381238.45959578 13052.70405331
0.06300000 1372548.84147871 18447.05729197
0.06400000 1363783.69622301 22604.71582204
0.06500000 1354949.61412603 16096.80216879
0.06600000 1346048.01177515 14880.56146641
0.06700000 1337080.14578635 17729.68356286
0.06800000 1328049.92132683 20617.97599371
0.06900000 1318961.33919351 19388.73259390
0.07000000 1309813.63130767 16739.41899199
0.07100000 1300611.75480123 16855.92913172
0.07200000 1291357.27992106 15554.39916532
0.07300000 1282053.86141088 14230.79852845
0.07400000 1272704.44405457 15749.71823327
0.07500000 1263309.58915227 20162.42198793
0.07600000 1253872.85105990 21723.34816302
0.07700000 1244398.00477083 23295.13174158
0.07800000 1234886.11857948 19023.42154884
0.07900000 1225339.16883759 17644.88485887
0.08000000 1215762.51353366 23634.42437181
0.08100000 1206156.93271552 23737.16954955
0.08200000 1196523.91321377 17876.06810225
0.08300000 1186866.87914808 14954.52337911
0.08400000 1177188.91996875 21012.82320776
0.08500000 1167492.12086653 22590.97359930
0.08600000 1157778.81437402 18130.81708437
0.08700000 1148051.21848735 16669.70447521
0.08800000 1138311.28920884 22794.68463693
0.08900000 1128562.52110813 18282.71370069
0.09000000 1118806.94145836 16798.88701513
0.09100000 1109046.24984809 24487.74234711
0.09200000 1099282.73463541 24535.99178993
0.09300000 1089520.55453298 21507.13675715
0.09400000 1079758.32919853 16925.21260563
0.09500000 1070000.84768558 23112.01939634
0.09600000 1060249.19369228 15426.62649339
0.09700000 1050508.44454048 24707.95977718
0.09800000 1040777.53808354 20092.21131739
0.09900000 1031060.20674044 23198.85574253
0.10000000 1021356.26451563 18568.25776211
0.10100000 1011669.47660839 41792.06804425
0.10200000 1002001.74830725 18577.11328742
0.10300000 992354.52663812 23221.09701567
0.10400000 982730.40930923 17025.80514226
0.10500000 973132.66270391 21661.93409097
0.10600001 963557.98883034 20104.63838294
0.10700001 954014.26668237 20091.54140179
0.10800001 944498.70872069 21619.57646007
0.10900001 935016.21585809 16970.54511655
0.11000001 925567.13872985 16951.76294375
0.11100001 916152.61551972 16930.50113178
0.11200001 906775.58515228 23054.77033785
0.11300001 897435.93890922 16880.77080564
0.11400001 888136.86416639 22980.54244233
0.11500001 878879.48834905 18351.00458084
0.11600001 869664.93568415 16788.88237400
0.11700001 860494.95121504 18276.91362456
0.11800001 851369.69793187 15196.94982383
0.11900001 842291.26840956 27290.23838188
0.12000001 833260.85226319 16636.05369907
0.12100001 824281.39498364 21118.09033431
0.12200001 815352.20089578 18051.89857828
0.12300001 806475.45622965 15000.44419261
0.12400001 797651.28779463 23929.53976134
0.12500001 788880.80221365 16400.83265084
0.12600001 780167.16608987 20807.05930012
0.12700001 771509.19181512 16294.27489903
0.12800001 762908.13842002 17714.72780899
0.12900001 754365.89130065 20594.18980315
0.13000001 745882.89063575 20519.23928856
0.13100001 737459.00403387 16061.85786498
0.13200001 729096.09229508 16000.01449966
0.13300001 720795.80518177 15936.79600388
0.13400001 712556.75740329 14429.27501769
0.13500001 704382.07477921 14369.39500299
0.13600001 696269.98363465 17170.01860601
0.13700001 688223.11391798 17095.46295583
0.13800001 680240.01177739 15601.30540581
0.13900001 672323.71573478 18354.43830512
0.14000001 664472.88622088 16864.32264762
0.14100001 656688.77898004 15386.21881716
0.14200001 648971.21993536 16704.51998901
0.14300001 641322.51970087 18008.33720261
0.14400001 633738.73924212 15162.20005157
0.14500001 626225.12626969 19200.06327714
0.14600001 618779.20040206 21830.53122003
0.14700001 611403.95813287 16287.80221306
0.14800001 604094.54374065 14851.66505855
0.14900001 596855.79319306 16115.10717654
0.15000001 589685.71786431 14692.02035380
0.15100001 582585.48868433 14611.24474563
0.15200001 575554.92090804 13208.98605813
0.15300001 568595.15562526 15761.45845770
0.15400001 561702.50584397 14365.54226488
0.15500001 554881.44373867 14282.64903587
0.15600001 548127.47426890 15490.08315389
0.15700001 541446.74933259 14115.51742131
0.15800001 534831.80571023 12755.73916824
0.15900001 528288.85773113 16482.61313920
0.16000001 521812.79226674 15122.13543369
0.16100001 515408.86278919 12524.43595698
0.16200001 509072.72935911 18670.24323059
0.16300001 502805.08501975 14842.80681048
0.16400001 496606.49603896 18436.51703583
0.16500001 490475.69422096 15876.69897149
0.16600001 484413.98403900 16988.39922232
0.16700001 478418.47816455 14467.37546277
0.16800001 472490.16531102 13175.38888179
0.16900001 466631.10021349 11899.09361730
0.17000001 460837.26535459 13002.52405595
0.17100001 455109.90311367 15264.38687124
0.17200001 449449.14608692 18661.12942676
0.17300001 443853.91536128 13901.50528561
0.17400001 438324.04724293 17259.01017527
0.17500001 432858.77796457 14855.71396134
0.17600001 427456.42097812 12483.86536427
0.17700001 422119.92121773 13524.72291460
0.17800001 416845.23416986 11192.29506610
0.17900001 411634.07661267 17782.59294960
0.18000001 406485.29572443 12139.68393023
0.18100001 401399.84547919 12054.03792913
0.18200001 396373.14037815 13056.53186082
0.18300001 391408.25926069 14043.72900569
0.18400001 386503.19815673 16088.19638329
0.18500001 381659.32923277 17037.27326183
0.18600001 376872.92647797 13742.67191327
0.18700001 372144.76759765 14692.27611889
0.18800001 367474.58727097 11459.69554547
0.18900001 362863.65173825 10341.61456316
0.19000001 358305.30859986 15398.17136462
0.19100001 353807.60698832 12227.59147527
0.19200001 349362.03938848 12136.83782184
0.19300001 344973.95162918 12046.49096012
0.19400001 340637.82565020 10960.02255820
0.19500001 336356.40066666 12855.54224097
0.19600001 332127.41100623 11777.23855083
0.19700001 327950.90592212 12662.18507604
0.19800001 323826.21459718 9666.21296254
0.19900001 319753.11590950 14388.89089595
0.20000001 315728.82676571 15230.75932300
0.20100001 311755.98631283 9446.20683173
0.20200001 307830.56957615 12185.47367260
0.20300001 303955.38698373 11161.24233757
0.20400001 300127.30730873 13843.37270393
0.20500001 296346.20384156 10072.80794468
0.20600001 292611.82106044 13628.39621008
0.20700001 288923.79402348 10817.30735956
0.20800001 285279.78160214 8943.52157599
0.20900001 281682.89755503 11534.91520015
0.21000001 278128.08761559 13204.13158374
0.21100001 274617.51147877 12225.97218900
0.21200001 271149.12577554 10395.85797369
0.21300001 267722.40889571 8593.88973183
0.21400001 264338.43177767 10229.89779343
0.21500001 260996.13300668 10993.15764197
0.21600001 257693.15344046 10904.28630337
0.21700001 254430.22029301 8319.86859694
0.21800001 251206.68580584 14028.63803211
0.21900001 248020.90504854 9821.62830430
0.22000001 244873.01848812 11364.55732538
0.22100001 241764.13529213 9660.89530307
0.22200001 238692.37195339 8782.68624131
0.22300001 235655.45505891 8709.82603083
0.22400001 232653.94808528 10992.89956684
0.22500001 229690.22119712 9343.79864014
0.22600001 226759.03604367 8493.26009665
0.22700001 223864.23776607 8421.77302302
0.22800001 221001.86001253 10627.97995060
0.22900001 218171.99011745 10537.70762101
0.23000001 215375.97367363 7462.77784072
0.23100001 212612.91142853 7398.92966763
0.23200001 209879.83147011 8068.83050247
0.23300001 207178.73158050 8726.36858688
0.23400001 204509.17774786 7929.84374222
0.23500001 201868.24236689 11433.81778844
0.23600001 199258.66332751 7792.01039796
0.23700001 196677.97054834 8425.68465681
0.23800001 194126.55596664 10439.15604086
0.23900001 191603.30745199 7587.49133398
0.24000001 189108.19460621 8887.14002588
0.24100001 186641.94743456 8130.12361481
0.24200001 184202.52027112 8728.43683592
0.24300001 181790.22423965 7984.22702628
0.24400001 179404.10895007 9230.34184211
0.24500001 177044.38872939 9146.11355441
0.24600001 174710.72258721 9062.24560929
0.24700001 172402.76612072 7696.05984370
0.24800001 170119.88346943 6989.37574299
0.24900001 167861.06411097 8183.22726254
0.25000001 165627.77559562 7483.06325542
0.25100001 163417.47426237 7412.61698322
0.25200001 161232.81020729 6730.66398053
0.25300001 159071.38301623 6666.68197761
0.25400001 156932.82476612 7203.21699756
0.25500001 154816.83895275 5944.96689705
0.25600001 152724.28064473 7065.02555689
0.25700001 150653.41504951 7579.37366975
0.25800001 148605.50251392 6350.65645041
0.25900001 146579.38363555 7431.57510195
0.26000001 144574.89074182 7358.13941246
0.26100001 142591.15305290 6164.21583814
0.26200001 140629.66374556 6657.40859672
0.26300001 138688.15802832 6590.46158135
0.26400001 136767.85111697 5980.17457306
0.26500001 134868.47821174 6457.50304234
0.26600001 132988.36904104 7989.27664819
0.26700001 131129.50006715 7379.96861300
0.26800001 129290.82113319 7303.63883143
0.26900001 127470.37070055 6195.06030921
0.27000001 125670.66331905 7151.91778793
0.27100001 123889.68015323 6065.63902735
0.27200001 122129.37614757 7001.67746588
0.27300001 120387.08452010 5937.49128952
0.27400001 118661.84245674 5384.28135628
0.27500001 116958.13368486 6294.68705282
0.27600001 115270.74212364 4789.49956190
0.27700001 113603.30574728 4737.25807386
0.27800001 111953.06991119 5622.28343703
0.27900001 110322.19792045 6950.29879793
0.28000001 108707.75101463 5040.23511434
0.28100001 107111.90225438 7249.33388768
0.28200001 105534.39798525 6719.90310976
0.28300001 103974.00279401 5758.08054726
0.28400001 102430.75519763 4378.91499196
0.28500001 100905.39189997 6493.26227610
0.28600001 99396.89798808  4706.94032701
0.28700001 97905.63933704  6767.23811129
0.28800001 96430.62507629  5434.34813340
0.28900001 94974.41173073  4131.38710584
0.29000001 93533.41664044  6124.10074441
0.29100001 92110.00813939  5648.18596646
0.29200001 90702.99115249  6378.23463976
0.29300001 89312.59845228  5120.29151164
0.29400001 87937.99661343  5447.75914808
0.29500001 86580.83478324  5766.28386952
0.29600001 85239.21408871  4556.88860089
0.29700001 83913.70248931  3750.94267883
0.29800001 82604.14176142  3704.79593338
0.29900001 81311.37304860  4756.71554852
0.30000001 80033.59594965  3613.51702819
0.30100001 78772.82125338  4282.09076605
0.30200001 77526.07303451  5285.34027934
0.30300001 76296.40739296  4174.93961019
0.30400001 75082.21829663  4122.01397963
0.30500001 73883.14628660  4069.48389012
0.30600001 72698.67094776  3682.55135120
0.30700001 71530.77351657  3635.19408221
0.30800001 70377.67222589  5545.40894558
0.30900001 69239.67477607  3219.64502952
0.31000001 68117.24912929  3495.43680456
0.31100001 67008.70434933  3136.00751202
0.31200001 65916.06718797  3404.23545110
0.31300001 64837.57769592  4275.39007569
0.31400001 63775.05645552  4218.72018427
0.31500001 62726.20996503  4459.83373967
0.31600002 61692.47757413  3520.17293705
0.31700002 60673.04370923  3762.33561855
0.31800002 59668.16082375  4853.70677202
0.31900002 58677.80619960  4788.10921260
0.32000002 57702.03675152  3056.18852125
0.32100002 56739.65871714  3836.73590412
0.32200002 55792.71961897  3243.78887224
0.32300002 54858.08898643  2666.10325098
0.32400002 53938.27410316  3418.33828315
0.32500002 53032.10992473  2852.59732793
0.32600002 52140.29944275  2557.48180877
0.32700002 51261.35339213  3530.88218885
0.32800002 50397.05054865  4974.18912469
0.32900002 49545.41893948  3433.49769509
0.33000002 48708.33267096  2902.04259796
0.33100002 47882.00887987  2622.97657065
0.33200002 47072.07805338  3291.75057415
0.33300002 46273.77963552  3245.64305733
0.33400002 45489.11163525  2514.41076471
0.33500002 44716.38444729  2704.44705944
0.33600002 43957.61157300  2444.26310727
0.33700002 43210.55300126  2848.00768319
0.33800002 42477.26031641  3023.95630513
0.33900002 41755.47573317  2555.43523589
0.34000002 41046.82821043  2729.40897111
0.34100002 40350.30092827  2276.96758922
0.34200002 39666.64921608  2449.01903858
0.34300002 38993.98957663  2213.29895319
0.34400002 38334.83167687  2578.97592320
0.34500002 37686.62130520  2347.12288605
0.34600002 37051.42091889  2121.37920518
0.34700002 36426.16104654  2471.87940569
0.34800002 35814.20829866  2437.33606120
0.34900002 35212.88372645  1848.67648320
0.35000002 34623.20329527  2552.07643577
0.35100002 34045.48472935  2157.12201462
0.35200002 33477.59089749  1949.90237418
0.35300002 32921.28913201  1922.93258928
0.35400002 32376.27433158  1724.03668981
0.35500002 31842.21754266  2210.48684651
0.35600002 31317.90786097  2851.02587716
0.35700002 30804.70534269  2315.89785736
0.35800002 30302.66642223  1958.15839695
0.35900002 29810.65763659  1609.77558862
0.36000002 29329.24799845  1905.81462521
0.36100002 28857.13401909  1723.63669660
0.36200002 28396.26258923  1546.17657122
0.36300002 27944.27956216  1983.48505727
0.36400002 27502.19073363  1656.31951539
0.36500002 27069.61079067  1931.95821364
0.36600002 26647.03707517  1466.91946047
0.36700002 26233.23889514  2461.72725453
0.36800002 25830.31204424  2001.59097512
0.36900002 25435.52092448  1694.00577381
0.37000002 25049.50645108  1951.60714005
0.37100002 24672.30614403  1514.38622286
0.37200002 24304.92341551  1359.86052951
0.37300002 23945.48185347  1343.34159561
0.37400002 23594.77162219  1858.08835327
0.37500002 23252.91327209  1442.61080774
0.37600002 22919.57174883  1555.32221255
0.37700002 22593.86216662  1537.28645464
0.37800002 22276.21694492  1772.96419064
0.37900002 21967.20467837  1502.55687118
0.38000002 21666.01666248  1857.31936638
0.38100002 21371.55263502  1469.50802880
0.38200002 21085.82749753  1453.65701654
0.38300002 20806.87868613  1558.01914983
0.38400002 20536.14984136  1778.94406428
0.38500002 20271.50101410  1291.09196075
0.38600002 20015.29787812  1394.26571624
0.38700002 19765.30163590  1610.47685359
0.38800002 19522.50142996  1366.96561489
0.38900002 19285.87404721  2143.62500190
0.39000002 19057.24731221  1564.79065094
0.39100002 18833.90887784  1218.17728393
0.39200002 18617.77314744  1317.02133485
0.39300002 18407.48404982  1631.82353833
0.39400002 18204.87683314  1294.36680416
0.39500002 18007.08326393  1497.46911517
0.39600002 17815.50684974  1379.18752812
0.39700002 17629.69330940  1683.98838470
0.39800002 17449.97625384  1044.38112827
0.39900002 17275.68260602  1554.81150821
0.40000002 17106.80249783  1440.56390659
0.40100002 16943.75774863  1430.39209691
0.40200002 16786.21419861  1116.19936602
0.40300002 16633.29361065  1108.77540462
0.40400002 16486.02247713  1201.83109553
0.40500002 16343.85628379  1791.61361072
0.40600002 16206.48831862  1088.34677460
0.40700002 16073.98382688  983.72785682
0.40800002 15946.34843379  1076.13937504
0.40900002 15823.10991344  1265.05769752
0.41000002 15704.84059402  1355.48485590
0.41100002 15590.72535924  1252.55893471
0.41200002 15480.68816669  1054.93154510
0.41300002 15375.58927748  1241.27138119
0.41400002 15274.14944413  1331.14218713
0.41500002 15177.03755939  1325.86606401
0.41600002 15083.29990974  1320.84463568
0.41700002 14993.90841158  1034.12991215
0.41800002 14909.20028261  1124.45193860
0.41900002 14826.25627875  1027.45960880
0.42000002 14748.21251728  931.34966460
0.42100002 14673.87269697  1021.74180431
0.42200002 14603.02289450  1389.84276984
0.42300002 14534.87742511  1016.86007284
0.42400002 14470.00198887  1014.70893755
0.42500002 14408.82043780  1473.15787137
0.42600002 14349.78152840  1011.01390549
0.42700002 14295.13633364  1376.62169416
0.42800002 14242.39740701  1374.74747486
0.42900002 14193.76541754  1007.04770410
0.43000002 14147.36241702  1097.55242832
0.43100002 14102.71191470  1096.62693045
0.43200002 14061.84133399  1095.97996551
0.43300002 14023.34294313  1278.08753640
0.43400002 13987.37935043  1277.74716421
0.43500002 13953.63970402  1551.36573581
0.43600002 13922.64803070  1733.99628116
0.43700002 13893.40349214  1460.47464430
0.43800002 13866.35703321  913.09965391
0.43900002 13842.18405474  913.58419091
0.44000002 13819.61265080  1188.41764622
0.44100002 13799.45512853  1006.39431022
0.44200002 13781.07129211  1190.47789999
0.44300002 13764.69192528  916.72852567
0.44400002 13750.47418829  1009.62861512
0.44500002 13736.88330229  1470.39605836
0.44600002 13725.41704792  920.28925668
0.44700002 13716.69393642  1013.93806383
0.44800002 13708.00320973  1200.20427791
0.44900002 13702.57340977  1109.90849879
0.45000002 13698.00100255  1019.33679291
0.45100002 13694.59244019  1114.19209374
0.45200002 13692.79800745  930.42566870
0.45300002 13692.07043077  1118.91604863
0.45400002 13693.03421325  1028.00459228
0.45500002 13695.24571840  1311.45679215
0.45600002 13698.48389188  1220.74044988
0.45700002 13702.97579913  1223.81282662
0.45800002 13708.17392646  1321.33094739
0.45900002 13714.61060965  946.30817692
0.46000002 13722.77029391  1518.28737728
0.46100002 13730.76889505  1807.93042610
0.46200002 13740.64359091  1240.57406540
0.46300002 13751.32916343  957.09255514
0.46400002 13762.11943204  1151.88945106
0.46500002 13774.30666653  1059.10648979
0.46600002 13787.03519966  1255.51641996
0.46700002 13800.15395425  1065.64793885
0.46800002 13814.96444981  1263.44763364
0.46900002 13829.36804009  1169.96459164
0.47000002 13844.75218133  1075.94496677
0.47100002 13860.77844853  981.34316067
0.47200002 13877.46081823  1378.44824841
0.47300002 13894.75000383  1580.66683536
0.47400002 13911.83110083  1387.70521808
0.47500002 13929.72450022  1790.24827762
0.47600002 13948.54050735  1696.63080503
0.47700002 13966.88188420  1001.42547856
