# SAXS profile: number of points = 501, q_min = 0, q_max = 0.5, delta_q = 0.001
#    q    intensity    error
0.00000000 1700912.83420644 306.16431016
0.00100000 1700824.53883072 561.27211114
0.00200000 1700559.61656654 994.82740719
0.00300000 1700118.29547143 1326.09231771
0.00400000 1699500.44923814 1274.62538536
0.00500000 1698706.73708493 1834.60334867
0.00600000 1697736.99292093 2673.93587271
0.00700000 1696592.00897351 2646.68364400
0.00800000 1695271.52335801 2517.47831847
0.00900000 1693776.98083689 3048.79869584
0.01000000 1692107.79404122 3071.17577880
0.01100000 1690265.60087067 3955.22167825
0.01200000 1688250.16691427 3292.08796982
0.01300000 1686062.99477040 3540.73244518
0.01400000 1683704.21492919 6061.33544245
0.01500000 1681175.40822724 5245.26750723
0.01600000 1678476.20154188 5992.16030737
0.01700000 1675608.95175986 5428.97324724
0.01800000 1672574.10980201 6673.57099840
0.01900000 1669372.57764196 6510.55334658
0.02000000 1666005.24706338 5772.70844221
0.02100000 1662474.85455885 6034.78399566
0.02200000 1658780.04903004 5722.79142915
0.02300000 1654924.06853267 6553.49960969
0.02400000 1650907.47059069 6809.99362671
0.02500000 1646732.53877041 8991.16007232
0.02600000 1642399.98894613 7316.89228542
0.02700000 1637911.42594934 9630.91962569
0.02800000 1633267.73792591 9236.12948154
0.02900000 1628472.04652679 8060.93700042
0.03000000 1623525.01782793 8304.33084790
0.03100000 1618428.50359593 8545.30289218
0.03200000 1613183.52775369 10380.83647922
0.03300000 1607794.46659973 9839.70258921
0.03400000 1602259.88363286 10094.23773264
0.03500000 1596583.62999498 8621.55200010
0.03600000 1590766.42491877 9711.62947294
0.03700000 1584811.71866408 9936.76993557
0.03800000 1578720.75785630 10159.06854696
0.03900000 1572496.06841050 16982.95832531
0.04000000 1566138.04281059 11558.09929153
0.04100000 1559650.52709446 12773.53840917
0.04200000 1553035.50684746 15025.61922583
0.04300000 1546294.49785513 11226.09857552
0.04400000 1539430.16294520 12469.38489896
0.04500000 1532445.44309015 14803.42366809
0.04600000 1525340.78542951 13979.74894834
0.04700000 1518120.10760850 14209.60486807
0.04800000 1510785.18171041 13325.12592268
0.04900000 1503338.83182181 13530.05011619
0.05000000 1495782.70519625 16019.83351863
0.05100000 1488120.91983097 12768.07808694
0.05200000 1480352.55376839 12945.68368599
0.05300000 1472483.31344098 16697.96155284
0.05400000 1464514.12834763 15706.91475900
0.05500000 1456448.67897650 13457.58642153
0.05600000 1448287.53490058 13621.14490136
0.05700000 1440036.38788129 16286.81230718
0.05800000 1431694.10664515 17738.69080960
0.05900000 1423265.02639618 20495.01733734
0.06000000 1414752.51132316 14239.48469172
0.06100000 1406158.43090487 14385.00142039
0.06200000 1397485.29017937 18488.73125330
0.06300000 1388736.80046631 17331.43608016
0.06400000 1379912.14292305 14799.55842498
0.06500000 1371017.70820032 23074.22910837
0.06600000 1362055.16716571 19164.11709868
0.06700000 1353025.57861560 15180.94770252
0.06800000 1343933.02511517 19473.59044546
0.06900000 1334781.56839533 19621.28997406
0.07000000 1325570.30849930 21175.98666992
0.07100000 1316304.14384777 17059.30250329
0.07200000 1306984.93957803 17173.78291059
0.07300000 1297616.07067638 21605.30858909
0.07400000 1288200.65400443 14492.25803672
0.07500000 1278739.23630191 21866.44196570
0.07600000 1269235.31293048 16125.63540676
0.07700000 1259692.68331285 19159.92661157
0.07800000 1250112.75097688 19257.98783193
0.07900000 1240496.88507517 16374.55965102
0.08000000 1230850.79637778 17945.80545304
0.08100000 1221175.52006245 22530.68940225
0.08200000 1211472.15432604 19607.67773786
0.08300000 1201744.33252335 16656.17723048
0.08400000 1191995.19501185 21277.11522968
0.08500000 1182226.59681193 15250.72381482
0.08600000 1172441.07053975 22950.53503338
0.08700000 1162640.99994578 16881.54811193
0.08800000 1152827.82912237 18468.30268988
0.08900000 1143005.49643322 20059.74740460
0.09000000 1133176.06967385 17014.63948542
0.09100000 1123341.15196915 24803.37380077
0.09200000 1113503.10142170 18640.04279363
0.09300000 1103665.89618431 21786.36581447
0.09400000 1093828.19875720 17145.75782133
0.09500000 1083994.98746411 20292.38711912
0.09600000 1074167.34229822 17192.04912164
0.09700000 1064350.25227275 17210.54438837
0.09800000 1054542.62671214 20357.94636586
0.09900000 1044748.31323433 17238.34797896
0.10000000 1034967.03779355 18815.70163194
0.10100000 1025202.68306391 18822.72214632
0.10200000 1015457.30760932 17257.69775456
0.10300000 1005732.07125938 21965.18946956
0.10400000 996029.43517059 20393.70364454
0.10500000 986353.18880714 25092.82630386
0.10600001 976699.80902107 20378.84247412
0.10700001 967077.33037824 23499.98023405
0.10800001 957482.47776104 25047.74279702
0.10900001 947920.50050911 20332.89569290
0.11000001 938392.12471308 20311.49849547
0.11100001 928897.85789103 17166.03322189
0.11200001 919441.09164838 18701.43268454
0.11300001 910021.43290122 21785.91412935
0.11400001 900642.36707348 18643.29787623
0.11500001 891304.71174281 15508.70271460
0.11600001 882009.97582466 20123.05854606
0.11700001 872759.67302382 20082.20102205
0.11800001 863553.85079129 16955.88065888
0.11900001 854395.00832548 18454.93304909
0.12000001 845283.99251654 15341.90518685
0.12100001 836223.90937811 16833.18808876
0.12200001 827214.02475168 16788.30942325
0.12300001 818256.59700929 18263.48810572
0.12400001 809351.56191615 16692.87675105
0.12500001 800500.39167803 18155.34973875
0.12600001 791706.06867876 18098.40158286
0.12700001 782967.37589951 15032.97432572
0.12800001 774285.59257002 19477.15499904
0.12900001 765662.83989876 17916.51129807
0.13000001 757099.16421836 19340.09906155
0.13100001 748594.66190967 20751.04500629
0.13200001 740151.17558061 17719.21997869
0.13300001 731770.50009066 17650.30529427
0.13400001 723451.00903619 19044.84871076
0.13500001 715196.14912515 20426.00298206
0.13600001 707003.68798624 17434.71176780
0.13700001 698877.09298931 18806.78345914
0.13800001 690813.87222158 18724.51088953
0.13900001 682817.77015301 17207.00861931
0.14000001 674887.36360075 18556.02893732
0.14100001 667023.60546485 14207.60346647
0.14200001 659226.62027529 14140.41167184
0.14300001 651498.73406101 16886.84798337
0.14400001 643835.74146733 16804.11364495
0.14500001 636243.39097757 16720.47710363
0.14600001 628718.74707778 19408.54863788
0.14700001 621265.16593710 16550.50480136
0.14800001 613877.31819325 13720.15870892
0.14900001 606560.45954243 17741.89427869
0.15000001 599312.49954295 19004.20025718
0.15100001 592134.58119717 18900.93672365
0.15200001 585026.73934498 18796.91002212
0.15300001 577989.87342810 13351.56670624
0.15400001 571020.22050410 14603.84282856
0.15500001 564122.41167664 14520.51156182
0.15600001 557291.95659882 18373.91667622
0.15700001 550535.18688985 13047.68454510
0.15800001 543844.32305580 23347.23789075
0.15900001 537225.60862716 15472.09825875
0.16000001 530674.31218760 14097.36376869
0.16100001 524195.35756618 15285.53734817
0.16200001 517784.62655566 15191.80166029
0.16300001 511442.30542297 21388.51822249
0.16400001 505169.66263312 15003.53968851
0.16500001 498964.91047669 16151.49491466
0.16600001 492829.90987985 17283.54575549
0.16700001 486761.05422986 13493.01706032
0.16800001 480759.98370508 15843.44601107
0.16900001 474828.44230471 12108.12585049
0.17000001 468962.37990471 13231.77417381
0.17100001 463163.24226705 15534.49587920
0.17200001 457430.82297177 14244.39650000
0.17300001 451764.58913948 12970.16196670
0.17400001 446164.06572994 12882.98800636
0.17500001 440628.34333194 13959.10657601
0.17600001 435155.93021741 15019.40764081
0.17700001 429749.87734367 16064.05117382
0.17800001 424405.69817789 11395.29353430
0.17900001 419125.63816987 12448.03204161
0.18000001 413908.30678200 14608.89437792
0.18100001 408754.79752995 13390.80779962
0.18200001 403660.26354260 13296.56970920
0.18300001 398628.15274661 14302.77879620
0.18400001 393656.05300840 12016.35158574
0.18500001 388745.52402844 13015.20075934
0.18600001 383892.97070481 11845.01817070
0.18700001 379099.12684732 12828.71505860
0.18800001 374363.61611183 11674.52992002
0.18900001 369687.56434242 11589.70568972
0.19000001 365064.69923053 12550.92495256
0.19100001 360502.89874294 11420.73237181
0.19200001 355993.65415865 11336.61845235
0.19300001 351542.23359067 16367.80716940
0.19400001 347143.13214650 14215.51193314
0.19500001 342799.27274364 13101.78882339
0.19600001 338508.17602950 13003.79219669
0.19700001 334270.13508119 13898.95287351
0.19800001 330084.35914785 10838.32044483
0.19900001 325950.33269606 9778.51044301
0.20000001 321865.72194159 12615.52756772
0.20100001 317832.99844583 11556.40836967
0.20200001 313848.10144747 11468.01016891
0.20300001 309913.84395447 15173.38251717
0.20400001 306027.01892800 12233.43065987
0.20500001 302187.76389845 13072.64328415
0.20600001 298395.79054922 10191.70870795
0.20700001 294650.41714262 13789.64017410
0.20800001 290949.48028011 9121.26663795
0.20900001 287296.05590468 14479.72190207
0.21000001 283685.19855478 12570.09174218
0.21100001 280119.11096519 9798.56696477
0.21200001 276595.54268210 13255.84200970
0.21300001 273114.07807169 11397.05101673
0.21400001 269675.78337773 16524.38440769
0.21500001 266279.67581816 11215.70047571
0.21600001 262923.21639029 9413.96620793
0.21700001 259607.29854642 12733.73859575
0.21800001 256331.27276825 9262.53097942
0.21900001 253093.32429458 12528.12014493
0.22000001 249893.54019656 8283.97124920
0.22100001 246733.49132891 10681.09334467
0.22200001 243610.92319916 8963.66434296
0.22300001 240523.46294027 10506.06535801
0.22400001 237471.76070746 11220.54122401
0.22500001 234458.64607514 8742.96332557
0.22600001 231478.40380318 10246.39202888
0.22700001 228534.90074451 14068.60915512
0.22800001 225624.03129042 8525.20442547
0.22900001 222746.27249603 9990.17079389
0.23000001 219902.81330037 10667.48597769
0.23100001 217092.64382052 7554.82436224
0.23200001 214312.80570088 9737.30278753
0.23300001 211565.62292635 10396.33520229
0.23400001 208850.30145203 8834.36816925
0.23500001 206163.74717239 8028.01669459
0.23600001 203509.21544211 7958.22824626
0.23700001 200883.89898806 9323.02219299
0.23800001 198288.25192553 8530.36100131
0.23900001 195721.19230986 7045.96325643
0.24000001 193182.57068031 7681.90528646
0.24100001 190673.43459018 8305.73520362
0.24200001 188191.15612245 9603.39515119
0.24300001 185736.79732234 8837.35723463
0.24400001 183308.84035729 12125.88036323
0.24500001 180907.56800231 8678.13644758
0.24600001 178533.04005123 6614.64944681
0.24700001 176184.30448639 7864.86772433
0.24800001 173861.05106027 10389.93690288
0.24900001 171562.26092436 9650.37763353
0.25000001 169289.45137588 7011.12296042
0.25100001 167039.87857047 7576.92925041
0.25200001 164816.41192934 7505.73975436
0.25300001 162616.44854602 8054.39307754
0.25400001 160439.85731283 9818.91973209
0.25500001 158286.13881891 7901.64442368
0.25600001 156156.18692092 8427.74980686
0.25700001 154048.24958454 6557.83429509
0.25800001 151963.80353412 5903.79404663
0.25900001 149901.32368207 7015.38228025
0.26000001 147860.76742664 6946.49918238
0.26100001 145841.54649585 6304.73035333
0.26200001 143844.69236884 6809.60805895
0.26300001 141868.25384893 6741.57974190
0.26400001 139913.35627078 6673.86740991
0.26500001 137979.72800058 7157.00883005
0.26600001 136065.62665837 7084.25718719
0.26700001 134173.17392055 5393.76184684
0.26800001 132301.16379687 6406.02265418
0.26900001 130447.84426068 5811.45173682
0.27000001 128615.35055082 5751.03567203
0.27100001 126802.05628230 7242.93379760
0.27200001 125009.78303619 6654.89611486
0.27300001 123235.71200278 6584.48440391
0.27400001 121479.05320983 5512.11230026
0.27500001 119744.16091545 6444.63104546
0.27600001 118026.05392817 5884.77932736
0.27700001 116328.06019653 5821.05640773
0.27800001 114647.60941860 5757.60321749
0.27900001 112986.88466033 6643.62913246
0.28000001 111342.75362980 5162.40701637
0.28100001 109717.59136302 5105.15976774
0.28200001 108110.96569033 5048.24178184
0.28300001 106521.82111384 4991.61277365
0.28400001 104950.11680930 5383.94124714
0.28500001 103396.45554212 4879.27896798
0.28600001 101860.03022254 5700.59686122
0.28700001 100341.14456477 5201.68518045
0.28800001 98838.69391832  5998.52061783
0.28900001 97355.32320118  5081.94811165
0.29000001 95887.36035733  5441.12852103
0.29100001 94437.40989726  4549.99462422
0.29200001 93003.96270248  5722.53409596
0.29300001 91587.39912700  5654.60628977
0.29400001 90186.95298455  5188.00471602
0.29500001 88804.15852775  4731.48579033
0.29600001 87437.13274925  4284.85689321
0.29700001 86086.42783804  4232.86985717
0.29800001 84751.96524756  5701.68873194
0.29900001 83434.53607859  4130.00973140
0.30000001 82132.42924965  3708.27935617
0.30100001 80847.33259525  5127.33807592
0.30200001 79576.68883039  3978.43674642
0.30300001 78323.25048020  3571.54039098
0.30400001 77085.37852995  4231.98748164
0.30500001 75863.03703356  4874.95899057
0.30600001 74655.54655967  5156.83212275
0.30700001 73464.71345138  4412.29089878
0.30800001 72288.96302307  3685.65295422
0.30900001 71128.56419037  4630.46974802
0.31000001 69983.83143359  4897.11883642
0.31100001 68853.28267956  4833.50067295
0.31200001 67738.72485052  3816.39993877
0.31300001 66638.63285449  4394.15165847
0.31400001 65554.79345204  3407.21055099
0.31500001 64484.57738092  4890.51058012
0.31600002 63429.76951869  4524.12852513
0.31700002 62389.49632251  3571.17493859
0.31800002 61363.96963092  4404.39912880
0.31900002 60353.03977245  3766.02986012
0.32000002 59357.08832770  3143.84833214
0.32100002 58374.58197469  3101.44168717
0.32200002 57407.74477361  3893.96751238
0.32300002 56453.25774810  2743.62845647
0.32400002 55513.81402570  2976.92841809
0.32500002 54588.27072835  2936.30322152
0.32600002 53677.26677280  2896.15706587
0.32700002 52779.30439981  2596.74189943
0.32800002 51895.95725824  2561.06561197
0.32900002 51025.66599441  2778.34764496
0.33000002 50170.07592857  4732.79433684
0.33100002 49325.42262713  2947.68739578
0.33200002 48497.14528456  3149.16227818
0.33300002 47680.75476789  2627.68651969
0.33400002 46878.26182029  2591.19604482
0.33500002 46087.61668265  2555.09758989
0.33600002 45311.37950113  3435.73551338
0.33700002 44546.82747609  2936.08153799
0.33800002 43796.24718465  3117.85498473
0.33900002 43057.26318832  2415.51257926
0.34000002 42331.55922875  2165.25935709
0.34100002 41618.22709559  2348.51666623
0.34200002 40917.87265727  2526.26957750
0.34300002 40228.51515192  2283.37062816
0.34400002 39553.00797788  2456.24191175
0.34500002 38888.46945967  2018.31166054
0.34600002 38237.09795750  2786.33746013
0.34700002 37595.76424430  3728.74807435
0.34800002 36967.94116980  2709.38053665
0.34900002 36350.87215576  3053.47340570
0.35000002 35745.54253947  2070.20319422
0.35100002 35152.32811517  2227.25161487
0.35200002 34569.02714611  2196.51608890
0.35300002 33997.50787421  1805.26775362
0.35400002 33437.40121657  1958.59586903
0.35500002 32888.40279000  2283.11302982
0.35600002 32349.22569155  1905.53122962
0.35700002 31821.15571997  2904.95344327
0.35800002 31304.59811506  1854.32795718
0.35900002 30798.04952678  1829.40422854
0.36000002 30302.28567853  2625.39015554
0.36100002 29815.83341150  2266.59976330
0.36200002 29340.90050575  2076.89574067
0.36300002 28874.79809032  1734.22045545
0.36400002 28418.82470573  1711.52379897
0.36500002 27972.40562502  1842.82216987
0.36600002 27536.18310668  1970.62703737
0.36700002 27108.75388168  1795.68394218
0.36800002 26692.43664834  1625.16908232
0.36900002 26284.17921688  1604.64921720
0.37000002 25884.91032306  1872.64392603
0.37100002 25494.56869550  2418.41490101
0.37200002 25114.20287014  2107.70957572
0.37300002 24741.83701959  1943.22397157
0.37400002 24378.23595279  1782.65858849
0.37500002 24023.62941367  1490.42603943
0.37600002 23677.61916367  2008.45414070
0.37700002 23339.40182162  1455.67856057
0.37800002 23009.38483997  1569.70030814
0.37900002 22688.09034729  1551.86545327
0.38000002 22374.59364485  1790.19132233
0.38100002 22067.99538629  1390.94581509
0.38200002 21770.33346840  2001.12914722
0.38300002 21479.30576051  1360.92887746
0.38400002 21196.90735966  1346.53360381
0.38500002 20920.37397892  1938.06353722
0.38600002 20652.60554546  1438.66057045
0.38700002 20391.02252779  1305.43332407
0.38800002 20136.72110054  1527.47105145
0.38900002 19888.78348285  1396.19266664
0.39000002 19648.89694894  1152.40786065
0.39100002 19414.31056247  1598.18612122
0.39200002 19187.07065283  1696.61680286
0.39300002 18965.75874321  1457.13931328
0.39400002 18752.26001764  1555.50004216
0.39500002 18543.68916346  1652.24278274
0.39600002 18341.26929796  1419.88942997
0.39700002 18144.85736793  1408.22244704
0.39800002 17954.51374535  1289.49323828
0.39900002 17769.70225406  1279.41862291
0.40000002 17590.44464273  1481.29141355
0.40100002 17417.00450864  1575.36813245
0.40200002 17249.39176650  1146.99835986
0.40300002 17086.25530460  1035.42712052
0.40400002 16928.93450299  1234.11938374
0.40500002 16776.76433406  1021.70499635
0.40600002 16629.45219329  1319.79653585
0.40700002 16487.11446414  1210.81374362
0.40800002 16349.80971005  1303.97913521
0.40900002 16216.91284754  1296.54224359
0.41000002 16089.01131863  1091.07635427
0.41100002 15965.34984451  1282.65626728
0.41200002 15845.93786393  981.65589718
0.41300002 15731.40300445  1074.61219015
0.41400002 15620.78301134  1361.35130394
0.41500002 15514.51222016  968.10560841
0.41600002 15411.59858373  1156.79464451
0.41700002 15313.18471143  1248.17774497
0.41800002 15219.48817490  1243.50834025
0.41900002 15127.63043173  1524.86521977
0.42000002 15040.85437531  1329.76199833
0.42100002 14957.70598967  1325.55196762
0.42200002 14878.21287064  1132.82718165
0.42300002 14801.47847870  1129.64889102
0.42400002 14728.13720599  1408.37818706
0.42500002 14658.41512661  1030.34004807
0.42600002 14591.07627117  1121.47017534
0.42700002 14528.04522160  1025.97060217
0.42800002 14467.10287139  1489.53298222
0.42900002 14410.29099699  1301.24933869
0.43000002 14355.79127711  1299.34273006
0.43100002 14303.10144707  1204.89332300
0.43200002 14254.30284561  1110.98041643
0.43300002 14207.91689946  1017.42897738
0.43400002 14164.18125837  1386.31930636
0.43500002 14122.69969277  923.62460368
0.43600002 14084.01002583  1292.48966132
0.43700002 14047.18624704  1015.19019818
0.43800002 14012.58041616  1015.00131054
0.43900002 13980.95248711  1107.29148945
0.44000002 13950.98162491  922.85747822
0.44100002 13923.49417667  1292.37879072
0.44200002 13897.90375488  1108.21889793
0.44300002 13874.26495799  924.02608999
0.44400002 13852.94112766  1109.62063691
0.44500002 13832.29427743  925.38053101
0.44600002 13813.79106825  1481.94357603
0.44700002 13798.20440799  927.23938016
0.44800002 13782.53051161  1113.90416874
0.44900002 13770.29385995  1487.19180736
0.45000002 13759.03329495  1396.19796977
0.45100002 13748.89100627  932.17485440
0.45200002 13740.54959879  933.67038949
0.45300002 13733.24765168  1028.75763034
0.45400002 13727.73326828  1030.60962396
0.45500002 13723.52898500  1126.42731247
0.45600002 13720.37960590  940.53206656
0.45700002 13718.61843636  1036.71604437
0.45800002 13717.58772914  1227.79274789
0.45900002 13717.82879495  1041.18325488
0.46000002 13719.94918543  1043.60798425
0.46100002 13721.81065530  1331.29013287
0.46200002 13725.79090553  1143.90746828
0.46300002 13730.50472814  955.64317437
0.46400002 13735.47566549  1149.65936769
0.46500002 13741.83878522  1440.83186492
0.46600002 13748.89194225  1252.04290406
0.46700002 13756.25477709  1255.39587046
0.46800002 13765.51864654  1452.60642402
0.46900002 13774.33835948  1068.19999041
0.47000002 13784.22301302  1266.01202264
0.47100002 13794.81247172  1855.67826165
0.47200002 13806.15838618  1077.50168232
0.47300002 13818.11596169  1473.70213716
0.47400002 13829.92086780  1182.45829024
0.47500002 13842.63037935  1186.03662712
0.47600002 13856.39553735  1387.99520676
0.47700002 13869.64161994  1292.78935667
