# SAXS profile: number of points = 501, q_min = 0, q_max = 0.5, delta_q = 0.001
#    q    intensity    error
0.00000000 1700912.83420644 306.16431016
0.00100000 1700824.71212548 663.32165348
0.00200000 1700560.30527086 841.77737776
0.00300000 1700119.85095466 1224.08633629
0.00400000 1699503.21842464 1274.62746225
0.00500000 1698711.04591046 1834.60800220
0.00600000 1697743.20017047 2317.41956258
0.00700000 1696600.45760024 2646.69682385
0.00800000 1695282.54833312 2746.35784425
0.00900000 1693790.95196413 4319.16711214
0.01000000 1692125.00908123 4746.41085542
0.01100000 1690286.43120069 3651.01885036
0.01200000 1688274.95639898 4938.20446398
0.01300000 1686092.03751918 4248.95212195
0.01400000 1683737.84174351 4167.25134305
0.01500000 1681214.02083136 6052.37074450
0.01600000 1678520.09887620 4708.24908782
0.01700000 1675658.43966507 4524.27799005
0.01800000 1672629.49332830 7150.49140573
0.01900000 1669434.21282733 5509.13315092
0.02000000 1666073.50371542 6822.57130634
0.02100000 1662550.01685352 7132.33989567
0.02200000 1658862.44536476 8012.30597513
0.02300000 1655013.96339145 7745.46570123
0.02400000 1651005.17154330 8667.77754583
0.02500000 1646838.50055633 8349.47157915
0.02600000 1642514.34752573 8647.83843526
0.02700000 1638034.59563446 9631.64386347
0.02800000 1633399.92871508 10657.93502363
0.02900000 1628613.59257104 8794.51380368
0.03000000 1623676.21262212 9815.12315646
0.03100000 1618589.63095204 10099.99976187
0.03200000 1613354.86875367 10381.93905860
0.03300000 1607976.39409821 9840.81598555
0.03400000 1602452.57223530 12619.31458861
0.03500000 1596787.39720921 10347.18281173
0.03600000 1590981.58663046 8829.94821386
0.03700000 1585038.40223879 13552.07896589
0.03800000 1578959.34592458 10160.60386125
0.03900000 1572746.77014482 13211.07348102
0.04000000 1566401.14298618 10596.70422334
0.04100000 1559926.24607213 10810.28938652
0.04200000 1553324.07426114 12022.72889255
0.04300000 1546596.12409486 13269.79536069
0.04400000 1539745.14985275 12471.93629303
0.04500000 1532774.01791311 14806.59770103
0.04600000 1525683.14064025 12907.27996984
0.04700000 1518476.45492739 13119.63718074
0.04800000 1511155.84996117 13328.39521680
0.04900000 1503723.88829082 15789.10156200
0.05000000 1496182.42173666 14879.53487705
0.05100000 1488535.44795731 16254.80784891
0.05200000 1480782.11787467 12949.44022427
0.05300000 1472928.06447791 15509.93324199
0.05400000 1464974.31764624 12086.03868420
0.05500000 1456924.50423756 13461.98304715
0.05600000 1448779.25885731 21058.00751015
0.05700000 1440543.97543475 16292.55312268
0.05800000 1432217.72027714 15210.15289954
0.05900000 1423804.90245496 14095.66919265
0.06000000 1415308.86891715 12950.07675560
0.06100000 1406731.16807386 15699.12056935
0.06200000 1398074.77466637 15854.16868580
0.06300000 1389343.18959758 16005.23429249
0.06400000 1380535.44869312 16152.26550510
0.06500000 1371657.97745112 13579.41461198
0.06600000 1362712.59202080 17803.84084777
0.06700000 1353700.19763743 16569.29119451
0.06800000 1344625.13778156 23658.68040671
0.06900000 1335491.16843205 22436.25268010
0.07000000 1326297.40242625 22600.10879567
0.07100000 1317048.77108568 14224.12739395
0.07200000 1307747.31043920 17183.80046418
0.07300000 1298396.42290000 17294.64116338
0.07400000 1288998.86077472 21751.85679496
0.07500000 1279555.40118755 20421.70516017
0.07600000 1270069.41625760 22003.95366822
0.07700000 1260544.81992944 14748.37508470
0.07800000 1250982.76157216 14824.14641983
0.07900000 1241385.04780826 16386.28339965
0.08000000 1231757.11969407 25441.94450079
0.08100000 1222099.92698077 22547.74471070
0.08200000 1212414.82653693 21132.39141818
0.08300000 1202705.08066562 25761.94403692
0.08400000 1192974.00882827 28899.79672038
0.08500000 1183223.60037613 18316.30219368
0.08600000 1173456.20093757 18376.32496948
0.08700000 1163674.16669935 15360.49972173
0.08800000 1153879.19817850 23106.43202869
0.08900000 1144075.01623739 29345.52554484
0.09000000 1134263.59479385 23224.04819437
0.09100000 1124446.71251731 18620.83843412
0.09200000 1114626.54463218 26433.36974797
0.09300000 1104807.31363193 20251.11901052
0.09400000 1094987.42605789 17163.92871012
0.09500000 1085171.99320675 17189.12518033
0.09600000 1075362.04988753 25034.42969819
0.09700000 1065562.61977979 21929.27974602
0.09800000 1055772.47884981 15678.22204807
0.09900000 1045995.88499250 17258.93291393
0.10000000 1036231.70686830 31397.82219466
0.10100000 1026484.60450194 18846.25822503
0.10200000 1016756.53976479 15708.88927825
0.10300000 1007048.08814336 17280.94600545
0.10400000 997362.75852256 21991.84986003
0.10500000 987703.27272888 15704.48277528
0.10600001 978066.50276977 25116.74897296
0.10700001 968460.58195731 18826.87459920
0.10800001 958882.27273115 17245.49848667
0.10900001 949336.59351536 17230.45998327
0.11000001 939824.30558489 20342.49805190
0.11100001 930346.00471280 15629.81361492
0.11200001 920905.00572368 18731.20869823
0.11300001 911501.15722419 15586.67052237
0.11400001 902137.43616703 17118.05865726
0.11500001 892815.33989563 23302.48146854
0.11600001 883535.60152641 17056.65559069
0.11700001 874300.19367734 20117.64840395
0.11800001 865109.22017427 15442.20030741
0.11900001 855964.96885604 20029.58121466
0.12000001 846868.30462003 19981.85858875
0.12100001 837822.65566619 16865.37085306
0.12200001 828826.69293022 16821.03852548
0.12300001 819883.11891732 16774.80940338
0.12400001 810991.71197875 16726.70484768
0.12500001 802153.82252622 16676.77875614
0.12600001 793372.50819340 16625.12169263
0.12700001 784646.85420876 21091.30843509
0.12800001 775977.89134469 16516.69019569
0.12900001 767367.40068420 14963.66501861
0.13000001 758816.06742944 16401.81007058
0.13100001 750323.51053478 14856.40620888
0.13200001 741891.95012990 17760.89412336
0.13300001 733522.82194106 25064.47600734
0.13400001 725214.77231711 17622.71979814
0.13500001 716970.75012526 21939.30598823
0.13600001 708789.19066398 18935.30412140
0.13700001 700672.93711028 18855.10962672
0.13800001 692620.03595009 18773.46695970
0.13900001 684633.93795552 15815.04471258
0.14000001 676713.46130642 15743.73941978
0.14100001 668859.20552492 15671.37192456
0.14200001 661071.44156972 21269.97463571
0.14300001 653352.38330666 18346.13578859
0.14400001 645698.36368094 14043.94007251
0.14500001 638114.38206148 16769.64675164
0.14600001 630597.86868600 13904.68366047
0.14700001 623151.99468327 16600.76992153
0.14800001 615771.88271044 15138.75245066
0.14900001 608462.32559602 13690.40297183
0.15000001 601221.42404449 20426.49884569
0.15100001 594050.21295705 13544.34549451
0.15200001 586948.83462543 17511.61930737
0.15300001 579918.16079262 18754.55420504
0.15400001 572954.42774757 14653.31018115
0.15500001 566062.10351294 15895.02461678
0.15600001 559237.16973774 21072.05755021
0.15700001 552485.37416446 15712.68478283
0.15800001 545799.31279408 15620.77706945
0.15900001 539184.97443141 12940.43999715
0.16000001 532637.86288665 20581.12799342
0.16100001 526162.89041752 14064.33472476
0.16200001 519755.63581747 15249.63107476
0.16300001 513416.81587895 13893.05969355
0.16400001 507147.16743861 12551.89298668
0.16500001 500945.18977158 16215.59655847
0.16600001 494812.54833887 14874.06590532
0.16700001 488745.96898059 13548.03889981
0.16800001 482746.73537299 15908.91941538
0.16900001 476816.80409817 14590.59489434
0.17000001 470952.07803519 13287.91350921
0.17100001 465153.84420716 19201.55159559
0.17200001 459422.31449292 11922.00962408
0.17300001 453756.45576528 11843.04405476
0.17400001 448156.14603675 12940.50932794
0.17500001 442620.23690623 16359.24472866
0.17600001 437147.48530077 11606.26628289
0.17700001 431740.70984375 13832.97299673
0.17800001 426395.53848225 12593.59282390
0.17900001 421114.35023072 15918.12319059
0.18000001 415895.40190004 12420.71676444
0.18100001 410740.13228845 12334.52675526
0.18200001 405643.48009131 13361.89686540
0.18300001 400609.10820415 13268.17429050
0.18400001 395634.40534452 12076.74079366
0.18500001 390721.16318020 16351.68145158
0.18600001 385865.32834114 11905.87526844
0.18700001 381068.17718300 10746.12310426
0.18800001 376328.92736572 16003.38839233
0.18900001 371649.09292672 15887.99947328
0.19000001 367021.87601795 15772.76586712
0.19100001 362455.82185062 11482.60097878
0.19200001 357941.88595134 10362.41808793
0.19300001 353485.36259694 13372.35189892
0.19400001 349081.29332793 14294.87963727
0.19500001 344731.92278893 12162.14281072
0.19600001 340435.29900527 11065.84991710
0.19700001 336191.21611526 11981.85550858
0.19800001 331999.31051020 10901.19787578
0.19900001 327858.96286422 13770.07709107
0.20000001 323767.85430580 15618.56202986
0.20100001 319728.21215907 9687.76528629
0.20200001 315736.41558464 12498.42660164
0.20300001 311794.82153776 9540.92199000
0.20400001 307900.66647859 11361.53513007
0.20500001 304053.63211656 9395.25767649
0.20600001 300253.70295999 12119.74129286
0.20700001 296500.19227195 12026.04836701
0.20800001 292790.92789093 15604.29323957
0.20900001 289129.24946007 10018.32896737
0.21000001 285509.53020217 11747.29017549
0.21100001 281934.45834870 9862.06781925
0.21200001 278401.87751083 10673.92848837
0.21300001 274911.06380535 9707.11012188
0.21400001 271463.19671625 10505.62620959
0.21500001 268057.51471794 13896.10221995
0.21600001 264691.23072127 11200.40995751
0.21700001 261365.39786163 8546.64891416
0.21800001 258079.11718502 10173.47928044
0.21900001 254830.83868303 8409.41807415
0.22000001 251620.63809833 8341.22454735
0.22100001 248449.88192856 12410.07218912
0.22200001 245316.39093810 8205.83366489
0.22300001 242218.06067176 12207.79083511
0.22400001 239155.44865591 10492.94580595
0.22500001 236130.92000800 10406.29013684
0.22600001 233139.19831530 9526.06809363
0.22700001 230184.29820405 11021.22471919
0.22800001 227261.74700510 8587.08551667
0.22900001 224372.23302724 10837.17936772
0.23000001 221516.91603451 10745.78610502
0.23100001 218694.68084444 7610.57525331
0.23200001 215902.71664124 8300.38033383
0.23300001 213143.21736094 11970.12365311
0.23400001 210415.50740319 9642.29108279
0.23500001 207716.40742369 7353.16117058
0.23600001 205049.53458464 8018.46242918
0.23700001 202411.49070747 10116.52678405
0.23800001 199803.01381098 10028.11373749
0.23900001 197223.09387023 12780.05708728
0.24000001 194671.67931576 8444.85784816
0.24100001 192149.42239641 7672.52679921
0.24200001 189654.21332295 8986.76532340
0.24300001 187186.53469137 9591.43849129
0.24400001 184745.37717399 7468.33222554
0.24500001 182330.77315334 10092.00877143
0.24600001 179942.79803645 6666.88098263
0.24700001 177580.73364492 7266.60396450
0.24800001 175244.14695179 8508.97995778
0.24900001 172931.79168148 6484.94249484
0.25000001 170645.41344999 8994.72016847
0.25100001 168382.18819959 8274.30111958
0.25200001 166145.17257865 7566.25151719
0.25300001 163931.48696888 7494.94793881
0.25400001 161741.10361936 7423.91700736
0.25500001 159573.64446516 6740.39106111
0.25600001 157429.88042063 6068.92217735
0.25700001 155308.19556679 7212.51294337
0.25800001 153209.88789523 8333.08619689
0.25900001 151133.67345224 7662.47760658
0.26000001 149079.31434100 7003.74651913
0.26100001 147046.19341936 6356.80724230
0.26200001 145035.51318557 7438.14664567
0.26300001 143045.09391013 6231.04458556
0.26400001 141076.46539622 6168.56874134
0.26500001 139128.99662162 6106.37195067
0.26600001 137201.10227644 6044.39484681
0.26700001 135294.78440156 6526.62070837
0.26800001 133408.90174293 6997.96427208
0.26900001 131541.79737568 7458.42026414
0.27000001 129695.63247777 6853.76602262
0.27100001 127868.66427130 6260.45009898
0.27200001 126062.67163675 5678.49331260
0.27300001 124274.88166350 6640.00724151
0.27400001 122504.62312373 5053.31594300
0.27500001 120756.12756934 5499.23430976
0.27600001 119024.29259203 5440.00555037
0.27700001 117312.91186220 5870.33838741
0.27800001 115619.04352439 5322.52292055
0.27900001 113944.76601376 5264.24843898
0.28000001 112287.28576230 6626.07304643
0.28100001 110648.80547497 7020.66703967
0.28200001 109028.93538344 6016.76208391
0.28300001 107426.47246673 6406.91512116
0.28400001 105841.66431954 5882.15077297
0.28500001 104274.87750938 5815.41019395
0.28600001 102725.45613020 4864.56420530
0.28700001 101193.54488303 4808.71748045
0.28800001 99678.25926024  5617.36856650
0.28900001 98182.05938173  4270.91978526
0.29000001 96701.32174385  4643.11418331
0.29100001 95238.74755853  5005.74880862
0.29200001 93792.60665115  6183.27788616
0.29300001 92363.67665231  5295.20983313
0.29400001 90950.74624023  5231.94192513
0.29500001 89555.61095015  4373.89624585
0.29600001 88176.28485587  5499.55514680
0.29700001 86813.49765502  5044.73258754
0.29800001 85466.90441333  3833.19084440
0.29900001 84137.60070720  3786.19221106
0.30000001 82823.45704110  4113.42718867
0.30100001 81526.56909706  3693.15375493
0.30200001 80244.25434858  5105.94214592
0.30300001 78979.21108069  4681.88785451
0.30400001 77729.78402647  3556.13778756
0.30500001 76496.03225461  3862.28485138
0.30600001 75277.22390196  4506.47122224
0.30700001 74075.17541658  4448.95524615
0.30800001 72888.39888513  4729.72842758
0.30900001 71716.93582751  4001.80520864
0.31000001 70561.39109610  3620.85795553
0.31100001 69420.05064131  3248.85852383
0.31200001 68294.78870447  3847.72857778
0.31300001 67184.23984218  3164.37784639
0.31400001 66089.91388398  3435.02343676
0.31500001 65009.37520442  4005.87788976
0.31600002 63944.31280130  3952.71788296
0.31700002 62893.92178446  3900.05227451
0.31800002 61858.41998698  5031.87341209
0.31900002 60837.75953489  5256.38267270
0.32000002 59831.91522130  4321.36028147
0.32100002 58839.74804366  3126.15596158
0.32200002 57863.49635061  4205.22979640
0.32300002 56899.42571716  3041.84344287
0.32400002 55950.84981717  3545.88527507
0.32500002 55016.15242587  2690.28998102
0.32600002 54096.09972396  2918.75519882
0.32700002 53189.20625151  2878.59997864
0.32800002 52297.07875309  3355.11924628
0.32900002 51418.06813493  2799.71394252
0.33000002 50553.88669077  3263.00077097
0.33100002 49700.82225559  3217.63138520
0.33200002 48864.17205912  3417.07171391
0.33300002 48039.62807089  2647.46402836
0.33400002 47229.00805109  3085.23509704
0.33500002 46430.45324877  2574.10445001
0.33600002 45646.30604633  2307.42087991
0.33700002 44874.03902182  3185.15944061
0.33800002 44115.97151408  2467.62698350
0.33900002 43369.47013084  2211.84308142
0.34000002 42636.47162921  2835.11231525
0.34100002 41915.86257648  2580.34062241
0.34200002 41208.44572765  2120.17463310
0.34300002 40512.14939532  2926.59781092
0.34400002 39829.81349021  2267.31224031
0.34500002 39158.44356902  3251.71730797
0.34600002 38500.41311243  3206.31455586
0.34700002 37852.62456969  3359.04206340
0.34800002 37218.41711641  2727.73791965
0.34900002 36595.06330020  1921.24091425
0.35000002 35983.68524108  3031.26578828
0.35100002 35384.34247093  2428.78138224
0.35200002 34795.20390536  2395.12797427
0.35300002 34217.85847492  3270.54306794
0.35400002 33652.09817631  1971.17174404
0.35500002 33097.59277783  1944.15269185
0.35600002 32552.98338810  1743.21234300
0.35700002 32019.63867406  1891.40014606
0.35800002 31497.74744019  2544.23066999
0.35900002 30986.14961883  2175.22780627
0.36000002 30485.46704596  2146.02455435
0.36100002 29994.13218639  2117.28589133
0.36200002 29514.43966043  2571.29810501
0.36300002 29043.69251542  1902.94282375
0.36400002 28583.21153954  1564.93090592
0.36500002 28132.35483505  1544.46635360
0.36600002 27691.80070574  1676.87707117
0.36700002 27260.25578069  1956.19604748
0.36800002 26839.76162127  1931.25513894
0.36900002 26427.58597465  1906.75041839
0.37000002 26024.41508374  1593.08464481
0.37100002 25630.34542073  1859.22534489
0.37200002 25246.22745722  1553.77914246
0.37300002 24870.22679346  1813.78572597
0.37400002 24503.24308297  1516.13823758
0.37500002 24145.25200673  1770.32996100
0.37600002 23795.97451892  1883.92739191
0.37700002 23454.56706775  1462.86141731
0.37800002 23121.54763970  1971.69006838
0.37900002 22797.28440454  1299.44527262
0.38000002 22480.91245244  1798.69789053
0.38100002 22171.51750807  1651.55641742
0.38200002 21871.06443547  1633.44052474
0.38300002 21577.54224800  1615.72644007
0.38400002 21292.56810344  1352.61045285
0.38500002 21013.69906248  1460.03188003
0.38600002 20743.67148315  1565.42124264
0.38700002 20479.75110891  1430.30588521
0.38800002 20223.36206861  1416.03987913
0.38900002 19973.35938043  1285.28573702
0.39000002 19731.47887048  1620.15180681
0.39100002 19495.04909808  1375.57072953
0.39200002 19266.00291415  1476.45020328
0.39300002 19042.97380214  1463.07174653
0.39400002 18827.77286502  1115.54559510
0.39500002 18617.66507000  1216.47829331
0.39600002 18413.80873277  1096.54236199
0.39700002 18216.02799798  1522.49569220
0.39800002 18024.33317416  1186.63203074
0.39900002 17838.24911283  1070.29499748
0.40000002 17657.88447197  1911.81924236
0.40100002 17483.37639696  1159.67241135
0.40200002 17314.65798293  1046.67112466
0.40300002 17150.60634460  1351.12483184
0.40400002 16992.38199949  1341.97343199
0.40500002 16839.39535593  1025.51922577
0.40600002 16691.39120168  1120.91042926
0.40700002 16548.38560760  1114.03737189
0.40800002 16410.38222880  1308.81009667
0.40900002 16276.90069482  1201.23532819
0.41000002 16148.60395407  1095.11762903
0.41100002 16024.49627551  1584.50226680
0.41200002 15904.66373074  1379.41155073
0.41300002 15789.93938259  1274.72186676
0.41400002 15679.06229723  1366.43034395
0.41500002 15572.59863458  1263.24926109
0.41600002 15469.56423880  1161.14554678
0.41700002 15371.12414213  963.76952938
0.41800002 15277.32182474  1152.21566662
0.41900002 15185.53017381  1052.35729091
0.42000002 15098.83698371  953.49160070
0.42100002 15015.82200029  1140.60189319
0.42200002 14936.51031445  1042.49378680
0.42300002 14859.95177579  1512.14876436
0.42400002 14786.94144005  1036.93431762
0.42500002 14717.55550550  1598.76813032
0.42600002 14650.61585861  1126.04638825
0.42700002 14587.94757454  1030.20090653
0.42800002 14527.56272291  1215.30331717
0.42900002 14471.25912980  1120.07550972
0.43000002 14417.25038556  1211.69786607
0.43100002 14365.19867136  1023.95140982
0.43200002 14317.01968485  1115.86856712
0.43300002 14271.30758659  1114.87460150
0.43400002 14228.28029711  1206.91393340
0.43500002 14187.50858016  1299.00834716
0.43600002 14149.63602644  1020.25955404
0.43700002 14113.56153972  1205.43934823
0.43800002 14079.81014593  1205.30220466
0.43900002 14049.11529611  1205.41414953
0.44000002 14020.00476681  927.42335927
0.44100002 13993.49042695  1020.54530520
0.44200002 13968.78245160  1392.33845685
0.44300002 13946.14769785  1207.45752490
0.44400002 13925.87038388  1022.50708139
0.44500002 13906.22857108  1116.39208259
0.44600002 13888.79617703  931.24382780
0.44700002 13874.26519798  1025.58573204
0.44800002 13859.81176535  1213.49587662
0.44900002 13848.65586184  1121.74117797
0.45000002 13838.55658096  1123.41407648
0.45100002 13829.66695059  1031.41661006
0.45200002 13822.49719409  1314.93422039
0.45300002 13816.38385594  1034.98536370
0.45400002 13812.09558400  1225.47823877
0.45500002 13809.14299933  944.54542592
0.45600002 13807.32761896  1135.79082376
0.45700002 13806.83426081  1327.94138214
0.45800002 13807.06460173  1330.86302004
0.45900002 13808.60263361  1143.35235225
0.46000002 13812.01781630  1050.61118499
0.46100002 13815.23871471  1244.61491480
0.46200002 13820.51182215  1343.76842816
0.46300002 13826.57595834  962.32973231
0.46400002 13832.91694807  1350.78440400
0.46500002 13840.70161134  967.46508849
0.46600002 13849.01986728  1067.13627645
0.46700002 13857.79750024  1070.09917369
0.46800002 13868.42858181  1365.90159576
0.46900002 13878.64211107  1467.66647281
0.47000002 13889.93598686  1177.58882878
0.47100002 13901.83669266  984.25008449
0.47200002 13914.62679333  1283.41566311
0.47300002 13928.03175640  1089.31141530
0.47400002 13941.20027799  1390.63479364
0.47500002 13955.32505076  1195.69230702
0.47600002 13970.51634312  999.59049173
0.47700002 13985.10116237  1203.27816104
