# SAXS profile: number of points = 501, q_min = 0, q_max = 0.5, delta_q = 0.001
#    q    intensity    error
0.00000000 1719190.39626458 361.02998322
0.00100000 1719101.60455918 515.73049362
0.00200000 1718835.19011063 928.17103205
0.00300000 1718391.38348572 1237.24184018
0.00400000 1717770.05722085 1803.65862862
0.00500000 1716971.87213557 2008.85716991
0.00600000 1715996.67158324 2162.15589422
0.00700000 1714845.23498051 2675.15867775
0.00800000 1713517.29859473 3007.22298600
0.00900000 1712014.34962616 2568.02163422
0.01000000 1710335.73666650 3668.67031356
0.01100000 1708483.13082029 3382.79674631
0.01200000 1706456.32858778 3327.58998664
0.01300000 1704256.78868082 4652.62123830
0.01400000 1701884.65552526 4212.16470915
0.01500000 1699341.48305542 4486.26171503
0.01600000 1696627.04493705 5624.31890539
0.01700000 1693743.50372915 4573.10766521
0.01800000 1690691.39854022 5300.31777293
0.01900000 1687471.70137376 6074.89839906
0.02000000 1684085.13277249 7957.30261230
0.02100000 1680534.71082697 6654.91775660
0.02200000 1676818.80370557 8099.03518986
0.02300000 1672940.80907145 8431.62206151
0.02400000 1668901.17145138 7510.05561397
0.02500000 1664702.35628034 7790.80738320
0.02600000 1660344.90109407 8069.27658839
0.02700000 1655830.56360784 8345.38642281
0.02800000 1651160.08777156 8619.05605343
0.02900000 1646336.79773682 11853.62548795
0.03000000 1641361.22788963 9158.79607261
0.03100000 1636235.19146206 7853.92928040
0.03200000 1630959.78584693 10495.22670532
0.03300000 1625539.44758704 11606.35219083
0.03400000 1619972.67351912 9355.34262123
0.03500000 1614263.22251813 8717.02180413
0.03600000 1608412.12419363 8926.68770181
0.03700000 1602422.47728028 11873.95110579
0.03800000 1596295.73869012 10272.16355386
0.03900000 1590034.46696146 11448.24869229
0.04000000 1583638.97160461 10713.31813935
0.04100000 1577113.04695735 11922.97518782
0.04200000 1570458.83491072 17220.08192368
0.04300000 1563677.81200842 13416.35624979
0.04400000 1556772.56581372 12609.85836872
0.04500000 1549746.14529689 13901.22356923
0.04600000 1542598.94359303 10875.32305789
0.04700000 1535334.89364863 12159.85292323
0.04800000 1527955.81891749 16845.71368736
0.04900000 1520464.48509603 12543.83258593
0.05000000 1512862.49979010 18517.43785972
0.05100000 1505154.21086420 15262.26440914
0.05200000 1497338.55535034 11903.84206977
0.05300000 1489421.21490123 12064.31240311
0.05400000 1481403.06882571 21998.83659795
0.05500000 1473288.10229344 13613.18270024
0.05600000 1465076.60607610 16284.32723643
0.05700000 1456774.41593853 19010.90701540
0.05800000 1448380.19228045 14099.98183021
0.05900000 1439898.49711564 16846.81320310
0.06000000 1431332.72298676 17025.70353535
0.06100000 1422684.74371338 17200.25935529
0.06200000 1413956.93399291 13361.89365081
0.06300000 1405153.10381659 14838.41747008
0.06400000 1396272.41115191 17697.75363902
0.06500000 1387321.23817789 19228.27326060
0.06600000 1378301.20082360 16622.31325967
0.06700000 1369213.65585677 13965.97994333
0.06800000 1360062.52329120 16891.97732997
0.06900000 1350851.94548325 18439.12991915
0.07000000 1341580.67288574 17145.40180237
0.07100000 1332253.83186058 27337.84991022
0.07200000 1322873.45217834 15934.01147795
0.07300000 1313442.90435950 24784.66876656
0.07400000 1303965.26687975 19070.49292184
0.07500000 1294440.88547469 25086.26553636
0.07600000 1284873.58319722 16324.31963981
0.07700000 1275266.92656160 16412.68611441
0.07800000 1265622.35416109 16497.38816015
0.07900000 1255941.50714340 16578.42867188
0.08000000 1246229.75141231 22712.53828496
0.08100000 1236488.44828896 19771.45121578
0.08200000 1226718.45698105 16799.91005669
0.08300000 1216923.47487038 19933.20745388
0.08400000 1207106.51569711 15390.60879755
0.08500000 1197269.87415277 18533.73852195
0.08600000 1187415.81498566 15495.77711311
0.08700000 1177546.73840519 15543.61767684
0.08800000 1167664.10867636 21823.64321608
0.08900000 1157771.82330398 18755.90441848
0.09000000 1147872.04989431 23502.68132564
0.09100000 1137966.64122030 15703.94038663
0.09200000 1128057.32262304 20457.32050699
0.09300000 1118148.67750348 17342.48680304
0.09400000 1108238.96486625 23688.60898732
0.09500000 1098333.46958602 20560.80351706
0.09600000 1088433.16305944 19004.04392036
0.09700000 1078543.15898087 17440.04370063
0.09800000 1068661.74310206 20630.51592058
0.09900000 1058794.18167952 17470.10481920
0.10000000 1048938.73358462 15891.42256114
0.10100000 1039099.94655718 20667.69890906
0.10200000 1029280.20867039 22263.33196073
0.10300000 1019479.81714935 22265.44025392
0.10400000 1009701.94843504 19083.36772320
0.10500000 999950.33864785 19079.05335906
0.10600001 990221.13895448 19071.66003365
0.10700001 980522.72397250 17472.91576342
0.10800001 970851.70611556 17460.76875622
0.10900001 961213.24400511 20618.02505431
0.11000001 951608.18924557 25350.84335475
0.11100001 942036.93299286 26904.57607276
0.11200001 932503.23210761 15805.93052832
0.11300001 923006.01495144 18940.08431852
0.11400001 913549.46569860 18910.47483035
0.11500001 904134.30381748 18878.32515265
0.11600001 894761.53844407 18843.67888701
0.11700001 885433.36806992 18806.60562350
0.11800001 876149.38889374 21894.97425967
0.11900001 866912.32138519 18725.30702391
0.12000001 857722.94477862 17124.43939915
0.12100001 848584.22866339 24846.54738574
0.12200001 839495.57136472 20135.30222778
0.12300001 830459.61602021 21625.16942002
0.12400001 821475.64249300 15402.66902248
0.12500001 812545.63415040 16892.82452999
0.12600001 803672.27999008 16840.95342080
0.12700001 794854.56573723 19839.57089577
0.12800001 786093.66968950 24337.46116059
0.12900001 777391.79522199 18190.96886557
0.13000001 768749.04337974 18127.10329731
0.13100001 760165.31859067 24082.03842812
0.13200001 751642.46970284 16494.79477520
0.13300001 743182.64462872 19419.36341964
0.13400001 734783.85837118 17855.24860022
0.13500001 726449.90557444 16301.53664968
0.13600001 718178.07671556 22137.84025857
0.13700001 709972.27926688 20574.99762333
0.13800001 701829.61473173 19023.09260435
0.13900001 693754.63929271 18939.50254584
0.14000001 685745.17893445 14503.51121846
0.14100001 677802.39802311 21655.78763819
0.14200001 669926.44757225 14369.92297819
0.14300001 662119.59467460 15731.96231151
0.14400001 654377.72753381 19925.80274330
0.14500001 646706.66513226 15579.16429794
0.14600001 639103.33218211 16910.67496729
0.14700001 631571.07371972 16825.05419764
0.14800001 624104.90359158 15343.61977869
0.14900001 616709.72017529 16651.16323035
0.15000001 609383.41708549 19323.54906752
0.15100001 602127.33052372 17847.05491884
0.15200001 594941.63403712 17750.08448907
0.15300001 587826.88859675 19010.32247430
0.15400001 580779.64700657 16203.75291615
0.15500001 573804.21719083 21483.23090548
0.15600001 566896.25898604 13350.40752919
0.15700001 560062.42234703 14600.82803970
0.15800001 553294.53144104 19794.11279656
0.15900001 546598.84398030 13118.37287472
0.16000001 539970.86154839 13040.29692193
0.16100001 533415.34454037 16850.59152945
0.16200001 526928.29011117 15460.07676167
0.16300001 520509.79503747 19206.81234359
0.16400001 514161.26597028 15270.59032024
0.16500001 507880.72067814 15175.47665032
0.16600001 501670.22717120 12566.83978396
0.16700001 495526.19117780 19979.61697162
0.16800001 489449.97491690 12407.55744998
0.16900001 483443.50102861 13560.59084416
0.17000001 477503.08430688 13472.75015990
0.17100001 471629.50039798 18252.06252729
0.17200001 465822.88444175 13296.91486431
0.17300001 460082.81402394 14409.79441572
0.17400001 454408.80948006 15506.70135583
0.17500001 448799.68795481 15402.80601805
0.17600001 443254.00536612 15298.91271777
0.17700001 437775.20438630 11688.59850917
0.17800001 432358.61916663 15091.47831481
0.17900001 427006.14089927 11529.16634884
0.18000001 421716.76227585 12594.57170027
0.18100001 416491.42042843 13644.25957774
0.18200001 411325.46384891 13549.06141921
0.18300001 406222.30483093 13454.08337156
0.18400001 401179.25274283 12245.99726848
0.18500001 396198.16759591 17686.28703702
0.18600001 391275.42528554 14267.85905710
0.18700001 386411.56820174 13076.16808573
0.18800001 381606.43826653 14064.10594679
0.18900001 376861.04938070 13962.70253926
0.19000001 372168.95421075 11728.90514613
0.19100001 367538.48595773 13760.64156445
0.19200001 362960.82527827 13660.03130480
0.19300001 358441.31191822 12516.77120363
0.19400001 353974.46634778 13459.87971891
0.19500001 349562.93876071 11304.86597373
0.19600001 345204.95282264 12240.96820555
0.19700001 340900.02740701 17212.04319718
0.19800001 336647.73984621 11053.82906024
0.19900001 332447.69544145 13962.80386842
0.20000001 328297.14890619 18806.50306391
0.20100001 324198.98622932 12770.19867112
0.20200001 320148.95998064 14622.80443824
0.20300001 316150.00691005 12576.44786930
0.20400001 312198.65766615 9600.10917699
0.20500001 308295.28226087 10478.95713935
0.20600001 304439.58669104 10398.13457493
0.20700001 300630.87934242 10317.65226674
0.20800001 296866.68989509 9306.77116814
0.20900001 293150.55849087 13851.36454347
0.21000001 289477.27470310 9161.95617746
0.21100001 285849.25447574 9090.00672204
0.21200001 282263.97407567 14429.33503689
0.21300001 278721.26302669 14315.12474581
0.21400001 275222.05516923 11538.68520848
0.21500001 271765.31584442 9685.71631461
0.21600001 268348.61070077 13975.59630604
0.21700001 264972.66215014 11263.98840056
0.21800001 261637.29575960 8594.78557207
0.21900001 258340.20080651 8525.22702970
0.22000001 255081.59348769 11838.33731351
0.22100001 251863.15274814 9225.74772139
0.22200001 248682.31882674 9982.10874970
0.22300001 245537.22994639 13200.08210609
0.22400001 242427.95641283 8181.94391583
0.22500001 239358.04528534 8925.66193076
0.22600001 236321.21574146 9656.08533182
0.22700001 233321.54546120 9575.51667855
0.22800001 230354.55017604 7912.67917274
0.22900001 227421.25730278 9415.24049759
0.23000001 224522.68408969 10891.59592027
0.23100001 221657.69268683 8485.05687733
0.23200001 218823.37239079 11471.81584013
0.23300001 216022.28995011 17439.48029246
0.23400001 213253.19758743 8268.89312753
0.23500001 210513.20492912 7452.16780695
0.23600001 207805.81903780 8126.24693782
0.23700001 205127.74138732 9519.97892806
0.23800001 202479.96778634 7258.90718848
0.23900001 199860.85807545 12231.48509276
0.24000001 197270.79046140 7844.47335374
0.24100001 194710.52903826 7067.99253841
0.24200001 192177.37155678 7705.35207705
0.24300001 189672.44706495 7636.21308005
0.24400001 187194.61469263 8255.28289845
0.24500001 184743.51192507 7498.73950376
0.24600001 182319.66803640 6754.94402029
0.24700001 179921.90623854 8031.71427444
0.24800001 177550.06556834 7294.64478896
0.24900001 175203.01085988 7227.12453987
0.25000001 172882.43036272 7810.82857330
0.25100001 170585.28780254 7092.93660239
0.25200001 168314.42642679 9581.29917763
0.25300001 166067.77307143 8858.05543471
0.25400001 163844.62178947 8773.87991193
0.25500001 161644.77015518 7448.59136116
0.25600001 159469.06741914 8606.54597581
0.25700001 157315.77384258 8523.36903006
0.25800001 155186.24371326 7234.78302422
0.25900001 153079.17605269 8955.13222279
0.26000001 150994.26971371 7093.71112679
0.26100001 148931.12701739 7608.89163934
0.26200001 146890.54188100 9851.21465738
0.26300001 144870.81358198 6884.26138716
0.26400001 142873.16152042 6247.12928308
0.26500001 140896.88040545 5621.78579419
0.26600001 138940.59334691 7790.39943760
0.26700001 137006.18918229 9913.76831835
0.26800001 135092.83400519 7086.29494307
0.26900001 133198.21504301 6473.43355742
0.27000001 131324.89866567 5872.19312172
0.27100001 129471.17095242 5810.66642732
0.27200001 127638.76617300 5749.48849435
0.27300001 125824.91550863 6205.68512656
0.27400001 124028.79956598 6139.42586906
0.27500001 122254.91711117 7085.89533111
0.27600001 120498.08190903 8010.71286443
0.27700001 118761.63632212 5447.59651591
0.27800001 117043.10492686 4898.25417301
0.27900001 115344.71172205 6297.82155809
0.28000001 113663.21298093 5269.99511928
0.28100001 112001.06074723 4737.64509384
0.28200001 110357.75387284 5153.15556099
0.28300001 108732.27155111 6021.59348350
0.28400001 107124.58329941 5953.44899865
0.28500001 105535.19832366 4527.46022238
0.28600001 103963.45535946 4475.62696506
0.28700001 102409.62240908 4866.50548722
0.28800001 100872.45026993 4372.82092618
0.28900001 99354.82462013  4321.93507555
0.29000001 97852.83031207  5552.65911889
0.29100001 96369.20384280  5487.26272655
0.29200001 94902.41396513  5422.24967856
0.29300001 93452.86075850  4945.52562544
0.29400001 92019.79427333  4479.06369828
0.29500001 90604.65839246  4022.84702305
0.29600001 89205.67110680  4768.93540312
0.29700001 87823.22174724  5103.40765732
0.29800001 86457.33072597  4265.37261328
0.29900001 85108.93218871  4595.88255576
0.30000001 83776.12930935  4538.99090085
0.30100001 82460.74223067  4856.11333985
0.30200001 81160.09896005  4057.59933960
0.30300001 79876.87175475  3642.38552445
0.30400001 78609.65305926  5394.58769658
0.30500001 77358.04392177  3905.80782252
0.30600001 76121.94717154  3855.95741653
0.30700001 74902.59699493  4152.60017400
0.30800001 73698.74765109  4782.31196149
0.30900001 72510.58208937  6406.31023090
0.31000001 71338.41169656  4991.90559481
0.31100001 70180.75054860  3941.35113741
0.31200001 69039.27707206  3565.53363320
0.31300001 67912.67809262  3518.55601857
0.31400001 66802.56081748  4734.63172211
0.31500001 65706.48103066  3114.48734832
0.31600002 64626.08400870  3380.26748412
0.31700002 63560.54396355  4244.57332686
0.31800002 62510.04441216  3290.21634342
0.31900002 61474.43749889  3540.92776760
0.32000002 60454.14933999  4075.21439997
0.32100002 59447.65098299  4306.98251765
0.32200002 58457.09193313  3965.14473358
0.32300002 57479.25562414  3910.88873785
0.32400002 56516.51012337  3581.73399867
0.32500002 55568.14436807  4075.92358240
0.32600002 54634.69390778  2679.83186307
0.32700002 53714.50817868  3171.30471304
0.32800002 52809.23520897  2606.13588097
0.32900002 51917.33005956  3340.88034753
0.33000002 51040.44857891  4308.06926631
0.33100002 50174.82681270  2748.57714296
0.33200002 49325.81961235  3202.97224820
0.33300002 48488.96418706  3643.94583122
0.33400002 47666.45043023  3353.33494657
0.33500002 46855.96784886  2597.69498056
0.33600002 46060.16503147  3026.84388838
0.33700002 45276.25462922  2754.60746209
0.33800002 44506.88042219  2942.12746964
0.33900002 43749.16801525  2900.56997678
0.34000002 43005.13834491  3959.48327493
0.34100002 42273.74544064  2168.64324381
0.34200002 41555.55746415  3420.85365246
0.34300002 40848.63384544  2740.12648812
0.34400002 40155.92650584  2078.06929509
0.34500002 39474.44001495  2253.59588718
0.34600002 38806.41743960  2625.83636041
0.34700002 38148.73054813  3186.18212628
0.34800002 37504.67966322  2748.71810270
0.34900002 36871.80518211  1935.76986374
0.35000002 36250.91077754  2481.19370568
0.35100002 35642.39598171  2070.11045666
0.35200002 35044.09255433  2041.14326750
0.35300002 34457.77407116  2012.67867882
0.35400002 33883.19155155  2165.13604269
0.35500002 33320.08708262  2135.15128138
0.35600002 32766.85976606  2281.06505066
0.35700002 32225.11201660  2768.78175561
0.35800002 31695.15484089  2218.81941973
0.35900002 31175.48874290  1851.82411904
0.36000002 30666.73596438  1826.66421424
0.36100002 30167.69434082  2620.96940848
0.36200002 29680.36504054  2100.92473891
0.36300002 29202.13184091  1594.43647404
0.36400002 28734.30446106  1573.20324376
0.36500002 28276.24379762  2639.02195864
0.36600002 27828.62087541  1685.16221693
0.36700002 27389.99333022  1965.50601448
0.36800002 26962.86147714  1641.63389880
0.36900002 26543.99731607  1620.51111291
0.37000002 26134.35986778  2181.56579330
0.37100002 25733.63931461  2153.90571266
0.37200002 25343.44052902  2126.94834715
0.37300002 24961.29762365  1400.32886302
0.37400002 24588.32194595  1936.33044497
0.37500002 24224.42193549  2049.38619282
0.37600002 23869.49168509  1754.76576436
0.37700002 23522.48123491  1467.09722412
0.37800002 23183.81844075  1449.80015487
0.37900002 22854.28665823  1432.96384135
0.38000002 22532.68974801  1416.51760811
0.38100002 22218.20369732  1400.41344538
0.38200002 21912.89127824  1762.45392900
0.38300002 21614.35959842  1369.48588903
0.38400002 21324.69703033  1354.65144303
0.38500002 21041.07012548  1340.10581978
0.38600002 20766.55037428  1567.14779824
0.38700002 20498.29592784  1312.30096747
0.38800002 20237.60239750  1298.95057142
0.38900002 19983.43737519  1285.93425602
0.39000002 19737.52798714  1273.36667842
0.39100002 19497.13525860  1261.07476827
0.39200002 19264.24877217  2271.25503784
0.39300002 19037.50571357  1687.67496146
0.39400002 18818.70683226  1338.01011916
0.39500002 18605.06019368  2099.76719294
0.39600002 18397.68351336  1205.14031564
0.39700002 18196.58749037  1194.96995711
0.39800002 18001.79369090  1292.88888414
0.39900002 17812.52083555  1282.50156092
0.40000002 17629.04334652  1378.50310979
0.40100002 17451.59313759  1473.26356248
0.40200002 17280.15714893  1253.50265897
0.40300002 17113.31911716  1140.77390640
0.40400002 16952.45445769  1338.82015423
0.40500002 16796.96868688  1329.81607395
0.40600002 16646.36510230  1117.88670141
0.40700002 16501.02601070  1312.82169161
0.40800002 16360.76724762  1304.85305366
0.40900002 16225.13988791  1097.63076542
0.41000002 16094.67358609  1289.90767568
0.41100002 15968.50258799  1282.90955871
0.41200002 15846.75153923  1276.21819568
0.41300002 15730.05754454  1269.88760574
0.41400002 15617.31868074  1263.83157412
0.41500002 15509.17864937  967.77279358
0.41600002 15404.39693871  963.54507417
0.41700002 15304.32679270  959.58133537
0.41800002 15209.04160470  1242.65480319
0.41900002 15115.74665473  1237.97970968
0.42000002 15027.63153794  1043.89447425
0.42100002 14943.37256578  1229.69018671
0.42200002 14862.78958962  1037.34844856
0.42300002 14785.00899464  1034.35927828
0.42400002 14710.89673866  1125.38365383
0.42500002 14640.32525287  1029.06851079
0.42600002 14572.31130832  1400.03487529
0.42700002 14508.69574661  1117.74997329
0.42800002 14447.33181666  1022.65443110
0.42900002 14390.16621324  1392.24864711
0.43000002 14335.31016205  1204.81119966
0.43100002 14282.40052601  1110.59951753
0.43200002 14233.50542236  1386.69933149
0.43300002 14187.12445134  1015.94003010
0.43400002 14143.40458804  922.85719310
0.43500002 14102.07082724  1198.95811855
0.43600002 14063.56005291  1474.98624825
0.43700002 14027.04634660  1105.89238637
0.43800002 13992.68553272  1197.84390179
0.43900002 13961.54156394  1105.75414427
0.44000002 13932.02845172  1105.92447091
0.44100002 13905.03043183  1475.04569811
0.44200002 13880.04082063  1475.72600998
0.44300002 13857.03703313  1107.45445217
0.44400002 13836.33737597  1385.36334542
0.44500002 13816.44868955  1109.18455336
0.44600002 13798.71828114  1110.24492552
0.44700002 13783.98675776  926.28395402
0.44800002 13769.15994965  1020.08826321
0.44900002 13757.92708386  1021.52613439
0.45000002 13747.57562438  930.02353507
0.45100002 13738.43856309  1583.49250383
0.45200002 13731.14665119  1119.63775100
0.45300002 13724.80831302  1028.12543945
0.45400002 13720.41405588  1217.34379480
0.45500002 13717.32495968  1032.09157888
0.45600002 13715.33762929  1222.24237076
0.45700002 13714.72081454  1413.30204692
0.45800002 13714.91923588  1133.12668097
0.45900002 13716.28476225  1514.27790952
0.46000002 13719.65492167  1423.07127420
0.46100002 13722.75502127  1331.38175526
0.46200002 13727.97072575  1430.11141813
0.46300002 13733.90381866  955.87975108
0.46400002 13740.18143214  1245.89101041
0.46500002 13747.77345440  1153.16329201
0.46600002 13756.06747819  1156.33508702
0.46700002 13764.65595509  1352.79045138
0.46800002 13775.19080664  1065.99319110
0.46900002 13785.33785852  971.86636509
0.47000002 13796.46251692  1364.60817223
0.47100002 13808.29390650  1270.91543139
0.47200002 13820.89334656  1176.71091530
0.47300002 13834.12727527  983.60649589
0.47400002 13847.09687101  986.60569882
0.47500002 13861.03836271  1187.61382321
0.47600002 13876.02505646  992.82963985
0.47700002 13890.44735475  995.94512254
