# SAXS profile: number of points = 501, q_min = 0, q_max = 0.5, delta_q = 0.001
#    q    intensity    error
0.00000000 1700912.83420644 331.67800267
0.00100000 1700824.41428999 714.34627097
0.00200000 1700559.11929464 918.30195350
0.00300000 1700117.17246626 1020.07033982
0.00400000 1699498.44897798 1784.47343923
0.00500000 1698703.61416160 1528.83331326
0.00600000 1697732.50460355 1782.61920241
0.00700000 1696585.89595507 2850.26442366
0.00800000 1695263.54911355 2975.18765431
0.00900000 1693766.90796164 2794.71551760
0.01000000 1692095.36723409 3629.54471944
0.01100000 1690250.53922849 3955.18643400
0.01200000 1688232.29884051 3621.25843978
0.01300000 1686042.03200624 3894.75726571
0.01400000 1683679.93717757 4545.93603191
0.01500000 1681147.47622167 7666.03283293
0.01600000 1678444.52523939 5136.04047683
0.01700000 1675573.21457105 6786.07182343
0.01800000 1672534.05840100 4766.72228093
0.01900000 1669328.01678249 6009.58113158
0.02000000 1665955.88812684 6822.08967048
0.02100000 1662420.54854685 5485.98805893
0.02200000 1658720.50545848 6867.10320459
0.02300000 1654859.07529764 5957.49294225
0.02400000 1650836.76998025 7428.76580364
0.02500000 1646655.96237783 7706.35025588
0.02600000 1642317.23912880 9311.93917177
0.02700000 1637822.35056982 8254.62502494
0.02800000 1633172.03430542 7104.29867503
0.02900000 1628369.57848556 8793.19612755
0.03000000 1623415.61778924 8303.77126668
0.03100000 1618311.85518759 8544.68698856
0.03200000 1613059.45397510 9581.57359792
0.03300000 1607662.72863398 12298.62044102
0.03400000 1602120.27832816 13457.81095891
0.03500000 1596435.94050402 11206.98081986
0.03600000 1590610.57991718 13241.83368977
0.03700000 1584647.45635366 12645.48728652
0.03800000 1578547.79373320 10157.95552278
0.03900000 1572314.26342810 11320.66322094
0.04000000 1565947.23707494 10593.63354971
0.04100000 1559450.55094630 10806.99281914
0.04200000 1552826.08129330 13020.44729570
0.04300000 1546075.57401759 12244.91911460
0.04400000 1539201.51801889 10389.61072914
0.04500000 1532206.87640206 10572.22793841
0.04600000 1525092.06759080 16127.84936451
0.04700000 1517861.20079464 12021.46126939
0.04800000 1510515.83030772 13322.75024320
0.04900000 1503058.93499640 12400.23679092
0.05000000 1495491.96042650 16016.71964200
0.05100000 1487819.29850792 18567.98571035
0.05200000 1480040.04009971 15296.21452725
0.05300000 1472159.58369012 16694.29045730
0.05400000 1464178.96674809 15703.32015068
0.05500000 1456102.18368857 17123.76247899
0.05600000 1447929.37783526 13617.77643400
0.05700000 1439666.54664167 15030.11944852
0.05800000 1431312.35212906 19000.67236170
0.05900000 1422871.25659719 14086.42609823
0.06000000 1414346.68867489 12941.27280598
0.06100000 1405740.45609185 22224.75764941
0.06200000 1397055.00037842 15842.60444483
0.06300000 1388294.00515211 15993.14768712
0.06400000 1379456.85023416 17484.61639442
0.06500000 1370549.77832700 13568.44344014
0.06600000 1361574.36398531 16420.58759796
0.06700000 1352532.01946932 19314.15814190
0.06800000 1343426.63338189 13904.46630636
0.06900000 1334262.19858449 18212.67986338
0.07000000 1325037.92875477 18345.15098269
0.07100000 1315758.49006958 15631.21159416
0.07200000 1306425.96081372 14305.36494107
0.07300000 1297043.76788697 18716.34244757
0.07400000 1287615.01294067 17382.80348933
0.07500000 1278140.13877590 20399.11757102
0.07600000 1268622.84661270 17583.11347836
0.07700000 1259066.67136426 20623.51304395
0.07800000 1249473.12944366 14806.25727826
0.07900000 1239843.62844238 19341.56151089
0.08000000 1230183.90181525 16441.40861904
0.08100000 1220495.05182175 16513.29882592
0.08200000 1210777.81749419 18089.02144219
0.08300000 1201036.35115508 16646.36460826
0.08400000 1191273.30343613 15188.73533175
0.08500000 1181490.86727421 22861.84935501
0.08600000 1171691.45901455 19877.74653547
0.08700000 1161877.69403705 21471.50079406
0.08800000 1152050.61085637 19993.83929040
0.08900000 1142214.42328840 16961.88498253
0.09000000 1132371.12947373 18548.23997209
0.09100000 1122522.55399231 26334.38035388
0.09200000 1112670.52879344 15521.75460598
0.09300000 1102819.62949453 17104.73325725
0.09400000 1092968.13380651 18689.75596646
0.09500000 1083121.07533671 17156.63863974
0.09600000 1073279.66000622 15616.21978717
0.09700000 1063449.10515225 23449.05387101
0.09800000 1053627.28714259 18775.63913967
0.09900000 1043819.69709107 18788.75543113
0.10000000 1034024.76219610 20365.11864917
0.10100000 1024246.67948629 20372.26741313
0.10200000 1014487.97917668 21943.37602173
0.10300000 1004749.13203845 26645.94823510
0.10400000 995032.95077604 20373.30062560
0.10500000 985343.60716503 18800.35690925
0.10600001 975676.83065805 20357.49802957
0.10700001 966041.02603072 21909.81150140
0.10800001 956433.11776288 15637.68221136
0.10900001 946858.16521968 17185.47650758
0.11000001 937316.75305462 15606.32467294
0.11100001 927809.49934695 21822.08045188
0.11200001 918339.99378701 23348.79544123
0.11300001 908907.37109829 15542.31677753
0.11400001 899515.71848392 21723.30562422
0.11500001 890165.38582716 21684.42981983
0.11600001 880858.09999345 20096.77849774
0.11700001 871595.52838785 16969.96573691
0.11800001 862377.36140303 18472.12395126
0.11900001 853206.35511273 15357.71511540
0.12000001 844083.29532023 22980.16879757
0.12100001 835011.02777041 21392.98353926
0.12200001 825989.20439847 16763.45169301
0.12300001 817020.12458603 15196.57503328
0.12400001 808103.45571704 19697.52266120
0.12500001 799240.81418072 18126.78251976
0.12600001 790435.09506453 19575.12605172
0.12700001 781685.04536878 15008.35357837
0.12800001 772992.05588536 19444.61608221
0.12900001 764358.40371679 17885.98748998
0.13000001 755783.83747840 14851.15310646
0.13100001 747268.64194045 20714.28773101
0.13200001 738814.45494879 25056.89342078
0.13300001 730423.34631100 19085.96293888
0.13400001 722093.45530543 16084.63247525
0.13500001 713828.48556923 17474.52215063
0.13600001 705625.96120669 18850.79844247
0.13700001 697489.35078406 21657.04536305
0.13800001 689416.21605098 14374.32878249
0.13900001 681410.73026710 18602.51381355
0.14000001 673470.83758275 15668.29977529
0.14100001 665597.84452030 18430.40518400
0.14200001 657791.73357077 16931.56002069
0.14300001 650054.70722478 16849.41880601
0.14400001 642382.78195646 23752.10448322
0.14500001 634781.89403055 19462.41378906
0.14600001 627248.71909381 15213.91839933
0.14700001 619786.64036254 16511.11687820
0.14800001 612390.70111687 19161.70594197
0.14900001 605065.88265233 13613.98300200
0.15000001 597809.97221675 20310.59476438
0.15100001 590624.21304798 17506.10250077
0.15200001 583509.00725359 18748.14528773
0.15300001 576464.59509451 15979.59933008
0.15400001 569487.86423350 19860.89020240
0.15500001 562582.93338504 17113.77364122
0.15600001 555745.54821163 18322.93158929
0.15700001 548982.16947503 14311.96583369
0.15800001 542284.73699188 14226.84074647
0.15900001 535659.71799673 17998.16737421
0.16000001 529102.18146374 14055.60011404
0.16100001 522617.03519110 15239.51346554
0.16200001 516200.45391571 15145.32203284
0.16300001 509852.48219805 13796.60881959
0.16400001 503574.30635262 17448.85053887
0.16500001 497364.19201928 14861.24275916
0.16600001 491223.92817442 15996.70797625
0.16700001 485150.21365470 17116.10034587
0.16800001 479143.96613864 17004.82016117
0.16900001 473207.80254261 15686.83939499
0.17000001 467337.43043461 13185.92622235
0.17100001 461533.82431942 15479.84519865
0.17200001 455797.31800188 13010.73505677
0.17300001 450127.04039108 12923.14793992
0.17400001 444522.58952736 14002.46223139
0.17500001 438983.28173771 12748.07510372
0.17600001 433507.23101464 13811.54103243
0.17700001 428097.86191797 14859.27748899
0.17800001 422750.73330977 12485.94349804
0.17900001 417467.49327697 14653.10970614
0.18000001 412247.39570815 14550.27251880
0.18100001 407091.08524293 14447.66329773
0.18200001 401994.03987211 14345.15799047
0.18300001 396959.52187007 12051.69165329
0.18400001 391985.26920961 16316.38760165
0.18500001 387072.55331510 10799.32474767
0.18600001 382218.28771109 13937.59051984
0.18700001 377422.61822990 11707.65017062
0.18800001 372685.57486807 16905.01847471
0.18900001 368008.03835130 14683.52142398
0.19000001 363383.91162130 13534.23442781
0.19100001 358820.96929041 10334.04440385
0.19200001 354310.78464639 12308.75724022
0.19300001 349858.57615884 10180.88504730
0.19400001 345458.83281320 11115.13847100
0.19500001 341114.21578840 13037.38594352
0.19600001 336822.98466506 17915.61540096
0.19700001 332584.65349209 11853.31761062
0.19800001 328398.64355811 13723.77996286
0.19900001 324264.87103848 10700.74124999
0.20000001 320180.21574941 10618.77735718
0.20100001 316147.87379258 15326.84964585
0.20200001 312163.40398443 10455.91371064
0.20300001 308229.92237924 15090.93771296
0.20400001 304343.76356146 10294.42828904
0.20500001 300505.21175127 10214.17263022
0.20600001 296714.20528437 9212.97650956
0.20700001 292970.00861050 11882.86411093
0.20800001 289270.20491344 9068.62135271
0.20900001 285617.96167060 8996.96621792
0.21000001 282008.69682399 12495.80594698
0.21100001 278444.14700029 11510.88158115
0.21200001 274922.34118908 8783.76921624
0.21300001 271442.77256607 12198.63877582
0.21400001 268006.46958928 10371.85086345
0.21500001 264612.33530587 14574.84811771
0.21600001 261258.03529112 9354.34439586
0.21700001 257944.16127811 9278.25191985
0.21800001 254670.70091215 9202.52621256
0.21900001 251435.26629879 9127.10059819
0.22000001 248238.08385893 13166.54859043
0.22100001 245080.77613350 9793.42827736
0.22200001 241960.73555530 8093.58698703
0.22300001 238876.31079747 8828.86886455
0.22400001 235827.43927501 11142.84703265
0.22500001 232817.52224965 8681.76581523
0.22600001 229840.42162410 8608.67339902
0.22700001 226900.16145474 9311.98306646
0.22800001 223992.59175475 10002.38965782
0.22900001 221118.22517346 9917.15286802
0.23000001 218278.19835168 9076.00791668
0.23100001 215471.64747992 11247.62053038
0.23200001 212695.57207457 8177.08165513
0.23300001 209952.16410412 8106.25343944
0.23400001 207240.62833171 10227.32549187
0.23500001 204557.99629384 7965.48875242
0.23600001 201907.50407148 9331.15574200
0.23700001 199286.08708927 9960.31910382
0.23800001 196694.68627485 7756.65532013
0.23900001 194131.67355819 9085.36275226
0.24000001 191597.42275427 7618.87187620
0.24100001 189092.60555854 11668.90524097
0.24200001 186614.71171414 6802.10656373
0.24300001 184164.64041006 8088.51138942
0.24400001 181741.33590999 7346.89385170
0.24500001 179344.57496919 7279.59664236
0.24600001 176974.58632443 6556.90873350
0.24700001 174630.59892278 6496.25858724
0.24800001 172312.07832041 7079.44207270
0.24900001 170017.99901686 7013.24279122
0.25000001 167750.18757093 8210.53331908
0.25100001 165505.53063327 6881.72028930
0.25200001 163286.72960953 13013.13653188
0.25300001 161091.91349718 7978.88285300
0.25400001 158920.20853049 7294.43791666
0.25500001 156771.60487030 6622.03290302
0.25600001 154646.83774237 8346.29022784
0.25700001 152543.93747094 8855.17598916
0.25800001 150464.65869974 5845.55226706
0.25900001 148407.56295163 9839.42188924
0.26000001 146372.26506687 5730.47444851
0.26100001 144358.38188392 6240.61314412
0.26200001 142366.72317023 7862.91449274
0.26300001 140395.72028215 6115.63786487
0.26400001 138446.21060890 6053.56084532
0.26500001 136517.99993919 7081.18899192
0.26600001 134609.35497775 7547.54689075
0.26700001 132722.34797631 5335.43864112
0.26800001 130856.04322633 7392.05823165
0.26900001 129008.16871586 8882.21283641
0.27000001 127181.27772192 7754.87877607
0.27100001 125373.55758617 6138.28966990
0.27200001 123586.88166403 5566.97134800
0.27300001 121818.43225535 8010.78048422
0.27400001 120067.45266902 4952.78265699
0.27500001 118338.39508185 5879.05174589
0.27600001 116626.05517009 4845.81282165
0.27700001 114933.64993530 7668.37348660
0.27800001 113258.94711025 6635.84202525
0.27900001 111604.08060423 5624.84592866
0.28000001 109965.78025276 4635.05785702
0.28100001 108346.45579734 5041.36082685
0.28200001 106745.76671108 4984.49381249
0.28300001 105162.50520194 4479.92293364
0.28400001 103596.61384545 4428.75545151
0.28500001 102048.86679709 7004.63454849
0.28600001 100518.32007799 5192.77666101
0.28700001 99005.49905054  4704.74153757
0.28800001 97508.93915122  6763.22033965
0.28900001 96031.59411279  4595.11199580
0.29000001 94569.54990462  7843.12599259
0.29100001 93125.53601861  4894.67840483
0.29200001 91698.20155664  4836.16337902
0.29300001 90287.62858529  5176.18999181
0.29400001 88893.23034668  4326.87819194
0.29500001 87516.53327464  5051.45453973
0.29600001 86155.66622891  5373.52915707
0.29700001 84810.90434645  4928.36188487
0.29800001 83482.59170684  5241.87218142
0.29900001 82171.23054271  4437.24665936
0.30000001 80875.25520565  3651.51794540
0.30100001 79596.44244451  5769.15042149
0.30200001 78331.90103516  4272.22208471
0.30300001 77084.60862256  4218.06998351
0.30400001 75853.07865831  4164.33421549
0.30500001 74636.76817501  3768.41060356
0.30600001 73435.60739583  5072.56482102
0.30700001 72250.95141152  4005.59293589
0.30800001 71081.36375503  4283.00777583
0.30900001 69927.35460301  3901.94657158
0.31000001 68788.93259681  3529.90424333
0.31100001 67664.75903522  4750.06630917
0.31200001 66556.45168843  3437.30811019
0.31300001 65462.68892292  3391.62207368
0.31400001 64385.00782182  3650.63011634
0.31500001 63321.30558719  3301.57302964
0.31600002 62272.86250236  3553.28970262
0.31700002 61239.04805823  3213.21300375
0.31800002 60219.89066987  4034.13066699
0.31900002 59215.32394716  3979.26995766
0.32000002 58225.81842223  3083.93061876
0.32100002 57249.85562803  3594.71860509
0.32200002 56289.43579664  2727.22329348
0.32300002 55341.70605861  3227.52845016
0.32400002 54408.49291720  3713.37981743
0.32500002 53489.42432583  3661.88616274
0.32600002 52585.03236593  2579.29595968
0.32700002 51693.60399670  3051.99052448
0.32800002 50816.92241074  2758.59676370
0.32900002 49953.25556197  3461.76077437
0.33000002 49104.28000237  3169.43590284
0.33100002 48266.24452012  3605.48863639
0.33200002 47444.71989418  2369.86387094
0.33300002 46635.02553606  2803.69786800
0.33400002 45839.23674188  2764.10610643
0.33500002 45055.41164823  2497.87214007
0.33600002 44285.87509563  2238.65109210
0.33700002 43528.00563350  3089.61798618
0.33800002 42784.25501941  3045.81125907
0.33900002 42052.16896351  2359.12679058
0.34000002 41333.32911081  2959.87983780
0.34100002 40626.91278510  2084.16072458
0.34200002 39933.38114093  2465.48706840
0.34300002 39250.92417967  2227.88256195
0.34400002 38582.31219757  2595.62517602
0.34500002 37924.84464662  2361.95943645
0.34600002 37280.51252204  1940.45076867
0.34700002 36646.25810819  2104.22824023
0.34800002 36025.31042511  1885.92509007
0.34900002 35415.36928497  2045.23767307
0.35000002 34817.07474226  1833.11907200
0.35100002 34231.08919525  2530.36223316
0.35200002 33654.82829865  2851.23718850
0.35300002 33090.48081933  2459.94646062
0.35400002 32537.54653461  2252.41176554
0.35500002 31995.82098282  1879.43461355
0.35600002 31463.76261190  2021.86148120
0.35700002 30943.05993879  2824.79207561
0.35800002 30433.85792038  1966.63599196
0.35900002 29934.59738420  1939.76200237
0.36000002 29446.07502722  1913.40604590
0.36100002 28967.13579627  1572.91554824
0.36200002 28499.53550992  2017.33971662
0.36300002 28040.85290528  1990.33983349
0.36400002 27592.33005998  1661.74815657
0.36500002 27153.45147719  2087.01437939
0.36600002 26724.66358340  2059.66991994
0.36700002 26304.67129406  1742.42150905
0.36800002 25895.97607763  2150.01351569
0.36900002 25495.33043019  1556.48999649
0.37000002 25103.69034320  2374.93473742
0.37100002 24720.71043222  1655.29884895
0.37200002 24348.00288377  2179.63332140
0.37300002 23983.31619997  1480.01051281
0.37400002 23627.45248439  1461.94869173
0.37500002 23280.50106825  1444.32235469
0.37600002 22942.33289202  1556.86678380
0.37700002 22611.85212827  1666.71969933
0.37800002 22289.41640118  1393.86872068
0.37900002 21975.93267368  1503.15386609
0.38000002 21670.31777052  1486.15046311
0.38100002 21371.58278518  1591.96927708
0.38200002 21081.76839136  1453.37718175
0.38300002 20798.55535847  1197.99684540
0.38400002 20523.99423811  1185.26072340
0.38500002 20255.31063235  1641.89555764
0.38600002 19995.39836949  1973.24598158
0.38700002 19741.85091963  1148.97577796
0.38800002 19495.44760775  1137.55942180
0.38900002 19255.50356694  1577.02581685
0.39000002 19023.50962366  1785.16622766
0.39100002 18797.00161816  1215.79012226
0.39200002 18577.73028293  1971.28305371
0.39300002 18364.53588833  1410.94735915
0.39400002 18158.88983789  1398.68855603
0.39500002 17958.35693723  1173.39909787
0.39600002 17763.87624766  1269.40665680
0.39700002 17575.52264310  1468.96225211
0.39800002 17393.35170377  1457.38900831
0.39900002 17216.50263471  1136.28922773
0.40000002 17045.20589229  1332.84993790
0.40100002 16879.87221743  1221.42761152
0.40200002 16720.31627350  1516.11474993
0.40300002 16565.22084520  1104.23767386
0.40400002 16415.92090917  1495.90086372
0.40500002 16271.90120094  1585.53412814
0.40600002 16132.58837117  1280.36293674
0.40700002 15998.32413244  1077.00723163
0.40800002 15869.03553416  1070.92191376
0.40900002 15744.15539304  1646.05152433
0.41000002 15624.32422750  963.23963427
0.41100002 15508.69679214  1341.81251003
0.41200002 15397.28880467  1049.24829531
0.41300002 15290.82090828  1139.47202808
0.41400002 15188.09670425  1134.55087757
0.41500002 15089.85892741  1035.76796586
0.41600002 14994.93300704  1313.10634565
0.41700002 14904.44060029  1121.41016390
0.41800002 14818.70809391  1024.49143262
0.41900002 14734.74339461  1113.94665342
0.42000002 14655.73061375  1018.06037532
0.42100002 14580.66719498  1199.84316033
0.42200002 14509.01592230  1012.65681428
0.42300002 14440.07014701  1010.22735536
0.42400002 14374.63193964  1099.65939549
0.42500002 14312.68667187  1280.41301034
0.42600002 14253.07196160  1186.78209312
0.42700002 14197.84341795  1002.65174969
0.42800002 14144.59762838  1365.30735078
0.42900002 14095.54166836  909.16248069
0.43000002 14048.63484905  1089.89314324
0.43100002 14003.52028123  1088.91378867
0.43200002 13962.33945985  997.53938998
0.43300002 13923.61092134  1178.35524811
0.43400002 13887.29447602  1449.83361200
0.43500002 13853.34946935  1359.01364734
0.43600002 13822.07606563  996.64084194
0.43700002 13792.71073129  1087.41736559
0.43800002 13765.41817860  1178.38867902
0.43900002 13741.17462781  1178.99283894
0.44000002 13718.48580193  1088.97345456
0.44100002 13698.17748942  999.00813165
0.44200002 13679.75201493  1090.82347737
0.44300002 13663.33635146  1546.96301502
0.44400002 13648.99984436  1184.39201762
0.44500002 13635.43479834  1185.87382061
0.44600002 13623.95086030  1278.88032786
0.44700002 13615.30562324  1555.41258811
0.44800002 13606.49866800  1099.67727446
0.44900002 13601.25115259  1009.89294594
0.45000002 13596.65057028  1103.77614561
0.45100002 13593.20939387  1013.78160464
0.45200002 13591.57082609  1015.90200954
0.45300002 13590.83299845  1295.75007948
0.45400002 13591.95360253  1484.24140374
0.45500002 13594.21653802  1208.79779185
0.45600002 13597.51966939  1211.74302277
0.45700002 13602.09044591  1214.80275530
0.45800002 13607.42062714  1405.30643187
0.45900002 13613.86294315  1315.09922264
0.46000002 13622.17186951  1412.95984413
0.46100002 13630.26494321  1039.03514587
0.46200002 13640.21472962  1420.96943680
0.46300002 13650.91502986  1140.12447733
0.46400002 13661.83657725  1238.78709036
0.46500002 13673.98681396  1146.97406832
0.46600002 13686.82463964  1629.89558946
0.46700002 13699.88017197  1827.29010394
0.46800002 13714.73714237  1061.31498406
0.46900002 13729.20227393  1064.69968681
0.47000002 13744.53744428  1165.26193976
0.47100002 13760.60370364  1656.22634027
0.47200002 13777.23687839  1172.99400342
0.47300002 13794.47105946  1667.33779598
0.47400002 13811.40968210  1180.87558379
0.47500002 13829.28460262  1481.11645114
0.47600002 13848.02150990  1089.90858460
0.47700002 13866.25922517  994.21083357
