# SAXS profile: number of points = 501, q_min = 0, q_max = 0.5, delta_q = 0.001
#    q    intensity    error
0.00000000 1719190.39626458 309.45427133
0.00100000 1719101.61401624 825.16879432
0.00200000 1718835.22861824 1082.86622832
0.00300000 1718391.46508784 1237.24189894
0.00400000 1717770.20611262 1545.99324425
0.00500000 1716972.10190797 2163.38493403
0.00600000 1715997.00764531 1981.97662452
0.00700000 1714845.68827192 2675.15938488
0.00800000 1713517.88645042 2544.57416881
0.00900000 1712015.08280333 3338.42955418
0.01000000 1710336.66663963 3386.46674617
0.01100000 1708484.23880971 4612.90764563
0.01200000 1706457.63463282 3993.11104011
0.01300000 1704258.33747498 5010.51973316
0.01400000 1701886.43988066 5743.86698923
0.01500000 1699343.50006186 4894.10949811
0.01600000 1696629.34337602 5624.32652472
0.01700000 1693746.07867402 5487.73754108
0.01800000 1690694.23959163 6745.87031952
0.01900000 1687474.87874929 6581.15232408
0.02000000 1684088.65887036 6365.85541849
0.02100000 1680538.56307123 6100.35526053
0.02200000 1676822.97567127 6363.54348178
0.02300000 1672945.38729844 7829.38476894
0.02400000 1668906.13719795 6258.39829986
0.02500000 1664707.68174073 9089.30435742
0.02600000 1660350.60404263 7396.86227933
0.02700000 1655836.66030685 11822.67429608
0.02800000 1651166.63662351 7900.83271857
0.02900000 1646343.74493572 9631.11135008
0.03000000 1641368.63536776 9158.83740634
0.03100000 1636243.00516660 8639.36346480
0.03200000 1630968.04049535 12109.93825844
0.03300000 1625548.12503280 14093.50289375
0.03400000 1619981.74899562 9355.39503211
0.03500000 1614272.78515412 9588.78078661
0.03600000 1608422.17415156 9819.41782699
0.03700000 1602432.95831483 9133.86828481
0.03800000 1596306.69053810 9338.39457182
0.03900000 1590045.87972498 10494.30329218
0.04000000 1583650.78637710 10713.39806629
0.04100000 1577125.34510125 11923.06816180
0.04200000 1570471.61913401 13168.40513736
0.04300000 1563690.98162375 11352.39705354
0.04400000 1556786.17783728 10508.30718843
0.04500000 1549760.18093809 18178.68776707
0.04600000 1542613.37244852 11962.96725946
0.04700000 1535349.81677211 13265.42303386
0.04800000 1527971.06766838 13476.70544388
0.04900000 1520480.15862034 20526.48309683
0.05000000 1512878.58565432 15045.57823495
0.05100000 1505170.59910422 15262.43058590
0.05200000 1497355.38809686 11903.97589011
0.05300000 1489438.37375131 15683.78680675
0.05400000 1481420.54051739 13443.89203214
0.05500000 1473305.85819474 16088.50072200
0.05600000 1465094.67566038 16284.52807987
0.05700000 1456792.76449551 12674.09764272
0.05800000 1448398.84581773 17945.66253761
0.05900000 1439917.32931252 12959.25656909
0.06000000 1431351.84768625 19645.30502730
0.06100000 1422704.01011699 17200.49228612
0.06200000 1413976.41176885 14698.28548739
0.06300000 1405172.62947354 18885.52102312
0.06400000 1396292.12129943 17698.00346515
0.06500000 1387341.11091758 15108.14540462
0.06600000 1378321.06477402 15237.34008401
0.06700000 1369233.63305940 15362.80208189
0.06800000 1360082.50476123 16892.22549984
0.06900000 1350871.91885572 19857.81813690
0.07000000 1341600.56710126 14288.04670872
0.07100000 1332273.69125146 14388.55653944
0.07200000 1322893.22279564 17382.81776186
0.07300000 1313462.56379180 16037.37865534
0.07400000 1303984.67467282 14669.82827756
0.07500000 1294460.13253894 19183.90006342
0.07600000 1284892.57530314 26712.91789287
0.07700000 1275285.63180253 20889.17962839
0.07800000 1265640.71957599 20996.98052244
0.07900000 1255959.64256654 16578.66805948
0.08000000 1246247.51213319 16656.09878102
0.08100000 1236505.72434852 18250.82534768
0.08200000 1226735.28380666 16800.14050008
0.08300000 1216939.79281930 18400.13053098
0.08400000 1207122.25471913 20008.05231112
0.08500000 1197285.17919872 16989.47749040
0.08600000 1187430.45969905 18595.16187196
0.08700000 1177560.67485447 17098.18180178
0.08800000 1167677.35741894 20265.04148973
0.08900000 1157784.39156040 23445.13503031
0.09000000 1147883.72305380 17235.47491130
0.09100000 1137977.60024748 18844.90994545
0.09200000 1128067.27123378 20457.50092506
0.09300000 1118157.68591673 18919.22893477
0.09400000 1108246.97875372 17371.77220839
0.09500000 1098340.54121749 23724.15680540
0.09600000 1088439.23975459 28506.22502919
0.09700000 1078548.12613144 22196.52147931
0.09800000 1068665.54689791 17456.65252935
0.09900000 1058796.76868125 19058.34273243
0.10000000 1048940.17599559 23837.16662049
0.10100000 1039100.05492341 22257.52422327
0.10200000 1029278.91135369 22263.30389976
0.10300000 1019477.17905340 23855.76711204
0.10400000 1009697.90224421 19083.29125019
0.10500000 999944.77400675 19078.94718570
0.10600001 990214.13783362 27017.99402208
0.10700001 980514.18987812 20649.62981056
0.10800001 970841.54574625 20635.23802597
0.10900001 961201.54826469 19031.79155138
0.11000001 951594.67471387 20597.26770369
0.11100001 942021.80588369 20573.75720898
0.11200001 932486.15986446 18966.76938454
0.11300001 922987.23904829 22096.31554313
0.11400001 913528.84494083 18910.04798064
0.11500001 904111.71484384 15731.54457905
0.11600001 894737.01315384 15702.63532031
0.11700001 885407.02301529 18806.04605451
0.11800001 876120.99021934 18766.51249437
0.11900001 866881.81416872 24966.19742401
0.12000001 857690.31289326 17123.78790353
0.12100001 848549.34668954 17081.29915353
0.12200001 839458.52375642 20134.41364086
0.12300001 830420.46081232 20079.56768848
0.12400001 821434.17960226 18482.26991189
0.12500001 812501.89033817 23034.42967648
0.12600001 803626.30246243 21432.71449666
0.12700001 794806.21057505 16786.30795842
0.12800001 786042.84392899 16730.92272154
0.12900001 777338.61144324 22737.15545636
0.13000001 768693.36319232 16615.30782856
0.13100001 760107.18063468 18060.14746319
0.13200001 751581.77628536 25489.89714432
0.13300001 743119.40004036 16430.37070947
0.13400001 734718.07258014 19341.45417254
0.13500001 726381.55172296 17781.82122456
0.13600001 718107.11132767 17708.52220031
0.13700001 709898.46823479 20572.85857952
0.13800001 701753.18835545 19021.02106732
0.13900001 693675.69426702 17480.62831988
0.14000001 685663.44730307 14501.78259437
0.14100001 677717.88864003 15878.93087973
0.14200001 669839.35463238 15804.86031799
0.14300001 662029.51154208 15729.82193618
0.14400001 654284.97622607 15653.76879460
0.14500001 646611.13601202 16992.94145599
0.14600001 639005.00138726 16908.07313433
0.14700001 631469.88523690 16822.35853633
0.14800001 624000.95378801 13946.42197514
0.14900001 616602.88274626 15260.92206799
0.15000001 609273.74530924 15180.05608062
0.15100001 602014.87769533 20588.90978867
0.15200001 594826.27052976 15016.38990810
0.15300001 587708.70944621 16291.28619462
0.15400001 580658.57230939 17550.40617627
0.15500001 573680.42444166 20136.18384819
0.15600001 566769.63517958 20021.13830761
0.15700001 559932.89006069 13270.41012076
0.15800001 553162.12845505 15831.50086361
0.15900001 546463.74052322 18361.18254824
0.16000001 539832.90239050 16948.05477054
0.16100001 533274.54486837 15550.28646240
0.16200001 526784.68498162 18031.84061813
0.16300001 520363.44547484 12800.94136299
0.16400001 514012.12416730 13993.98074110
0.16500001 507728.93872841 16435.18652257
0.16600001 501515.64115175 17588.15436558
0.16700001 495368.98099534 19973.27825676
0.16800001 489290.11996323 17364.90717740
0.16900001 483280.94955379 16020.76423418
0.17000001 477337.86814215 12243.71689599
0.17100001 471461.72529095 15812.82701296
0.17200001 465652.59834737 20542.26534616
0.17300001 459910.00328402 15604.74714835
0.17400001 454233.44981028 13115.99148269
0.17500001 448621.90997745 13027.98088102
0.17600001 443073.81104986 12939.97126285
0.17700001 437592.57365327 12852.09449521
0.17800001 432173.63884778 12764.24902625
0.17900001 426818.93683561 12676.52302278
0.18000001 421527.32426208 16022.25435201
0.18100001 416299.74766925 11364.98364821
0.18200001 411131.60730070 11285.56315351
0.18300001 406026.30579827 15688.85719718
0.18400001 400981.17036777 13352.67360404
0.18500001 395998.08629226 11048.34712950
0.18600001 391073.33068482 10969.60744395
0.18700001 386207.59619389 10891.05472721
0.18800001 381400.62661252 12975.24993039
0.18900001 376653.35706810 12881.54542035
0.19000001 371959.54787633 11722.30570519
0.19100001 367327.36996885 12694.83450596
0.19200001 362748.05130546 12601.86789781
0.19300001 358227.07759315 16679.05352087
0.19400001 353758.65580174 12416.92940539
0.19500001 349345.77225193 12324.91942746
0.19600001 344986.44131347 10194.34982256
0.19700001 340680.20140632 12141.84295192
0.19800001 336426.57882153 12050.80062289
0.19900001 332225.43021086 14950.14506603
0.20000001 328073.73016493 11869.70811834
0.20100001 323974.60615283 11779.71723645
0.20200001 319923.59482877 11690.00870755
0.20300001 315923.83610584 11600.72381011
0.20400001 311971.58660713 10552.43941576
0.20500001 308067.58135841 10471.21758531
0.20600001 304211.17209259 16057.78747793
0.20700001 300401.94589273 12184.30350135
0.20800001 296637.28533280 10229.53726825
0.20900001 292920.68181932 11995.10248752
0.21000001 289247.12614764 10070.13917287
0.21100001 285618.80246990 9990.94618270
0.21200001 282033.36821453 9912.06319449
0.21300001 278490.55088583 11621.41123787
0.21400001 274991.36385006 9755.31909378
0.21500001 271534.73154146 13196.58857682
0.21600001 268118.16282640 9599.97127387
0.21700001 264742.45858635 10388.49456609
0.21800001 261407.42858674 8587.23443508
0.21900001 258110.76599630 9369.42124867
0.22000001 254852.62636468 10982.87445248
0.22100001 251634.82918605 10055.32824973
0.22200001 248454.69175683 9972.97179869
0.22300001 245310.37522725 13187.88639581
0.22400001 242201.96076929 8991.74821875
0.22500001 239133.00397384 12159.91382708
0.22600001 236097.22060073 8843.02181577
0.22700001 233098.61735246 11160.76232662
0.22800001 230132.85855842 8695.57047184
0.22900001 227200.82303670 11757.64314818
0.23000001 224303.64620543 10103.75822115
0.23100001 221440.12103311 10788.56320695
0.23200001 218607.36257258 7640.32768325
0.23300001 215807.89302053 9847.31462425
0.23400001 213040.52564159 9011.61466085
0.23500001 210302.36307099 9678.11520627
0.23600001 207596.92209309 9594.09220830
0.23700001 204920.80516506 8778.80770849
0.23800001 202275.12238967 7251.56348066
0.23900001 199658.17435031 8625.23353990
0.24000001 197070.31627089 7124.09227016
0.24100001 194512.32864361 7766.87765012
0.24200001 191981.54875912 8397.27333993
0.24300001 189479.20709930 8321.92716945
0.24400001 187003.89754744 7559.63291595
0.24500001 184555.47437207 8172.11679177
0.24600001 182134.37941853 6748.07907668
0.24700001 179739.39711309 6686.30588891
0.24800001 177370.40993908 11924.61322432
0.24900001 175026.32216916 6563.48739185
0.25000001 172708.73502353 7152.73259938
0.25100001 170414.75551804 7730.01367600
0.25200001 168147.02581576 12124.24187004
0.25300001 165903.66345744 6953.02286445
0.25400001 163683.85644753 8139.18014693
0.25500001 161487.38037781 8061.45040986
0.25600001 159315.19191236 6755.76103268
0.25700001 157165.39997432 9123.45190017
0.25800001 155039.48474893 7830.26954773
0.25900001 152936.06793864 7157.40831818
0.26000001 150854.88933280 6496.56611650
0.26100001 148795.54042361 6432.43151687
0.26200001 146758.79304619 5789.63465962
0.26300001 144743.04525789 8597.73729514
0.26400001 142749.29112199 6809.14150872
0.26500001 140777.01517340 7302.10412257
0.26600001 138824.85078704 8339.90330567
0.26700001 136894.58988568 6053.47905120
0.26800001 134985.41816020 5446.66188051
0.26900001 133095.02274135 8085.52301416
0.27000001 131225.98837410 5334.33667984
0.27100001 129376.59519770 6334.27840064
0.27200001 127548.59076135 7834.67255828
0.27300001 125739.13616610 8268.60598559
0.27400001 123947.48804998 6135.40094883
0.27500001 122178.14251341 6575.62794127
0.27600001 120425.75658749 5504.05946532
0.27700001 118693.91728293 4949.53658494
0.27800001 116979.97575138 5385.17343858
0.27900001 115286.21691634 4842.02133965
0.28000001 113609.40379466 5267.50025624
0.28100001 111951.92184171 5209.12316984
0.28200001 110313.28341940 5151.07901307
0.28300001 108692.61731729 6482.42800362
0.28400001 107089.64824400 7324.93228658
0.28500001 105505.06137349 4978.78408187
0.28600001 103938.12238000 5816.89729432
0.28700001 102389.14651559 5750.17474049
0.28800001 100856.71979985 4809.35291130
0.28900001 99343.95489650  5185.75469106
0.29000001 97846.79076260  5552.31640464
0.29100001 96368.00268825  5065.10246105
0.29200001 94906.10305392  4171.12342666
0.29300001 93461.39152743  6594.63609834
0.29400001 92033.17006682  4886.96156188
0.29500001 90622.91719655  4828.38925679
0.29600001 89228.73784760  5167.68259707
0.29700001 87851.13687790  4319.64060477
0.29800001 86490.12320607  5042.80687225
0.29900001 85146.51143851  7663.18639223
0.30000001 83818.52191777  3784.40644374
0.30100001 82507.93882063  5232.65372772
0.30200001 81212.09759744  4798.41701370
0.30300001 79933.60259615  4009.46969604
0.30400001 78671.20447759  3959.12855277
0.30500001 77424.30931147  4619.90875533
0.30600001 76192.89889203  4210.41979211
0.30700001 74978.20942873  3463.99343960
0.30800001 73779.03982205  3761.62452342
0.30900001 72595.46330686  3713.25812395
0.31000001 71427.83698014  3665.31962817
0.31100001 70274.74193973  5262.17292559
0.31200001 69137.82756267  4869.03173663
0.31300001 68015.67444233  3844.24610149
0.31400001 66910.02034280  3477.64847197
0.31500001 65818.32058935  3431.76739801
0.31600002 64742.26768055  3694.19396876
0.31700002 63680.97680899  3645.09928514
0.31800002 62634.76984201  3896.19604250
0.31900002 61603.32638702  3548.35176790
0.32000002 60587.21484078  3209.00198599
0.32100002 59584.79485698  3453.53487344
0.32200002 58598.30029117  3406.90534025
0.32300002 57624.43241204  4480.87607653
0.32400002 56665.56342914  4143.66952196
0.32500002 55721.10484905  3269.71458737
0.32600002 54791.44820438  3493.77686019
0.32700002 53875.03957001  3180.78248683
0.32800002 52973.35710092  3137.08235607
0.32900002 52085.11979073  3609.49897242
0.33000002 51211.78744407  3051.19844040
0.33100002 50349.59497414  2507.40994845
0.33200002 49504.03586289  2719.99937929
0.33300002 48670.52011481  3413.75044251
0.33400002 47851.23199630  2644.97697385
0.33500002 47043.91100482  2845.21587231
0.33600002 46251.26846379  4909.80363628
0.33700002 45470.34414283  2535.88121294
0.33800002 44703.89470277  2273.19315329
0.33900002 43949.07992278  2689.68381865
0.34000002 43207.78456936  2210.07828539
0.34100002 42479.10476143  2179.17817746
0.34200002 41763.57740766  2578.48339126
0.34300002 41059.13802763  2754.24710933
0.34400002 40368.93442167  3133.63868289
0.34500002 39689.75475236  2677.86787997
0.34600002 39024.04572099  2437.44201117
0.34700002 38368.50476757  2403.40325247
0.34800002 37726.60404938  3159.98050484
0.34900002 37095.69336389  3116.03839015
0.35000002 36476.79447576  2112.55365212
0.35100002 35870.05006933  2272.72648003
0.35200002 35273.54095566  2054.50749027
0.35300002 34688.88185407  2026.17768506
0.35400002 34115.81479702  2725.00083598
0.35500002 33554.14482830  2508.50798618
0.35600002 33002.31189149  2827.63821679
0.35700002 32461.80921804  2614.79885636
0.35800002 31933.07512174  2579.39426513
0.35900002 31414.45749282  3223.12349143
0.36000002 30906.73360584  2677.75952644
0.36100002 30408.57411595  1981.42278325
0.36200002 29922.11736861  1792.18530468
0.36300002 29444.55464284  1607.67275965
0.36400002 28977.31586488  1745.15893063
0.36500002 28519.76837479  1722.30889374
0.36600002 28072.59357974  1854.47561972
0.36700002 27634.26691473  1983.03508773
0.36800002 27207.36222217  1807.11308440
0.36900002 26788.63519437  1486.76932371
0.37000002 26379.01884236  2348.78794898
0.37100002 25978.28606277  1594.54727407
0.37200002 25587.92050286  1861.13748594
0.37300002 25205.59330064  2121.05077672
0.37400002 24832.26699754  1536.49659326
0.37500002 24467.97634154  1931.99150345
0.37600002 24112.47742175  1499.91672907
0.37700002 23764.89267432  1482.21642631
0.37800002 23425.51843257  1864.43710037
0.37900002 23095.19807735  2106.28216443
0.38000002 22772.71139079  1691.89867293
0.38100002 22457.25846116  1415.48106786
0.38200002 22150.87641598  2036.10865661
0.38300002 21851.23863042  1258.63140474
0.38400002 21560.33480044  1369.62033308
0.38500002 21275.38818676  1478.21404125
0.38600002 20999.44986400  1462.82174683
0.38700002 20729.71254272  1809.70399071
0.38800002 20467.44077386  1194.27522573
0.38900002 20211.64044512  1655.33343088
0.39000002 19963.96084286  1287.97499480
0.39100002 19721.75878719  1507.53131311
0.39200002 19486.96963470  1263.63260583
0.39300002 19258.22896066  1251.97752405
0.39400002 19037.40403919  1240.76286704
0.39500002 18821.66121811  1229.80740226
0.39600002 18612.06889913  1108.34875545
0.39700002 18408.68233849  1428.69790398
0.39800002 18211.56528173  1525.94712725
0.39900002 18019.88934255  1189.31275296
0.40000002 17833.90667625  1179.98049114
0.40100002 17653.89264468  1596.79466537
0.40200002 17479.85970107  1267.98908279
0.40300002 17310.32143608  1049.00552873
0.40400002 17146.72473963  1249.99629274
0.40500002 16988.41341064  1034.59442573
0.40600002 16834.92199379  1438.88085098
0.40700002 16686.65723177  1838.20224775
0.40800002 16543.43543531  1014.93981205
0.40900002 16404.73141009  1008.89102952
0.41000002 16271.17718621  1404.36536948
0.41100002 16141.86153629  1097.32379923
0.41200002 16016.90083672  1190.69646462
0.41300002 15896.97472068  987.20217693
0.41400002 15780.90896962  1080.59779290
0.41500002 15669.39464567  1271.10135389
0.41600002 15561.23072329  1070.69053065
0.41700002 15457.70564701  1647.63692299
0.41800002 15358.98353877  965.31216115
0.41900002 15262.14111289  1057.66642924
0.42000002 15170.48548488  1245.42106489
0.42100002 15082.59574648  1336.61969839
0.42200002 14998.41622754  951.64955473
0.42300002 14916.99285406  1233.33702762
0.42400002 14839.18138221  945.99785794
0.42500002 14764.89161080  1037.82428050
0.42600002 14693.11410984  1129.31280400
0.42700002 14625.74998977  1126.76783261
0.42800002 14560.58401257  1592.85516353
0.42900002 14499.58112920  1402.83454073
0.43000002 14440.90062927  1400.40640488
0.43100002 14384.14761588  1211.72065258
0.43200002 14331.34468807  1116.98505792
0.43300002 14281.06519396  1022.66712700
0.43400002 14233.45501186  1114.47958024
0.43500002 14188.17021795  1020.69701385
0.43600002 14145.76451990  1576.33334398
0.43700002 14105.32453701  1019.39185260
0.43800002 14067.02575034  1482.10190329
0.43900002 14031.89072795  1111.32579832
0.44000002 13998.48267777  925.99967302
0.44100002 13967.50658526  1389.06859573
0.44200002 13938.57169133  1481.94901245
0.44300002 13911.60091936  926.51266514
0.44400002 13886.99903454  1205.04439833
0.44500002 13863.17686646  1391.16986448
0.44600002 13841.52242147  1206.49635904
0.44700002 13822.85885503  928.89615908
0.44800002 13804.12689106  1022.67878919
0.44900002 13789.01453301  1116.91023011
0.45000002 13774.74962314  1025.04804179
0.45100002 13761.74722186  1026.35115645
0.45200002 13750.63203881  1121.22658958
0.45300002 13740.48046122  1310.01746926
0.45400002 13732.23499199  1030.94759088
0.45500002 13725.38273441  938.81622353
0.45600002 13719.61451776  1410.71942965
0.45700002 13715.26207667  1413.35782399
0.45800002 13711.73188039  944.05278471
0.45900002 13709.41359444  1418.92437427
0.46000002 13709.13875243  1042.78568863
0.46100002 13708.64261554  1045.00987611
0.46200002 13710.22577441  1809.13292781
0.46300002 13712.61147581  1049.83758435
0.46400002 13715.36023528  1243.64034828
0.46500002 13719.43930886  1150.78662377
0.46600002 13724.29093472  1249.80261321
0.46700002 13729.44979864  963.80742155
0.46800002 13736.63547641  1063.00958672
0.46900002 13743.44065297  1647.15144033
0.47000002 13751.25460554  1068.67880232
0.47100002 13759.84398823  1363.87580076
0.47200002 13769.23773108  1172.31295599
0.47300002 13779.30662586  1469.56312130
0.47400002 13789.12288991  1080.72255772
0.47500002 13800.00449315  1182.38444102
0.47600002 13811.99088066  988.24799435
0.47700002 13823.42790937  1189.36779370
