# SAXS profile: number of points = 501, q_min = 0, q_max = 0.5, delta_q = 0.001
#    q    intensity    error
0.00000000 1700912.83420643 331.67800267
0.00100000 1700824.53213556 867.42053199
0.00200000 1700559.59253412 918.30220905
0.00300000 1700118.23554441 1020.07097766
0.00400000 1699500.34984497 1657.01290406
0.00500000 1698706.57129889 2446.13755949
0.00600000 1697736.77345815 1782.62368471
0.00700000 1696591.69724405 2239.50113344
0.00800000 1695271.11402612 2517.47771062
0.00900000 1693776.49516449 2540.66485135
0.01000000 1692107.18711510 3071.17467723
0.01100000 1690264.83580722 4259.46757169
0.01200000 1688249.30658457 3621.29492140
0.01300000 1686061.97092773 3894.80332462
0.01400000 1683703.02170989 4545.99836015
0.01500000 1681173.97756452 4438.29949840
0.01600000 1678474.65383400 5136.13267034
0.01700000 1675607.16250779 4976.55349589
0.01800000 1672572.05100852 6673.56278382
0.01900000 1669370.33218555 5508.92234479
0.02000000 1666002.73995192 6822.28152871
0.02100000 1662472.13708564 6583.38996134
0.02200000 1658777.03805614 6295.05914542
0.02300000 1654920.80265677 8340.80122505
0.02400000 1650903.84928706 6809.97868883
0.02500000 1646728.71193204 10275.58763175
0.02600000 1642395.70438996 9312.38406982
0.02700000 1637906.91823375 7567.13030882
0.02800000 1633262.78337697 7815.16277686
0.02900000 1628466.75158549 9526.53093418
0.03000000 1623519.46338258 9059.23902209
0.03100000 1618422.48320916 8545.27110454
0.03200000 1613177.13183311 7985.22717036
0.03300000 1607787.70139393 11479.60471717
0.03400000 1602252.61045329 8411.82659300
0.03500000 1596575.91294463 12070.11445924
0.03600000 1590758.35798885 10594.45115381
0.03700000 1584803.20187598 11743.39226900
0.03800000 1578711.72241665 9235.46400355
0.03900000 1572486.55573040 12265.39570271
0.04000000 1566127.99430265 10594.85637241
0.04100000 1559640.04643204 10808.30602292
0.04200000 1553024.43768639 13022.11051413
0.04300000 1546282.86519219 12246.56086078
0.04400000 1539418.06636573 12469.28691666
0.04500000 1532432.82453508 10573.78698060
0.04600000 1525327.47835760 10753.55922232
0.04700000 1518106.24902292 14209.47515171
0.04800000 1510770.74096485 15545.83164785
0.04900000 1503323.76812998 16912.39317869
0.05000000 1495766.95253249 13731.14126365
0.05100000 1488104.45749220 13928.65837098
0.05200000 1480335.61668912 24714.20427234
0.05300000 1472465.63765797 17890.45833156
0.05400000 1464495.72501700 16914.92641275
0.05500000 1456429.62932722 13457.41040276
0.05600000 1448267.88768419 18574.03652629
0.05700000 1440016.02331301 13780.95398638
0.05800000 1431672.94734044 13937.33679313
0.05900000 1423243.07922132 15371.02597351
0.06000000 1414729.93141634 18122.69126811
0.06100000 1406135.01292052 17000.17310065
0.06200000 1397461.16909774 14526.60953180
0.06300000 1388711.87051891 15997.96149637
0.06400000 1379886.43833301 14799.28274324
0.06500000 1370991.28764284 19001.94013560
0.06600000 1362027.70805382 15057.21701704
0.06700000 1352997.35920126 16560.68845165
0.06800000 1343904.11485318 16691.28988778
0.06900000 1334751.83985401 18219.36346702
0.07000000 1325539.68350642 19763.79760659
0.07100000 1316272.52798269 15637.31836485
0.07200000 1306952.32178374 18604.46717215
0.07300000 1297582.66483300 17283.80190542
0.07400000 1288166.29445070 24636.18153592
0.07500000 1278704.00737089 23323.56218768
0.07600000 1269199.13847376 16125.17581027
0.07700000 1259655.69965262 17685.56685237
0.07800000 1250074.59026792 16294.72304830
0.07900000 1240457.93222710 17862.59506189
0.08000000 1230810.96128832 20936.09543365
0.08100000 1221134.74198245 19525.94544042
0.08200000 1211430.33191149 19607.00084205
0.08300000 1201701.55534752 16655.58433880
0.08400000 1191951.19512593 21276.32983168
0.08500000 1182181.60984943 16775.15783128
0.08600000 1172395.04683942 18359.70729552
0.08700000 1162593.89525468 15346.24013799
0.08800000 1152779.76957038 21545.45490513
0.08900000 1142956.45503289 23144.86930152
0.09000000 1133125.82626917 21654.03555721
0.09100000 1123290.10385707 20151.82540995
0.09200000 1113450.74981792 17085.90255877
0.09300000 1103612.59189252 17117.03210462
0.09400000 1093773.80405915 20262.16067247
0.09500000 1083939.43782398 18730.47436598
0.09600000 1074110.73367060 15628.31190956
0.09700000 1064292.77963288 18774.12551535
0.09800000 1054483.53469050 21922.71371697
0.09900000 1044688.49940381 17237.36105071
0.10000000 1034905.95015879 18814.59105868
0.10100000 1025140.36562424 17253.11316490
0.10200000 1015394.05725329 18825.40670695
0.10300000 1005667.38981477 20394.93562484
0.10400000 995963.78129028 20392.35938128
0.10500000 986286.47955624 17250.15133905
0.10600001 976631.90938718 20377.42574819
0.10700001 967008.16667694 17232.08634108
0.10800001 957412.28659477 21915.16827152
0.10900001 947849.39559318 20331.37049238
0.11000001 938319.75233310 17185.32707289
0.11100001 928824.29905303 17164.67385450
0.11200001 919366.37043786 18699.91285504
0.11300001 909945.46355975 21784.09542323
0.11400001 900565.20644113 17088.22559681
0.11500001 891226.55126653 17058.07699447
0.11600001 881930.40725632 20121.24318909
0.11700001 872679.08358503 18535.70460828
0.11800001 863472.12761283 21578.16948534
0.11900001 854312.07926030 18453.14178120
0.12000001 845199.93875405 16874.41757209
0.12100001 836138.63052579 18361.60519133
0.12200001 827127.41430370 15260.50151285
0.12300001 818168.99196883 16739.73836436
0.12400001 809262.91817587 21243.15260304
0.12500001 800410.42860649 18153.30937619
0.12600001 791615.02386183 15080.26691520
0.12700001 782875.15738088 22546.80559512
0.12800001 774192.22665108 20972.86840841
0.12900001 765568.21484820 14928.58089316
0.13000001 757003.56258644 16362.63277656
0.13100001 748497.91986708 19266.33736555
0.13200001 740053.24179377 14764.06286977
0.13300001 731671.54831242 14706.59881439
0.13400001 723351.04203372 20507.00300847
0.13500001 715095.09591790 17505.52877342
0.13600001 706901.48043380 20337.55655101
0.13700001 698773.48822924 18803.99545492
0.13800001 690709.10028111 14401.28541996
0.13900001 682712.20214597 20071.73968964
0.14000001 674780.73881218 22834.58127830
0.14100001 666915.95886701 15625.84165321
0.14200001 659118.04603117 16965.69930503
0.14300001 651388.74443856 22511.99606963
0.14400001 643724.95017381 14001.01832671
0.14500001 636131.48145323 15324.40811109
0.14600001 628605.86276556 16632.91191342
0.14700001 621151.05628003 15168.50950996
0.14800001 613762.42859588 15089.35001893
0.14900001 606444.55595701 20467.50472922
0.15000001 599195.58189892 14928.95862740
0.15100001 592016.67487594 14847.77890648
0.15200001 584907.81124157 16108.36188170
0.15300001 577869.85718858 17353.43263026
0.15400001 570899.33724081 17255.43328240
0.15500001 564000.61385214 17156.89948307
0.15600001 557169.30143997 13121.33766817
0.15700001 550411.51698043 16958.17963854
0.15800001 543719.68525456 18154.80114753
0.15900001 537100.29245386 12890.40762733
0.16000001 530548.04985812 15375.28321064
0.16100001 524067.98259721 14008.33783608
0.16200001 517656.40605886 13922.36969817
0.16300001 511313.35752487 16351.80194558
0.16400001 505039.77566949 14999.68204551
0.16500001 498834.32904200 13663.07291751
0.16600001 492698.27356927 14810.51080274
0.16700001 486628.94863008 13489.35509292
0.16800001 480626.82951211 15839.05791443
0.16900001 474694.47734942 14525.65169277
0.17000001 468827.83150523 15633.06477973
0.17100001 463027.82626391 13140.73032989
0.17200001 457294.71698914 18986.87754600
0.17300001 451627.73299603 11787.48438785
0.17400001 446026.42486607 15220.65246737
0.17500001 440490.06107510 11628.93816159
0.17600001 435016.87036775 11549.69845375
0.17700001 429610.02638098 16058.82354459
0.17800001 424265.45928946 14808.98655596
0.17900001 418984.70048262 13575.10493684
0.18000001 413766.68185837 12357.14253739
0.18100001 408612.44770842 14501.65645418
0.18200001 403517.28068987 12184.20486599
0.18300001 398484.44950895 20896.52551939
0.18400001 393511.82794614 15287.93523792
0.18500001 388600.76310690 14094.55034374
0.18600001 383747.58967447 11840.53243879
0.18700001 378953.18751764 11755.12843217
0.18800001 374217.10637356 11669.96101362
0.18900001 369540.56199009 12638.28781719
0.19000001 364917.05257145 12545.84886018
0.19100001 360354.71228171 14529.50268572
0.19200001 355844.94620715 12362.05401536
0.19300001 351392.99165216 12270.64384831
0.19400001 346993.50936915 15224.34094298
0.19500001 342648.95297384 14103.43157086
0.19600001 338357.75157327 11998.16643778
0.19700001 334119.10945022 14885.00702944
0.19800001 329932.68407541 10833.34019359
0.19900001 325798.35085934 14660.92648155
0.20000001 321713.13257667 9699.65140560
0.20100001 317680.05720369 13475.98866349
0.20200001 313694.75217242 10507.20622062
0.20300001 309760.23439608 12322.26270668
0.20400001 305872.91762887 10346.15192782
0.20500001 302033.15889623 10266.10755613
0.20600001 298240.63222775 10186.40927523
0.20700001 294495.04640047 10107.07047022
0.20800001 290793.62822566 10939.65681097
0.20900001 287139.82760093 10853.88599639
0.21000001 283528.57092232 9871.04766329
0.21100001 279962.01387250 10683.35095441
0.21200001 276438.14290674 14131.51853345
0.21300001 272956.36169096 9638.08958695
0.21400001 269517.70943744 9561.14119431
0.21500001 266121.23916309 16382.42425740
0.21600001 262764.33261426 10263.57531716
0.21700001 259447.94827215 10180.73797154
0.21800001 256171.64782856 9256.76293195
0.21900001 252933.40431220 10850.84355804
0.22000001 249733.30307637 9106.52532726
0.22100001 246572.93819729 11495.23092229
0.22200001 243449.75005882 8143.39452452
0.22300001 240362.09734208 8883.78353784
0.22400001 237309.99356821 15217.50405714
0.22500001 234296.59517611 11119.71693288
0.22600001 231315.90383694 11814.46034716
0.22700001 228372.12382607 10934.45780587
0.22800001 225460.85007876 10067.95473638
0.22900001 222582.66614789 7679.10234525
0.23000001 219738.86403264 11420.92799821
0.23100001 216928.36249056 12078.57179470
0.23200001 214148.22093402 8981.37681073
0.23300001 211400.62842432 10388.22737208
0.23400001 208684.82616832 8827.36856441
0.23500001 205997.93773196 9480.02554279
0.23600001 203343.12182277 7951.73315497
0.23700001 200717.28552522 7882.16817539
0.23800001 198121.29991534 7102.64893791
0.23900001 195553.70855229 9151.91399313
0.24000001 193014.75906061 6977.48387008
0.24100001 190505.14661519 8298.40457908
0.24200001 188022.52545057 7538.76351454
0.24300001 185567.52600698 7470.94895044
0.24400001 183139.23173050 8076.44050136
0.24500001 180737.48011426 7336.13466487
0.24600001 178362.33425986 7929.98975632
0.24700001 176013.09766614 8511.99380580
0.24800001 173689.45094656 9730.95194962
0.24900001 171390.19204501 6427.13250574
0.25000001 169116.94612770 7640.70398752
0.25100001 166866.85687488 7569.08098593
0.25200001 164642.63239422 9997.10111194
0.25300001 162442.30428567 7426.86250331
0.25400001 160264.99432924 11647.25901392
0.25500001 158110.68534764 6678.59566506
0.25600001 155980.20604699 7215.64467313
0.25700001 153871.69544459 6550.31838499
0.25800001 151786.54080168 7665.97960590
0.25900001 149723.49325734 7007.05981598
0.26000001 147682.36189464 6359.94121592
0.26100001 145662.44283095 7441.89455635
0.26200001 143664.84220370 6234.33612242
0.26300001 141687.78856717 6733.00403130
0.26400001 139732.17495722 9442.40216953
0.26500001 137797.80227787 7697.38559947
0.26600001 135883.01306853 5442.11493091
0.26700001 133989.68629107 5925.02420816
0.26800001 132117.06900306 5330.92398654
0.26900001 130262.83909861 5275.64523315
0.27000001 128429.61254119 6786.86319591
0.27100001 126615.57021745 8782.05636587
0.27200001 124822.37650335 8689.51015150
0.27300001 123047.47294540 6574.42679060
0.27400001 121289.99172427 6003.85487448
0.27500001 119554.41701828 6929.37433831
0.27600001 117835.29745772 5875.26820929
0.27700001 116136.43831880 5811.46764851
0.27800001 114455.00930392 8621.89625891
0.27900001 112793.36500149 5684.78586512
0.28000001 111148.36405381 4684.90376660
0.28100001 109522.26465400 5559.35041696
0.28200001 107914.70178042 5955.27309961
0.28300001 106324.54711595 4982.36851367
0.28400001 104751.82515715 4478.14073742
0.28500001 103197.17212372 5755.30656175
0.28600001 101659.72120480 5689.38656652
0.28700001 100139.83938106 4758.64539263
0.28800001 98636.23996879  4275.88120504
0.28900001 97151.92935640  6339.16369056
0.29000001 95682.81062503  6264.83232222
0.29100001 94231.69696029  4952.81822667
0.29200001 92797.21514316  6933.34425761
0.29300001 91379.55313451  6044.75772598
0.29400001 89977.92801509  5175.98055408
0.29500001 88594.07069317  5507.00769497
0.29600001 87225.81869374  4274.50144743
0.29700001 85873.93522128  4222.42159471
0.29800001 84538.31643428  3791.54367156
0.29900001 83219.68240073  5617.32882797
0.30000001 81916.25032832  5177.92642837
0.30100001 80630.10799346  3652.54406502
0.30200001 79358.22352841  3967.51457313
0.30300001 78103.52497254  4273.82508883
0.30400001 76864.56217395  4219.86466313
0.30500001 75640.81152208  5555.06146117
0.30600001 74432.13460908  3770.35995712
0.30700001 73239.98013298  5075.53086351
0.30800001 72062.91850864  3340.11643101
0.30900001 70901.32301892  3626.60284412
0.31000001 69755.35226803  4230.31353858
0.31100001 68623.65155010  4496.22186244
0.31200001 67507.69796479  4437.28119731
0.31300001 66406.35665032  3440.51350095
0.31400001 65321.11311506  4320.99183715
0.31500001 64249.61155911  4568.14759814
0.31600002 63193.56684149  4206.79594382
0.31700002 62152.06254108  3854.04958065
0.31800002 61125.22999802  3217.32663328
0.31900002 60113.02060334  3751.05266326
0.32000002 59115.68243095  4554.27239012
0.32100002 58131.92595108  3930.88101894
0.32200002 57163.81643033  3046.54574091
0.32300002 56208.17727004  3551.23280807
0.32400002 55267.25227506  3502.56227878
0.32500002 54340.48933726  3720.15007618
0.32600002 53428.20276577  3930.98020463
0.32700002 52528.96732040  2842.86784600
0.32800002 51644.38413981  3058.38057358
0.32900002 50772.84746235  2764.58167524
0.33000002 49915.96753507  4213.15743931
0.33100002 49070.11253435  2688.06089192
0.33200002 48240.66078835  2891.54534458
0.33300002 47423.11403128  2851.07775057
0.33400002 46619.35376693  2342.62263772
0.33500002 45827.59386269  2540.68192406
0.33600002 45050.13555851  2277.28446033
0.33700002 44284.33299618  2469.73736816
0.33800002 43532.69578160  2877.72899092
0.33900002 42792.61332291  3491.87741252
0.34000002 42065.83072772  3012.33428107
0.34100002 41351.38304164  2545.59126060
0.34200002 40649.92480966  2718.87034966
0.34300002 39959.48614621  2680.48245763
0.34400002 39283.01718100  2439.47548247
0.34500002 38617.47870077  2805.94613529
0.34600002 37965.04120552  2173.68853717
0.34700002 37322.86409570  2532.72967749
0.34800002 36693.92508037  2881.39060340
0.34900002 36075.94091583  1893.98698778
0.35000002 35469.80471754  2240.98236819
0.35100002 34875.66534089  2762.15282582
0.35200002 34291.52608456  2723.60458826
0.35300002 33719.19310383  2327.63601020
0.35400002 33158.20529524  2295.37687028
0.35500002 32608.50648248  1915.42376150
0.35600002 32068.49555034  2575.90202709
0.35700002 31539.80848776  2032.42535522
0.35800002 31022.49994485  2505.84255174
0.35900002 30515.37909628  2306.96276895
0.36000002 30018.95401172  1788.07908040
0.36100002 29532.00371989  2405.38181692
0.36200002 29056.46297151  1740.33693211
0.36300002 28589.92095562  1873.21170974
0.36400002 28133.41779018  1540.30469697
0.36500002 27686.57350252  1975.99084447
0.36600002 27249.89298998  1800.12801619
0.36700002 26822.10164252  1924.75410504
0.36800002 26405.44236877  1753.84956521
0.36900002 25996.98392859  1731.39921166
0.37000002 25597.43806432  1709.39699491
0.37100002 25206.75897809  1547.19093936
0.37200002 24826.18339822  1527.92752962
0.37300002 24453.67877528  1646.22173313
0.37400002 24090.06033352  1490.57255375
0.37500002 23735.36417017  1472.54206287
0.37600002 23389.38339408  1322.66969359
0.37700002 23051.20912056  2091.20579048
0.37800002 22721.15412576  1937.54650986
0.37900002 22400.03696253  1276.80216735
0.38000002 22086.71853819  1893.38403638
0.38100002 21780.33915096  1372.81484172
0.38200002 21482.86020304  2221.54267884
0.38300002 21192.17725081  1342.73641422
0.38400002 20910.03193060  1690.57616168
0.38500002 20633.92638955  1792.05659183
0.38600002 20366.54564818  1536.96144015
0.38700002 20105.45266493  1404.16488064
0.38800002 19851.68896651  1274.18071668
0.38900002 19604.32719043  1605.59447296
0.39000002 19364.98283626  1249.33192687
0.39100002 19131.19725944  1349.89734258
0.39200002 18904.61134336  1337.31226979
0.39300002 18684.12067258  1325.07790088
0.39400002 18471.34042198  1203.86966904
0.39500002 18263.67186663  1735.77945644
0.39600002 18062.06690095  1290.71536189
0.39700002 17866.58920997  1066.63542637
0.39800002 17677.40183975  1269.59106028
0.39900002 17493.56798885  1364.49836778
0.40000002 17315.35229078  1353.97403653
0.40100002 17143.14536979  1240.47805773
0.40200002 16976.66516941  1231.48734974
0.40300002 16814.79225212  1222.77175051
0.40400002 16658.74722157  1214.42272999
0.40500002 16507.98804543  1206.40382352
0.40600002 16362.02378711  1198.68191944
0.40700002 16221.21011602  1687.65478043
0.40800002 16085.27480845  1184.19798751
0.40900002 15953.92317059  981.16632148
0.41000002 15827.68690171  1073.35463810
0.41100002 15705.64128706  1067.66954528
0.41200002 15587.91613174  1158.80574014
0.41300002 15475.24132888  1249.31629168
0.41400002 15366.24853040  1339.16862288
0.41500002 15261.80724320  1142.80418052
0.41600002 15160.78237941  1137.96837932
0.41700002 15064.25792004  1227.88772124
0.41800002 14972.54993582  1505.63969289
0.41900002 14882.69762269  1125.13199359
0.42000002 14797.88347047  1121.38366253
0.42100002 14716.96282351  1583.69244448
0.42200002 14639.59839575  1207.54733089
0.42300002 14565.00936781  1018.96810366
0.42400002 14493.98521708  1201.18908178
0.42500002 14426.50179067  1014.03885892
0.42600002 14361.46634554  1011.83715932
0.42700002 14300.82812430  918.11320909
0.42800002 14242.36843559  916.49645226
0.42900002 14188.01373968  1006.63962253
0.43000002 14135.98766544  1279.44830423
0.43100002 14085.80975574  1004.03656697
0.43200002 14039.60957743  1003.05995379
0.43300002 13995.86313150  911.13073304
0.43400002 13954.69845655  1183.70735267
0.43500002 13915.92985970  1183.13241274
0.43600002 13880.03056765  909.83604683
0.43700002 13846.03261368  1273.55814016
0.43800002 13814.13679813  1273.52533177
0.43900002 13785.39140225  1091.80305080
0.44000002 13758.31998028  1001.12420081
0.44100002 13733.69564896  1001.59847114
0.44200002 13711.00764615  1002.20615139
0.44300002 13690.40770083  1094.13743530
0.44400002 13672.01752374  1095.12865555
0.44500002 13654.40099886  1096.17536414
0.44600002 13639.02501663  1005.94633777
0.44700002 13626.51096714  1098.84189647
0.44800002 13614.02224565  1558.73755089
0.44900002 13605.05293849  1285.67756362
0.45000002 13596.88323767  1103.79503354
0.45100002 13589.97142759  1289.96014904
0.45200002 13584.88871345  1015.40255501
0.45300002 13580.83675463  1572.25354560
0.45400002 13578.68732288  1297.44363519
0.45500002 13577.76178665  1114.46274027
0.45600002 13578.04223253  1023.85232307
0.45700002 13579.59830219  1026.21029233
0.45800002 13582.02026807  1215.65878171
0.45900002 13585.61380290  1031.14813651
0.46000002 13591.17292966  1127.79558315
0.46100002 13596.61133071  1036.46973086
0.46200002 13603.95326193  1322.71243835
0.46300002 13612.18305894  1042.14878439
0.46400002 13620.69124782  1140.05191148
0.46500002 13630.53846939  1048.05215258
0.46600002 13641.10773623  1051.11560643
0.46700002 13652.03024706  1150.04708252
0.46800002 13664.83087140  1249.71716658
0.46900002 13677.31085467  1157.10055315
0.47000002 13690.77335262  1063.97850153
0.47100002 13704.95800823  1261.40439486
0.47200002 13719.92729694  1265.45755421
0.47300002 13735.57373321  1074.25927259
0.47400002 13750.93564120  1371.65589522
0.47500002 13767.33437196  1179.58526490
0.47600002 13784.68533692  1183.55313913
0.47700002 13801.61739525  1088.53361556
