# SAXS profile: number of points = 501, q_min = 0, q_max = 0.5, delta_q = 0.001
#    q    intensity    error
0.00000000 1682732.95097188 403.85590823
0.00100000 1682645.09542532 605.75224874
0.00200000 1682381.48895384 984.19320220
0.00300000 1681942.36848262 1614.66473126
0.00400000 1681327.59150182 1387.09531570
0.00500000 1680537.82392743 2268.72615210
0.00600000 1679572.90828799 2998.03776335
0.00700000 1678433.62190760 2416.94451600
0.00800000 1677119.71515581 2490.52288216
0.00900000 1675632.62973606 3016.13886246
0.01000000 1673971.77640418 3866.87497046
0.01100000 1672138.76231059 4213.78986449
0.01200000 1670133.42813517 3582.43636042
0.01300000 1667957.17395546 3502.71021979
0.01400000 1665610.19314757 4122.38541079
0.01500000 1663094.00597956 5987.13868813
0.01600000 1660408.39888206 5927.65824900
0.01700000 1657555.50495309 5818.02008337
0.01800000 1654535.87770772 5658.51295638
0.01900000 1651350.44749226 6440.26703582
0.02000000 1648000.07791167 8825.04081642
0.02100000 1644487.50815252 9225.57533901
0.02200000 1640811.33057032 6792.95921718
0.02300000 1636974.83957653 7071.73162886
0.02400000 1632978.54574467 8573.13775607
0.02500000 1628824.84247888 8258.14232852
0.02600000 1624514.23299055 9868.92441681
0.02700000 1620048.53951100 7484.62459534
0.02800000 1615428.45166520 7729.82549570
0.02900000 1610657.25511003 8697.54957694
0.03000000 1605735.58478150 11200.00621866
0.03100000 1600665.15780142 9219.83173317
0.03200000 1595447.10061331 12635.94161885
0.03300000 1590085.77048175 9731.32536397
0.03400000 1584579.62493944 11646.66078069
0.03500000 1578932.74234488 11084.10836310
0.03600000 1573145.73972230 11350.24703663
0.03700000 1567221.90957996 12506.43141684
0.03800000 1561162.59905425 11872.64211527
0.03900000 1554970.35538691 13994.73384658
0.04000000 1548645.55471401 9524.17060283
0.04100000 1542192.17964855 10687.39230050
0.04200000 1535611.82064743 11885.63604322
0.04300000 1528906.34801143 11099.86060180
0.04400000 1522078.27390980 15411.04323906
0.04500000 1515130.63284082 11499.84203760
0.04600000 1508063.61073880 18074.14321491
0.04700000 1500881.52823675 11886.98225647
0.04800000 1493585.83234471 10977.85637851
0.04900000 1486179.34957798 12260.98020474
0.05000000 1478663.78639324 12442.95634192
0.05100000 1471043.39445548 11474.13901126
0.05200000 1463317.19877290 13960.04672685
0.05300000 1455490.67708250 12968.42253737
0.05400000 1447564.77942310 17913.61498074
0.05500000 1439543.58173670 15719.81664588
0.05600000 1431427.24157278 13462.57383521
0.05700000 1423221.53956017 17334.83916101
0.05800000 1414925.31747074 22539.76135974
0.05900000 1406543.00935616 13924.77644299
0.06000000 1398078.07866779 16630.13952269
0.06100000 1389531.93070984 12922.64755949
0.06200000 1380907.49579828 15659.49173433
0.06300000 1372208.31304163 13173.20042112
0.06400000 1363433.56760497 26586.95581168
0.06500000 1354589.74440114 17433.57082595
0.06600000 1345678.23816467 16228.88031159
0.06700000 1336700.34459135 19088.08181407
0.06800000 1327660.19544225 15115.41203265
0.06900000 1318561.61976219 16613.87718685
0.07000000 1309403.96275661 18128.69871330
0.07100000 1300191.78769164 18254.69355420
0.07200000 1290926.99242203 14135.65122923
0.07300000 1281613.32949311 17071.09034872
0.07400000 1272253.59463742 21469.28041565
0.07500000 1262848.38312477 15836.11946666
0.07600000 1253401.23745996 18819.82046275
0.07700000 1243915.86810669 20375.34287496
0.07800000 1234393.53269054 17553.07685803
0.07900000 1224835.89088729 19107.44079405
0.08000000 1215248.67504923 16241.79930395
0.08100000 1205632.53322169 14829.28085439
0.08200000 1195988.85090605 22335.09283875
0.08300000 1186321.16491428 22421.47106916
0.08400000 1176632.44931396 22503.09664939
0.08500000 1166924.89591987 24085.33098248
0.08600000 1157200.76501547 16611.61776174
0.08700000 1147462.63587188 18175.80900570
0.08800000 1137711.77880935 16707.29825645
0.08900000 1127952.26721850 16750.09195494
0.09000000 1118185.83332597 18315.88481028
0.09100000 1108414.53490320 18355.34556035
0.09200000 1098640.23700251 18391.23843157
0.09300000 1088867.41060920 18423.63745327
0.09400000 1079094.34783058 18452.51421512
0.09500000 1069326.08523925 16938.12598633
0.09600000 1059563.74534419 26208.31047308
0.09700000 1049812.57100820 18518.69462320
0.09800000 1040070.54239205 21623.06759300
0.09900000 1030342.95316052 18546.17402898
0.10000000 1020628.25417032 17008.77065562
0.10100000 1010930.62485218 18560.68714523
0.10200000 1001252.59541650 17016.28865949
0.10300000 991594.72470269 18562.65411964
0.10400000 981960.05689579 18559.04594844
0.10500000 972352.07380240 18552.47844103
0.10600001 962766.91183735 23178.61449312
0.10700001 953212.90824577 21618.86977635
0.10800001 943687.01801183 18515.14016475
0.10900001 934194.24510968 16955.62634677
0.11000001 924735.10094554 20015.89220211
0.11100001 915310.18994115 21528.09668082
0.11200001 905923.32799348 15355.40113238
0.11300001 896573.48123059 18397.68870103
0.11400001 887264.47867865 16835.84427563
0.11500001 877997.13523848 18332.58104702
0.11600001 868772.81982842 18296.35644719
0.11700001 859593.16401525 18257.75966353
0.11800001 850458.24207925 19734.88443693
0.11900001 841370.21936952 15144.66466199
0.12000001 832330.21308870 18128.15289500
0.12100001 823341.34023777 18080.57668336
0.12200001 814402.69145131 15025.73036516
0.12300001 805516.74164294 20975.65694064
0.12400001 796683.37305491 22406.72092292
0.12500001 787903.81047971 19358.79753568
0.12600001 779181.15815445 19296.42229101
0.12700001 770514.19167470 19232.03513054
0.12800001 761904.33390739 16217.13451152
0.12900001 753353.45100697 19097.51088313
0.13000001 744861.87139022 21954.80469406
0.13100001 736429.41107010 17497.56363182
0.13200001 728058.07794111 18882.18714152
0.13300001 719749.57028939 23147.14727173
0.13400001 711502.27867114 17289.50618683
0.13500001 703319.50834753 27260.66542884
0.13600001 695199.33877615 14286.34708546
0.13700001 687144.64959089 17068.67390068
0.13800001 679153.60998413 18408.45946668
0.13900001 671229.82603496 14095.82701147
0.14000001 663371.51625581 15433.33905354
0.14100001 655579.96688582 16756.62474389
0.14200001 647855.05005789 13896.49147917
0.14300001 640199.04363508 20742.44999215
0.14400001 632608.05416370 19262.91615791
0.14500001 625087.66904751 13689.42059790
0.14600001 617634.91979288 19066.39087345
0.14700001 610253.04451058 20321.42734090
0.14800001 602936.89184643 17518.33221909
0.14900001 595691.74383432 16083.67784237
0.15000001 588515.33875155 15995.84766200
0.15100001 581408.78877347 17232.95731238
0.15200001 574372.34946291 19772.76906328
0.15300001 567406.53146585 13107.09149537
0.15400001 560508.13593478 18244.54068566
0.15500001 553681.25006712 16842.98442191
0.15600001 546921.69448863 12880.00651308
0.15700001 540235.59708126 15364.30110614
0.15800001 533615.27299108 13999.39734767
0.15900001 527067.14541752 12649.61208709
0.16000001 520586.08647563 15086.58549819
0.16100001 514177.14565049 17492.30732074
0.16200001 507836.28751142 14899.91737895
0.16300001 501563.96373486 12338.47409035
0.16400001 495360.74319675 18390.26845938
0.16500001 489225.59829803 17054.40516183
0.16600001 483159.63796198 15734.09435309
0.16700001 477160.04170024 13226.87698043
0.16800001 471227.49084447 14334.74094832
0.16900001 465364.64252921 15426.83862827
0.17000001 459567.06943306 14145.47506509
0.17100001 453836.09882724 12879.86909292
0.17200001 448171.85163848 11630.06009922
0.17300001 442573.30896442 12706.28030042
0.17400001 437040.13982608 13766.76505467
0.17500001 431571.84313480 12532.84691653
0.17600001 426166.52046220 12446.19381792
0.17700001 420827.25086637 15730.52338035
0.17800001 415549.79956391 13389.01517434
0.17900001 410336.07363766 15510.70431613
0.18000001 405184.90275551 17601.23300709
0.18100001 400097.08826727 13107.18123077
0.18200001 395068.11561633 11929.08231454
0.18300001 390101.17152855 13996.83069565
0.18400001 385194.27002780 12826.96979788
0.18500001 380348.40417788 12734.06517346
0.18600001 375560.30992275 14748.25406742
0.18700001 370830.73459225 10457.42720956
0.18800001 366159.19733145 19723.16609610
0.18900001 361546.68029718 12364.89705037
0.19000001 356987.13541401 11250.45010414
0.19100001 352488.42400406 14212.33392738
0.19200001 348041.88384487 10075.81301340
0.19300001 343652.97168186 14000.42272788
0.19400001 339316.05671676 13894.99317914
0.19500001 335033.92316212 14774.99670964
0.19600001 330804.65037895 11730.33345677
0.19700001 326627.66669177 11641.01059102
0.19800001 322502.73073095 11552.04836072
0.19900001 318429.39024585 14329.32323827
0.20000001 314404.90325675 9479.30828119
0.20100001 310432.25297885 9406.09770981
0.20200001 306507.00006466 10266.45245239
0.20300001 302632.20474613 10186.60049322
0.20400001 298804.30176984 12863.52579920
0.20500001 295023.62168376 9116.23034092
0.20600001 291289.91447182 12662.37318062
0.20700001 287602.55487409 9870.52014985
0.20800001 283959.33638166 15133.61354783
0.20900001 280363.09509628 10597.72549561
0.21000001 276809.37116564 12265.42381616
0.21100001 273299.85701788 11298.21662322
0.21200001 269832.64341250 9483.26870105
0.21300001 266407.23563613 11972.34173549
0.21400001 263024.63484105 9330.79936211
0.21500001 259683.74127939 9255.12897676
0.21600001 256382.22478803 8345.24181140
0.21700001 253120.88885552 9932.46414829
0.21800001 249899.20302191 11492.86489037
0.21900001 246715.12347890 8141.59945975
0.22000001 243569.07172815 9689.17813147
0.22100001 240462.22268978 9608.87087302
0.22200001 237392.34906056 9528.92934186
0.22300001 234357.55140309 11024.17973928
0.22400001 231358.12100812 8589.17064858
0.22500001 228396.82804383 8516.91812050
0.22600001 225468.03053083 9980.34284340
0.22700001 222575.69150130 8373.29791024
0.22800001 219715.65788575 12830.29644898
0.22900001 216888.29787199 8230.91129349
0.23000001 214094.83982977 9643.90251621
0.23100001 211334.46556065 8825.32769919
0.23200001 208604.16091230 8748.85892243
0.23300001 205905.96517275 9395.48963519
0.23400001 203239.36109417 10029.86294436
0.23500001 200601.23176186 8521.54072828
0.23600001 197994.81517416 7742.58761359
0.23700001 195417.12934639 9766.94858669
0.23800001 192868.83701970 11062.95701471
0.23900001 190348.70950426 8908.32002616
0.24000001 187856.91581842 7470.13061086
0.24100001 185393.98557510 10767.68319153
0.24200001 182957.76626522 10670.09743330
0.24300001 180548.95627451 7268.90132345
0.24400001 178166.40062899 9166.66174598
0.24500001 175810.01877233 8433.60699946
0.24600001 173480.10044629 11569.38844605
0.24700001 171175.73527462 8914.83271483
0.24800001 168896.42096493 8200.76610790
0.24900001 166641.24074194 6249.04682345
0.25000001 164411.81491008 6809.11563663
0.25100001 162205.22966569 6131.35797143
0.25200001 160024.29437355 7287.50671054
0.25300001 157866.75916674 6616.19618969
0.25400001 155732.03983255 7148.10096650
0.25500001 153620.09172194 8848.51770182
0.25600001 151531.54871921 6425.69562745
0.25700001 149464.45622586 6941.12967554
0.25800001 147420.76333407 6872.75631181
0.25900001 145398.78148898 9072.88439419
0.26000001 143398.34427696 6736.85453289
0.26100001 141418.89811045 8892.42073394
0.26200001 139461.42280465 7702.45474596
0.26300001 137524.26467105 7079.74948026
0.26400001 135608.14521323 7546.59363821
0.26500001 133713.06398919 7469.21210787
0.26600001 131837.17613342 6864.10290019
0.26700001 129982.64161889 5747.83268438
0.26800001 128148.39092532 5170.78781852
0.26900001 126332.38555179 6651.40041406
0.27000001 124537.00729982 8099.88733808
0.27100001 122760.49224607 5509.49115273
0.27200001 121004.62479156 5450.65358168
0.27300001 119266.67203415 7842.97672413
0.27400001 117545.99103724 5818.52683170
0.27500001 115846.87865136 5275.66710346
0.27600001 114164.05063330 4743.51652831
0.27700001 112501.06002541 6567.81219512
0.27800001 110855.41118071 5103.22909523
0.27900001 109229.29233403 6881.44574273
0.28000001 107619.45697532 5897.00842406
0.28100001 106028.30819452 5830.49694357
0.28200001 104455.45271932 4434.13417780
0.28300001 102899.74120611 4383.52918285
0.28400001 101361.21943532 4766.51156955
0.28500001 99840.54850507  4283.15973360
0.28600001 98336.76361355  6773.43659830
0.28700001 96850.45110556  5020.72762296
0.28800001 95380.20791566  4961.67865062
0.28900001 93928.75857326  5311.67154874
0.29000001 92492.52599575  4441.02884590
0.29100001 91073.96327781  7579.17558274
0.29200001 89671.83925303  4729.29302607
0.29300001 88286.25951785  4672.10907484
0.29400001 86916.53088184  4999.87367565
0.29500001 85564.29791212  3799.05500713
0.29600001 84227.60580428  3752.34001621
0.29700001 82906.91506897  5188.31499062
0.29800001 81602.40233966  4025.85471001
0.29900001 80314.54986319  3975.57040643
0.30000001 79041.80021558  4996.23242815
0.30100001 77786.03120493  4228.44885648
0.30200001 76544.29330477  4522.61978402
0.30300001 75319.65351208  4464.94927157
0.30400001 74110.50413810  3390.55572483
0.30500001 72916.46688011  3681.55258707
0.30600001 71737.14197527  4294.54420767
0.30700001 70574.26064812  4564.74339483
0.30800001 69426.22875232  4183.27761152
0.30900001 68293.49722289  4445.90687970
0.31000001 67176.17579050  4073.89937369
0.31100001 66072.86948567  3710.65252600
0.31200001 64985.29197768  3966.37748365
0.31300001 63911.98181727  4515.38172918
0.31400001 62854.68245337  3563.86066384
0.31500001 61811.07427920  3808.79857742
0.31600002 60782.58758739  3179.23339429
0.31700002 59768.48740259  3421.14838091
0.31800002 58768.87100090  3093.29967160
0.31900002 57783.69292327  3605.70260914
0.32000002 56813.28896514  2735.55999320
0.32100002 55856.30884142  2967.64582926
0.32200002 54914.71039785  2926.67962923
0.32300002 53985.56482910  3673.17800490
0.32400002 53070.89085831  2587.20605185
0.32500002 52170.10294542  3316.45360128
0.32600002 51283.80641720  2767.01790626
0.32700002 50410.35258575  2728.20841113
0.32800002 49551.41815919  2689.89886215
0.32900002 48705.30690764  3134.18664792
0.33000002 47873.82219613  3090.01599997
0.33100002 47052.95693527  3280.53231287
0.33200002 46248.59669001  2772.14101687
0.33300002 45455.92522917  2960.54455037
0.33400002 44676.86040017  2469.51357557
0.33500002 43909.68695365  2434.35315999
0.33600002 43156.61128878  2836.03684515
0.33700002 42415.11717166  2580.53585093
0.33800002 41687.49478315  2543.77105213
0.33900002 40971.43885882  2089.54348076
0.34000002 40268.42555636  2883.62209065
0.34100002 39577.76609330  2436.40739609
0.34200002 38899.83358488  2801.95514582
0.34300002 38232.86458759  2170.09749677
0.34400002 37579.53145382  1944.74084484
0.34500002 36937.21679196  2300.44997075
0.34600002 36307.86945924  2456.77210331
0.34700002 35688.48184181  2235.52660845
0.34800002 35082.33670376  2754.84062014
0.34900002 34486.98859187  2172.68038419
0.35000002 33903.17241229  2142.00253446
0.35100002 33331.49674850  2463.86435634
0.35200002 32769.43120952  2255.68390414
0.35300002 32219.17161285  1881.92190304
0.35400002 31680.22435116  1855.66922926
0.35500002 31152.28346491  1829.88521740
0.35600002 30633.89214789  1640.44500222
0.35700002 30126.81735868  1779.59118567
0.35800002 29630.98757905  2074.31738372
0.35900002 29145.07462911  1573.83410452
0.36000002 28669.73308831  1862.95934432
0.36100002 28203.85423897  1837.76322926
0.36200002 27749.16867053  1813.13076681
0.36300002 27303.34434684  2087.06774073
0.36400002 26867.50284325  1765.19502041
0.36500002 26441.18482375  1596.78322714
0.36600002 26024.89723230  2005.73892470
0.36700002 25617.33056250  1414.07671403
0.36800002 25220.77122165  2233.55160519
0.36900002 24832.28004168  1516.01076836
0.37000002 24452.63732396  1496.86826469
0.37100002 24081.67379361  1478.13320747
0.37200002 23720.69304519  1990.75925812
0.37300002 23367.69068867  1310.92750973
0.37400002 23023.38296343  1554.07842365
0.37500002 22687.91837461  1279.59865694
0.37600002 22361.07434634  1390.97069561
0.37700002 22041.83180933  1249.77192279
0.37800002 21730.57332401  1729.53641279
0.37900002 21428.09299315  1343.54149432
0.38000002 21133.36603966  1811.65788957
0.38100002 20845.44071885  1313.88819075
0.38200002 20566.30792637  1299.68789098
0.38300002 20293.76886918  1636.48959914
0.38400002 20029.68470384  1272.38578109
0.38500002 19771.48748767  1144.76917977
0.38600002 19521.83806472  1359.89130401
0.38700002 19278.45416951  2019.61095448
0.38800002 19042.17512028  1222.22206800
0.38900002 18812.21468044  1320.61753313
0.39000002 18590.13776362  1199.34279464
0.39100002 18373.41660305  1296.42833693
0.39200002 18163.81439558  1177.83260028
0.39300002 17960.27778889  1486.03345466
0.39400002 17764.15271962  1263.03131820
0.39500002 17573.02887993  1356.98935440
0.39600002 17387.90281580  1138.99462791
0.39700002 17208.79313187  1438.31099811
0.39800002 17035.69292132  1121.54489661
0.39900002 16867.95218877  1315.70033306
0.40000002 16705.60906851  1406.77940631
0.40100002 16549.15857428  1197.49717117
0.40200002 16398.28530755  2081.68042700
0.40300002 16251.90124332  1181.83831441
0.40400002 16111.19481345  1370.25718381
0.40500002 15975.64378917  1070.20842814
0.40600002 15844.80689636  1257.52315891
0.40700002 15718.78643310  1346.78568540
0.40800002 15597.75289153  1339.69105933
0.40900002 15480.98107503  1332.91253372
0.41000002 15369.21154398  1042.26313024
0.41100002 15261.56286825  1131.79755594
0.41200002 15158.01437567  1126.84684208
0.41300002 15059.34573767  1309.25958047
0.41400002 14964.31167119  931.52844567
0.41500002 14873.68351761  1113.74147457
0.41600002 14786.34394386  1109.86302902
0.41700002 14703.26893715  921.89500604
0.41800002 14624.93541843  1378.76585190
0.41900002 14548.24552151  1191.50136467
0.42000002 14476.45916222  1097.02612730
0.42100002 14408.43617042  1003.25945809
0.42200002 14343.85921056  1001.12970104
0.42300002 14281.88797734  1271.65936576
0.42400002 14223.26794886  1178.75338712
0.42500002 14168.15018578  1267.48277568
0.42600002 14115.25897057  1265.71533187
0.42700002 14066.66991816  993.38827669
0.42800002 14019.92419169  1082.61859738
0.42900002 13977.36631979  901.54017035
0.43000002 13936.85427843  991.11943898
0.43100002 13898.08319390  990.65541701
0.43200002 13863.14032526  990.45210747
0.43300002 13830.53943135  990.40497561
0.43400002 13800.31132843  1080.56442822
0.43500002 13772.36815204  990.78421181
0.43600002 13747.01823458  901.11708798
0.43700002 13723.50035539  1352.45102412
0.43800002 13702.01913288  902.27800266
0.43900002 13683.47502956  1083.73127370
0.44000002 13666.39406140  994.43521100
0.44100002 13651.66612964  995.61605802
0.44200002 13638.67787737  1268.80626306
0.44300002 13627.67070086  998.36320286
0.44400002 13618.75804957  1272.67300005
0.44500002 13610.41827234  1274.75183580
0.44600002 13604.18100688  1003.37641771
0.44700002 13600.61304220  1370.94185962
0.44800002 13596.91550120  1373.62845361
0.44900002 13596.56876601  1101.32212224
0.45000002 13596.89273094  1195.77878789
0.45100002 13598.33215461  1382.95044567
0.45200002 13601.38531666  1016.63559367
0.45300002 13605.41248668  1482.44581481
0.45400002 13611.13585988  1021.85607311
0.45500002 13617.93328732  1024.61334910
0.45600002 13625.75493742  1027.45009975
0.45700002 13634.70673462  1030.37483677
0.45800002 13644.37215343  1033.35657402
0.45900002 13655.15672077  1130.64703007
0.46000002 13667.65990438  1039.63059990
0.46100002 13679.91902794  1137.62212028
0.46200002 13693.92476707  1046.14743216
0.46300002 13708.62751303  954.12052013
0.46400002 13723.50567883  1435.82184970
0.46500002 13739.54403171  1056.43359067
0.46600002 13756.21347139  1059.98507928
0.46700002 13773.08142232  1450.30554251
0.46800002 13791.61862739  1649.40870792
0.46900002 13809.67979974  1265.65721363
0.47000002 13828.57649954  1465.48346400
0.47100002 13848.15468232  980.44939798
0.47200002 13868.22953197  1475.92639789
0.47300002 13888.85520580  987.49765194
0.47400002 13909.09202176  1486.53428028
0.47500002 13930.23737488  1094.08089528
0.47600002 13952.15521179  998.27675272
0.47700002 13973.48693501  1402.65868502
