# SAXS profile: number of points = 501, q_min = 0, q_max = 0.5, delta_q = 0.001
#    q    intensity    error
0.00000000 1700912.83420644 306.16431016
0.00100000 1700824.60641579 714.34635166
0.00200000 1700559.87865797 1071.35275748
0.00300000 1700118.89402519 1122.07851003
0.00400000 1699501.50900363 1911.93927028
0.00500000 1698708.38306241 1528.83760527
0.00600000 1697739.37010555 1960.88905230
0.00700000 1696595.24667851 2035.91438063
0.00800000 1695275.73876097 3204.07128153
0.00900000 1693782.33228386 2794.74096774
0.01000000 1692114.39118137 5304.77884541
0.01100000 1690273.58263502 3346.74183933
0.01200000 1688259.67367741 6255.00236522
0.01300000 1686074.12766386 3894.83140668
0.01400000 1683717.08916280 3788.36361856
0.01500000 1681190.16581035 4438.34223537
0.01600000 1678493.04363377 5136.18894312
0.01700000 1675627.90683479 5429.03466168
0.01800000 1672595.30031146 5243.58650243
0.01900000 1669396.17580497 5509.00762874
0.02000000 1666031.35438133 8396.79840592
0.02100000 1662503.66852373 6034.88859035
0.02200000 1658811.59615436 8584.35040011
0.02300000 1654958.49885596 6553.63595378
0.02400000 1650944.84280862 9286.56516424
0.02500000 1646773.08978681 7706.89841218
0.02600000 1642443.71403561 9977.84601914
0.02700000 1637958.53422272 11007.08185411
0.02800000 1633318.24973629 8525.92165462
0.02900000 1628526.16281410 9526.87848988
0.03000000 1623582.86251969 10569.52492083
0.03100000 1618490.10079864 10099.37869369
0.03200000 1613249.00784422 7985.58295663
0.03300000 1607864.01707270 9020.11755161
0.03400000 1602333.49663621 14300.82711732
0.03500000 1596661.43660694 9484.16937141
0.03600000 1590848.65541874 9712.13149017
0.03700000 1584898.25200681 9033.92045424
0.03800000 1578811.82719670 13854.07442481
0.03900000 1572591.77592362 11322.66131100
0.04000000 1566238.44422453 9632.36687833
0.04100000 1559755.77430652 11791.75420050
0.04200000 1553145.60758353 11019.56859703
0.04300000 1546409.57883039 12247.56443284
0.04400000 1539550.23811962 10391.96458993
0.04500000 1532570.76777358 11632.21266789
0.04600000 1525471.28821764 11830.03039007
0.04700000 1518255.97158779 13117.73220460
0.04800000 1510926.48721550 11105.31019774
0.04900000 1503485.49153019 13531.37005362
0.05000000 1495934.86659189 13732.68271479
0.05100000 1488278.77161912 16252.00494316
0.05200000 1480516.11419860 11770.10365638
0.05300000 1472652.62726896 16699.88157174
0.05400000 1464689.14089664 14500.42317109
0.05500000 1456629.66301839 23247.81050627
0.05600000 1448474.58257139 13622.90408479
0.05700000 1440229.41862195 13782.99617958
0.05800000 1431893.11599021 19008.38200232
0.05900000 1423470.12821874 16654.60127803
0.06000000 1414963.91476374 14241.61246745
0.06100000 1406375.91401159 13079.29661152
0.06200000 1397709.09444307 21133.36249583
0.06300000 1388966.96262499 24001.35023635
0.06400000 1380148.60379143 22875.96417768
0.06500000 1371260.62085972 21720.76925047
0.06600000 1362304.36400968 17798.50734855
0.06700000 1353281.19867487 15183.81575972
0.06800000 1344195.22202007 20868.63179870
0.06900000 1335050.39777320 18223.43878281
0.07000000 1325845.66506482 22592.41119067
0.07100000 1316586.00215894 18484.86833610
0.07200000 1307273.28971107 17177.57183152
0.07300000 1297911.13655697 15847.49571990
0.07400000 1288502.44414560 23193.04508154
0.07500000 1279047.62553716 17497.37233749
0.07600000 1269550.37079776 20528.63045819
0.07700000 1260014.42494946 23587.47114104
0.07800000 1250440.97420550 28153.67985454
0.07900000 1240831.87433249 17867.97982846
0.08000000 1231192.56244987 14958.99033551
0.08100000 1221523.82127053 15024.74370656
0.08200000 1211827.31314045 19613.42598354
0.08300000 1202106.00025741 19690.49720833
0.08400000 1192363.32263005 19763.42300026
0.08500000 1182601.46635516 18306.67155859
0.08600000 1172822.59324233 16835.86911646
0.08700000 1163029.02528190 19957.57901100
0.08800000 1153222.51039050 21553.72973144
0.08900000 1143406.80502468 20066.79037071
0.09000000 1133583.82176685 17020.76188339
0.09100000 1123755.58459162 18609.39335513
0.09200000 1113923.88304300 20201.01056816
0.09300000 1104093.19581792 18681.25775111
0.09400000 1094261.80632121 20271.20091480
0.09500000 1084435.02130760 17177.45154490
0.09600000 1074613.70569189 21889.88221394
0.09700000 1064802.97025354 21913.64615804
0.09800000 1055001.25102364 20366.80010861
0.09900000 1045213.53499461 18813.84451458
0.10000000 1035438.23767638 21961.64605391
0.10100000 1025679.82400800 18831.48245447
0.10200000 1015940.61981098 15696.28331437
0.10300000 1006221.13011264 17266.75540497
0.10400000 996524.67500436 17264.79080667
0.10500000 986854.30343920 25105.57466069
0.10600001 977206.61873555 15684.16696870
0.10700001 967589.88968928 18809.94834071
0.10800001 958000.77876691 23494.97020497
0.10900001 948444.43273509 20344.13403968
0.11000001 938921.54126672 15633.04439793
0.11100001 929432.49352678 15614.46662628
0.11200001 919981.29853981 17153.05211879
0.11300001 910566.77869782 18684.83117858
0.11400001 901192.82757922 23318.36551154
0.11500001 891860.48347185 17070.21045745
0.11600001 882570.63872712 17038.02698297
0.11700001 873325.24837128 21641.00067382
0.11800001 864124.39374999 16967.08327040
0.11900001 854970.21934850 16928.41114046
0.12000001 845863.79546137 16887.67147188
0.12100001 836808.34241139 18376.31206503
0.12200001 827802.80704136 18327.55501133
0.12300001 818849.85625752 15230.60804397
0.12400001 809949.06586792 18223.85484069
0.12500001 801102.04294966 19683.07812275
0.12600001 792311.65156426 16602.89144091
0.12700001 783576.94317212 22567.01702686
0.12800001 774899.05699957 16493.72720557
0.12900001 766279.89489912 14942.45865480
0.13000001 757719.92131940 19355.95630244
0.13100001 749218.90291416 17801.44197236
0.13200001 740778.80117372 14778.53778008
0.13300001 732401.47839885 20609.77857375
0.13400001 724085.20582403 21994.08916383
0.13500001 715833.31165483 16063.30027089
0.13600001 707643.77847024 21813.12049985
0.13700001 699519.79819056 21720.09075799
0.13800001 691459.18397570 18742.00206545
0.13900001 683465.77868426 17223.33843506
0.14000001 675537.80576360 14287.62526571
0.14100001 667676.36779011 21332.26095699
0.14200001 659881.52537142 16985.35126418
0.14300001 652155.58456343 15495.21742010
0.14400001 644494.54173307 18223.08402708
0.14500001 636903.92078716 13948.19652320
0.14600001 629380.95173570 13877.85064045
0.14700001 621928.74311793 23471.59187258
0.14800001 614542.35077904 16482.02662549
0.14900001 607226.72613463 16395.12237917
0.15000001 599979.86245594 14948.49897840
0.15100001 592802.84499277 13515.90550358
0.15200001 585695.88649941 13441.72122944
0.15300001 578659.62525972 20050.55696142
0.15400001 571690.66530330 21266.89375289
0.15500001 564793.15558281 14537.77651078
0.15600001 557962.98325446 15768.03465094
0.15700001 551206.33933905 18289.02720245
0.15800001 544515.47844791 16882.70320612
0.15900001 537896.58766907 14200.47058473
0.16000001 531345.00423971 14115.18070390
0.16100001 524865.64486964 15305.08292686
0.16200001 518454.22289297 16479.06825256
0.16300001 512111.32005787 21416.49641585
0.16400001 505837.70791377 16275.32902048
0.16500001 499632.04665002 13684.92240383
0.16600001 493495.79752136 16070.69140503
0.16700001 487425.76834952 15968.06892506
0.16800001 481423.20717520 15865.30254156
0.16900001 475489.98251128 13337.49463921
0.17000001 469622.31449173 14454.97552261
0.17100001 463821.25667581 13163.24788605
0.17200001 458086.89851311 14264.82669332
0.17300001 452418.52655954 17712.18615125
0.17400001 446815.74796570 16420.47951321
0.17500001 441277.52036785 11649.72708790
0.17600001 435802.56217091 12727.61442932
0.17700001 430393.83735830 11491.51600022
0.17800001 425046.82939912 17118.76186260
0.17900001 419763.88054363 11333.62531001
0.18000001 414543.33954775 13505.82264041
0.18100001 409386.48118976 13411.50175729
0.18200001 404288.54609992 12207.49322614
0.18300001 399252.94167451 11019.38171076
0.18400001 394277.19906753 10941.19279099
0.18500001 389362.87791106 13035.86976830
0.18600001 384506.35230575 14021.02479923
0.18700001 379708.49730295 10707.78012983
0.18800001 374968.82904624 11693.40348628
0.18900001 370288.45473740 13719.18789622
0.19000001 365660.99234668 13619.04430344
0.19100001 361094.66202860 13519.38478514
0.19200001 356580.59980285 12387.61062248
0.19300001 352124.39592649 11271.50244621
0.19400001 347720.33735109 11187.90238294
0.19500001 343371.27146397 12114.13902970
0.19600001 339075.21229208 13025.57489574
0.19700001 334831.67572558 9944.50123900
0.19800001 330640.39900312 14804.42456500
0.19900001 326500.79848314 9795.02441741
0.20000001 322410.44659793 12636.87805164
0.20100001 318371.90174902 12540.66980259
0.20200001 314381.12058584 10530.19613172
0.20300001 310440.86599874 11399.38913826
0.20400001 306547.81905822 9426.34588158
0.20500001 302702.27040058 9353.50059749
0.20600001 298903.88819254 10209.06278378
0.20700001 295152.00774795 9208.74307702
0.20800001 291444.41671846 9136.78289602
0.20900001 287784.30973167 14504.32989611
0.21000001 284166.62655822 14390.19864917
0.21100001 280593.61599180 12492.02837450
0.21200001 277063.01509979 9737.38012601
0.21300001 273574.43451179 9659.91373929
0.21400001 270128.93887917 9582.82455978
0.21500001 266725.50917476 9506.09759641
0.21600001 263361.63933046 10286.90611860
0.21700001 260038.21027672 8503.24987808
0.21800001 256754.65082955 9277.82974639
0.21900001 253508.98500374 10038.95628081
0.22000001 250301.55095363 9956.99616773
0.22100001 247133.60682901 9875.45939583
0.22200001 244003.02112468 13059.04230808
0.22300001 240907.57087218 10522.84319327
0.22400001 237847.85193790 12041.04807373
0.22500001 234826.57410165 11144.86973387
0.22600001 231838.08461399 12630.53944705
0.22700001 228886.37615894 10176.28876525
0.22800001 225966.98984690 9314.35976197
0.22900001 223080.81577350 7696.28850815
0.23000001 220228.81953867 7630.92895790
0.23100001 217410.06898517 9835.63198604
0.23200001 214621.60687123 9001.23061788
0.23300001 211865.84572849 8180.14069045
0.23400001 209141.74090710 8109.47138721
0.23500001 206446.29110796 7308.19905087
0.23600001 203783.13237250 9417.83790803
0.23700001 201148.82220424 8617.21595081
0.23800001 198544.20842742 7117.81020879
0.23900001 195968.11823249 8465.82310807
0.24000001 193420.63599421 7691.37195411
0.24100001 190902.34007796 10394.63290892
0.24200001 188410.95101433 8241.09538719
0.24300001 185947.37228508 8847.37639183
0.24400001 183510.41059388 8767.21028084
0.24500001 181099.76234305 11360.38862918
0.24600001 178716.10917466 7283.57537396
0.24700001 176358.12815701 9840.78401669
0.24800001 174025.62294598 7799.82878942
0.24900001 171717.49731822 7727.28774488
0.25000001 169435.44341444 7017.16922098
0.25100001 167176.52922291 7583.12772430
0.25200001 164943.66409638 8137.49605318
0.25300001 162734.40080457 9300.27144598
0.25400001 160548.35690439 8597.36491898
0.25500001 158385.33761753 6690.19697749
0.25600001 156246.01058213 7830.26919079
0.25700001 154128.66153267 6561.25743188
0.25800001 152034.84662252 8269.17569905
0.25900001 149963.04386816 7603.12668386
0.26000001 147913.15798135 6369.88044986
0.26100001 145884.65659887 6306.59400317
0.26200001 143878.40832288 6243.60382460
0.26300001 141892.62524144 7304.63269307
0.26400001 139928.49978690 5562.15812972
0.26500001 137985.56061759 6606.74895499
0.26600001 136062.20947168 5994.22092192
0.26700001 134160.42865176 8629.19917922
0.26800001 132279.27957121 5871.21610160
0.26900001 130416.75753459 7922.81839515
0.27000001 128575.13671535 6794.55342126
0.27100001 126752.74865777 6205.81486796
0.27200001 124951.39814622 7675.13999435
0.27300001 123168.25073055 5568.43687905
0.27400001 121402.62082497 6510.21584983
0.27500001 119658.82162355 7430.81317449
0.27600001 117931.70885948 9310.11919652
0.27700001 116224.89391444 5815.89396673
0.27800001 114535.64251019 5272.64855250
0.27900001 112866.13316546 7110.56672595
0.28000001 111213.33664201 5625.17083358
0.28100001 109579.56861367 4635.21597174
0.28200001 107964.31509190 5958.01101034
0.28300001 106366.62260987 4984.34017141
0.28400001 104786.50836165 5375.54813338
0.28500001 103224.39277483 4428.32665964
0.28600001 101679.69960075 6128.23578500
0.28700001 100152.61712654 6489.88989698
0.28800001 98641.97365684  6841.80761668
0.28900001 97150.49834339  5916.46562916
0.29000001 95674.49247677  4176.19179429
0.29100001 94216.59964447  5364.69343769
0.29200001 92775.26190450  4485.22024908
0.29300001 91350.92935753  5237.14902797
0.29400001 89942.80568106  5571.95707570
0.29500001 88552.39411121  4324.89913312
0.29600001 87177.83945106  4272.15022453
0.29700001 85819.70206341  3836.14086383
0.29800001 84477.91764984  4925.48522174
0.29900001 83153.30161644  4116.08862487
0.30000001 81843.97647784  4064.78128420
0.30100001 80551.91423057  5108.60264235
0.30200001 79274.34234222  4683.92473903
0.30300001 78014.04694820  3913.18478018
0.30400001 76769.44850863  4214.64292265
0.30500001 75540.45377502  4507.49909015
0.30600001 74326.47198112  4107.28103613
0.30700001 73129.18686130  4054.28231153
0.30800001 71947.19052409  6002.55438961
0.30900001 70780.60732597  3291.29839648
0.31000001 69629.79349438  3573.05302233
0.31100001 68493.32882719  5128.78070540
0.31200001 67372.88480507  4428.41992790
0.31300001 66267.10101895  3745.41672692
0.31400001 65177.62285599  4003.53567348
0.31500001 64101.98583437  3342.27769965
0.31600002 63041.82116444  4496.45810745
0.31700002 61996.30185859  4435.83560801
0.31800002 60965.68123582  2917.20798526
0.31900002 59949.78853515  3740.86698172
0.32000002 58948.95783287  3122.23169945
0.32100002 57961.73283693  4479.28292573
0.32200002 56990.33578427  3037.30008944
0.32300002 56031.40913154  3267.75193528
0.32400002 55087.58750214  4028.28002684
0.32500002 54157.84189886  3707.64603196
0.32600002 53242.81231353  2872.71607441
0.32700002 52340.90029908  3605.24138332
0.32800002 51453.78045889  3808.86627883
0.32900002 50579.77864152  3254.80890971
0.33000002 49720.75108471  2715.49894908
0.33100002 48872.65551473  3650.78753983
0.33200002 48041.12246593  2399.65418081
0.33300002 47221.67963642  3312.12876655
0.33400002 46416.23425054  3731.86541047
0.33500002 45622.79519410  2989.20568267
0.33600002 44843.82235159  2493.54085995
0.33700002 44076.66496161  2905.09312520
0.33800002 43323.76870865  2643.61649180
0.33900002 42582.46851269  2388.87659669
0.34000002 41854.64770047  2140.86533127
0.34100002 41139.39755641  2954.63167243
0.34200002 40437.21390501  2704.64318013
0.34300002 39746.14858180  2666.17177314
0.34400002 39069.10528455  2830.55681192
0.34500002 38403.15881075  3388.31086234
0.34600002 37750.52038349  2357.89761482
0.34700002 37108.10405285  2130.74743563
0.34800002 36479.25055380  1909.68885694
0.34900002 35861.38001612  1882.72254002
0.35000002 35255.37436293  1856.19554812
0.35100002 34661.57593429  1830.13129601
0.35200002 34077.86524140  1984.86535499
0.35300002 33506.05392593  1957.08870251
0.35400002 32945.84407458  1929.80290807
0.35500002 32396.94999839  2075.99665422
0.35600002 31857.83720156  2047.18471554
0.35700002 31330.12991095  2355.39927827
0.35800002 30813.97562382  2157.13246572
0.35900002 30308.03946356  1636.63420855
0.36000002 29812.91619307  1937.24338599
0.36100002 29327.37928635  1910.97212481
0.36200002 28853.42360108  1728.17588844
0.36300002 28388.45747534  2170.01379220
0.36400002 27933.75000687  1682.31017385
0.36500002 27488.67912014  1810.95426622
0.36600002 27053.97579592  1787.18572573
0.36700002 26628.23764301  1616.86666627
0.36800002 26213.67118811  1741.11212279
0.36900002 25807.41326429  1862.00495522
0.37000002 25410.21474261  1555.48636915
0.37100002 25021.94762341  1954.71464094
0.37200002 24643.91089166  2344.00569550
0.37300002 24273.92331074  1770.29731091
0.37400002 23912.94955117  2152.16556156
0.37500002 23561.02753997  1328.84201620
0.37600002 23217.84029387  1969.45339622
0.37700002 22882.51952140  1686.67059382
0.37800002 22555.53678760  2564.56465424
0.37900002 22237.43568225  1267.53389393
0.38000002 21927.20334684  1503.76767676
0.38100002 21624.03437358  1734.68011963
0.38200002 21329.84250106  1347.93946071
0.38300002 21042.44014843  1818.06691495
0.38400002 20763.74682143  1199.10643574
0.38500002 20491.04473576  1661.00416497
0.38600002 20227.28506571  1526.45213980
0.38700002 19969.70482036  1162.23687561
0.38800002 19719.56823029  1265.70054682
0.38900002 19475.92407889  1253.27577385
0.39000002 19240.32936453  1354.13444483
0.39100002 19010.26950836  1229.58429005
0.39200002 18787.53720556  1218.27790781
0.39300002 18570.94346304  1646.31421600
0.39400002 18362.09835051  1305.54525457
0.39500002 18158.38124183  1402.19026593
0.39600002 17960.82625283  1818.26433185
0.39700002 17769.47843628  1273.00549549
0.39800002 17584.23881325  1157.65841712
0.39900002 17404.53751027  1253.12676011
0.40000002 17230.54571275  1243.70084847
0.40100002 17062.44813647  1028.86567138
0.40200002 16900.22699900  1225.94252459
0.40300002 16742.59524419  1318.98171583
0.40400002 16590.82614150  1108.68200944
0.40500002 16444.27278413  1402.03876400
0.40600002 16302.67043079  995.27807696
0.40700002 16166.05776566  1582.98045142
0.40800002 16034.58920170  1082.09430355
0.40900002 15907.53919148  1076.14507729
0.41000002 15785.63207392  1265.13954251
0.41100002 15667.95150855  1258.76328384
0.41200002 15554.55391283  1156.32559267
0.41300002 15446.18503318  1342.89139041
0.41400002 15341.67792394  955.01949602
0.41500002 15241.63639515  1046.18597173
0.41600002 15144.95862172  1231.51236868
0.41700002 15052.79689775  1038.19145123
0.41800002 14965.42033266  1316.80739747
0.41900002 14879.90026594  1031.17713729
0.42000002 14799.51626619  1028.04844614
0.42100002 14722.82195759  1304.73654371
0.42200002 14649.81608969  1115.43704992
0.42300002 14579.51619531  1019.98300136
0.42400002 14512.75427757  1387.78219355
0.42500002 14449.53502674  923.32533196
0.42600002 14388.75630655  1105.91986213
0.42700002 14332.28625929  1472.21251432
0.42800002 14277.94665198  1010.66450165
0.42900002 14227.78035697  1284.76862712
0.43000002 14179.86371797  1375.09234921
0.43100002 14133.79531501  1373.80496972
0.43200002 14091.67472294  1372.88147494
0.43300002 14051.95030824  1189.21661094
0.43400002 14014.83108397  1005.91454872
0.43500002 13979.98541731  1188.57841650
0.43600002 13947.94366812  1005.71652585
0.43700002 13917.79842042  1005.83933951
0.43800002 13889.77890144  1280.49877761
0.43900002 13864.85080660  915.08019660
0.44000002 13841.44688023  1190.29528087
0.44100002 13820.54524720  1099.56263198
0.44200002 13801.50532389  1008.82107946
0.44300002 13784.43254215  1560.67352638
0.44400002 13769.67785870  1011.03864469
0.44500002 13755.55358742  1196.32055219
0.44600002 13743.55276627  1013.65578231
0.44700002 13734.43391541  1107.54480343
0.44800002 13725.24738864  1016.83500098
0.44900002 13719.41637559  926.06064924
0.45000002 13714.51270494  1020.56551131
0.45100002 13710.74104370  1022.54711550
0.45200002 13708.69768688  1024.65665717
0.45300002 13707.62934452  1026.83856286
0.45400002 13708.36112608  1029.15526031
0.45500002 13710.33742746  1500.45939917
0.45600002 13713.38234977  1128.06288556
0.45700002 13717.66523820  1225.12474049
0.45800002 13722.71496611  944.80897019
0.45900002 13728.93666755  1515.67467993
0.46000002 13736.99822648  949.91347238
0.46100002 13744.79712630  1047.76593460
0.46200002 13754.59824172  1146.30827179
0.46300002 13765.03183777  1149.65551358
0.46400002 13775.79395253  1249.12017585
0.46500002 13787.76969205  1060.14166187
0.46600002 13800.44029598  966.72088855
0.46700002 13813.32107424  969.69518537
0.46800002 13828.04242535  1264.64367995
0.46900002 13842.29820460  1073.47027665
0.47000002 13857.50321975  1370.64570843
0.47100002 13873.34131633  1276.90239528
0.47200002 13889.91467769  1182.58739171
0.47300002 13907.01914354  1483.18366196
0.47400002 13923.80536774  1091.27829742
0.47500002 13941.51692796  1094.96679142
0.47600002 13960.21635849  1698.05099725
0.47700002 13978.22276855  1403.13406801
