# SAXS profile: number of points = 501, q_min = 0, q_max = 0.5, delta_q = 0.001
#    q    intensity    error
0.00000000 1664650.74656089 299.63713438
0.00100000 1664563.62187480 599.24291811
0.00200000 1664302.21370401 898.72322386
0.00300000 1663866.74800041 1098.15209280
0.00400000 1663257.09336060 1496.93144090
0.00500000 1662473.90527813 1945.09454616
0.00600000 1661517.02950140 2093.51154240
0.00700000 1660387.24708140 1992.46477931
0.00800000 1659084.28573535 2687.71665637
0.00900000 1657609.61521198 2983.69743493
0.01000000 1655962.61721562 4098.50765458
0.01100000 1654144.85597923 4168.44521856
0.01200000 1652156.25828177 3543.87532939
0.01300000 1649998.17417583 7622.99190090
0.01400000 1647670.80592706 4448.71137322
0.01500000 1645175.61216379 4343.26380951
0.01600000 1642512.45106079 5444.92901867
0.01700000 1639683.41139323 5312.57449123
0.01800000 1636689.02229472 7929.75866984
0.01900000 1633530.27155564 5390.65013937
0.02000000 1630207.92292462 8729.76382216
0.02100000 1626724.79238231 6441.83046990
0.02200000 1623079.41376142 7839.47392463
0.02300000 1619275.11922407 8161.14697237
0.02400000 1615312.34414890 7268.90588011
0.02500000 1611193.45105598 6912.02022071
0.02600000 1606919.03824769 9762.03360385
0.02700000 1602490.91112798 6730.46213500
0.02800000 1597909.68410271 8341.08893354
0.02900000 1593178.65761488 7169.30428844
0.03000000 1588298.44348606 7385.58810169
0.03100000 1583270.73251985 8359.66985236
0.03200000 1578096.79887293 8592.73746563
0.03300000 1572780.69373942 8823.30009864
0.03400000 1567321.02827354 10696.96651153
0.03500000 1561721.97996140 10119.95889747
0.03600000 1555983.92176787 9499.28228139
0.03700000 1550110.33240657 11486.31809435
0.03800000 1544102.41469524 10839.59945281
0.03900000 1537962.76422452 14764.44322030
0.04000000 1531691.66464368 9419.90417407
0.04100000 1525293.20181479 15374.95618718
0.04200000 1518768.81759570 10775.66526076
0.04300000 1512120.41761401 11975.99426340
0.04400000 1505350.81072705 14225.56582203
0.04500000 1498462.43750591 14475.14781889
0.04600000 1491455.95889646 11566.24149892
0.04700000 1484335.24089751 13893.37850095
0.04800000 1477102.12077652 11942.37120213
0.04900000 1469759.23259278 11023.19475755
0.05000000 1462308.36222442 12305.32544113
0.05100000 1454753.46860080 15885.90861715
0.05200000 1447093.79040010 13805.27540376
0.05300000 1439334.73484795 13990.33427492
0.05400000 1431477.41188475 14171.62703854
0.05500000 1423525.47962382 16740.66042132
0.05600000 1415479.50175319 13312.58533521
0.05700000 1407344.84284309 13468.29077469
0.05800000 1399120.70593549 16096.88447339
0.05900000 1390811.33851266 16272.49342062
0.06000000 1382420.10580832 15178.97347092
0.06100000 1373948.42021655 12777.72090513
0.06200000 1365399.49212285 16773.93354480
0.06300000 1356776.30057350 19537.57964174
0.06400000 1348078.38303743 17086.89430410
0.06500000 1339312.20324360 17236.94886205
0.06600000 1330479.11478038 14708.44730208
0.06700000 1321580.22434338 14828.13081107
0.06800000 1312619.82317965 17661.30054759
0.06900000 1303601.49581820 15056.59798163
0.07000000 1294524.75956931 16544.02720203
0.07100000 1285394.32785006 13882.25939099
0.07200000 1276211.74632257 15371.97120458
0.07300000 1266980.86369916 14063.48824601
0.07400000 1257704.46411322 15564.09347280
0.07500000 1248383.07431466 18501.03802853
0.07600000 1239020.32259489 14310.68539686
0.07700000 1229619.88675735 20141.17468948
0.07800000 1220182.77816637 18796.91657916
0.07900000 1210711.18391811 18887.09535500
0.08000000 1201210.28457151 18973.11733486
0.08100000 1191680.73101589 14657.67367921
0.08200000 1182124.08290982 16189.19007513
0.08300000 1172543.86752749 16251.45876664
0.08400000 1162943.08600086 22241.28756374
0.08500000 1153323.61998540 20829.02555476
0.08600000 1143688.13585903 14925.13087372
0.08700000 1134038.58589169 16466.24104036
0.08800000 1124377.00127891 18012.52040642
0.08900000 1114706.75349584 15048.54187902
0.09000000 1105029.87795975 24133.85366834
0.09100000 1095348.29521792 18138.96862100
0.09200000 1085663.90550405 28775.52316745
0.09300000 1075981.10087549 16688.46765881
0.09400000 1066298.56283360 19753.18180484
0.09500000 1056620.82377236 15215.34057748
0.09600000 1046948.91014600 18279.72883044
0.09700000 1037288.19768298 18297.76466736
0.09800000 1027637.27449632 22890.62136567
0.09900000 1018000.15646874 21378.00429109
0.10000000 1008376.52214808 21387.66704056
0.10100000 998769.95499509 16809.29913314
0.10200000 989182.44557740 19867.73035393
0.10300000 979615.66750722 15282.00513199
0.10400000 970071.93524057 18334.36043859
0.10500000 960554.58729014 16800.10052214
0.10600001 951060.27310939 18317.42172199
0.10700001 941596.79446640 18304.64254580
0.10800001 932161.49255513 16764.92523259
0.10900001 922759.14865978 19793.18467033
0.11000001 913390.26399259 15207.94861131
0.11100001 904055.67037853 19744.57677051
0.11200001 894758.59767060 15166.15894450
0.11300001 885498.76893063 15142.02966161
0.11400001 876279.31143101 19650.56448408
0.11500001 867101.29876453 18105.07597074
0.11600001 857966.21917359 19574.50021224
0.11700001 848875.35906848 16527.60401943
0.11800001 839829.21678761 16490.04744828
0.11900001 830829.53096448 16450.42548794
0.12000001 821877.68334656 16408.78872095
0.12100001 812976.45884452 19340.71086702
0.12200001 804125.43203022 16319.72641190
0.12300001 795326.49581933 22189.61027881
0.12400001 786579.96193665 23597.39996995
0.12500001 777886.72861368 23523.29578171
0.12600001 769250.20056870 14654.21701139
0.12700001 760668.83368226 17525.81075397
0.12800001 752144.34264250 20375.59120247
0.12900001 743678.20217642 18852.24331372
0.13000001 735271.03184108 20227.30703936
0.13100001 726922.67825683 18710.99062032
0.13200001 718634.88348295 17204.11992159
0.13300001 710409.32707736 17135.07377690
0.13400001 702244.80054692 14220.45788151
0.13500001 694144.01698254 16992.64633691
0.13600001 686105.52817241 16919.36312249
0.13700001 678132.06421405 21056.00158671
0.13800001 670221.88049976 23756.01567455
0.13900001 662378.03062854 22255.90287867
0.14000001 654599.18277952 16613.72804246
0.14100001 646886.71733894 15156.55650208
0.14200001 639240.40273848 17825.21947109
0.14300001 631662.33237068 15008.29772503
0.14400001 624148.82596702 17647.80888666
0.14500001 616705.14884054 14856.42773638
0.14600001 609328.73394002 18809.97890408
0.14700001 602022.32479953 17374.36511338
0.14800001 594781.46385993 14622.70297888
0.14900001 587610.67325079 13221.24077193
0.15000001 580508.22552395 13148.51192850
0.15100001 573474.98806222 18305.32248268
0.15200001 566510.98631932 14301.57052448
0.15300001 559617.26570250 14219.87539252
0.15400001 552790.19421122 17993.32167070
0.15500001 546034.20126127 15332.64109501
0.15600001 539344.83106360 13971.72850810
0.15700001 532728.18573522 25251.31719563
0.15800001 526176.77479214 17569.04333955
0.15900001 519696.92691353 14967.27220157
0.16000001 513283.30949515 14874.95101130
0.16100001 506941.34060473 13550.54267401
0.16200001 500666.64521539 23258.47010142
0.16300001 494460.04218165 18245.57641784
0.16400001 488321.74977198 18128.94581614
0.16500001 482250.92109469 14409.65820261
0.16600001 476248.55911623 16702.03775676
0.16700001 470311.95169093 13037.04791641
0.16800001 464441.84718071 12950.96152013
0.16900001 458640.58122599 12864.86891084
0.17000001 452903.99476253 15102.08441847
0.17100001 447233.23806432 11538.61808693
0.17200001 441628.80154465 16044.37511778
0.17300001 436089.16677945 18211.08446472
0.17400001 430614.28521204 14694.71317683
0.17500001 425203.67093158 12347.91518702
0.17600001 419855.33845680 15606.02366750
0.17700001 414572.32027854 12175.98962166
0.17800001 409350.76088390 12090.17529375
0.17900001 404191.96412040 14187.13861074
0.18000001 399095.23030613 11918.97961609
0.18100001 394061.17379880 15061.01877402
0.18200001 389085.36184291 14952.55116195
0.18300001 384170.78927614 13784.04857038
0.18400001 379315.61003016 10526.00867559
0.18500001 374521.03683058 18808.44735818
0.18600001 369783.48964702 13484.15558702
0.18700001 365103.63995145 13384.70007298
0.18800001 360481.28427400 15329.46733801
0.18900001 355917.57043165 12172.38148388
0.19000001 351406.13279607 11074.56479833
0.19100001 346954.74511768 10991.52684468
0.19200001 342555.05706905 12892.06018196
0.19300001 338212.27078591 12794.57080841
0.19400001 333920.97000123 9767.18883407
0.19500001 329683.93105255 10661.97883407
0.19600001 325498.94340850 10580.34365548
0.19700001 321365.77247169 10499.02028281
0.19800001 317283.99697366 11365.11330870
0.19900001 313253.48499929 14096.40749116
0.20000001 309271.17782934 17716.60025926
0.20100001 305340.04315295 9251.80374480
0.20200001 301455.73230691 9179.32748259
0.20300001 297621.34109866 10017.93481487
0.20400001 293833.52051499 12649.53365606
0.20500001 290092.17165547 11653.00308620
0.20600001 286397.16580181 10671.15890218
0.20700001 282748.17675628 9703.91788497
0.20800001 279142.79117392 11376.46499206
0.20900001 275583.93350040 10417.07317874
0.21000001 272067.00111935 10333.10519098
0.21100001 268593.68657855 11957.79149176
0.21200001 265162.38247301 13555.10163283
0.21300001 261772.32933087 8402.89216877
0.21400001 258424.58379945 8334.19322154
0.21500001 255118.06112595 9092.40812840
0.21600001 251850.54499228 10657.05631520
0.21700001 248622.74030880 8942.96039173
0.21800001 245434.06222631 10481.26212293
0.21900001 242282.68561637 11193.46060472
0.22000001 239168.88474309 8721.29379452
0.22100001 236093.76192950 11006.69170159
0.22200001 233055.33868895 7795.70144776
0.22300001 230051.53968079 10048.65172841
0.22400001 227082.86061525 13795.28443471
0.22500001 224151.62071626 8358.61433177
0.22600001 221252.60759712 12053.84263190
0.22700001 218389.57846190 9709.60111757
0.22800001 215558.93309880 8885.33964252
0.22900001 212760.37853012 9542.30342834
0.23000001 209995.31109181 16007.94332157
0.23100001 207263.01684455 11540.40532368
0.23200001 204560.54967068 10724.08732367
0.23300001 201889.64720044 9212.22503744
0.23400001 199250.02283654 9130.63272832
0.23500001 196638.88123647 8353.22007000
0.23600001 194058.91370186 8968.43312091
0.23700001 191507.41026841 11622.58527891
0.23800001 188985.13099147 6775.11726650
0.23900001 186490.72748619 7385.03315776
0.24000001 184024.26143291 9313.46831165
0.24100001 181586.44648755 6591.58831929
0.24200001 179175.29203524 7184.03367397
0.24300001 176791.05867268 7764.66366419
0.24400001 174432.80865624 10256.64963416
0.24500001 172100.78943525 8890.72720280
0.24600001 169794.61280487 6290.89070201
0.24700001 167514.04499261 8724.13187592
0.24800001 165258.33852802 6789.63915962
0.24900001 163026.49853627 6724.84338276
0.25000001 160820.20556938 6660.36912875
0.25100001 158636.65824804 7795.40575510
0.25200001 156478.51527795 7126.03192289
0.25300001 154343.60569341 7056.58998615
0.25400001 152231.37558154 7569.70550892
0.25500001 150141.69037157 7495.07353796
0.25600001 148075.31282586 6279.13393746
0.25700001 146030.36827435 6216.51307156
0.25800001 144008.40005572 6154.19926756
0.25900001 142008.17946919 7199.81503975
0.26000001 140029.48993435 6030.37026935
0.26100001 138071.31069329 5968.82304369
0.26200001 136135.33823704 6444.64721708
0.26300001 134219.38041821 6378.10525927
0.26400001 132324.37365954 11571.76702408
0.26500001 130450.38370820 6766.46172313
0.26600001 128595.55446425 7210.35308000
0.26700001 126761.87541405 8662.90697573
0.26800001 124948.40176435 6554.16872470
0.26900001 123153.03577727 5486.46800351
0.27000001 121378.42982807 7894.45344960
0.27100001 119622.44440933 5856.71515544
0.27200001 117887.07736579 6758.46646521
0.27300001 116169.72081806 6206.94847705
0.27400001 114469.40231725 6610.60829667
0.27500001 112790.68039025 5136.48782806
0.27600001 111128.16816847 5540.85072711
0.27700001 109485.47316968 5022.09889197
0.27800001 107860.04685935 9930.67498433
0.27900001 106254.08578669 6247.74053995
0.28000001 104664.41987370 5293.92660777
0.28100001 103093.43277160 6105.19337769
0.28200001 101540.77473699 4741.44670075
0.28300001 100005.15821330 4686.24193568
0.28400001 98486.68792935  5052.36732991
0.28500001 96986.13931997  4160.70557376
0.28600001 95502.43458027  4933.65600394
0.28700001 94036.04534713  4874.82882153
0.28800001 92585.89301899  6421.75784376
0.28900001 91154.51839089  4758.26608523
0.29000001 89738.35490068  5483.91112756
0.29100001 88339.83658777  4643.14203084
0.29200001 86957.78512070  4203.97432066
0.29300001 85592.28778646  4529.54408407
0.29400001 84242.57250169  4100.50741062
0.29500001 82910.39969820  6258.07726546
0.29600001 81593.79361791  4362.00441330
0.29700001 80293.33852782  4665.84612272
0.29800001 79008.87306780  4960.96737477
0.29900001 77741.05912831  4198.01739166
0.30000001 76488.42799094  4144.14322473
0.30100001 75252.85647291  3408.95455960
0.30200001 74031.17441081  4710.60385076
0.30300001 72826.77116098  4317.17119880
0.30400001 71637.88102476  3605.17653325
0.30500001 70464.09182028  3234.30196767
0.30600001 69304.90264269  5106.38546846
0.30700001 68162.34615443  4093.83070385
0.30800001 67034.52600034  3728.46051266
0.30900001 65922.03987389  4291.52499897
0.31000001 64825.11239403  4233.72829090
0.31100001 63742.08499579  3281.44269094
0.31200001 62674.91910173  5296.65766406
0.31300001 61621.96374161  3773.11301854
0.31400001 60584.95798713  4580.22304069
0.31500001 59561.78414500  3952.52018300
0.31600002 58553.68251357  2784.22773535
0.31700002 57559.99550854  3569.29549048
0.31800002 56580.76518725  4061.08461360
0.31900002 55616.14871810  3470.44784433
0.32000002 54666.09517475  2895.38986803
0.32100002 53729.57156012  4152.22148677
0.32200002 52808.39205719  2814.42338795
0.32300002 51899.78832039  2774.56281499
0.32400002 51005.70379672  2735.18099561
0.32500002 50125.42502824  3186.47341993
0.32600002 49259.51583205  3382.65111236
0.32700002 48406.53999032  2381.60188030
0.32800002 47568.22045991  3051.73932811
0.32900002 46742.57072169  2545.13309632
0.33000002 45931.43942323  3420.74411303
0.33100002 45131.02601213  2472.27772202
0.33200002 44347.22418475  2215.14395293
0.33300002 43574.99105108  3929.59287907
0.33400002 42816.29015423  3227.27802320
0.33500002 42069.62018554  2756.40164509
0.33600002 41336.90834594  3134.37122376
0.33700002 40615.90194292  2676.99422383
0.33800002 39908.57529481  2232.28626483
0.33900002 39212.95568245  2199.84691797
0.34000002 38530.29454896  2759.15452332
0.34100002 37859.78760325  2330.64863523
0.34200002 37202.09565524  2105.45270332
0.34300002 36555.52077639  2829.39744209
0.34400002 35922.25972964  2044.87473195
0.34500002 35300.16361943  2748.11786792
0.34600002 34690.91286084  2166.79451991
0.34700002 34091.60409280  2313.45636330
0.34800002 33505.50574139  3157.22395554
0.34900002 32930.15047312  2593.24947258
0.35000002 32366.26069225  1874.49207677
0.35100002 31814.45060216  2519.70460703
0.35200002 31272.22839567  1821.45102918
0.35300002 30741.76286271  1958.86522239
0.35400002 30222.46114758  1770.28074557
0.35500002 29714.02133738  1586.72881457
0.35600002 29215.32273715  2190.27284935
0.35700002 28727.77853310  1542.68178030
0.35800002 28251.30782834  2129.86619806
0.35900002 27784.80158876  1950.49316392
0.36000002 27328.74721592  1775.82207820
0.36100002 26882.08374564  1459.69721653
0.36200002 26446.49911090  1872.01552824
0.36300002 26019.78795067  1420.68048940
0.36400002 25602.83608855  1682.10641069
0.36500002 25195.47171243  2074.84719380
0.36600002 24797.88218290  1774.66052248
0.36700002 24409.07379112  2021.07140564
0.36800002 24031.06853409  1729.15561828
0.36900002 23661.04776011  2101.10114063
0.37000002 23299.74655783  1555.95714884
0.37100002 22947.17551068  1536.54294498
0.37200002 22604.26851098  1264.70888310
0.37300002 22269.41607382  1374.24573101
0.37400002 21943.03842293  2098.30314859
0.37500002 21625.47637730  1829.51538819
0.37600002 21316.33923519  1325.98294494
0.37700002 21014.69231072  1429.83973256
0.37800002 20720.96065100  1177.98666881
0.37900002 20435.79349956  1630.77639852
0.38000002 20158.36844387  1843.28129783
0.38100002 19887.60126047  2051.20729118
0.38200002 19625.38251800  1578.46959070
0.38300002 19369.84950887  1227.27372302
0.38400002 19122.43862035  1214.75297091
0.38500002 18880.98183251  1858.45512982
0.38600002 18647.67713415  1948.49587606
0.38700002 18420.76990202  1179.29774500
0.38800002 18200.68300288  1593.01485530
0.38900002 17986.79320236  1157.45019741
0.39000002 17780.64068790  1668.53540120
0.39100002 17579.79621602  1137.06127312
0.39200002 17385.86929938  1024.89704375
0.39300002 17197.82113866  1219.66953294
0.39400002 17017.08442057  1310.74098959
0.39500002 16841.12174387  1000.36267898
0.39600002 16671.20284876  1092.04719435
0.39700002 16506.96596708  1773.83864686
0.39800002 16348.68952481  1076.31602586
0.39900002 16195.63679194  1360.43355498
0.40000002 16047.81136948  1158.33107953
0.40100002 15905.74729720  1150.93992896
0.40200002 15768.99393023  953.23572825
0.40300002 15636.67395005  1137.09898352
0.40400002 15509.84261732  1036.44528201
0.40500002 15388.01211311  1499.40797134
0.40600002 15270.83668178  1211.97001067
0.40700002 15158.23935982  1020.45272205
0.40800002 15050.43574966  1015.67870469
0.40900002 14946.79800785  1378.84218156
0.41000002 14848.01175375  1098.45596159
0.41100002 14753.22290556  1185.27398439
0.41200002 14662.30970313  999.16314206
0.41300002 14576.19882412  1357.77298480
0.41400002 14493.50009573  992.44246608
0.41500002 14415.02725700  1169.34706650
0.41600002 14339.77008899  986.64792772
0.41700002 14268.57597205  1341.95963376
0.41800002 14202.00880173  981.85592503
0.41900002 14136.94226633  979.69014548
0.42000002 14076.50202065  1244.50360262
0.42100002 14019.83218543  1064.94650327
0.42200002 13966.32404624  1683.71027518
0.42300002 13915.36794469  973.51918754
0.42400002 13867.51828154  884.05433234
0.42500002 13823.14653709  971.62901613
0.42600002 13780.73070159  1147.45259624
0.42700002 13742.56995612  1058.72763959
0.42800002 13706.06206561  1234.77919000
0.42900002 13673.54775006  1499.30458184
0.43000002 13643.01104771  1146.62691784
0.43100002 13614.02436702  1146.84546702
0.43200002 13588.69690157  882.58590558
0.43300002 13565.60163186  883.12070808
0.43400002 13544.71067353  1148.93013733
0.43500002 13525.97936078  1415.35854738
0.43600002 13509.71861852  974.11830715
0.43700002 13495.08741569  975.29001375
0.43800002 13482.49793079  1065.38703698
0.43900002 13472.54441529  1244.86316297
0.44000002 13463.97360023  1425.02703338
0.44100002 13457.63813326  981.46559557
0.44200002 13452.88669732  1251.52210876
0.44300002 13450.04443145  895.77300159
0.44400002 13449.08172929  1167.04412237
0.44500002 13448.58401203  989.68134435
0.44600002 13450.09254929  1172.37737262
0.44700002 13454.08628934  1265.76049809
0.44800002 13457.94134859  997.03163206
0.44900002 13464.96143631  1090.66192803
0.45000002 13472.52076977  1002.55768060
0.45100002 13481.09935696  1096.82229566
0.45200002 13491.12385343  1008.39410021
0.45300002 13502.04112629  1379.23356642
0.45400002 13514.54797263  1014.60473713
0.45500002 13528.01959907  1295.44321820
0.45600002 13542.35131055  1299.65951687
0.45700002 13557.75224732  931.41762353
0.45800002 13573.74080415  934.55209866
0.45900002 13590.79090719  1500.42338726
0.46000002 13609.34015518  1411.62887450
0.46100002 13627.64834845  1322.15450543
0.46200002 13647.52175225  1516.51268898
0.46300002 13668.14276877  1617.21472905
0.46400002 13688.62882107  1145.73828663
0.46500002 13710.38406105  1150.02706955
0.46600002 13732.48890636  1250.54916153
0.46700002 13754.86231190  1351.82793208
0.46800002 13778.71594614  1357.06579786
0.46900002 13801.99837053  1556.86548999
0.47000002 13826.09728625  1172.17658349
0.47100002 13850.76234002  1274.82422620
0.47200002 13875.79843364  1378.28312374
0.47300002 13901.32959808  988.38458127
0.47400002 13926.47664575  1190.71380965
0.47500002 13952.35211406  1394.67718343
0.47600002 13978.88378909  1300.24593727
0.47700002 14004.88957986  1405.81088266
