# SAXS profile: number of points = 501, q_min = 0, q_max = 0.5, delta_q = 0.001
#    q    intensity    error
0.00000000 1682732.95097188 378.61491397
0.00100000 1682645.29158143 555.27295941
0.00200000 1682382.28317174 908.48646168
0.00300000 1681944.14839206 1614.66643998
0.00400000 1681330.75891416 1513.19774052
0.00500000 1680542.77724203 1814.98627126
0.00600000 1679580.03365618 1939.91501785
0.00700000 1678443.32080542 2416.95848241
0.00800000 1677132.37578623 3396.19320435
0.00900000 1675648.64379982 2513.47307314
0.01000000 1673991.52606258 3866.92059218
0.01100000 1672162.62544020 3009.89285684
0.01200000 1670161.79436861 3582.49720599
0.01300000 1667990.43144606 5254.17009079
0.01400000 1665648.74634892 3747.70984542
0.01500000 1663138.18947404 4789.83819897
0.01600000 1660458.59906882 5927.83746367
0.01700000 1657612.10755539 6713.32933675
0.01800000 1654599.26591094 5187.16893204
0.01900000 1651420.96799176 5945.11575303
0.02000000 1648078.04860962 8306.31374073
0.02100000 1644573.31194123 6512.51061055
0.02200000 1640905.37510997 9623.91046226
0.02300000 1637077.41037172 7661.52262928
0.02400000 1633090.01288892 6736.49661033
0.02500000 1628945.47679358 6352.88764964
0.02600000 1624644.48221527 7237.79149931
0.02700000 1620188.63108262 10207.18884332
0.02800000 1615578.80038625 7730.54491437
0.02900000 1610818.14109959 8698.41836132
0.03000000 1605907.30965249 8214.21626644
0.03100000 1600848.01530507 9989.29207514
0.03200000 1595641.48946448 9478.11088396
0.03300000 1590291.85565153 8110.48883772
0.03400000 1584797.82831850 9152.20788083
0.03500000 1579163.25395410 11085.72655468
0.03600000 1573388.81117120 9605.53913611
0.03700000 1567477.89787702 8934.62443110
0.03800000 1561431.78184094 13701.56451976
0.03900000 1555252.98008579 13997.27746899
0.04000000 1548941.82862611 9525.99268748
0.04100000 1542502.30623510 12633.09447382
0.04200000 1535936.06995694 15850.86097732
0.04300000 1529245.01658602 13120.92285135
0.04400000 1522431.52960467 12331.69596251
0.04500000 1515498.74137366 12548.33016163
0.04600000 1508446.84519450 11698.00582829
0.04700000 1501279.86564697 15132.90174952
0.04800000 1493999.59716168 14275.16681508
0.04900000 1486608.74024385 11149.56607081
0.05000000 1479109.04854582 14709.74017276
0.05100000 1471504.57602728 11477.73622769
0.05200000 1463794.43469114 17455.74944715
0.05300000 1455984.24349054 11793.47292206
0.05400000 1448074.83092468 20309.25045082
0.05500000 1440070.08248393 18144.88388574
0.05600000 1431970.45213298 14692.01752448
0.05700000 1423781.46196919 17341.65901627
0.05800000 1415502.26980628 16285.35437452
0.05900000 1407136.91565742 21529.19581510
0.06000000 1398688.99232520 19197.00731652
0.06100000 1390160.14747815 12928.48997571
0.06200000 1381553.00028515 16972.37940185
0.06300000 1372871.09118038 15815.47570986
0.06400000 1364113.78817161 18620.15407935
0.06500000 1355287.38993649 25492.95699721
0.06600000 1346393.53227024 20296.88344864
0.06700000 1337433.07037442 17734.36334311
0.06800000 1328410.44653187 16498.85851822
0.06900000 1319329.44213097 22164.73566553
0.07000000 1310189.33229109 15348.86874655
0.07100000 1300994.74983892 18265.96714328
0.07200000 1291747.63051565 15559.10093846
0.07300000 1282451.44059382 17082.25398911
0.07400000 1273109.20446381 17186.97506571
0.07500000 1263721.42816639 20168.99493891
0.07600000 1254291.63943272 18833.18984899
0.07700000 1244823.59303301 16020.88039353
0.07800000 1235318.60537399 19030.08400823
0.07900000 1225778.29952218 14709.34028419
0.08000000 1216208.15552243 16254.62276108
0.08100000 1206609.08490821 14841.29244070
0.08200000 1196982.27848273 17882.91607969
0.08300000 1187331.47089896 14960.37723545
0.08400000 1177659.67865635 16516.67776843
0.08500000 1167968.62278315 24106.87350595
0.08600000 1158261.07886054 19649.90012546
0.08700000 1148539.26968749 16676.79097897
0.08800000 1138804.61750763 19763.95506503
0.08900000 1129061.02525350 18290.78946822
0.09000000 1119310.49713442 15278.58900360
0.09100000 1109554.90924522 16843.04431365
0.09200000 1099796.20353425 23013.23664027
0.09300000 1090038.57455231 15369.54462344
0.09400000 1080280.79527653 20012.20267302
0.09500000 1070527.48811518 23123.39483015
0.09600000 1060779.82448735 18521.21660619
0.09700000 1051042.98757443 16995.36590808
0.09800000 1041315.55483284 18556.24405959
0.09900000 1031601.68355823 20116.23377530
0.10000000 1021900.91709866 15481.79962211
0.10100000 1012217.02290325 23230.38176820
0.10200000 1002552.09264708 26332.03195194
0.10300000 992907.52445138 20136.16554309
0.10400000 983285.51519049 18584.09711139
0.10500000 973689.91087432 21674.33843583
0.10600001 964117.12083036 23211.12077616
0.10700001 954575.11269503 20103.35281937
0.10800001 945060.74675476 16996.91833029
0.10900001 935579.17130066 21611.87987422
0.11000001 926131.23063643 16962.09428750
0.11100001 916717.14067953 18481.01842606
0.11200001 907340.61273614 16917.36652089
0.11300001 898000.94453614 23033.72531180
0.11400001 888701.83492317 16863.11811166
0.11500001 879443.77910334 18362.78697234
0.11600001 870228.68781802 22908.77128562
0.11700001 861057.82820577 16764.79670470
0.11800001 851931.38942516 18248.37122095
0.11900001 842851.55664993 21239.86022801
0.12000001 833819.31057586 28754.26027968
0.12100001 824837.74919534 21132.34412989
0.12200001 815906.31636830 30106.94449237
0.12300001 807026.98923912 22516.05406060
0.12400001 798199.82123222 17959.49682393
0.12500001 789426.17093606 16412.17086711
0.12600001 780709.26289105 14872.51215892
0.12700001 772047.47822692 19270.30596468
0.12800001 763442.49986845 19204.39698928
0.12900001 754896.13731816 16192.52290866
0.13000001 746408.58122503 23467.08689983
0.13100001 737979.88769373 14612.00246511
0.13200001 729611.78332203 17466.90691612
0.13300001 721306.18120246 23197.20788106
0.13400001 713061.44976299 23103.19206153
0.13500001 704880.81828125 15817.52630800
0.13600001 696762.29425903 20045.85215101
0.13700001 688709.29101880 18533.16789522
0.13800001 680719.32691792 15612.29849907
0.13900001 672795.94209434 22605.94472043
0.14000001 664937.85213123 19688.81073014
0.14100001 657146.02021293 25194.97960323
0.14200001 649420.60229699 15323.07983392
0.14300001 641763.64977490 16634.51458678
0.14400001 634171.25722223 24827.80589138
0.14500001 626649.16165232 16468.34074507
0.14600001 619194.29965994 17749.20543706
0.14700001 611809.88312496 13582.18004613
0.14800001 604490.87888322 17563.48331457
0.14900001 597242.30863096 14781.74783603
0.15000001 590062.31175171 16037.89439013
0.15100001 582951.65702360 13291.29840729
0.15200001 575910.73478719 13217.15198704
0.15300001 568940.21978130 14456.77166684
0.15400001 562036.44836633 15680.81764941
0.15500001 555204.07223100 14290.95349366
0.15600001 548438.51105775 14207.30029946
0.15700001 541746.15155289 14123.32283756
0.15800001 535119.14656496 14038.85147275
0.15900001 528563.87385644 17759.74699985
0.16000001 522075.36795101 15129.74487738
0.16100001 515658.70524281 13783.55784178
0.16200001 509309.70305012 16188.40967564
0.16300001 503028.77209228 13611.95921541
0.16400001 496816.75833294 14755.45841909
0.16500001 490672.31807664 17104.83781569
0.16600001 484596.98678106 18208.73263799
0.16700001 478587.38411174 15678.52344376
0.16800001 472644.84840569 14377.85696737
0.16900001 466771.44950267 15473.47428164
0.17000001 460962.97695212 15370.81119227
0.17100001 455220.80166444 19965.98530382
0.17200001 449545.04737177 18665.11124830
0.17300001 443934.70117695 12745.36587268
0.17400001 438389.53238098 11507.72576847
0.17500001 432908.83075283 14857.43177312
0.17600001 427490.76871261 12484.86848990
0.17700001 422138.51817467 12398.20886437
0.17800001 416847.85219001 14550.07496792
0.17900001 411620.47936250 13336.50416128
0.18000001 406455.57488646 15449.37713119
0.18100001 401353.80370062 15339.74310203
0.18200001 396310.50696306 17405.95828804
0.18300001 391329.07433119 16201.02444264
0.18400001 386407.16944934 10722.79945877
0.18500001 381546.26978082 18096.74043063
0.18600001 376742.93981708 11624.40395723
0.18700001 371997.79461427 13637.43979486
0.18800001 367310.42858519 19785.17717051
0.18900001 362681.96868097 13437.36757451
0.19000001 358106.38227753 15389.62250552
0.19100001 353591.22486407 12220.11330870
0.19200001 349128.18378612 15160.89209728
0.19300001 344722.46435905 13040.85144292
0.19400001 340368.59079002 10951.35992616
0.19500001 336069.44169953 11856.53046344
0.19600001 331822.72806966 9805.36207782
0.19700001 327628.33279801 12649.73052713
0.19800001 323485.85886749 16415.29068400
0.19900001 319394.74612196 15330.94853839
0.20000001 315352.49091737 10458.66585556
0.20100001 311361.83990371 14151.39629245
0.20200001 307418.40168051 14041.33616040
0.20300001 303525.28904829 13931.81142580
0.20400001 299679.08323425 11979.67191852
0.20500001 295879.94463194 11885.49793766
0.20600001 292127.73053628 11791.73640047
0.20700001 288421.74601799 11698.38657146
0.20800001 284759.74700739 12498.10588694
0.20900001 281144.76736753 8856.06059071
0.21000001 277572.11467006 9663.67362906
0.21100001 274043.67527741 9586.04821437
0.21200001 270557.51614565 9508.74435446
0.21300001 267113.12708727 9431.76496334
0.21400001 263711.36521665 11906.56870243
0.21500001 260351.42380930 10122.46383627
0.21600001 257030.78772885 12549.52880418
0.21700001 253750.35274344 9127.40061972
0.21800001 250509.53148614 9052.16234824
0.21900001 247306.33568751 8977.22040991
0.22000001 244140.99534836 12139.91156770
0.22100001 241015.07308423 10433.54300715
0.22200001 237926.19745295 11142.08435357
0.22300001 234872.24736357 9470.04946149
0.22400001 231853.66731623 8607.56780614
0.22500001 228873.43868193 10086.45291967
0.22600001 225925.69379205 10769.87833236
0.22700001 223014.32852280 12203.34463385
0.22800001 220135.53309766 8317.82151145
0.22900001 217289.43127290 8995.78288012
0.23000001 214477.27819658 11147.45706145
0.23100001 211698.22090464 8103.80827948
0.23200001 208949.35380221 11684.44841722
0.23300001 206232.67919135 7238.76738197
0.23400001 203547.67709455 10045.07833970
0.23500001 200891.27234003 8533.86165262
0.23600001 198266.67495581 8458.05675366
0.23700001 195670.90587337 11875.26783913
0.23800001 193104.72515183 8307.36566896
0.23900001 190566.82675364 7546.44669639
0.24000001 188057.23373510 10877.23091373
0.24100001 185576.88479839 8757.37360787
0.24200001 183123.20479796 8677.29346980
0.24300001 180697.23160945 7936.22278769
0.24400001 178297.48544215 7862.91947994
0.24500001 175924.22210501 6491.60410276
0.24600001 173577.54001069 10932.78187475
0.24700001 171256.54240130 8281.96678231
0.24800001 168960.82209743 8203.89310504
0.24900001 166689.31176978 6875.93443579
0.25000001 164443.81716420 6810.44101005
0.25100001 162221.34338281 6745.16377696
0.25200001 160024.72432504 8502.11400562
0.25300001 157851.61973133 7818.39109518
0.25400001 155701.64894912 6551.14718948
0.25500001 153574.56409467 6486.98989427
0.25600001 151471.11491813 6423.13293200
0.25700001 149389.40512929 6937.64430245
0.25800001 147331.19497064 8585.72579314
0.25900001 145294.95646752 6233.15392738
0.26000001 143280.49544558 6170.37482832
0.26100001 141287.14773177 6107.84368544
0.26200001 139316.13539966 8793.63488251
0.26300001 137365.53008705 7071.57782349
0.26400001 135436.28199551 6998.67020328
0.26500001 133528.30742108 5860.55769003
0.26600001 131639.76254686 7381.04183527
0.26700001 129772.85008951 5738.55570251
0.26800001 127926.35398228 6710.37721568
0.26900001 126098.37896500 7149.77842565
0.27000001 124291.29327883 5052.44131088
0.27100001 122503.29128086 5497.94797286
0.27200001 120736.20611166 6921.80702395
0.27300001 118987.40373573 6846.53553496
0.27400001 117255.96300339 8222.57479474
0.27500001 115546.32714887 5740.34180442
0.27600001 113853.37778678 4730.60807092
0.27700001 112180.42139155 6549.09331078
0.27800001 110525.05064626 4625.47358846
0.27900001 108889.53462997 7317.37707345
0.28000001 107270.46029290 4973.59512687
0.28100001 105670.41453237 4469.85874627
0.28200001 104088.92764328 4418.57518759
0.28300001 102524.81972840 4804.31327986
0.28400001 100978.14014559 6043.54197376
0.28500001 99449.52838379  5119.66196352
0.28600001 97938.19904475  6324.35950266
0.28700001 96444.41807513  5416.31877547
0.28800001 94967.06691706  7821.96283686
0.28900001 93508.81477876  4881.16036249
0.29000001 92065.94234164  4822.41428812
0.29100001 90641.10451621  5161.10473545
0.29200001 89232.87744899  5098.32069438
0.29300001 87841.45788400  4648.57017127
0.29400001 86466.13893008  5356.57756028
0.29500001 85108.55846184  5290.34824442
0.29600001 83766.82055708  4104.99323572
0.29700001 82441.38012907  5527.69479932
0.29800001 81132.22470054  6185.92676513
0.29900001 79840.01633212  4670.64117653
0.30000001 78563.28165185  4256.55880140
0.30100001 77303.62021661  4902.59582623
0.30200001 76058.24023065  5185.27077320
0.30300001 74830.29091995  5118.39214124
0.30400001 73617.93588783  5052.03108947
0.30500001 72421.10187349  3988.95448004
0.30600001 71239.06999896  5248.89492602
0.30700001 70073.81778665  4208.63369552
0.30800001 68923.56389768  3514.06807169
0.30900001 67788.90771958  4413.05810148
0.31000001 66669.81823357  3732.17660141
0.31100001 65565.00378615  3682.13078696
0.31200001 64476.11572833  3027.15377677
0.31300001 63401.72607196  3882.08787119
0.31400001 62343.58071273  3829.45462659
0.31500001 61299.25379448  3486.70172092
0.31600002 60270.27373113  4298.77747741
0.31700002 59255.92182484  3391.80912585
0.31800002 58256.22299027  4738.85268352
0.31900002 57271.18725846  3023.91883043
0.32000002 56301.12334767  3524.16898282
0.32100002 55344.66881775  3207.77715656
0.32200002 54403.75097796  2899.44804566
0.32300002 53475.44941968  3118.68835783
0.32400002 52561.91570384  3074.87221427
0.32500002 51662.40057909  3284.17896032
0.32600002 50777.48129182  3237.82624789
0.32700002 49905.64707154  3191.96533784
0.32800002 49048.43845465  3872.86488377
0.32900002 48204.26410821  2863.33342362
0.33000002 47374.77521565  2822.58924101
0.33100002 46556.18501338  3477.74718519
0.33200002 45754.17356331  2742.50529326
0.33300002 44963.96462399  2703.23368121
0.33400002 44187.61747624  2886.55624833
0.33500002 43423.15709019  2626.23266518
0.33600002 42673.05552997  3235.68458879
0.33700002 41934.70127468  2551.30734637
0.33800002 41210.21044942  2305.09323065
0.33900002 40497.52043290  2065.37363989
0.34000002 39797.93535776  2442.79738795
0.34100002 39110.75901102  2207.02023551
0.34200002 38436.46990426  2966.33470534
0.34300002 37773.29558686  2338.92257351
0.34400002 37123.77072388  2113.27074854
0.34500002 36485.45627507  2082.95479739
0.34600002 35860.14163388  2426.47659858
0.34700002 35244.87701070  2207.73920051
0.34800002 34643.00540691  2357.62984463
0.34900002 34051.98702625  2502.82116497
0.35000002 33472.54214888  2114.79531313
0.35100002 32905.35865817  2084.88362333
0.35200002 32347.82417265  2055.38084528
0.35300002 31802.21067431  2026.43696015
0.35400002 31267.90195898  1665.01585818
0.35500002 30744.61470272  1641.76250289
0.35600002 30231.10614213  2266.42613482
0.35700002 29728.81171357  2075.36844402
0.35800002 29237.86744928  2046.79700773
0.35900002 28756.89470108  1708.15962615
0.36000002 28286.52356161  1684.88685575
0.36100002 27825.62173904  1813.11759840
0.36200002 27376.00782482  1639.68606633
0.36300002 26935.25720825  1470.66511323
0.36400002 26504.47679910  1596.23219084
0.36500002 26083.32598602  1861.56706380
0.36600002 25672.12736350  1554.57574613
0.36700002 25269.71964029  1813.35516728
0.36800002 24878.38546863  1790.12431119
0.36900002 24494.96301596  2039.20576767
0.37000002 24120.47057438  1610.76510126
0.37100002 23754.76239087  1458.06738462
0.37200002 23398.93992322  1832.83905101
0.37300002 23051.16875748  2069.07300568
0.37400002 22711.94908535  1660.81135554
0.37500002 22381.70482951  1514.79385462
0.37600002 22059.92683483  1621.73559809
0.37700002 21745.81521776  1726.18289376
0.37800002 21439.72135140  1462.61785988
0.37900002 21142.27967603  1566.64299821
0.38000002 20852.61417643  1191.72695664
0.38100002 20569.71470570  1414.37365017
0.38200002 20295.59843346  1399.17862229
0.38300002 20028.01644130  2076.50484301
0.38400002 19768.91219633  1598.31662679
0.38500002 19515.58160332  1468.93789687
0.38600002 19270.73339630  1566.13257731
0.38700002 19032.25932513  1329.21305424
0.38800002 18800.69116836  1097.02038165
0.38900002 18575.49224835  1086.66634801
0.39000002 18358.06336926  1292.04056114
0.39100002 18145.96083047  1173.68080212
0.39200002 17940.94681779  1480.66641102
0.39300002 17741.88684402  1153.40011837
0.39400002 17550.25794643  1247.82339911
0.39500002 17363.51098724  1031.39260151
0.39600002 17182.77719571  1330.20475963
0.39700002 17007.90430717  1523.05790287
0.39800002 16838.99963876  1108.59559374
0.39900002 16675.41370272  1400.73481739
0.40000002 16517.19799700  993.50950659
0.40100002 16364.74148840  1184.15275020
0.40200002 16217.87705710  1176.44485746
0.40300002 16075.37851159  1169.00158075
0.40400002 15938.48133987  1742.87301709
0.40500002 15806.62529691  1058.88587881
0.40600002 15679.46065465  1435.84667748
0.40700002 15557.02234489  1047.29879388
0.40800002 15439.54966243  947.21641667
0.40900002 15326.24332608  1036.82041014
0.41000002 15217.78709511  1219.62960453
0.41100002 15113.45236655  1027.41254056
0.41200002 15013.11832166  1116.07526891
0.41300002 14917.53314059  1111.65462231
0.41400002 14825.63885470  1015.18566868
0.41500002 14737.99305501  1011.61589123
0.41600002 14653.53496951  1466.52584924
0.41700002 14573.28239915  1187.86830464
0.41800002 14497.67725716  1093.41487055
0.41900002 14423.68643535  999.56151733
0.42000002 14354.52027169  1269.08319736
0.42100002 14288.98241958  1356.73894503
0.42200002 14226.82066761  1444.30690261
0.42300002 14167.25443215  1261.45239441
0.42400002 14110.84917714  1169.43668097
0.42500002 14057.94187010  1167.79328649
0.42600002 14007.19711665  1345.74152675
0.42700002 13960.64717893  985.90095049
0.42800002 13915.85846922  1074.58264191
0.42900002 13875.17658025  984.44382502
0.43000002 13836.50205446  894.52990021
0.43100002 13799.43087491  983.62347938
0.43200002 13766.14871217  1162.34482159
0.43300002 13735.13092793  1072.98847894
0.43400002 13706.45545122  894.34626057
0.43500002 13679.93383299  1073.60125809
0.43600002 13655.93747491  895.14674390
0.43700002 13633.69031729  1074.88019555
0.43800002 13613.50902643  1255.02945662
0.43900002 13596.08553943  1256.27836338
0.44000002 13580.08493619  898.32266110
0.44100002 13566.37854398  1079.34112811
0.44200002 13554.39495712  900.68958758
0.44300002 13544.24876668  992.25171167
0.44400002 13536.15901400  1084.24638840
0.44500002 13528.60608817  1176.58292725
0.44600002 13523.04134966  1178.73595510
0.44700002 13520.11947481  1453.68331482
0.44800002 13516.97155542  1274.51530836
0.44900002 13517.15682868  1003.64894209
0.45000002 13518.00609713  914.49315581
0.45100002 13519.85299242  916.64607633
0.45200002 13523.29910110  1102.68986096
0.45300002 13527.59727931  1105.47530206
0.45400002 13533.58551914  1200.76743209
0.45500002 13540.62317212  1296.65013641
0.45600002 13548.57144431  1021.63007818
0.45700002 13557.67371742  931.41222853
0.45800002 13567.42181213  1307.76385045
0.45900002 13578.24957146  1217.96904428
0.46000002 13590.73270440  1315.71889547
0.46100002 13602.89128654  1508.28865734
0.46200002 13616.87788501  1134.83065672
0.46300002 13631.48297762  1043.62638623
0.46400002 13646.16528373  1332.54810311
0.46500002 13662.07084744  1527.96607600
0.46600002 13678.46984763  1820.53603066
0.46700002 13695.09370385  1057.53518593
0.46800002 13713.38631687  1061.21045043
0.46900002 13731.10553315  1355.26018036
0.47000002 13749.69076397  1359.98197792
0.47100002 13768.91806082  1267.29127838
0.47200002 13788.60843107  1173.96217746
0.47300002 13808.80083428  981.80578585
0.47400002 13828.68363300  1182.35250666
0.47500002 13849.36375266  1087.72908069
0.47600002 13870.85245463  1091.70549419
0.47700002 13891.75762907  1294.85078998
