# SAXS profile: number of points = 501, q_min = 0, q_max = 0.5, delta_q = 0.001
#    q    intensity    error
0.00000000 1700912.83420644 331.67800267
0.00100000 1700824.90333165 612.29697974
0.00200000 1700561.08186942 841.77776218
0.00300000 1700121.58641189 1122.08028700
0.00400000 1699506.31447104 1657.01871957
0.00500000 1698715.87871508 1681.72878649
0.00600000 1697750.17168387 2317.42907870
0.00700000 1696609.93177828 2239.52520302
0.00800000 1695294.91345976 2288.64822980
0.00900000 1693806.61430659 4065.13604811
0.01000000 1692144.32687693 2792.03825991
0.01100000 1690309.73955873 3651.06919641
0.01200000 1688302.70855621 3292.19042603
0.01300000 1686124.55776998 3894.94790023
0.01400000 1683775.53877647 4925.04366925
0.01500000 1681257.17101036 4842.02086812
0.01600000 1678569.20937005 5992.49234534
0.01700000 1675713.74820896 4976.87005544
0.01800000 1672691.39399649 5243.88775614
0.01900000 1669503.11983201 5509.36054404
0.02000000 1666149.65094171 5773.20880167
0.02100000 1662633.87908028 5486.69204972
0.02200000 1658954.31815309 7440.41045495
0.02300000 1655114.19030808 8341.77589886
0.02400000 1651114.01243270 6810.84561184
0.02500000 1646956.37270757 8350.06919098
0.02600000 1642641.47846815 6652.69829208
0.02700000 1638171.42825639 6880.32031380
0.02800000 1633546.68250220 12080.07827109
0.02900000 1628770.63557359 9528.30865559
0.03000000 1623843.93203087 9061.04955723
0.03100000 1618768.09939862 10878.12212850
0.03200000 1613544.61192925 9584.45543630
0.03300000 1608177.57365015 11482.38840521
0.03400000 1602665.48286592 10938.19242525
0.03500000 1597012.31265650 8623.86688658
0.03600000 1591218.80699109 13246.89718039
0.03700000 1585288.22907878 11746.98632074
0.03800000 1579221.90236153 9238.44855637
0.03900000 1573022.48877681 11325.76244369
0.04000000 1566690.10922007 14452.71692728
0.04100000 1560228.75131457 10812.38574794
0.04200000 1553640.27503501 10020.98023888
0.04300000 1546926.31708359 10209.71416667
0.04400000 1540089.61654205 13514.28701279
0.04500000 1533132.93018839 10578.61770983
0.04600000 1526056.65159686 10758.69989390
0.04700000 1518864.61204636 16403.73857300
0.04800000 1511559.08254386 15553.94368307
0.04900000 1504142.27413295 11281.06758110
0.05000000 1496616.16817316 16028.75990753
0.05100000 1488984.54119717 15098.30395108
0.05200000 1481246.95554659 12953.50522990
0.05300000 1473408.68493954 16708.45526613
0.05400000 1465470.84002681 14508.16199284
0.05500000 1457437.02248108 13466.71871594
0.05600000 1449308.05396466 14869.90132757
0.05700000 1441088.96906972 16298.71700098
0.05800000 1432779.10784922 13948.10526618
0.05900000 1424382.63393287 19229.16645621
0.06000000 1415903.16189787 27206.58052693
0.06100000 1407342.13130620 20941.25189245
0.06200000 1398702.49915286 17183.06100529
0.06300000 1389987.60778716 14678.26982452
0.06400000 1381196.71636944 18853.33606015
0.06500000 1372336.11168021 16303.35376940
0.06600000 1363407.58660047 15072.47157509
0.06700000 1354412.02301504 15196.50360941
0.06800000 1345354.04420754 13924.41500934
0.06900000 1336237.00573982 14030.48921716
0.07000000 1327060.13885992 19786.46759697
0.07100000 1317828.35488216 14232.54689935
0.07200000 1308543.72385098 14328.55444742
0.07300000 1299209.72444145 24516.08864893
0.07400000 1289828.95596255 17412.69172153
0.07500000 1280402.25889536 17515.90372270
0.07600000 1270932.98414978 14679.27665510
0.07700000 1261425.09082390 22138.01138198
0.07800000 1251879.44732369 16318.24936113
0.07900000 1242298.48833657 17889.09907111
0.08000000 1232687.00048758 22465.72163778
0.08100000 1223046.12298663 16547.81482040
0.08200000 1213377.12580740 15106.54592518
0.08300000 1203683.56080928 15166.41357799
0.08400000 1193968.38357549 15223.09760514
0.08500000 1184233.72965543 19859.60057863
0.08600000 1174482.12001170 24523.18781724
0.08700000 1164715.58041836 18449.09566015
0.08800000 1154936.13764830 20043.91761022
0.08900000 1145147.14455173 20097.33333085
0.09000000 1135350.67001523 17047.29111108
0.09100000 1125548.93685007 15532.57605827
0.09200000 1115743.27459740 17121.08135316
0.09300000 1105938.54932993 20271.85456184
0.09400000 1096133.13044921 17181.88762730
0.09500000 1086331.82817772 21900.45068544
0.09600000 1076535.68020589 15663.59488331
0.09700000 1066749.94091987 23521.83730311
0.09800000 1056973.06347569 15696.05073061
0.09900000 1047209.72650444 21991.40529068
0.10000000 1037458.44834460 20432.74510104
0.10100000 1027724.17764026 17296.59872318
0.10200000 1018008.53874798 15728.23266345
0.10300000 1008312.21497332 18875.60555222
0.10400000 998638.87537077 17301.41932975
0.10500000 988991.00053279 18869.94917798
0.10600001 979365.65608022 22006.34732760
0.10700001 969770.70577544 26707.48649385
0.10800001 960203.20418781 23548.98469096
0.10900001 950668.03715097 15686.02335126
0.11000001 941165.93293142 23505.62028136
0.11100001 931697.57001367 20348.27588696
0.11200001 922266.01848008 17195.65072408
0.11300001 912871.41587771 26537.17330896
0.11400001 903516.60224877 18702.79454716
0.11500001 894203.11175500 17115.04836490
0.11600001 884931.51409342 15530.54880370
0.11700001 875704.10944882 18599.95616066
0.11800001 866520.80384659 23201.09561572
0.11900001 857383.82610826 15432.90959686
0.12000001 848294.09158644 15396.53848755
0.12100001 839254.79433749 16894.19980587
0.12200001 830264.92834064 19913.90524442
0.12300001 821327.28254072 15276.68817501
0.12400001 812441.39934583 21326.58773768
0.12500001 803608.38198939 16707.01904880
0.12600001 794832.03229761 21198.17130031
0.12700001 786110.60446317 21130.65404378
0.12800001 777445.57628401 18052.28713211
0.12900001 768838.73640187 16491.59167310
0.13000001 760290.76866803 20915.60003191
0.13100001 751801.07563932 19351.36059913
0.13200001 743371.88894933 20762.37783710
0.13300001 735004.90532356 14773.59929348
0.13400001 726698.66073235 17658.77828833
0.13500001 718455.99680496 19053.45393360
0.13600001 710275.23768087 21894.23523384
0.13700001 702159.59150143 15988.17465238
0.13800001 694106.83932271 18813.76676702
0.13900001 686120.62655395 17290.24060454
0.14000001 678199.57288682 15778.31380733
0.14100001 670344.34168775 17134.00218163
0.14200001 662555.35341517 17054.17560127
0.14300001 654834.37567430 16973.30781807
0.14400001 647178.31363048 21114.19347815
0.14500001 639591.76347640 19609.88439323
0.14600001 632072.45552624 18118.35779238
0.14700001 624623.19542543 13866.63559262
0.14800001 617239.64992939 16554.36819212
0.14900001 609926.00545975 13723.33577032
0.15000001 602680.74269956 21841.15114596
0.15100001 595504.76458092 14935.26020041
0.15200001 588398.04609526 13503.73579509
0.15300001 581361.87632186 13429.45997676
0.15400001 574392.27884258 18696.46955863
0.15500001 567493.83226899 14607.29193197
0.15600001 560662.30880166 19805.39699313
0.15700001 553903.55769907 17065.76941816
0.15800001 547210.06178062 14356.05664840
0.15900001 540588.26597359 23353.41419235
0.16000001 534033.00084922 12896.89757927
0.16100001 527549.48551697 15383.34372383
0.16200001 521133.53906404 17838.40188424
0.16300001 514785.64608476 15196.47298981
0.16400001 508506.52798618 18878.30574272
0.16500001 502294.83831649 15008.57047747
0.16600001 496152.05003269 18642.91416017
0.16700001 490075.32332998 19759.83796962
0.16800001 484065.31378986 12271.05628397
0.16900001 478124.26414552 13411.38624254
0.17000001 472248.31910312 16958.43793977
0.17100001 466438.29877691 15644.34127972
0.17200001 460694.82359905 11955.03123695
0.17300001 455016.69876965 15438.71731834
0.17400001 449403.88844154 17695.27894306
0.17500001 443855.13044006 14061.33119642
0.17600001 438369.16311133 11638.70183029
0.17700001 432948.96884408 16183.63321975
0.17800001 427590.43549250 18369.28597638
0.17900001 422295.18585685 11401.97055669
0.18000001 417062.04509631 13587.88207106
0.18100001 411892.23241729 14618.05601900
0.18200001 406780.97887551 13399.36607712
0.18300001 401731.63636557 14414.13179371
0.18400001 396741.77757166 15413.41878680
0.18500001 391813.16691817 14211.06423548
0.18600001 386941.80534650 17365.94904438
0.18700001 382128.69827667 16164.04470077
0.18800001 377373.31790868 12838.24088181
0.18900001 372677.35460697 13807.69664057
0.19000001 368033.64155049 17925.07935865
0.19100001 363450.91697612 12560.86428420
0.19200001 358920.21276079 10390.74065040
0.19300001 354446.63094638 13408.71668230
0.19400001 350025.36574870 14333.53940472
0.19500001 345658.60850724 11178.59992737
0.19600001 341344.66937730 18156.12382217
0.19700001 337082.84305307 14015.90527650
0.19800001 332873.06774404 13910.76615843
0.19900001 328714.86204415 16764.45875654
0.20000001 324605.60413119 18595.03291148
0.20100001 320547.79150209 11655.11824986
0.20200001 316537.72187477 15421.71853862
0.20300001 312577.68828467 11477.85325631
0.20400001 308664.97090721 13288.02762562
0.20500001 304799.33483265 11301.95986980
0.20600001 300980.56839472 12149.08121752
0.20700001 297208.45972309 11127.48525802
0.20800001 293480.16703905 10120.66403875
0.20900001 289799.55866554 10041.55518244
0.21000001 286160.77437778 9962.68783092
0.21100001 282566.56506707 13478.42579087
0.21200001 279014.94840820 12480.33923230
0.21300001 275505.01560360 12381.19598655
0.21400001 272037.94008976 17546.44796532
0.21500001 268613.06342823 11313.98276649
0.21600001 265227.40897390 10359.78308432
0.21700001 261882.27923380 9419.90602941
0.21800001 258576.76870874 10193.09670443
0.21900001 255309.30480641 11795.29043976
0.22000001 252079.82954072 8356.44674439
0.22100001 248889.84210037 12432.04820074
0.22200001 245736.96413503 12329.85275849
0.22300001 242619.51644020 9782.41936543
0.22400001 239537.55897048 11318.15019655
0.22500001 236494.00935191 11224.00621459
0.22600001 233483.17012185 12720.16370975
0.22700001 230509.15318601 10248.43743529
0.22800001 227567.62248953 7816.94820218
0.22900001 224659.12304637 7750.74011164
0.23000001 221784.99364585 10758.79055056
0.23100001 218944.02122349 12952.72890815
0.23200001 216133.36611754 11330.79225459
0.23300001 213355.20223772 12730.90551963
0.23400001 210608.85366242 8166.35868699
0.23500001 207891.32680236 13246.83597037
0.23600001 205206.13078696 10942.61744177
0.23700001 202549.74371604 8677.23143121
0.23800001 199923.23341375 8600.69790826
0.23900001 197325.24247627 9945.19269121
0.24000001 194755.88327600 7040.42551344
0.24100001 192215.92056343 11163.90119439
0.24200001 189703.12132985 7606.14700951
0.24300001 187217.76630909 7537.38762814
0.24400001 184759.35053811 8147.88774415
0.24500001 182327.64606650 9419.04664136
0.24600001 179922.43784545 7999.35196502
0.24700001 177543.39964384 8585.99921294
0.24800001 175190.18924747 9160.69542911
0.24900001 172861.29973787 10371.67847493
0.25000001 170558.54548079 8990.14135760
0.25100001 168279.08693599 8269.23472324
0.25200001 166025.86079178 7560.81805816
0.25300001 163796.42064771 8112.83709850
0.25400001 161590.24234625 6798.90976838
0.25500001 159407.27460518 9181.85945167
0.25600001 157248.26698862 7274.30517506
0.25700001 155111.55935377 6603.09939410
0.25800001 152998.22245010 7727.17559045
0.25900001 150907.29319132 6473.92318422
0.26000001 148838.55323862 6409.73259850
0.26100001 146790.95889910 6345.77345347
0.26200001 144766.19869193 6853.23217035
0.26300001 142761.90892300 10176.06934954
0.26400001 140779.62251621 9513.18344168
0.26500001 138818.70824176 7754.41340931
0.26600001 136877.57246214 7126.53114747
0.26700001 134958.19368833 5425.31964300
0.26800001 133059.68415852 6979.64606282
0.26900001 131179.89566534 6906.62183361
0.27000001 129321.39834993 5782.60660086
0.27100001 127482.36574068 6761.66499887
0.27200001 125664.38535140 6175.14818840
0.27300001 123865.08461449 5599.94074043
0.27400001 122083.39854287 6546.72255668
0.27500001 120323.89398437 4981.40944670
0.27600001 118581.06202948 6897.86070470
0.27700001 116859.00564491 5360.32284262
0.27800001 115154.64081396 5783.06633537
0.27900001 113470.16448947 5718.89656093
0.28000001 111802.71315194 7539.97533182
0.28100001 110154.55122539 6057.39905858
0.28200001 108525.23236258 5528.27559820
0.28300001 106913.51627856 5009.96760994
0.28400001 105319.74374459 6303.38696146
0.28500001 103744.18678662 4450.62582380
0.28600001 102186.26541103 5278.94272100
0.28700001 100646.08924539 4782.70238732
0.28800001 99122.69291579  4726.66583542
0.28900001 97618.82246832  4671.06087621
0.29000001 96130.49934543  4196.09649505
0.29100001 94660.61133588  4975.36196732
0.29200001 93207.50185780  4096.46990056
0.29300001 91771.74489345  4856.56096965
0.29400001 90352.26567320  4797.70553435
0.29500001 88950.82029655  4739.29992974
0.29600001 87565.34277096  3901.03620511
0.29700001 86196.75451191  4623.59413089
0.29800001 84844.44015245  5327.38264936
0.29900001 83509.74737332  4885.32045261
0.30000001 82190.40295838  4081.98655617
0.30100001 80888.74486788  4397.11237918
0.30200001 79601.64394136  4703.26335493
0.30300001 78332.21926119  5000.72911438
0.30400001 77078.62630673  4584.25151662
0.30500001 75840.71393918  3829.19782807
0.30600001 74618.19152305  3779.78467055
0.30700001 73412.58023446  4069.99364089
0.30800001 72222.38972173  3682.25871429
0.30900001 71047.91359288  3964.47376618
0.31000001 69889.50164020  4238.44902764
0.31100001 68745.56477940  3860.75110080
0.31200001 67617.79162308  3492.12101371
0.31300001 66504.97048479  3758.86110977
0.31400001 65408.51555918  3399.60775715
0.31500001 64326.12218487  3049.05833593
0.31600002 63259.41673726  3609.58248993
0.31700002 62207.61432882  4450.95501597
0.31800002 61170.84687298  2927.02516146
0.31900002 60149.14246970  2887.15897525
0.32000002 59142.38871042  4271.55922687
0.32100002 58149.56989367  3089.48679474
0.32200002 57172.83321858  3047.02629066
0.32300002 56208.63859572  3824.43595114
0.32400002 55259.78478724  3502.08902672
0.32500002 54325.19421798  2922.15233535
0.32600002 53405.33445328  3667.34449056
0.32700002 52498.88646724  3616.12347110
0.32800002 51607.38762325  3565.55457973
0.32900002 50729.06375712  3013.30652986
0.33000002 49865.73727072  3713.75095910
0.33100002 49013.83889551  3173.15608036
0.33200002 48178.40646383  3850.41842693
0.33300002 47355.29526036  3084.25052636
0.33400002 46546.20990027  3040.63130573
0.33500002 45749.37263154  3919.80643270
0.33600002 44966.97129047  2727.69660765
0.33700002 44196.72569679  3137.08373852
0.33800002 43440.79293567  2650.75731047
0.33900002 42696.59730828  2830.78453560
0.34000002 41966.04633946  2790.53238350
0.34100002 41247.89483811  2539.22052649
0.34200002 40543.08301800  3337.50675210
0.34300002 39849.54529754  2056.23663474
0.34400002 39170.12064135  2229.75922311
0.34500002 38501.87768915  2797.54656539
0.34600002 37846.85656559  2166.92187529
0.34700002 37202.40896669  2136.16242404
0.34800002 36571.41402480  1914.51361487
0.34900002 35951.52037468  1887.45490906
0.35000002 35343.75630266  1860.84885747
0.35100002 34748.03738575  2568.57504521
0.35200002 34162.65117275  2713.36869791
0.35300002 33589.16763512  2497.01884026
0.35400002 33027.17933320  1934.56712107
0.35500002 32476.74185112  2254.53552609
0.35600002 31936.18264649  1881.20092789
0.35700002 31407.08695546  2192.52884421
0.35800002 30889.33885468  1996.06917133
0.35900002 30382.17935119  1968.76531521
0.36000002 29885.80352733  1941.97960519
0.36100002 29398.95223731  2234.90845494
0.36200002 28923.77200710  2047.36929850
0.36300002 28457.66133067  1864.54605870
0.36400002 28001.75865530  1686.40599490
0.36500002 27555.64320745  1815.36586050
0.36600002 27119.78450847  2090.12189107
0.36700002 26693.04359863  1768.14729173
0.36800002 26277.39438757  1599.89923307
0.36900002 25870.18880338  1579.37510126
0.37000002 25471.88038682  1701.01225281
0.37100002 25082.71577857  1539.57716742
0.37200002 24703.52463433  1935.02717627
0.37300002 24332.62428723  1774.57837333
0.37400002 23970.75926387  2022.53290870
0.37500002 23617.85162164  1465.25158402
0.37600002 23273.72502307  1974.19381860
0.37700002 22937.47053807  1950.83196168
0.37800002 22609.53036923  1670.95742109
0.37900002 22290.48076288  1397.61321004
0.38000002 21979.33242747  2009.79025238
0.38100002 21675.20175211  1241.98911923
0.38200002 21379.92041706  1351.10413476
0.38300002 21091.66266896  1943.80772366
0.38400002 20811.91714086  1442.26592619
0.38500002 20538.31545514  1189.16852119
0.38600002 20273.46556363  1647.62462441
0.38700002 20014.84722968  1281.35058035
0.38800002 19763.73005094  1153.21370311
0.38900002 19518.91566005  1141.85662021
0.39000002 19282.27993530  2035.63038921
0.39100002 19051.20890196  1120.21113651
0.39200002 18827.32359248  1220.85785619
0.39300002 18609.55841138  1099.82495422
0.39400002 18399.53969999  1308.20733465
0.39500002 18194.62130594  1513.06477949
0.39600002 17995.96088157  1178.82547340
0.39700002 17803.30373832  1169.14301189
0.39800002 17616.90362573  1054.37173195
0.39900002 17435.86522189  1046.15196288
0.40000002 17260.56914855  1142.04561182
0.40100002 17091.23335177  1339.78184592
0.40200002 16927.52769510  1227.92291718
0.40300002 16768.58345804  1422.64668798
0.40400002 16615.31346167  1110.31837468
0.40500002 16467.42760139  1002.86638844
0.40600002 16324.26959111  1096.25637633
0.40700002 16186.31368669  990.60244456
0.40800002 16053.12594737  1378.80305295
0.40900002 15924.61381187  1273.17293458
0.41000002 15801.22022847  1461.21790986
0.41100002 15681.86123497  1259.88079131
0.41200002 15566.86461680  1060.80403958
0.41300002 15456.96598617  1247.84092319
0.41400002 15350.71311888  1051.14013062
0.41500002 15248.91417058  951.53228933
0.41600002 15150.56719926  1231.96843018
0.41700002 15056.71035157  944.05578378
0.41800002 14967.51845936  1034.77943772
0.41900002 14880.31957629  1312.44424882
0.42000002 14798.08504598  1214.84884942
0.42100002 14719.61438929  1490.80261599
0.42200002 14644.71415036  1115.04858825
0.42300002 14572.57371528  1019.49730543
0.42400002 14503.90818060  1109.54902839
0.42500002 14438.80530441  1291.69558374
0.42600002 14376.10600205  1565.34237621
0.42700002 14317.74680671  1103.03926626
0.42800002 14261.64772568  1193.05819703
0.42900002 14209.49580609  1649.72254126
0.43000002 14159.62309753  1006.96164430
0.43100002 14111.67617973  1188.76765771
0.43200002 14067.58200991  1187.79634329
0.43300002 14025.85633223  1187.00827765
0.43400002 13986.77142179  912.63687852
0.43500002 13950.01174566  1550.96237938
0.43600002 13916.07496647  1003.41863301
0.43700002 13883.88196443  1094.60530595
0.43800002 13853.90931414  1094.73596588
0.43900002 13827.03688247  1277.61826849
0.44000002 13801.70136720  1004.28084758
0.44100002 13778.87747037  1096.24754349
0.44200002 13757.86377709  1005.63110044
0.44300002 13738.90264472  1281.01534330
0.44400002 13722.19152134  915.95632746
0.44500002 13706.12651851  1100.32788905
0.44600002 13692.25842529  1377.09895639
0.44700002 13681.22867116  1011.31647130
0.44800002 13670.32602559  1657.25370262
0.44900002 13662.72284948  1106.68060326
0.45000002 13655.97113923  1200.97443876
0.45100002 13650.45143540  1018.05071630
0.45200002 13646.69698284  1020.02241432
0.45300002 13643.88500142  1393.72291895
0.45400002 13642.93084802  931.13007451
0.45500002 13643.23813927  1026.51728625
0.45600002 13644.70940154  1122.41384857
0.45700002 13647.42997560  1218.85202889
0.45800002 13650.95171258  939.86806996
0.45900002 13655.59491153  1130.68331226
0.46000002 13662.11966246  1417.10342915
0.46100002 13668.55104037  1515.56901119
0.46200002 13676.89272942  1424.79036762
0.46300002 13686.05059793  1238.31391679
0.46400002 13695.45530036  955.25805247
0.46500002 13706.28504688  1341.29711826
0.46600002 13717.61169914  1345.28624310
0.46700002 13729.37677120  1156.56275402
0.46800002 13742.96524746  1450.22647647
0.46900002 13756.18611777  1260.75451745
0.47000002 13770.46704713  1167.46025159
0.47100002 13785.34084426  1171.20261364
0.47200002 13800.99464290  979.18061632
0.47300002 13817.35098198  1473.62055207
0.47400002 13833.41428041  1281.32005845
0.47500002 13850.40931684  1384.48698093
0.47600002 13868.39479852  992.28369487
0.47700002 13885.94260432  1095.18434511
