# SAXS profile: number of points = 501, q_min = 0, q_max = 0.5, delta_q = 0.001
#    q    intensity    error
0.00000000 1682732.95097188 378.61491397
0.00100000 1682645.40886848 605.75236158
0.00200000 1682382.75113206 757.07226198
0.00300000 1681945.19983662 1110.08387144
0.00400000 1681332.63813907 1513.19943182
0.00500000 1680545.70132001 1966.23854837
0.00600000 1679584.25268442 2292.63259825
0.00700000 1678449.05832878 3021.20843055
0.00800000 1677139.85754585 3169.79446459
0.00900000 1675658.12323290 3518.88220921
0.01000000 1674003.21729598 3038.31597059
0.01100000 1672176.75583523 4815.86926649
0.01200000 1670178.60927583 5536.64233250
0.01300000 1668010.14960919 5954.79649674
0.01400000 1665671.57564617 5246.86569588
0.01500000 1663164.39560214 5588.23261806
0.01600000 1660488.39272351 5081.09470888
0.01700000 1657645.68116906 6713.46530989
0.01800000 1654636.83656177 5187.28671604
0.01900000 1651462.81147717 7431.58298698
0.02000000 1648124.36648756 5710.75118821
0.02100000 1644624.32461248 8140.89077593
0.02200000 1640961.27486691 7359.71165215
0.02300000 1637138.46056926 7072.43847159
0.02400000 1633156.34619933 7349.20389300
0.02500000 1629017.40908578 8259.11864126
0.02600000 1624722.05556357 7238.13708860
0.02700000 1620272.23327284 8846.68679886
0.02800000 1615668.52985150 9839.42179803
0.02900000 1610914.21371443 9423.84858292
0.03000000 1606009.95410653 7467.94662986
0.03100000 1600957.37415104 10758.43404932
0.03200000 1595757.83186339 10268.70212100
0.03300000 1590415.39823743 8111.11890494
0.03400000 1584928.65828725 11649.22617591
0.03500000 1579301.63680577 9381.05215583
0.03600000 1573534.90028240 9606.43101017
0.03700000 1567631.86059589 11616.15262423
0.03800000 1561593.79630833 10048.85654430
0.03900000 1555423.31308511 9332.54031070
0.04000000 1549120.51336712 11432.50991842
0.04100000 1542689.59537354 14578.41735223
0.04200000 1536132.11979005 13871.27368523
0.04300000 1529449.91550828 14132.11787528
0.04400000 1522645.58308847 12333.42979581
0.04500000 1515722.05060084 12550.17916212
0.04600000 1508679.49920897 13827.04825303
0.04700000 1501522.02562340 14054.24681347
0.04800000 1494251.52206328 13179.29903781
0.04900000 1486870.46211468 17842.44637590
0.05000000 1479380.82482351 13580.71660428
0.05100000 1471786.38537450 14923.91464291
0.05200000 1464086.51095562 12803.43713496
0.05300000 1456286.71757013 11795.92296222
0.05400000 1448387.84232078 16728.88035894
0.05500000 1440393.64796129 16939.03009022
0.05600000 1432304.91892523 13470.82839110
0.05700000 1424126.76218025 16106.87443210
0.05800000 1415858.57828790 15036.41880350
0.05900000 1407504.27038304 16467.80073262
0.06000000 1399067.60894908 16641.90998594
0.06100000 1390549.93639484 15518.53801537
0.06200000 1381954.28018385 15671.36226982
0.06300000 1373283.90840213 18456.93659188
0.06400000 1364538.17324379 21286.79649812
0.06500000 1355723.48313503 13421.66311087
0.06600000 1346841.29993515 16242.90683720
0.06700000 1337892.73325568 15011.15716964
0.06800000 1328882.07865389 15129.32317366
0.06900000 1319813.04826476 13858.03765560
0.07000000 1310684.86541997 19542.31225855
0.07100000 1301502.43393183 16867.47233379
0.07200000 1292267.43566416 16980.39490010
0.07300000 1282983.60570919 19937.56616691
0.07400000 1273653.54574966 18627.18397954
0.07500000 1264278.23113432 14412.77251049
0.07600000 1254860.68345787 20291.09820277
0.07700000 1245405.15962585 17485.48926102
0.07800000 1235912.43369436 19039.23193393
0.07900000 1226384.77632471 14716.61800616
0.08000000 1216827.20345700 17741.34145867
0.08100000 1207240.52986650 22273.58882107
0.08200000 1197626.40456737 23856.71909846
0.08300000 1187988.08646564 16465.51565117
0.08400000 1178328.79432556 21033.16996598
0.08500000 1168650.38212898 15075.59063719
0.08600000 1158955.48552952 19661.68073515
0.08700000 1149246.10565510 21238.06902980
0.08800000 1139524.20949734 15212.64891123
0.08900000 1129793.25658802 16777.43064836
0.09000000 1120055.20730952 21404.25601716
0.09100000 1110312.29053368 22983.46549384
0.09200000 1100565.99066297 18423.47554936
0.09300000 1090820.88149499 19994.74769740
0.09400000 1081075.60461268 20026.92651666
0.09500000 1071334.87599314 16969.94523336
0.09600000 1061599.62379784 26258.66792900
0.09700000 1051875.13330065 18555.07822375
0.09800000 1042160.07555695 17023.68563464
0.09900000 1032458.57430483 18584.25521136
0.10000000 1022769.94171876 21692.95148401
0.10100000 1013098.36615698 17050.44630433
0.10200000 1003445.59167333 18603.88214468
0.10300000 993813.02141041 17053.83224963
0.10400000 984203.34898610 24801.92556126
0.10500000 974619.58814067 17046.09739859
0.10600001 965058.63025901 26331.62596561
0.10700001 955528.52400104 15479.56281725
0.10800001 946025.95574400 15467.52510434
0.10900001 936556.25734203 15453.17897346
0.11000001 927119.79185228 15436.54526093
0.11100001 917717.30447305 23126.47716136
0.11200001 908352.07266230 18475.88202774
0.11300001 899023.92468466 18447.97180307
0.11400001 889735.96684516 16882.74076580
0.11500001 880489.32378368 15320.51495525
0.11600001 871285.19967668 22936.58396161
0.11700001 862125.33238008 16785.58101196
0.11800001 853009.82500500 16748.84870282
0.11900001 843940.74859026 19748.21444719
0.12000001 834919.23795884 15153.78488277
0.12100001 825948.26187022 16626.33929468
0.12200001 817027.22497119 16581.56831197
0.12300001 808158.27763901 21044.44254122
0.12400001 799341.45783824 19483.94895284
0.12500001 790577.81153443 17930.30561049
0.12600001 781870.88576216 22341.96161348
0.12700001 773219.07166281 16330.38756311
0.12800001 764623.78912541 16275.01811856
0.12900001 756086.95821270 16218.06601805
0.13000001 747608.98115180 14690.51717207
0.13100001 739189.64657851 19026.74239981
0.13200001 730830.83189488 20412.10609706
0.13300001 722534.33320353 14522.94078205
0.13400001 714298.72187700 20250.36971993
0.13500001 706126.84415326 15845.48712989
0.13600001 698016.99865444 21516.37499804
0.13700001 689972.42959018 19995.40195237
0.13800001 681990.92129868 17063.41365553
0.13900001 674075.82343066 16986.71155152
0.14000001 666225.88400607 18317.88154463
0.14100001 658442.04776503 16829.77953462
0.14200001 650724.59165922 20937.06472414
0.14300001 643075.11181710 13890.42307043
0.14400001 635490.57861840 15204.11281062
0.14500001 627975.65431124 19253.73446942
0.14600001 620528.11152014 20523.96825673
0.14700001 613150.70223458 16334.33547813
0.14800001 605838.74956749 21664.79470665
0.14900001 598596.88872224 18855.80288438
0.15000001 591423.50373281 14735.31729076
0.15100001 584319.43609620 17319.22890310
0.15200001 577284.59347183 19873.02306802
0.15300001 570320.27746523 14491.83893425
0.15400001 563422.53256978 13099.57450043
0.15500001 556596.11994646 14326.78480355
0.15600001 549836.26706136 16833.23811053
0.15700001 543149.36641443 15447.16870988
0.15800001 536527.63520362 15355.42164428
0.15900001 529977.84317052 13991.41572010
0.16000001 523494.34161825 15170.86673620
0.16100001 517082.51928476 12565.10581175
0.16200001 510738.20558929 17482.56960260
0.16300001 504461.95980383 14891.71775641
0.16400001 498254.32052074 14798.15401808
0.16500001 492114.24404642 19605.83240843
0.16600001 486042.85466975 14610.44890118
0.16700001 480037.42847501 13306.63814560
0.16800001 474098.71375840 14422.08355349
0.16900001 468228.95618618 11939.83894652
0.17000001 462423.93256760 14233.40931653
0.17100001 456685.03984883 14138.96950138
0.17200001 451012.55473256 12874.15398280
0.17300001 445405.17901052 12787.58329328
0.17400001 439862.92851887 15010.32314458
0.17500001 434384.87244551 12614.53729157
0.17600001 428969.42566896 11389.13878941
0.17700001 423619.53530101 14703.83476477
0.17800001 418331.17313608 13478.63103507
0.17900001 413106.02266274 15615.40839422
0.18000001 407942.88356140 11075.64981185
0.18100001 402842.96613442 16496.42024244
0.18200001 397801.26813652 13103.57439140
0.18300001 392821.33086501 10841.86924404
0.18400001 387900.83016903 16146.37281855
0.18500001 383041.29289414 13892.90834960
0.18600001 378238.94208434 13792.48367471
0.18700001 373494.69341282 11585.80593703
0.18800001 368808.05582804 14637.99242740
0.18900001 364180.44236132 12454.97171722
0.19000001 359605.20301438 11332.95850847
0.19100001 355090.50477951 13294.58912712
0.19200001 350627.56412869 10150.66846116
0.19300001 346221.89770863 16120.09231903
0.19400001 341868.04636784 9999.64082878
0.19500001 337568.74533822 14886.78237289
0.19600001 333321.76550295 10834.62449968
0.19700001 329126.88743485 11730.08282251
0.19800001 324983.65743482 10670.83889616
0.19900001 320891.93551790 10589.43437255
0.20000001 316848.86122071 13374.19106421
0.20100001 312857.19763543 11375.48824366
0.20200001 308912.71404612 9406.39258728
0.20300001 305018.33947896 9333.56162920
0.20400001 301170.87699340 12965.40686739
0.20500001 297370.27063860 11945.36433617
0.20600001 293616.32340329 14586.85963617
0.20700001 289908.72193628 9949.66780716
0.20800001 286244.86158712 11665.90988543
0.20900001 282628.12211018 10683.34352078
0.21000001 279053.30888879 11481.64893699
0.21100001 275522.61361914 9637.78148001
0.21200001 272034.23937297 8691.49435885
0.21300001 268587.40212489 10345.98721896
0.21400001 265183.10961880 11973.01796533
0.21500001 261820.61034797 11876.18344686
0.21600001 258497.23412796 9255.49390554
0.21700001 255214.00600509 10849.14790822
0.21800001 251970.15631348 10760.38603412
0.21900001 248764.02103590 10671.97700703
0.22000001 245595.63742622 8955.64534219
0.22100001 242466.46299371 8881.54695941
0.22200001 239374.19073735 8007.06705877
0.22300001 236316.89510132 10322.32246612
0.22400001 233294.94055496 14960.03877049
0.22500001 230310.97878554 8588.29680503
0.22600001 227359.46807470 8515.74927943
0.22700001 224444.38701851 8443.59823893
0.22800001 221561.72504246 8371.71017663
0.22900001 218711.63474035 10563.77245753
0.23000001 215895.50579506 9725.01351845
0.23100001 213112.35438126 8157.94131153
0.23200001 210359.20914791 8822.46564891
0.23300001 207638.22299608 7288.10197185
0.23400001 204948.81703426 10836.66921321
0.23500001 202287.98976742 7160.99517645
0.23600001 199658.91426855 8517.44968555
0.23700001 197058.53657092 9145.48711482
0.23800001 194487.67296546 9064.09842728
0.23900001 191945.04213517 8983.02839682
0.24000001 189430.62989423 6847.91759459
0.24100001 186945.31470411 6786.11524475
0.24200001 184486.80340275 8069.45316254
0.24300001 182055.67597546 6663.23805589
0.24400001 179650.85188503 9243.03676671
0.24500001 177272.47047535 7195.48991697
0.24600001 174920.42400832 9721.20302413
0.24700001 172594.10727811 6420.50109447
0.24800001 170293.15608445 6360.44968065
0.24900001 168016.26504965 6300.61023743
0.25000001 165765.29780314 8113.38288480
0.25100001 163537.24950024 7418.04998827
0.25200001 161335.07953492 7347.19986961
0.25300001 159156.36956467 7883.01535749
0.25400001 157000.66169118 6005.27559380
0.25500001 154867.78350310 6541.61548467
0.25600001 152758.49510705 7066.60831799
0.25700001 150671.05551699 9329.55219902
0.25800001 148606.83346344 6928.05090386
0.25900001 146564.63152627 7430.82716997
0.26000001 144544.22145871 6224.79719165
0.26100001 142544.72191297 6722.40940349
0.26200001 140567.63341864 11090.78680151
0.26300001 138610.85278034 6586.78803579
0.26400001 136675.47726842 6519.42057419
0.26500001 134761.26830168 5376.97485967
0.26600001 132866.47089176 7449.82337542
0.26700001 130993.16667397 6319.11065937
0.26800001 129140.28034282 5731.89161425
0.26900001 127305.89235321 9280.59999172
0.27000001 125492.39012208 5611.39248985
0.27100001 123697.94826787 6056.25183379
0.27200001 121924.31920835 5492.08121864
0.27300001 120169.00136912 5926.73542800
0.27400001 118430.94717156 5862.33216243
0.27500001 116714.76548579 8214.38558364
0.27600001 115014.96435883 6212.53359386
0.27700001 113335.47838640 4726.08967238
0.27800001 111673.36092679 5140.88341357
0.27900001 110030.92834748 5545.55905117
0.28000001 108405.14432540 5940.06016444
0.28100001 106798.26281541 7679.86344254
0.28200001 105209.88431450 5359.39176064
0.28300001 103638.84503481 4856.51650819
0.28400001 102085.26877786 5236.97453617
0.28500001 100549.72833674 5607.65861476
0.28600001 99031.45066460  5968.62581406
0.28700001 97530.57431208  5055.98521165
0.28800001 96046.13309553  4996.32008012
0.28900001 94580.85775342  4937.12100842
0.29000001 93130.89899833  4471.68032707
0.29100001 91698.94203636  4819.69662157
0.29200001 90283.55754293  5158.35130439
0.29300001 88884.98640005  5487.75932011
0.29400001 87502.44345918  5807.97495953
0.29500001 86137.72557367  6884.12735372
0.29600001 84788.63494671  4910.53402539
0.29700001 83456.02722968  5595.72689064
0.29800001 82139.48784870  4052.35182485
0.29900001 80840.03399125  3637.80170182
0.30000001 79555.86450871  4310.33694313
0.30100001 78288.84504869  4255.78181832
0.30200001 77036.14276777  3851.42214000
0.30300001 75800.78340739  4839.12224182
0.30400001 74581.02851673  4094.49865941
0.30500001 73376.73008007  3704.79127714
0.30600001 72187.22372102  3656.64399070
0.30700001 71014.47552755  3608.95581717
0.30800001 69856.75649247  3237.86081672
0.30900001 68714.48149011  3514.74589462
0.31000001 67587.93916130  4729.46626673
0.31100001 66475.55094464  4044.37271095
0.31200001 65379.12635060  3990.41516574
0.31300001 64297.18027078  4239.75626779
0.31400001 63231.42477589  2987.68496212
0.31500001 62179.44036849  2947.30561301
0.31600002 61142.83013536  3779.54422377
0.31700002 60120.76352135  3728.08872248
0.31800002 59113.43831551  2828.57815733
0.31900002 58120.81178028  3347.75891706
0.32000002 57142.98786736  3026.57849570
0.32100002 56178.74366936  3798.80682680
0.32200002 55230.20144325  3478.67440262
0.32300002 54294.05696375  3694.16781074
0.32400002 53372.88707901  3122.31404197
0.32500002 52465.64489217  2565.57015671
0.32600002 51572.92027677  3541.51260310
0.32700002 50693.29674204  2992.93238137
0.32800002 49828.32397653  3688.54185703
0.32900002 48976.29921921  2424.32692615
0.33000002 48138.97845161  3585.15058995
0.33100002 47312.61948082  2356.16856172
0.33200002 46502.72279006  2787.37333603
0.33300002 45704.67905502  2518.78498200
0.33400002 44920.46896522  3611.60587583
0.33500002 44148.19833508  2670.08316175
0.33600002 43390.16143483  3509.39642304
0.33700002 42643.94348119  2378.25284057
0.33800002 41911.70126499  3409.93617641
0.33900002 41191.03247985  2100.74275596
0.34000002 40483.63824088  2899.03347172
0.34100002 39788.47086241  2449.37838229
0.34200002 39106.37143958  2615.62977761
0.34300002 38435.30768541  2181.58816754
0.34400002 37777.93570410  3323.51405097
0.34500002 37131.67585494  2119.84747495
0.34600002 36498.40286129  2469.66454657
0.34700002 35875.26969291  2434.49591666
0.34800002 35265.50185629  1846.14910961
0.34900002 34666.51330221  2365.98964493
0.35000002 34079.29383579  1973.70239598
0.35100002 33504.08735269  1769.01589601
0.35200002 32938.76147245  2092.92900309
0.35300002 32385.22580679  1891.62112897
0.35400002 31842.96857597  1865.20197268
0.35500002 31311.85735064  2006.46391406
0.35600002 30790.46537104  2143.47834833
0.35700002 30280.33066752  1626.05383386
0.35800002 29781.37202986  2565.96313563
0.35900002 29292.62303644  1739.98189078
0.36000002 28814.45469886  2340.45419377
0.36100002 28345.66644881  1847.00371329
0.36200002 27888.24774782  1974.06971033
0.36300002 27439.65067470  1797.84599737
0.36400002 27001.07505223  1773.97071496
0.36500002 26572.08289689  1458.80742014
0.36600002 26153.13056910  1727.67588723
0.36700002 25742.99304122  1421.01328319
0.36800002 25343.81643453  1543.05833671
0.36900002 24952.73665681  1661.85234006
0.37000002 24570.47653359  1640.81650064
0.37100002 24197.11795358  1485.21917035
0.37200002 23833.53543696  1733.53228212
0.37300002 23478.01895805  1843.96369631
0.37400002 23131.24140169  1691.47210762
0.37500002 22793.37113923  1671.21005110
0.37600002 22463.93663736  1397.36924472
0.37700002 22142.23486130  1381.01125372
0.37800002 21828.61751625  1985.53114334
0.37900002 21523.63553298  1349.53201185
0.38000002 21226.46391658  1940.94795248
0.38100002 20936.03200253  2159.34244304
0.38200002 20654.37448861  1779.89080588
0.38300002 20379.44734438  1291.24184491
0.38400002 20112.87690324  1277.67056581
0.38500002 19852.22546172  1264.38829956
0.38600002 19600.07364732  1137.78432913
0.38700002 19354.17952970  1802.26128319
0.38800002 19115.42204460  1115.38492914
0.38900002 18882.87438192  1104.64820368
0.39000002 18658.23820423  1422.59743928
0.39100002 18439.02104478  1734.74318208
0.39200002 18226.83643136  1289.36647024
0.39300002 18020.60549759  1384.52318597
0.39400002 17821.92647958  1372.73395213
0.39500002 17628.18596373  1780.09430295
0.39600002 17440.52563491  1350.15835599
0.39700002 17258.66717905  1030.34247941
0.39800002 17082.88202436  1124.65159136
0.39900002 16912.41660168  1319.16855743
0.40000002 16747.43937685  1007.35852625
0.40100002 16588.24425513  1800.48811676
0.40200002 16434.58311336  1092.81765590
0.40300002 16285.44298213  1579.03662636
0.40400002 16141.93014155  1176.74676307
0.40500002 16003.48619785  1364.45729788
0.40600002 15869.83732770  1550.16578362
0.40700002 15740.95776868  1059.68132720
0.40800002 15616.97157350  1149.72150172
0.40900002 15497.33410698  1239.01192056
0.41000002 15382.64258246  1232.84194819
0.41100002 15271.99805005  1604.47619116
0.41200002 15165.48357546  939.50175202
0.41300002 15063.85529772  1216.10509581
0.41400002 14965.82323122  1397.43381043
0.41500002 14872.09897241  1484.83043176
0.41600002 14781.69309945  1201.97343134
0.41700002 14695.59198647  1105.69639345
0.41800002 14614.09898067  1377.74424669
0.41900002 14534.38000436  1556.63217223
0.42000002 14459.51724250  1095.74226856
0.42100002 14388.29365004  1001.85693433
0.42200002 14320.58132257  1272.09729916
0.42300002 14255.45406984  1087.97630616
0.42400002 14193.62623899  1085.81245873
0.42500002 14135.34779171  903.24876669
0.42600002 14079.28202727  1082.13366789
0.42700002 14027.46651286  1260.78874992
0.42800002 13977.63616702  1169.29920896
0.42900002 13931.77387893  1437.75913244
0.43000002 13888.11100396  1167.22634464
0.43100002 13846.11858330  1345.84279007
0.43200002 13807.97206230  986.51061074
0.43300002 13772.09655249  1344.84529208
0.43400002 13738.69604142  1075.73995102
0.43500002 13707.51290681  1434.35421854
0.43600002 13679.00460572  1075.99055328
0.43700002 13652.20360303  1345.42472884
0.43800002 13627.59766781  1076.85281874
0.43900002 13605.84532408  1077.58300073
0.44000002 13585.57328792  1437.89714494
0.44100002 13567.70014117  1169.40013059
0.44200002 13551.56701960  990.55183824
0.44300002 13537.39204644  991.74938832
0.44400002 13525.38149525  1083.38310911
0.44500002 13513.94087859  1084.89922515
0.44600002 13504.59276195  905.48298760
0.44700002 13497.91404631  907.05986690
0.44800002 13491.28421711  1272.09324912
0.44900002 13487.88427090  1274.60512401
0.45000002 13485.29412293  1185.96424785
0.45100002 13483.79954655  1005.62181784
0.45200002 13483.93411078  1099.48003950
0.45300002 13485.03530879  1101.99713766
0.45400002 13487.85287354  1012.60060247
0.45500002 13491.86785448  1199.69694648
0.45600002 13496.92326438  1295.29978707
0.45700002 13503.17140337  1205.96829519
0.45800002 13510.11996420  1395.25770543
0.45900002 13518.22830854  1399.13669625
0.46000002 13528.08031604  1216.10683765
0.46100002 13537.73726474  1219.61480798
0.46200002 13549.25359102  940.99570649
0.46300002 13561.51161661  1321.43375455
0.46400002 13573.90652366  1230.81403237
0.46500002 13587.65199833  1044.75461167
0.46600002 13601.90573741  1143.37625048
0.46700002 13616.54918341  1051.46997778
0.46800002 13632.86616364  1438.60827010
0.46900002 13648.75102832  1250.90809103
0.47000002 13665.62061864  1158.57137096
0.47100002 13683.13476885  1356.27238257
0.47200002 13701.23827837  1166.52348231
0.47300002 13719.96005857  1268.13596832
0.47400002 13738.44276446  978.86409336
0.47500002 13757.74218950  1080.53312278
0.47600002 13777.99133147  1182.97839179
0.47700002 13797.70695331  1385.01388962
