# SAXS profile: number of points = 501, q_min = 0, q_max = 0.5, delta_q = 0.001
#    q    intensity    error
0.00000000 1664650.74656090 274.66737318
0.00100000 1664563.64865055 749.05365968
0.00200000 1664302.32085949 823.82967491
0.00300000 1663866.99441621 1297.81630188
0.00400000 1663257.52968409 1372.18751413
0.00500000 1662474.58592109 1795.47262386
0.00600000 1661518.00333117 1919.05337198
0.00700000 1660388.57237915 2789.45291753
0.00800000 1659086.01980156 2687.71946555
0.00900000 1657611.79686959 3978.26848255
0.01000000 1655965.30496921 3552.04573253
0.01100000 1654148.14432278 2977.46678942
0.01200000 1652160.15639545 4188.22618009
0.01300000 1650002.72562506 5544.00940262
0.01400000 1647676.07397308 4448.72559694
0.01500000 1645181.69859359 3948.43625244
0.01600000 1642519.35348579 5863.79435408
0.01700000 1639691.19212851 4869.88305908
0.01800000 1636697.75276483 5597.50656633
0.01900000 1633539.94234364 5390.68205298
0.02000000 1630218.67759859 6162.22688008
0.02100000 1626736.57444322 5368.23093905
0.02200000 1623092.38685484 6719.60278687
0.02300000 1619289.22906227 8161.21808596
0.02400000 1615327.68627737 7874.72282967
0.02500000 1611210.10873054 6912.09168213
0.02600000 1606937.06893482 7158.90496954
0.02700000 1602510.24593053 8749.70634353
0.02800000 1597930.47745101 7646.09768525
0.02900000 1593200.89992519 7886.34481672
0.03000000 1588322.16594611 7385.69841114
0.03100000 1583296.04115814 9119.78561670
0.03200000 1578123.67211081 9374.05504409
0.03300000 1572809.22589150 9625.59290620
0.03400000 1567351.29494390 9051.45414594
0.03500000 1561753.95349981 13493.55478134
0.03600000 1556017.67020887 11226.66800938
0.03700000 1550145.82975868 9719.41480209
0.03800000 1544139.83628397 9033.21846031
0.03900000 1538002.09079745 13842.01945820
0.04000000 1531732.94654514 12246.20547511
0.04100000 1525336.44188415 13453.46804121
0.04200000 1518814.08157018 14694.52692091
0.04300000 1512167.84113173 11976.36985768
0.04400000 1505400.04571992 11177.59585858
0.04500000 1498513.99919776 13441.67119737
0.04600000 1491509.61933742 11566.65763566
0.04700000 1484391.14722317 12825.14010848
0.04800000 1477160.24249740 10857.12828752
0.04900000 1469819.55098406 12126.01186005
0.05000000 1462370.97344417 12305.85231457
0.05100000 1454818.46261722 17021.37680555
0.05200000 1447161.07612310 12655.42420046
0.05300000 1439404.51104870 13991.01249962
0.05400000 1431549.51638576 15353.36927922
0.05500000 1423600.06114981 15545.71339295
0.05600000 1415556.53089345 13313.30979431
0.05700000 1407424.34142065 13469.05157611
0.05800000 1399202.82349367 14859.53467933
0.05900000 1390895.90373599 13769.87009012
0.06000000 1382507.25004575 17709.91870047
0.06100000 1374038.15970279 12778.55548240
0.06200000 1365491.70301053 16775.06635561
0.06300000 1356871.20720170 16933.75345762
0.06400000 1348175.94253201 15773.65926531
0.06500000 1339412.41466965 14586.20187806
0.06600000 1330582.06679460 14709.58543665
0.06700000 1321685.78694361 14829.31522350
0.06800000 1312727.96840803 16304.08213081
0.06900000 1303712.46139402 15057.87963409
0.07000000 1294638.53949205 15166.69120038
0.07100000 1285510.81431159 16660.22093381
0.07200000 1276331.04404458 20963.73838052
0.07300000 1267102.98230873 19690.78126770
0.07400000 1257829.35384280 18395.75516205
0.07500000 1248510.81768323 14233.02398873
0.07600000 1239150.77024778 15743.41127406
0.07700000 1229753.08555349 15826.92295317
0.07800000 1220318.84712639 14460.77901660
0.07900000 1210849.98955670 14530.20055620
0.08000000 1201351.90276848 17515.71156405
0.08100000 1191825.14844843 14659.45001371
0.08200000 1182271.47482167 17663.13666268
0.08300000 1172693.94882316 17731.13333836
0.08400000 1163096.09751793 20761.26631520
0.08500000 1153479.47756661 16367.87455506
0.08600000 1143846.71827172 14927.20037430
0.08700000 1134200.11621465 17965.73068447
0.08800000 1124541.20765539 16513.88840997
0.08900000 1114873.80170884 19566.03613900
0.09000000 1105199.69036330 22628.96472320
0.09100000 1095520.91793580 16630.00831556
0.09200000 1085839.43393769 18176.95297819
0.09300000 1076159.36967629 22760.77173823
0.09400000 1066479.54112533 31914.40176807
0.09500000 1056804.54424692 16739.78476769
0.09600000 1047135.51242614 15235.82242200
0.09700000 1037477.51538248 15250.92019311
0.09800000 1027829.41877026 16789.59434502
0.09900000 1018195.01570665 18327.51114452
0.10000000 1008573.98895295 16807.88631633
0.10100000 998970.03844493 18341.09076846
0.10200000 989385.30798459 22929.00559104
0.10300000 979821.20698373 19870.77501237
0.10400000 970280.15120777 24451.06096074
0.10500000 960765.40887130 24441.87315166
0.10600001 951273.66915563 19848.32604087
0.10700001 941812.97572590 21360.31929463
0.10800001 932380.06958951 16768.85634074
0.10900001 922980.20336830 19797.92629405
0.11000001 913613.96355762 15211.67320924
0.11100001 904281.75341983 16711.12758985
0.11200001 894987.26001794 18204.04172576
0.11300001 885729.87615763 18175.17791446
0.11400001 876512.89712956 19655.80264361
0.11500001 867337.26261508 18110.00289617
0.11600001 858204.59709039 15061.49138820
0.11700001 849116.12242364 25549.90532700
0.11800001 840072.31355490 16494.82065353
0.11900001 831074.99379189 17951.22071144
0.12000001 822125.28099722 16413.73200828
0.12100001 813226.45770371 17858.45385245
0.12200001 804377.69813989 14840.76922985
0.12300001 795580.91932968 20716.92811541
0.12400001 786836.44486243 16228.50243993
0.12500001 778145.39343171 16177.64349174
0.12600001 769511.01653496 16125.10411136
0.12700001 760931.78267791 17531.86909911
0.12800001 752409.34414177 14559.12149530
0.12900001 743945.16207725 23211.09015080
0.13000001 735540.00113840 18789.37021472
0.13100001 727193.53300898 15838.27589551
0.13200001 718907.69777679 24381.75571946
0.13300001 710684.07928443 17141.70080045
0.13400001 702521.41586916 15648.66527625
0.13500001 694422.43885782 19832.70578886
0.13600001 686385.64934638 21157.83863871
0.13700001 678414.05215444 15447.48869596
0.13800001 670505.58792134 18174.05481762
0.13900001 662663.28541334 22265.48743989
0.14000001 654886.21554644 16621.01293443
0.14100001 647175.30551580 17920.28505491
0.14200001 639530.50849280 15089.72305960
0.14300001 631953.95001353 17745.26775338
0.14400001 624441.91357248 17656.09593910
0.14500001 616999.82465800 18917.21551638
0.14600001 609624.81064576 21507.56433419
0.14700001 602319.93789857 13371.50325217
0.14800001 595080.24612377 17290.05736685
0.14900001 587910.73723183 13227.99221182
0.15000001 580809.65915919 13155.33940066
0.15100001 573777.62368263 15698.55652469
0.15200001 566814.91007638 15610.08336010
0.15300001 559922.37147798 15521.04886979
0.15400001 553096.41659892 16717.33998061
0.15500001 546341.49677306 17898.14827895
0.15600001 539653.14209709 15250.59851541
0.15700001 533037.55716764 13896.28977122
0.15800001 526487.10083825 15068.06153718
0.15900001 520008.06464691 14976.23296872
0.16000001 513595.47977176 13643.66456415
0.16100001 507254.52140606 17256.79963283
0.16200001 500980.56475549 13473.87292515
0.16300001 494774.78305571 17040.04433286
0.16400001 488637.21698009 13303.14886032
0.16500001 482567.08091927 13217.51297040
0.16600001 476565.49807705 13131.76291950
0.16700001 470629.46070099 14231.83556355
0.16800001 464760.01467138 14138.00031385
0.16900001 458959.40171269 19895.89100369
0.17000001 453223.17922659 13950.21011532
0.17100001 447553.01451294 13856.24198363
0.17200001 441948.94653382 11468.57570413
0.17300001 436409.86988033 13668.35777013
0.17400001 430935.40177121 13574.46579686
0.17500001 425525.12112460 11233.86372824
0.17600001 420177.23063135 13386.84720016
0.17700001 414894.56282812 11077.68535072
0.17800001 409672.98505643 12099.69218514
0.17900001 404514.54164386 12014.08245429
0.18000001 399418.02163420 15181.87971943
0.18100001 394384.23438860 19380.04219330
0.18200001 389408.41334794 19240.67061241
0.18300001 384494.05515466 15918.05463536
0.18400001 379638.94208340 15802.47171074
0.18500001 374844.31876389 15687.23548137
0.18600001 370106.72328287 12457.79289425
0.18700001 365427.03583979 12366.05147705
0.18800001 360804.63546474 14320.33665818
0.18900001 356240.68648166 12183.43205331
0.19000001 351729.15892542 14107.85723108
0.19100001 347277.69482891 11001.75789201
0.19200001 342877.77361037 11911.57441806
0.19300001 338534.81983106 11821.63646710
0.19400001 334243.24609768 16620.24619758
0.19500001 330005.99543677 11642.61206918
0.19600001 325820.70040123 10590.80236702
0.19700001 321687.23831875 12420.34485844
0.19800001 317605.16244064 10428.56600158
0.19900001 313574.15705519 10347.94767186
0.20000001 309591.50765810 12134.43971615
0.20100001 305659.95257821 10187.64670092
0.20200001 301775.27075380 11026.86891451
0.20300001 297940.37677507 10940.37115227
0.20400001 294151.95018487 9045.17289571
0.20500001 290410.17520401 13460.51225694
0.20600001 286714.71998350 9792.74172392
0.20700001 283065.08626901 15896.93599630
0.20800001 279459.20675792 14017.67447360
0.20900001 275899.66680439 9559.92390668
0.21000001 272382.05084630 12069.24924354
0.21100001 268908.20628015 15392.30645512
0.21200001 265476.20357972 9330.16161589
0.21300001 262085.40018045 10095.53009222
0.21400001 258736.92052158 10013.11929757
0.21500001 255429.71006229 9103.51529701
0.21600001 252161.46266467 10670.21279713
0.21700001 248933.01233084 11396.15384331
0.21800001 245743.54211750 12916.28118439
0.21900001 242591.20542842 10407.16320495
0.22000001 239476.61996245 8732.51535983
0.22100001 236400.75417871 11021.00368092
0.22200001 233361.46237048 12489.50605663
0.22300001 230356.67851207 10061.98019319
0.22400001 227387.19828911 8441.75013566
0.22500001 224455.05860209 8369.92953106
0.22600001 221555.18037739 8298.34967345
0.22700001 218691.24999547 10470.93754494
0.22800001 215859.61716249 7414.77820018
0.22900001 213060.07210574 8085.63011879
0.23000001 210294.12481870 10201.36847740
0.23100001 207560.76939562 10112.36116320
0.23200001 204857.20584061 10023.66355584
0.23300001 202185.38857168 8516.04896940
0.23400001 199544.87690090 9847.54014080
0.23500001 196932.57662746 6971.41354233
0.23600001 194351.63831407 6909.20106885
0.23700001 191799.16278561 7531.95347884
0.23800001 189275.71454535 7464.08815614
0.23900001 186780.23178018 8068.90639456
0.24000001 184312.71715016 7329.19554415
0.24100001 181873.90598098 7262.22540933
0.24200001 179461.55162613 9157.92341267
0.24300001 177076.38546620 7777.19521756
0.24400001 174717.00872726 8989.19052424
0.24500001 172383.77044832 8905.34600262
0.24600001 170076.70897691 8821.87931195
0.24700001 167795.02471128 8738.76530036
0.24800001 165538.19345222 10510.84809048
0.24900001 163305.10451888 6736.33588008
0.25000001 161097.71360952 6671.86212477
0.25100001 158912.93481270 7208.29106412
0.25200001 156753.79170996 7733.44867988
0.25300001 154617.62458787 7069.11813060
0.25400001 152504.27532457 8166.60433000
0.25500001 150413.52968927 6931.05577600
0.25600001 148345.93070994 6290.60948938
0.25700001 146299.71424767 7926.51889297
0.25800001 144276.72456404 6726.18121742
0.25900001 142275.35046571 6658.48671684
0.26000001 140295.36534831 7140.33295725
0.26100001 138336.13784515 5980.27152201
0.26200001 136398.96350442 5919.03330134
0.26300001 134481.85683905 7988.22267422
0.26400001 132585.73505192 8432.45314831
0.26500001 130710.55091566 5736.88635115
0.26600001 128854.47889355 10321.24424777
0.26700001 127019.69703781 8680.52650633
0.26800001 125205.00087184 6062.42642909
0.26900001 123408.56960940 6497.46149740
0.27000001 121632.70059084 4944.36951300
0.27100001 119875.59800308 5869.10955597
0.27200001 118139.09396604 7256.69419028
0.27300001 116420.42241951 6220.34346425
0.27400001 114719.02300228 6625.02389191
0.27500001 113039.04681719 5615.78011165
0.27600001 111375.35825200 4627.64635438
0.27700001 109731.49329042 5033.38383544
0.27800001 108104.97350316 4976.61269075
0.27900001 106497.84218396 5814.78245845
0.28000001 104907.01419707 5306.19702922
0.28100001 103334.86431166 4371.06496726
0.28200001 101781.03838954 6912.96845461
0.28300001 100244.20288986 4270.40324523
0.28400001 98724.64745893  5908.67043008
0.28500001 97222.78906318  4587.94363305
0.28600001 95738.01962590  4945.82632797
0.28700001 94270.53072788  4479.73583223
0.28800001 92819.27375484  6035.57356159
0.28900001 91386.66765744  4372.85225439
0.29000001 89969.31632831  3927.16084362
0.29100001 88569.69234115  4267.28797899
0.29200001 87186.47645952  4981.39956831
0.29300001 85819.87058528  4163.12211916
0.29400001 84469.01483194  3737.75408325
0.29500001 83135.68201205  5536.83668410
0.29600001 81817.91824197  4738.48495929
0.29700001 80516.34458582  5758.52923738
0.29800001 79230.74851941  3908.84916324
0.29900001 77961.84846446  4911.59668577
0.30000001 76708.21093131  3809.71347625
0.30100001 75471.35347159  4102.62296893
0.30200001 74248.60131443  5061.89863425
0.30300001 73043.06585530  4329.99314889
0.30400001 71852.98621144  4273.45655724
0.30500001 70678.15265789  5190.60377693
0.30600001 69517.88279266  4161.68825041
0.30700001 68374.16617632  4106.55261497
0.30800001 67245.27127633  4051.86401259
0.30900001 66131.72870982  4305.17574283
0.31000001 65033.54708561  3943.95964973
0.31100001 63949.51713739  3890.68880684
0.31200001 62881.19152124  3542.72649804
0.31300001 61827.14481180  2912.05865851
0.31400001 60789.19181922  3159.51839440
0.31500001 59764.77424466  3682.70556332
0.31600002 58755.57919123  3073.21071511
0.31700002 57760.77029117  3030.70776068
0.31800002 56780.56096431  2988.64496786
0.31900002 55814.70388506  3482.83768734
0.32000002 54863.62068300  3170.02015316
0.32100002 53925.98776547  3646.47546536
0.32200002 53003.78659819  2824.83694051
0.32300002 52093.94078700  3291.29533477
0.32400002 51198.84004664  3743.91535569
0.32500002 50317.45531824  2460.52368157
0.32600002 49450.50115734  2910.65663595
0.32700002 48596.52483601  2869.13896218
0.32800002 47756.97609703  2828.16825839
0.32900002 46930.22542643  2787.65552234
0.33000002 46118.08543084  2976.69196509
0.33100002 45316.59081157  3159.47286100
0.33200002 44531.62852050  2446.79044493
0.33300002 43758.29268044  3069.20679395
0.33400002 42998.61765187  2376.74870326
0.33500002 42250.70626605  2981.20997531
0.33600002 41516.93166684  2728.28529369
0.33700002 40794.89550130  3102.45194980
0.33800002 40086.43844226  2038.39549132
0.33900002 39389.70015621  2611.53724403
0.34000002 38705.91055025  2573.74964393
0.34100002 38034.31754872  2926.74087398
0.34200002 37375.55291877  3076.75566198
0.34300002 36727.81381185  1895.15528244
0.34400002 36093.46955555  2054.62085176
0.34500002 35470.22451099  2024.99521324
0.34600002 34859.87430272  1814.45654339
0.34700002 34259.38397514  2503.67589948
0.34800002 33672.22178089  2115.28907246
0.34900002 33095.73117406  2780.04155029
0.35000002 32530.70282091  3254.20901082
0.35100002 31977.73368523  1688.42441855
0.35200002 31434.37291498  1830.89513715
0.35300002 30902.76817619  2133.21818824
0.35400002 30382.38326785  1779.64818421
0.35500002 29872.79923518  1754.72831019
0.35600002 29372.95847438  1572.92200080
0.35700002 28884.22082517  1861.29927813
0.35800002 28406.62615402  2447.51502536
0.35900002 27938.90435220  1810.44108778
0.36000002 27481.65699286  2678.63723397
0.36100002 27033.77437239  1614.72741975
0.36200002 26597.09372369  1593.03300404
0.36300002 26169.10646983  1571.71660903
0.36400002 25751.01990804  1973.81576945
0.36500002 25342.37950500  1808.68571095
0.36600002 24943.62781261  1785.09080897
0.36700002 24553.61535422  1490.89559493
0.36800002 24174.43409138  1338.05499034
0.36900002 23803.09300073  1453.17889653
0.37000002 23440.58054297  1434.91520591
0.37100002 23086.82954290  2061.19223923
0.37200002 22742.68321257  1399.69850462
0.37300002 22406.55880243  1382.70880920
0.37400002 22078.91255158  1738.71444580
0.37500002 21760.13562950  1718.18039070
0.37600002 21449.67886642  1819.46909604
0.37700002 21146.75338308  1199.02097362
0.37800002 20851.82448310  1303.96890582
0.37900002 20565.36143580  1406.67078885
0.38000002 20286.59933366  1507.19296889
0.38100002 20014.48655407  1949.61122759
0.38200002 19751.06127456  1475.10808117
0.38300002 19494.10557671  1122.86053441
0.38400002 19245.45735079  1555.99530052
0.38500002 19002.56325088  1430.32300365
0.38600002 18768.01181829  1089.48313767
0.38700002 18539.75323518  1079.01368941
0.38800002 18318.28570976  1496.42083052
0.38900002 18103.04234224  1376.73643535
0.39000002 17895.52233620  1259.48692169
0.39100002 17693.23552759  1248.43475797
0.39200002 17497.90924849  1237.80215888
0.39300002 17308.50350140  1329.81238702
0.39400002 17126.39083008  1319.16031618
0.39500002 16948.99986311  1610.83302331
0.39600002 16777.65354479  1198.93117911
0.39700002 16612.02374753  991.73786471
0.39800002 16452.22352307  984.66562451
0.39900002 16297.73048714  1075.65026311
0.40000002 16148.48914184  971.33166790
0.40100002 16004.94011617  1158.11752168
0.40200002 15866.73803378  1246.88766746
0.40300002 15732.94302077  1144.09967068
0.40400002 15604.67843789  1232.37953802
0.40500002 15481.32728913  1037.09416424
0.40600002 15362.67009307  1219.25836971
0.40700002 15248.49898990  933.20818240
0.40800002 15139.24825197  1300.31009397
0.40900002 15034.05250545  1017.05370018
0.41000002 14933.69150194  1473.05939955
0.41100002 14837.34007363  1192.03195800
0.41200002 14744.89319326  1096.13541192
0.41300002 14657.14955670  1001.22993366
0.41400002 14572.95593103  1542.18313447
0.41500002 14492.91765637  1537.40877784
0.41600002 14416.06238104  1172.24216806
0.41700002 14343.26194775  899.32256674
0.41800002 14275.09487897  986.90873122
0.41900002 14208.41805261  1163.66949365
0.42000002 14146.42271042  982.68130014
0.42100002 14088.01268233  1159.30261856
0.42200002 14032.93756538  890.38993071
0.42300002 13980.34388379  1066.97989577
0.42400002 13930.79743044  1065.70605393
0.42500002 13884.75729819  975.95963674
0.42600002 13840.71030576  975.14729080
0.42700002 13800.86025876  1329.02290590
0.42800002 13762.62775381  1417.00022068
0.42900002 13728.44504867  1062.58169712
0.43000002 13696.21378337  885.46026305
0.43100002 13665.51749942  1239.73580630
0.43200002 13638.52539495  1151.56894629
0.43300002 13613.66207428  974.87438734
0.43400002 13591.06744800  1152.86235091
0.43500002 13570.59016192  1242.52329411
0.43600002 13552.56850882  888.37090785
0.43700002 13536.15372042  889.32534158
0.43800002 13521.84015763  890.41321658
0.43900002 13510.16576497  1426.67357239
0.44000002 13499.80434208  1250.21693937
0.44100002 13491.73009468  1073.40209720
0.44200002 13485.19221359  896.09106506
0.44300002 13480.50622746  1885.38369032
0.44400002 13477.82606074  1349.46739828
0.44500002 13475.56319869  1081.81826486
0.44600002 13475.23630261  993.86610060
0.44700002 13477.43678958  905.68379518
0.44800002 13479.46318804  907.84188874
0.44900002 13484.58723281  1365.31452203
0.45000002 13490.39584667  1186.41291896
0.45100002 13497.13617946  1464.16940214
0.45200002 13505.32468980  917.68685616
0.45300002 13514.45093611  1380.50122855
0.45400002 13525.04833760  1015.39305207
0.45500002 13536.68087309  1388.86352340
0.45600002 13549.14929663  1021.67365113
0.45700002 13562.72684702  1397.63906782
0.45800002 13576.82641655  1121.71745170
0.45900002 13592.03548361  1125.42059138
0.46000002 13608.72578956  941.04343295
0.46100002 13625.08919282  1133.06247098
0.46200002 13643.18583764  947.51930133
0.46300002 13661.84020566  1236.12336039
0.46400002 13680.52085624  954.21637495
0.46500002 13700.35532190  957.65488239
0.46600002 13720.60259067  1153.35390844
0.46700002 13741.10094036  1350.47546443
0.46800002 13763.04869053  1355.52272978
0.46900002 13784.44219858  1166.16386527
0.47000002 13806.63652399  1170.52669998
0.47100002 13829.45784703  1272.86336057
0.47200002 13852.58045355  1179.40875572
0.47300002 13876.22180432  1085.25935875
0.47400002 13899.45553241  1188.40350435
0.47500002 13923.43230573  994.13311375
0.47600002 13948.13579679  1496.98374534
0.47700002 13972.18131391  1302.34708200
