# SAXS profile: number of points = 501, q_min = 0, q_max = 0.5, delta_q = 0.001
#    q    intensity    error
0.00000000 1682732.95097188 328.13292544
0.00100000 1682645.46372877 757.19047666
0.00200000 1682382.96885421 757.07235996
0.00300000 1681945.69467381 1412.83443386
0.00400000 1681333.51210381 1639.30023659
0.00500000 1680547.06079167 1663.74165604
0.00600000 1679586.20898165 1939.92215035
0.00700000 1678451.72201152 2416.97058015
0.00800000 1677143.34052857 2943.38668690
0.00900000 1675662.53543390 3267.54208378
0.01000000 1674008.63899016 3590.74868568
0.01100000 1672183.33582491 4514.89520330
0.01200000 1670186.43967262 3582.55007017
0.01300000 1668019.30062349 4903.97696012
0.01400000 1665682.17822024 4497.34208057
0.01500000 1663176.58626868 4390.78638327
0.01600000 1660502.24908966 5081.13710936
0.01700000 1657661.30877481 5370.82288136
0.01800000 1654654.33365299 5187.34156942
0.01900000 1651482.23971506 6440.78102551
0.02000000 1648145.91079510 6229.99182462
0.02100000 1644648.04702901 5970.07268139
0.02200000 1640987.29882305 6227.54708197
0.02300000 1637166.78782687 7072.56084534
0.02400000 1633187.14836632 6736.89729420
0.02500000 1629050.81950687 6988.62833486
0.02600000 1624758.18036328 7238.29802459
0.02700000 1620311.08671195 6805.30687588
0.02800000 1615710.22606589 7028.33980570
0.02900000 1610958.86258233 9424.10977881
0.03000000 1606057.63232786 8214.98516696
0.03100000 1601008.19204175 9221.80761048
0.03200000 1595811.82508490 8689.19578780
0.03300000 1590472.72355405 8922.55239047
0.03400000 1584989.38044568 11649.67248380
0.03500000 1579365.81769101 9381.43339030
0.03600000 1573602.69415718 10480.19442742
0.03700000 1567703.24574390 10723.09069680
0.03800000 1561668.94355393 13703.64561388
0.03900000 1555502.19335534 14932.82174775
0.04000000 1549203.38919379 13338.64179906
0.04100000 1542776.37694920 13607.28827562
0.04200000 1536222.93117251 10899.50220233
0.04300000 1529544.87613222 11104.49631617
0.04400000 1522744.61624408 11306.37930070
0.04500000 1515825.35348316 13596.95405252
0.04600000 1508787.15418693 11700.64492465
0.04700000 1501634.05015942 17298.82506237
0.04800000 1494368.03532572 13180.32668483
0.04900000 1486991.49052929 12267.68036790
0.05000000 1479506.35829880 20372.80350246
0.05100000 1471916.58940407 13777.13991862
0.05200000 1464221.38321350 11640.56053901
0.05300000 1456426.28088226 12976.75876761
0.05400000 1448532.21827964 13145.43049391
0.05500000 1440543.00684741 14520.67418640
0.05600000 1432459.15897202 13472.27901880
0.05700000 1424285.93492267 13630.41703346
0.05800000 1416022.65513475 15038.16129970
0.05900000 1407673.45797876 16469.78022759
0.06000000 1399241.88844144 16643.98304060
0.06100000 1390729.32334226 25867.56662299
0.06200000 1382138.81610537 16979.57614954
0.06300000 1373473.70651996 17140.95265880
0.06400000 1364733.17959932 13306.14912338
0.06500000 1355923.62160298 17450.73782634
0.06600000 1347046.81599975 14891.60324763
0.06700000 1338103.42132916 16378.38664356
0.06800000 1329098.17264624 15131.78340388
0.06900000 1320034.53156214 15246.39955336
0.07000000 1310911.81421117 19545.69606518
0.07100000 1301734.63302129 15464.60816462
0.07200000 1292505.11088953 14152.93162726
0.07300000 1283226.74346080 15668.19927180
0.07400000 1273902.27904971 15764.54144203
0.07500000 1264532.24856528 18740.36880215
0.07600000 1255120.32169257 15946.30443468
0.07700000 1245670.15335538 20404.07806868
0.07800000 1236182.90095596 14648.76806330
0.07900000 1226660.60696601 16191.92077141
0.08000000 1217108.49475736 17745.44268602
0.08100000 1207527.36456807 14852.58728104
0.08200000 1197918.69603321 16405.49731201
0.08300000 1188285.78667757 22458.60242223
0.08400000 1178631.93100031 22541.33673844
0.08500000 1168958.92672676 15079.57086269
0.08600000 1159269.32254672 24205.54459126
0.08700000 1149565.42282452 18209.11715260
0.08800000 1139848.84732751 16738.68110912
0.08900000 1130123.24662665 16782.33100067
0.09000000 1120390.58004809 19881.33177689
0.09100000 1110652.89306537 15327.01064438
0.09200000 1100911.87686654 21500.80996546
0.09300000 1091172.02241341 18462.63148683
0.09400000 1081431.88904665 16951.44565748
0.09500000 1071696.24556809 16975.66932770
0.09600000 1061966.14464489 20087.09057021
0.09700000 1052246.77563339 20108.43682771
0.09800000 1042536.68910227 18578.00467330
0.09900000 1032840.31761761 20140.38714059
0.10000000 1023156.47875806 21701.14993500
0.10100000 1013489.71557406 23259.59006636
0.10200000 1003841.90969616 20162.16570460
0.10300000 994213.97186472 29468.50351229
0.10400000 984609.09581538 20159.87218524
0.10500000 975030.06608930 17053.27665825
0.10600001 965473.78842825 23243.78255011
0.10700001 955948.11323265 20132.26821206
0.10800001 946450.12597080 17021.90631666
0.10900001 936984.67429970 18552.29742431
0.11000001 927552.62915217 21621.25280324
0.11100001 918154.34496008 18509.99246572
0.11200001 908793.39717672 20025.26344952
0.11300001 899469.38044100 19995.20526859
0.11400001 890185.42117056 21497.97893349
0.11500001 880942.78487239 16861.24569642
0.11600001 871742.53688332 15299.08224276
0.11700001 862586.33121706 19848.11241605
0.11800001 853474.54675617 15234.52137712
0.11900001 844409.18363467 21279.11242987
0.12000001 835391.11339955 22743.52413363
0.12100001 826423.75919841 21172.97770808
0.12200001 817506.05382702 16591.28614406
0.12300001 808640.37560148 15040.71169482
0.12400001 799826.69402891 19495.77658555
0.12500001 791066.15764362 17941.38130076
0.12600001 782362.13252364 14903.99932690
0.12700001 773713.17597944 14855.29367888
0.12800001 765120.77215845 14805.08763902
0.12900001 756586.53765623 19179.46963355
0.13000001 748111.13150437 17640.46131235
0.13100001 739694.20233106 17575.13507584
0.13200001 731337.78858612 16049.20852709
0.13300001 723043.57784210 17439.81191972
0.13400001 714810.13940733 17369.88720651
0.13500001 706640.17636269 18740.09836070
0.13600001 698532.33700973 15790.32422263
0.13700001 690489.50686770 14293.13346613
0.13800001 682509.66709377 15653.35995294
0.13900001 674596.08823483 19833.12592940
0.14000001 666747.72493235 18332.22956157
0.14100001 658965.20927510 19650.34346735
0.14200001 651248.81344518 18160.07401944
0.14300001 643600.54381198 19462.48136287
0.14400001 636016.90665805 17983.37888403
0.14500001 628502.93398448 26152.00831674
0.14600001 621056.07236701 17802.57315422
0.14700001 613679.18084193 16348.41414889
0.14800001 606367.72569917 14907.55123963
0.14900001 599126.31244240 17524.44546576
0.15000001 591953.15377254 17430.06143523
0.15100001 584849.08764842 14668.01581033
0.15200001 577814.35073809 19891.25996277
0.15300001 570849.76692633 14505.29326209
0.15400001 563951.84521762 19667.82153011
0.15500001 557124.78413119 14340.39262030
0.15600001 550364.53209862 15553.30241114
0.15700001 543677.00797567 21904.74768517
0.15800001 537054.62152702 14089.62866077
0.15900001 530503.48142648 14005.29257072
0.16000001 524018.96037154 13920.56433935
0.16100001 517606.15103145 12577.83006379
0.16200001 511260.42558852 16250.41339445
0.16300001 504982.83977731 16149.35197845
0.16400001 498773.69499254 17282.50934739
0.16500001 492631.78484996 13493.18522407
0.16600001 486558.64471864 20720.10086360
0.16700001 480551.15316266 13320.87859461
0.16800001 474610.27125271 14437.64513320
0.16900001 468738.28744956 15538.67496266
0.17000001 462931.00925989 17811.27142232
0.17100001 457189.55674152 12975.04023302
0.17200001 451514.42954120 17575.19999984
0.17300001 445904.36595123 16293.34630130
0.17400001 440359.27918869 16183.20427445
0.17500001 434878.11999696 16073.09607418
0.17600001 429459.63256011 13682.58453958
0.17700001 424106.53181709 12456.00942777
0.17800001 418814.57536260 14618.72344350
0.17900001 413586.03992549 14516.87068707
0.18000001 408419.32167934 12197.44361810
0.18100001 403315.51886851 15414.71985929
0.18200001 398270.01558056 13119.01493294
0.18300001 393286.13757207 14111.10728268
0.18400001 388361.55322428 15087.84705552
0.18500001 383497.69919578 11769.54494434
0.18600001 378691.04293263 13808.96953292
0.18700001 373942.35124322 11599.69228359
0.18800001 369251.12366817 14655.57779081
0.18900001 364618.72314080 12469.96092059
0.19000001 360038.62786280 12378.12861077
0.19100001 355519.02507938 13310.63292790
0.19200001 351051.18688565 11179.22557461
0.19300001 346640.25098818 13113.40131453
0.19400001 342281.14628341 21024.62040395
0.19500001 337976.40395387 10930.15742037
0.19600001 333723.99528292 11833.85343196
0.19700001 329523.54091986 11744.21955339
0.19800001 325374.73515273 10683.67993364
0.19900001 321277.24621762 11565.98141044
0.20000001 317228.28187223 11477.31978057
0.20100001 313230.53037767 15185.41683041
0.20200001 309280.08248842 11301.09474826
0.20300001 305379.48050698 10279.07379970
0.20400001 301525.79496903 14835.06981367
0.20500001 297718.84657480 11039.41535279
0.20600001 293958.52198046 9127.41253893
0.20700001 290244.24500108 9961.18295929
0.20800001 286573.86157663 14374.54557617
0.20900001 282950.43637094 9804.23308371
0.21000001 279368.82444327 10610.42845394
0.21100001 275831.32825897 11402.86764928
0.21200001 272336.00083177 8701.13563792
0.21300001 268882.12349868 10357.33988682
0.21400001 265470.73496753 9417.57476820
0.21500001 262101.11135984 9341.28405050
0.21600001 258770.53560735 11792.17386514
0.21700001 255480.12849181 10860.46077566
0.21800001 252228.90056694 9942.86373045
0.21900001 249015.25702072 9861.00464426
0.22000001 245839.49676822 8964.53767352
0.22100001 242702.74851539 9698.40228925
0.22200001 239602.89983254 9617.66085404
0.22300001 236537.89133263 13511.04499180
0.22400001 233508.37873850 8668.99897059
0.22500001 230516.62430749 10158.86811362
0.22600001 227557.39903587 8523.16278393
0.22700001 224634.50892215 8450.75062528
0.22800001 221743.94335929 7616.90481460
0.22900001 218886.03195715 9061.88215157
0.23000001 216061.93068948 9732.51012818
0.23100001 213270.74761198 9648.36907826
0.23200001 210509.66058086 10300.23817936
0.23300001 207780.69511371 8751.72329210
0.23400001 205083.26090989 9397.94087567
0.23500001 202414.28452022 8598.55921310
0.23600001 199777.18997928 8522.49532760
0.23700001 197168.70103604 9150.59984789
0.23800001 194589.60152906 9068.84880821
0.23900001 192038.85780112 6913.39920784
0.24000001 189516.36015824 6851.01674378
0.24100001 187022.86306577 7467.82327545
0.24200001 184556.22893457 10763.31978059
0.24300001 182116.86979881 8665.12107491
0.24400001 179703.93478078 6604.11991559
0.24500001 177317.36354399 8505.91433157
0.24600001 174957.18403819 7778.59677031
0.24700001 172622.82609041 8990.19720808
0.24800001 170313.75586227 7633.46289886
0.24900001 168028.62628549 8191.39591893
0.25000001 165769.53224471 8737.71245798
0.25100001 163533.42644420 6799.72019324
0.25200001 161323.24282654 9795.54776785
0.25300001 159136.42924911 6669.40806536
0.25400001 156972.67275604 8405.88702378
0.25500001 154831.88071952 7729.20785120
0.25600001 152714.62218077 6475.86385997
0.25700001 150619.18433863 6411.85898066
0.25800001 148547.12869641 8079.47871207
0.25900001 146497.04761695 7998.73917834
0.26000001 144468.84056013 5655.95537554
0.26100001 142461.63480303 5598.74251267
0.26200001 140476.86169248 6095.99370159
0.26300001 138512.29832737 6582.10472797
0.26400001 136569.32421939 7057.22016297
0.26500001 134647.58916285 6984.17078036
0.26600001 132745.26352709 5848.09286142
0.26700001 130864.51166752 6312.90434157
0.26800001 129004.22408036 6766.91689435
0.26900001 127162.51591505 5665.09035210
0.27000001 125341.78038792 6623.68669805
0.27100001 123540.08895232 6552.56662812
0.27200001 121759.42135945 5484.65339469
0.27300001 119996.95661648 5425.06266537
0.27400001 118251.97419967 5853.47299990
0.27500001 116528.80266280 5789.15119026
0.27600001 114822.20697276 5725.03551060
0.27700001 113135.93882680 5661.32264682
0.27800001 111467.24927848 7930.33782524
0.27900001 109818.20427821 5996.07423737
0.28000001 108185.88182643 5016.03864828
0.28100001 106572.63303275 4958.82484971
0.28200001 104977.93150539 5793.20742432
0.28300001 103400.63730767 4845.35409357
0.28400001 101840.97445274 5224.44223670
0.28500001 100299.32064616 5163.40927126
0.28600001 98775.09140772  4252.26788637
0.28700001 97268.43452820  6302.99485576
0.28800001 95778.34783580  8303.98315042
0.28900001 94307.35319097  5333.08107538
0.29000001 92851.83458565  6079.47415726
0.29100001 91414.48058369  4404.34988300
0.29200001 89993.69287866  4350.74528816
0.29300001 88590.01289954  6250.91160608
0.29400001 87202.40116207  4630.44772089
0.29500001 85832.60977323  6097.54888693
0.29600001 84478.66142802  4139.87699925
0.29700001 83141.25229713  4459.69698433
0.29800001 81820.13951717  4403.56011727
0.29900001 80516.21618743  6884.13680991
0.30000001 79227.62025230  4292.55266848
0.30100001 77956.26983638  3884.56110984
0.30200001 76699.40065450  3485.98792478
0.30300001 75460.02748353  3785.07515776
0.30400001 74236.27356340  3735.94064394
0.30500001 73028.17094968  3687.19252581
0.30600001 71835.06866977  3638.80557574
0.30700001 70658.73690041  3917.32055922
0.30800001 69497.63297435  3543.33698495
0.30900001 68352.07665463  3496.20888641
0.31000001 67222.35246118  4390.29204710
0.31100001 66106.89043069  3403.18288050
0.31200001 65007.54734483  3967.73584005
0.31300001 63922.90947809  4215.07685055
0.31400001 62854.45165907  3563.84757781
0.31500001 61799.96450127  3515.18214727
0.31600002 60760.92603598  4044.85503773
0.31700002 59736.64514428  4844.04478411
0.31800002 58727.27414310  4496.16032128
0.31900002 57732.64350102  3602.51712504
0.32000002 56752.91945623  3552.44916157
0.32100002 55786.97776155  2963.96226881
0.32200002 54836.86871477  2922.53105654
0.32300002 53899.20698515  3143.40190022
0.32400002 52976.79402390  3357.40448024
0.32500002 52068.37316503  2546.14356833
0.32600002 51174.62359241  2761.12694667
0.32700002 50294.05649911  3711.70154539
0.32800002 49428.31784497  2439.28760116
0.32900002 48575.62560567  2404.49358134
0.33000002 47737.79416708  2370.18159263
0.33100002 46911.10727344  3270.64255398
0.33200002 46100.91785022  2763.28914680
0.33300002 45302.80760287  2950.57199890
0.33400002 44518.59780937  2908.17753962
0.33500002 43746.51082744  2204.82425011
0.33600002 42988.73046631  2173.08042798
0.33700002 42242.96315451  2998.40566670
0.33800002 41511.22493957  2110.84588814
0.33900002 40791.23426884  2704.45896010
0.34000002 40084.68238538  3485.56372189
0.34100002 39390.44954629  2424.87618891
0.34200002 38709.35784202  3186.55448847
0.34300002 38039.52941868  2747.97573535
0.34400002 37383.48726234  3095.35289192
0.34500002 36738.62231891  2860.10188298
0.34600002 36106.92824177  2819.04855599
0.34700002 35485.47813223  1852.34204623
0.34800002 34877.52111915  1825.83831706
0.34900002 34280.47967067  3059.53295551
0.35000002 33695.30497986  1774.05789121
0.35100002 33122.24330510  2273.51088814
0.35200002 32559.20559203  1724.01001775
0.35300002 32008.06116933  2209.51656717
0.35400002 31468.37016592  2681.10526512
0.35500002 30939.88653187  1817.40902096
0.35600002 30421.29884412  2280.68488237
0.35700002 29913.98872006  2088.29565146
0.35800002 29417.98226431  1742.57426196
0.35900002 28932.29650615  1874.81290240
0.36000002 28457.31868586  2773.73498369
0.36100002 27991.80225629  2279.93240177
0.36200002 27537.79497035  1649.37630787
0.36300002 27092.70055104  1923.03997620
0.36400002 26657.74796012  2627.12118591
0.36500002 26232.41433686  1728.19153837
0.36600002 25817.22685252  1563.36224611
0.36700002 25411.05242754  1542.95917649
0.36800002 25015.83942694  2630.79087795
0.36900002 24628.82383881  1776.96972414
0.37000002 24250.75531601  1619.46551672
0.37100002 23881.66712893  1465.85679781
0.37200002 23522.42318564  1316.07963958
0.37300002 23171.33474630  1429.90313493
0.37400002 22829.06975279  1540.96228131
0.37500002 22495.77088168  1268.76153783
0.37600002 22171.06195488  1379.15097424
0.37700002 21854.05078968  1239.12473847
0.37800002 21545.29714435  1347.33522075
0.37900002 21245.24999572  2058.66482211
0.38000002 20953.01330650  1796.19715079
0.38100002 20667.69039270  1657.96220185
0.38200002 20391.12874290  1171.47040178
0.38300002 20121.36492338  1274.88974194
0.38400002 19860.02474156  1261.60813148
0.38500002 19604.68671738  1135.11141471
0.38600002 19357.93601104  1348.47388641
0.38700002 19117.46670770  1223.90027661
0.38800002 18884.17830130  1652.83778413
0.38900002 18657.18441497  1200.58987398
0.39000002 18438.13648013  1730.23480927
0.39100002 18224.55302545  1285.92452240
0.39200002 18018.06892804  1168.38173499
0.39300002 17817.60949919  1474.22907981
0.39400002 17624.68974080  1044.26291662
0.39500002 17436.70404589  1139.31429634
0.39600002 17254.88276602  1130.28114914
0.39700002 17078.96659976  1019.61435431
0.39800002 16909.05422150  1113.20763741
0.39900002 16744.58254305  1507.01250027
0.40000002 16585.60715535  1396.67404472
0.40100002 16432.40323035  1089.96135791
0.40200002 16284.74755123  1181.29564334
0.40300002 16141.69241300  1369.46124920
0.40400002 16004.23737166  972.25746639
0.40500002 15871.92097512  1256.58004314
0.40600002 15744.38477128  1153.43368299
0.40700002 15621.64293265  1051.64905205
0.40800002 15503.80965697  1426.73815128
0.40900002 15390.27570395  1041.15220070
0.41000002 15281.76531059  942.12087604
0.41100002 15177.29538860  1031.75258940
0.41200002 15076.91650776  1027.41652410
0.41300002 14981.48867663  1116.42058908
0.41400002 14889.64661639  1112.25665495
0.41500002 14802.09589486  1200.74607589
0.41600002 14717.86815433  1196.78350568
0.41700002 14637.94198870  1193.13870803
0.41800002 14562.61821919  1189.83877798
0.41900002 14489.03523691  1186.65204213
0.42000002 14420.23135430  1365.95647976
0.42100002 14355.16966414  1090.41873936
0.42200002 14293.52217799  1088.30883020
0.42300002 14234.47259745  1448.50000015
0.42400002 14178.73006859  994.28349317
0.42500002 14126.46416125  992.94921295
0.42600002 14076.41050100  991.75354884
0.42700002 14030.55866017  990.83809953
0.42800002 13986.66562532  990.04617320
0.42900002 13946.76981173  1079.48003458
0.43000002 13908.95398397  1348.82087651
0.43100002 13872.85646534  1348.44171233
0.43200002 13840.53065601  898.94250871
0.43300002 13810.45816808  1438.49739095
0.43400002 13782.78679422  1169.12494522
0.43500002 13757.31692351  1079.67428332
0.43600002 13734.46868341  1170.38280432
0.43700002 13713.26595800  991.05777775
0.43800002 13694.23299123  1082.11834225
0.43900002 13678.01023080  1444.39794882
0.44000002 13663.20014825  994.20280590
0.44100002 13650.77702355  1538.57915124
0.44200002 13639.98393184  1268.92776531
0.44300002 13631.11962063  1089.39913171
0.44400002 13624.37112272  1000.36949709
0.44500002 13618.11966771  1366.57837342
0.44600002 13613.89033797  1095.37366850
0.44700002 13612.31363421  1006.22227153
0.44800002 13610.68717373  1283.35175443
0.44900002 13612.22813757  1102.59053140
0.45000002 13614.51152202  1289.43044736
0.45100002 13617.84452802  1107.94788331
0.45200002 13622.77284404  1203.36769621
0.45300002 13628.57876811  1020.91688390
0.45400002 13636.03178379  1302.92289869
0.45500002 13644.57512282  1026.61788090
0.45600002 13654.09156742  1216.78442770
0.45700002 13664.78118788  938.77051210
0.45800002 13676.03753217  1506.55236595
0.45900002 13688.41374266  1038.95065231
0.46000002 13702.45129219  1421.28682764
0.46100002 13716.19324651  1425.79835555
0.46200002 13731.72716647  1049.03534660
0.46300002 13747.92037761  1243.91189472
0.46400002 13764.23115139  1056.06068514
0.46500002 13781.77020790  1059.68036151
0.46600002 13799.70375790  1063.33622346
0.46700002 13817.96577555  1261.02761644
0.46800002 13837.83083379  1362.88802342
0.46900002 13857.17790495  1758.47595948
0.47000002 13877.37841787  1078.48051486
0.47100002 13898.16317775  1082.38899958
0.47200002 13919.50475139  1185.10669070
0.47300002 13941.34424990  1189.47554778
0.47400002 13962.82526113  1193.82161641
0.47500002 13985.09114139  998.53555482
0.47600002 14008.21932721  1102.51695440
0.47700002 14030.68420139  1106.60011541
