# SAXS profile: number of points = 501, q_min = 0, q_max = 0.5, delta_q = 0.001
#    q    intensity    error
0.00000000 1682732.95097188 302.89193117
0.00100000 1682645.35519652 757.19042782
0.00200000 1682382.53569551 908.48659804
0.00300000 1681944.71659082 1110.08355249
0.00400000 1681331.76842212 2143.69808619
0.00500000 1680544.34522784 1512.48997057
0.00600000 1679582.29221835 2116.27377435
0.00700000 1678446.39825474 2014.13576161
0.00800000 1677136.40207045 2716.96108606
0.00900000 1675653.72005177 2764.82875628
0.01000000 1673997.79595621 3314.51577911
0.01100000 1672170.21183672 4213.86911730
0.01200000 1670170.81671956 3582.51655893
0.01300000 1668000.99849114 3502.80225132
0.01400000 1665660.98167436 4497.28484989
0.01500000 1663152.21797318 4789.87860105
0.01600000 1660474.55435963 4234.21030290
0.01700000 1657630.07980083 5370.72169948
0.01800000 1654619.34408602 6130.36494569
0.01900000 1651443.28319161 7926.92811700
0.02000000 1648102.79817545 6748.98126382
0.02100000 1644600.54282672 5427.18203739
0.02200000 1640935.18699348 6793.47198280
0.02300000 1637109.90983713 10019.11310426
0.02400000 1633125.33895520 6124.22030033
0.02500000 1628983.72518698 7623.64418205
0.02600000 1624685.75288783 6579.97760015
0.02700000 1620232.99639722 8846.47256551
0.02800000 1615626.42225345 7027.97525910
0.02900000 1610869.05749770 9423.58441904
0.03000000 1605961.65870048 8214.49426183
0.03100000 1600905.87578037 9221.21826879
0.03200000 1595702.92762428 11058.22179776
0.03300000 1590356.99391193 10544.06735572
0.03400000 1584866.70848757 9984.66072417
0.03500000 1579236.03318890 8527.87497302
0.03600000 1573465.64807269 11352.55517549
0.03700000 1567558.68107487 14296.13583256
0.03800000 1561516.72509769 10048.36059104
0.03900000 1555342.06758154 9332.05283766
0.04000000 1549035.26925842 10479.22408213
0.04100000 1542600.01400799 13605.73275440
0.04200000 1536038.25817367 11888.93666983
0.04300000 1529351.69202316 14131.21029024
0.04400000 1522542.65644259 12332.59608993
0.04500000 1515614.45556204 16732.38436687
0.04600000 1508567.24803211 13826.01947094
0.04700000 1501405.04055802 10810.11679477
0.04800000 1494129.53350223 16472.77887331
0.04900000 1486743.54182500 13380.69249926
0.05000000 1479248.68857394 13579.50359345
0.05100000 1471649.11232772 14922.52269415
0.05200000 1463943.98750739 15129.86181596
0.05300000 1456138.79102368 14153.66970856
0.05400000 1448234.36773359 13142.72750008
0.05500000 1440234.85336922 18146.95999899
0.05600000 1432140.26331237 14693.75978726
0.05700000 1423956.41048078 13627.26348440
0.05800000 1415682.38753832 16287.42662913
0.05900000 1407322.19054898 13932.49033716
0.06000000 1398879.55769581 19199.62282636
0.06100000 1390355.87631253 16809.40333014
0.06200000 1381754.02831656 16974.84903133
0.06300000 1373077.31920955 17136.00574493
0.06400000 1364325.30855733 17292.82409469
0.06500000 1355504.06301404 14761.43993673
0.06600000 1346615.49360449 17593.53224712
0.06700000 1337660.31668366 17737.37662932
0.06800000 1328642.95943939 17876.89185606
0.06900000 1319567.20099608 16626.54751099
0.07000000 1310432.34601032 15351.71565241
0.07100000 1301242.90998088 19674.79372043
0.07200000 1292001.03311410 16976.89437043
0.07300000 1282710.07631039 14238.08251418
0.07400000 1273373.05886577 15757.99234195
0.07500000 1263990.34754074 14409.49063737
0.07600000 1254565.76096106 15939.25874025
0.07700000 1245102.68359948 17481.24249741
0.07800000 1235602.73209128 20498.65028670
0.07900000 1226067.41106874 19126.65250978
0.08000000 1216502.26871068 22170.75488731
0.08100000 1206908.12663895 16329.46771957
0.08200000 1197286.20595175 19378.07815265
0.08300000 1187640.20004096 22446.40083423
0.08400000 1177973.09939982 16521.07349456
0.08500000 1168286.85550967 15070.90114358
0.08600000 1158583.88134746 28727.08868679
0.08700000 1148866.69628855 15165.04110312
0.08800000 1139136.57268834 18248.96875151
0.08900000 1129397.51749357 16771.55392253
0.09000000 1119651.38334048 18339.89052064
0.09100000 1109900.13379335 19911.60933572
0.09200000 1100145.56594364 18416.43763922
0.09300000 1090392.08671385 19986.88788869
0.09400000 1080638.31758461 18478.91609916
0.09500000 1070889.04312747 24673.28471337
0.09600000 1061145.41772738 23159.49983058
0.09700000 1051412.42033109 21638.06862768
0.09800000 1041688.59884987 18562.89170429
0.09900000 1031978.55526925 18575.61486832
0.10000000 1022281.28122042 24780.09942212
0.10100000 1012600.73728186 18591.35041088
0.10200000 1002939.25130035 23243.11824216
0.10300000 993297.87860749 17044.99239871
0.10400000 983679.08145755 17042.24088801
0.10500000 974086.56602197 21683.16797983
0.10600001 964516.69956847 17028.54313213
0.10700001 954977.54705804 20111.82808746
0.10800001 945466.01088593 18550.04400658
0.10900001 935987.07895458 16988.16628258
0.11000001 926541.46150760 21597.68248434
0.11100001 917129.80469542 20030.11587743
0.11200001 907755.51088875 16925.10229731
0.11300001 898418.11010850 18435.54048739
0.11400001 889121.02139939 24539.74134606
0.11500001 879864.79269200 16840.61292512
0.11600001 870651.53155931 25975.88966732
0.11700001 861482.35721984 21347.53381727
0.11800001 852357.37509097 25864.78576532
0.11900001 843279.04144209 18214.82815310
0.12000001 834248.00817840 25740.72350486
0.12100001 825267.50299984 15102.39601634
0.12200001 816337.12151280 22592.13090221
0.12300001 807458.75422412 18022.48024340
0.12400001 798632.30389124 19466.66332457
0.12500001 789859.33053222 14928.34205049
0.12600001 781142.91843867 20833.08261649
0.12700001 772481.44992418 17797.97344501
0.12800001 763876.66979299 14781.01425711
0.12900001 755330.35938168 20620.51978301
0.13000001 746842.76155536 22013.19143443
0.13100001 738413.91962348 19006.77518704
0.13200001 730045.47328128 16020.84866639
0.13300001 721739.38361111 15957.65852393
0.13400001 713494.08490275 14448.25590045
0.13500001 705312.63442324 15827.21626268
0.13600001 697193.35398042 20058.25373978
0.13700001 689139.12324768 18544.73468104
0.13800001 681148.00495713 21302.90485959
0.13900001 673223.43602369 14137.69282321
0.14000001 665363.89207222 21108.67047149
0.14100001 657570.46877653 16807.50197462
0.14200001 649843.37498890 15333.05515605
0.14300001 642184.49961229 16645.42301508
0.14400001 634590.18513606 17943.03833109
0.14500001 627065.96807447 24718.94162754
0.14600001 619608.87296196 16394.85155199
0.14700001 612221.98769131 14950.46164473
0.14800001 604900.54225531 13519.52775724
0.14900001 597649.32861674 22860.08789815
0.15000001 590466.55799101 14711.47498648
0.15100001 583352.91776609 21280.71544424
0.15200001 576308.97546394 17194.17909431
0.15300001 569335.18786926 17097.13649851
0.15400001 562428.24385645 13076.45728675
0.15500001 555592.36980141 20801.37930704
0.15600001 548823.29466540 15509.74703923
0.15700001 542127.30386673 16702.94302046
0.15800001 535496.49232464 16603.06952817
0.15900001 528937.16081425 13963.94170460
0.16000001 522444.53559053 17663.85058209
0.16100001 516023.91386537 17555.13437838
0.16200001 509670.37865965 13707.58548113
0.16300001 503385.19159894 13621.60392771
0.16400001 497168.75202795 12304.92719360
0.16500001 491019.69337320 13449.03003644
0.16600001 484939.48263101 13362.50807478
0.16700001 478925.19272191 18103.37313963
0.16800001 472977.55572520 16785.97424526
0.16900001 467099.06176436 14293.23196489
0.17000001 461285.56858695 16564.76555014
0.17100001 455537.95912318 12928.16789040
0.17200001 449856.99352425 12841.16848655
0.17300001 444241.24782159 16232.57596198
0.17400001 438690.48289101 14970.31343564
0.17500001 433204.06323213 20585.85805701
0.17600001 427780.38229926 13629.08362374
0.17700001 422422.25982523 12406.54235704
0.17800001 417125.61873641 15679.75274889
0.17900001 411892.32943545 11121.09342005
0.18000001 406721.39579921 11042.48641754
0.18100001 401613.38740359 13156.85519283
0.18200001 396563.87781662 13062.81475234
0.18300001 391576.16396518 12969.00316317
0.18400001 386647.88973054 12875.37533627
0.18500001 381780.59491787 11716.84701156
0.18600001 376970.79029315 14803.64363419
0.18700001 372219.01590877 13645.54976790
0.18800001 367525.09753114 11461.27070801
0.18900001 362889.86843864 11376.59791307
0.19000001 358307.49088309 11292.06110872
0.19100001 353785.59039653 10189.02548485
0.19200001 349315.71411176 13146.49752179
0.19300001 344903.15248076 12044.01865374
0.19400001 340542.29244470 11953.03502964
0.19500001 336236.12352816 12850.94524852
0.19600001 331982.51060898 10791.09201729
0.19700001 327781.06034474 10708.60774753
0.19800001 323631.37611667 11592.47644035
0.19900001 319533.35959547 12461.80161317
0.20000001 315483.88145488 15218.94316065
0.20100001 311485.98408755 10381.82834031
0.20200001 307535.38821759 12173.78891797
0.20300001 303635.09491472 12078.60464660
0.20400001 299781.68139860 10140.11585259
0.20500001 295975.30225269 10060.20099908
0.20600001 292215.82372698 9980.63193116
0.20700001 288502.51827760 9001.27899574
0.20800001 284833.35285630 12501.33644780
0.20900001 281210.99837961 12401.40561477
0.21000001 277631.14946857 10544.43155528
0.21100001 274095.41433315 9587.85804662
0.21200001 270602.01474408 8645.73477980
0.21300001 267150.31592931 8575.52554674
0.21400001 263741.33184584 11907.92169580
0.21500001 260374.21629165 9279.73750736
0.21600001 257046.40235857 11713.60510928
0.21700001 253758.70687858 13276.65617160
0.21800001 250510.76254135 9052.20683243
0.21900001 247300.34158386 10609.18515557
0.22000001 244127.99171925 8902.12763896
0.22100001 240994.95875036 10432.67225760
0.22200001 237898.97803118 11936.58178713
0.22300001 234838.07814064 9468.67175836
0.22400001 231812.57679963 8606.04232063
0.22500001 228825.31466678 8532.89638742
0.22600001 225870.75057475 9998.16924699
0.22700001 222952.46114285 8387.47198483
0.22800001 220066.92157480 7559.29911357
0.22900001 217214.02699486 9742.04957143
0.23000001 214395.20528751 9657.43247889
0.23100001 211609.50983519 8836.81354863
0.23200001 208854.05983862 8029.39471023
0.23300001 206130.86366659 7958.71302257
0.23400001 203439.33955956 10039.73188210
0.23500001 200776.56389015 8528.98883744
0.23600001 198145.69185664 8452.89561440
0.23700001 195543.61942421 8377.08905235
0.23800001 192971.22703940 8301.62257989
0.23900001 190427.18628577 8226.45483665
0.24000001 187911.61986797 8151.60645545
0.24100001 185425.27571950 8077.12539240
0.24200001 182965.72013537 10003.65122159
0.24300001 180533.86550675 7268.29376911
0.24400001 178128.42849880 7200.84206269
0.24500001 175749.53489226 10376.25303088
0.24600001 173397.24439208 10278.98913381
0.24700001 171070.90207091 8272.98921551
0.24800001 168769.79678187 7564.26264960
0.24900001 166492.92449736 8116.53045322
0.25000001 164242.20399779 8657.20698228
0.25100001 162014.71504302 7348.98782202
0.25200001 159813.02835787 6671.39518442
0.25300001 157635.04885303 6606.48520999
0.25400001 155480.22316073 6541.83069899
0.25500001 153348.47267056 8244.01428081
0.25600001 151240.43930135 6996.38305310
0.25700001 149154.19475968 5772.26761031
0.25800001 147091.62525577 6285.96090272
0.25900001 145051.06265501 7354.08922457
0.26000001 143032.39454361 6719.66221360
0.26100001 141034.98088394 8314.01251650
0.26200001 139059.93092858 7680.28034859
0.26300001 137105.48326928 6515.25287324
0.26400001 135172.49454808 5910.41760379
0.26500001 133260.87559384 9570.79653803
0.26600001 131368.86913475 7365.85284093
0.26700001 129498.49877078 5726.42388662
0.26800001 127648.63959986 5665.68513675
0.26900001 125817.48060604 5095.60820568
0.27000001 124007.35541659 5040.89923623
0.27100001 122216.35070210 6482.35554800
0.27200001 120446.46702252 6905.19628118
0.27300001 118694.89969312 6341.86879073
0.27400001 116960.81356176 7719.41406040
0.27500001 115248.69851931 6679.81488230
0.27600001 113553.35420096 5189.95629937
0.27700001 111878.08680807 6531.44301697
0.27800001 110220.64473849 5074.00762068
0.27900001 108582.97711285 6384.67935641
0.28000001 106962.02310017 6311.82928187
0.28100001 105360.09528369 6239.42513801
0.28200001 103777.01604427 5286.40144750
0.28300001 102211.32286305 4789.62281606
0.28400001 100663.22286680 5594.35887561
0.28500001 99133.21829411  4678.09679272
0.28600001 97620.66245023  4202.56971740
0.28700001 96125.82544971  4152.63585598
0.28800001 94647.54523481  4102.97128014
0.28900001 93188.29382395  5269.79826518
0.29000001 91744.67391925  6807.91385043
0.29100001 90319.18809273  4747.17675086
0.29200001 88910.40854509  5470.65769673
0.29300001 87518.59878272  3859.57038901
0.29400001 86143.02183086  3811.82889645
0.29500001 84785.25160007  4140.91188417
0.29600001 83443.37829270  3717.40267891
0.29700001 82117.97212233  3670.67352763
0.29800001 80808.91585137  5436.42007125
0.29900001 79516.99929160  5009.57119252
0.30000001 78240.56565010  4592.33021823
0.30100001 76981.37327273  4184.70764921
0.30200001 75736.60123753  3786.45155812
0.30300001 74509.22481278  4416.90705600
0.30400001 73297.78132857  5030.06048180
0.30500001 72101.71258326  3640.41564067
0.30600001 70920.76648256  3592.49159625
0.30700001 69756.51339328  3867.30128561
0.30800001 68607.44252975  3497.95062299
0.30900001 67474.05274375  4392.56104158
0.31000001 66356.28936124  3714.62525431
0.31100001 65252.93311478  4580.75612153
0.31200001 64165.67027953  3012.57836226
0.31300001 63092.94612846  4754.68464536
0.31400001 62036.52279209  4103.71617699
0.31500001 60994.08743548  3758.45584573
0.31600002 59966.97026766  3706.85844261
0.31700002 58954.62220737  3093.34917369
0.31800002 57957.08295035  3327.89586058
0.31900002 56974.22648728  3555.19190114
0.32000002 56006.38617688  2696.70762210
0.32100002 55052.27561866  3722.63505360
0.32200002 54113.80782105  2621.81411307
0.32300002 53188.03284086  2843.43237031
0.32400002 52277.06640409  3058.20852945
0.32500002 51380.15061379  3768.73422598
0.32600002 50497.98331946  2972.31143893
0.32700002 49628.97218111  3174.26921101
0.32800002 48774.60410785  2647.72950937
0.32900002 47933.37453747  2609.97236716
0.33000002 47106.90602594  3040.51539342
0.33100002 46291.39289641  2305.31147541
0.33200002 45492.54434762  4544.70539554
0.33300002 44705.56206243  2687.69851847
0.33400002 43932.44905191  2649.12680328
0.33500002 43171.34100612  2393.41925872
0.33600002 42424.58432815  2359.01912328
0.33700002 41689.62197838  2536.39672128
0.33800002 40968.63145237  2499.90600961
0.33900002 40259.43932130  2258.55465289
0.34000002 39563.47001776  3035.50738087
0.34100002 38879.88135122  2592.89941011
0.34200002 38209.30315372  2555.62936247
0.34300002 37549.82345629  2131.32808032
0.34400002 36904.06242724  2100.76385316
0.34500002 36269.52057921  2258.86584865
0.34600002 35648.09806838  2226.58031080
0.34700002 35036.67105411  2377.58861034
0.34800002 34438.72937260  1983.15432485
0.34900002 33851.62952223  2132.65276091
0.35000002 33276.16840216  1751.99034935
0.35100002 32712.93948717  2245.41627275
0.35200002 32159.50048435  1873.13019443
0.35300002 31617.87221511  1678.90909414
0.35400002 31087.64873967  2648.66779807
0.35500002 30568.48446439  1958.82857726
0.35600002 30059.11874518  2092.56565056
0.35700002 29560.96771791  1746.16644580
0.35800002 29074.19531842  2035.33913967
0.35900002 28597.37346757  1698.68406443
0.36000002 28131.17052868  2741.94532131
0.36100002 27674.46182244  1652.99568295
0.36200002 27229.11335698  1927.41288027
0.36300002 26792.50108586  1755.44475430
0.36400002 26365.99819155  1587.89231630
0.36500002 25949.03061385  1567.06203300
0.36600002 25542.08412259  1546.70097731
0.36700002 25143.92137972  1665.53343109
0.36800002 24756.81795082  2055.43490773
0.36900002 24377.63667276  2029.43834914
0.37000002 24007.38353817  1469.61205290
0.37100002 23645.88131707  1715.27231199
0.37200002 23294.23632380  1954.96887608
0.37300002 22950.64888306  1287.53146333
0.37400002 22615.70522595  1399.34682714
0.37500002 22289.63815264  1382.84921650
0.37600002 21972.06584747  1739.52853555
0.37700002 21662.08449854  1596.71232403
0.37800002 21360.13773394  1335.75627647
0.37900002 21066.87284619  1561.05535185
0.38000002 20781.30832154  1306.41700952
0.38100002 20502.53839276  1527.23415723
0.38200002 20232.45479019  1627.29641587
0.38300002 19968.97295466  1265.23418635
0.38400002 19713.87638006  1252.32405637
0.38500002 19464.53928220  1465.09594118
0.38600002 19223.73153056  1227.53143504
0.38700002 18989.22306865  1547.24196893
0.38800002 18761.56870095  1204.21134412
0.38900002 18540.26302096  1193.06598192
0.39000002 18326.69516726  1289.83286698
0.39100002 18118.48674283  1491.51389933
0.39200002 17917.28762061  1373.09140186
0.39300002 17722.02116304  1256.84580043
0.39400002 17534.13334652  1662.23592000
0.39500002 17351.05975535  1442.91419762
0.39600002 17174.02107129  1431.79820455
0.39700002 17002.79119709  1015.06668256
0.39800002 16837.52942508  1209.27142060
0.39900002 16677.53546341  1601.04348034
0.40000002 16522.81850282  993.84758003
0.40100002 16373.83071897  1481.01305870
0.40200002 16230.38833144  1177.35242535
0.40300002 16091.30699569  1267.67322518
0.40400002 15957.75440471  1357.20707643
0.40500002 15829.26627615  1735.20425141
0.40600002 15705.38158575  958.81359124
0.40700002 15586.17678680  953.87406455
0.40800002 15471.89149153  1423.80088197
0.40900002 15361.68242209  1039.21786509
0.41000002 15256.37478411  1128.66666001
0.41100002 15155.07993481  1030.24238278
0.41200002 15057.72856013  1119.39159420
0.41300002 14965.13877078  1394.00274255
0.41400002 14876.11121618  926.03796709
0.41500002 14791.30627727  1015.27531098
0.41600002 14709.68055576  1012.09961860
0.41700002 14632.21496853  1192.67189860
0.41800002 14559.33022013  1098.06473723
0.41900002 14487.97113313  1004.01644710
0.42000002 14421.37394499  1001.78078856
0.42100002 14358.41942032  1272.44318932
0.42200002 14298.76558710  1270.15940729
0.42300002 14241.64697033  996.34566926
0.42400002 14187.65692715  1175.80212355
0.42500002 14137.10640094  903.36114183
0.42600002 14088.60478939  992.61269747
0.42700002 14044.32912812  1172.13976458
0.42800002 14001.75705394  991.11442003
0.42900002 13963.22941472  990.69117392
0.43000002 13926.60188322  990.39033986
0.43100002 13891.61321748  1080.21189498
0.43200002 13860.32298727  1260.31922896
0.43300002 13831.24311999  1170.53816071
0.43400002 13804.42606534  1170.96049648
0.43500002 13779.73470282  1532.03097686
0.43600002 13757.53512142  991.98711694
0.43700002 13737.00117854  1173.27732626
0.43800002 13718.47095257  1264.70589705
0.43900002 13702.69360724  1989.63120606
0.44000002 13688.24910432  1177.12103751
0.44100002 13676.08882391  1178.74215159
0.44200002 13665.53831173  1089.69007662
0.44300002 13656.78463899  909.54190006
0.44400002 13650.08043082  1275.60007671
0.44500002 13643.82194979  1095.32607804
0.44600002 13639.49165415  914.52795875
0.44700002 13637.78512220  1008.10512401
0.44800002 13635.85097882  1469.39937111
0.44900002 13637.14941346  1288.71068065
0.45000002 13638.98812198  1014.94534920
0.45100002 13641.83536029  1202.39142564
0.45200002 13646.27192703  1112.71706566
0.45300002 13651.51758467  1301.53574821
0.45400002 13658.30409186  1211.83308798
0.45500002 13666.17370335  1028.24295817
0.45600002 13674.88596632  1031.15482516
0.45700002 13684.72502411  1222.18284983
0.45800002 13695.11953049  1037.19992680
0.45900002 13706.56676089  1040.32846646
0.46000002 13719.62572953  1043.58338058
0.46100002 13732.33046148  1141.98065530
0.46200002 13746.78065041  1527.54233827
0.46300002 13761.79301957  1149.38500747
0.46400002 13776.89459807  1153.12613251
0.46500002 13793.15310000  964.14144739
0.46600002 13809.83407592  1064.11681515
0.46700002 13826.72732924  1650.08171768
0.46800002 13845.21749753  1363.61553596
0.46900002 13863.15452776  1172.82292864
0.47000002 13881.81850056  980.75052355
0.47100002 13901.15858586  1082.62228198
0.47200002 13920.89795127  987.68775646
0.47300002 13941.11156287  1189.45569492
0.47400002 13960.93849822  1193.66029817
0.47500002 13981.54539341  1098.11062725
0.47600002 14002.94982224  1202.29332872
0.47700002 14023.67650053  1106.04741802
