# SAXS profile: number of points = 501, q_min = 0, q_max = 0.5, delta_q = 0.001
#    q    intensity    error
0.00000000 1682732.95097188 302.89193117
0.00100000 1682645.56882683 605.75241916
0.00200000 1682383.38371524 832.77980131
0.00300000 1681946.62174786 1211.00161080
0.00400000 1681335.15908279 1765.40198412
0.00500000 1680549.63905776 1814.99368202
0.00600000 1679589.94358561 2468.99731759
0.00700000 1678456.77516020 2819.80749946
0.00800000 1677149.92188095 3622.64398421
0.00900000 1675670.89053826 2513.50644325
0.01000000 1674018.97574224 2762.13142924
0.01100000 1672195.76528062 3611.94301027
0.01200000 1670201.21985206 4885.33878226
0.01300000 1668036.65369533 5254.31569088
0.01400000 1665702.29456034 3747.83032891
0.01500000 1663199.62800581 5588.35099894
0.01600000 1660528.44314110 5081.21726316
0.01700000 1657690.80169724 5370.91843843
0.01800000 1654687.31918937 6602.20270065
0.01900000 1651519.02316507 6440.92448097
0.02000000 1648186.54959691 6749.32422591
0.02100000 1644692.80609991 9226.72706055
0.02200000 1641036.26031794 8492.36303297
0.02300000 1637220.29865474 5893.99334344
0.02400000 1633245.23983019 6737.13692150
0.02500000 1629113.70370739 8259.60685502
0.02600000 1624826.03014303 7238.60029537
0.02700000 1620384.16601207 8166.73657075
0.02800000 1615788.53603852 8434.41654492
0.02900000 1611042.74232503 8699.63120799
0.03000000 1606147.19037848 11949.73564569
0.03100000 1601103.53043640 10759.41621961
0.03200000 1595913.16960946 8689.74760876
0.03300000 1590580.22164946 8923.15545482
0.03400000 1585103.17440693 11650.50886945
0.03500000 1579486.03503811 10235.06997968
0.03600000 1573729.50700467 13101.29875127
0.03700000 1567836.78603217 10724.00411242
0.03800000 1561809.23610813 11877.55979029
0.03900000 1555649.59260187 12134.06738422
0.04000000 1549357.84514584 10481.40630811
0.04100000 1542938.21504407 10692.56232603
0.04200000 1536392.13051931 14864.59455239
0.04300000 1529721.40548789 14134.62644281
0.04400000 1522929.16259055 13363.70402237
0.04500000 1516017.48855297 13598.67750418
0.04600000 1508987.02672347 14893.70264612
0.04700000 1501842.05951589 11894.58966456
0.04800000 1494584.02677139 12083.71241868
0.04900000 1487215.67674262 12269.52990424
0.05000000 1479738.84430811 11320.00268609
0.05100000 1472157.57565455 14927.67851253
0.05200000 1464470.70781206 17463.81400449
0.05300000 1456684.09502374 17698.71257961
0.05400000 1448798.73998857 20319.40327591
0.05500000 1440818.04966347 12102.87218176
0.05600000 1432743.18583937 14699.94577267
0.05700000 1424578.85151048 14872.60390400
0.05800000 1416324.44611648 13787.91912674
0.05900000 1407984.28078680 15206.23094272
0.06000000 1399561.74509617 16647.78773568
0.06100000 1391058.36116571 14230.52769974
0.06200000 1382477.05491174 15677.29053551
0.06300000 1373821.17248811 13188.68387253
0.06400000 1365089.70557476 17302.51282734
0.06500000 1356289.75102474 17455.44991222
0.06600000 1347421.94875427 17604.06858414
0.06700000 1338488.15132153 23209.38563009
0.06800000 1329492.30532527 16512.29520507
0.06900000 1320438.06583961 15251.06037449
0.07000000 1311324.67510129 13965.60844382
0.07100000 1302157.03127734 18282.28557544
0.07200000 1292936.97025320 19820.72468252
0.07300000 1283668.05075533 19948.20244342
0.07400000 1274353.25717309 18637.41725958
0.07500000 1264992.65388173 15863.00862322
0.07600000 1255590.27046319 20302.89562520
0.07700000 1246149.64987335 18953.93706330
0.07800000 1236671.77380333 23447.29793090
0.07900000 1227159.11291303 19143.68305935
0.08000000 1217616.52248701 17752.84973067
0.08100000 1208044.86584052 25260.21932989
0.08200000 1198445.82008289 16412.71627621
0.08300000 1188822.33846727 16477.07838446
0.08400000 1179177.80134856 19544.87297476
0.08500000 1169514.26551075 15086.73473334
0.08600000 1159834.16826564 19676.58758847
0.08700000 1150139.45247205 15181.84148554
0.08800000 1140432.29770943 22837.15783415
0.08900000 1130715.96992202 19844.06620420
0.09000000 1120992.53855423 18361.85864408
0.09100000 1111264.14248393 21469.62424146
0.09200000 1101532.24526316 21512.92576081
0.09300000 1091801.52017591 16933.84237369
0.09400000 1082070.58331232 18503.40784425
0.09500000 1072343.70307963 26250.97508526
0.09600000 1062622.76461970 18553.39434241
0.09700000 1052912.14778069 15477.80930003
0.09800000 1043211.00089942 21688.35772844
0.09900000 1033523.23679811 21703.98899334
0.10000000 1023848.47584935 17062.43565243
0.10100000 1014190.39022863 17068.82507033
0.10200000 1004551.06237835 18624.37757252
0.10300000 994931.67559283 15520.93486936
0.10400000 985335.37085159 20174.74266731
0.10500000 975764.74438709 21720.52423199
0.10600001 966216.62275093 15507.77752485
0.10700001 956699.09318292 17048.37864278
0.10800001 947209.51788858 18584.25161558
0.10900001 937752.46296605 18567.49964062
0.11000001 928328.24176508 20093.66573880
0.11100001 918938.03360493 15438.15969129
0.11200001 909584.99800479 21584.45301879
0.11300001 900268.77809955 15394.59683029
0.11400001 890992.43909621 27665.31653654
0.11500001 881757.62677866 21479.61679976
0.11600001 872564.81883927 24501.62126682
0.11700001 863416.30352344 15282.46929209
0.11800001 854311.91670653 15249.46843144
0.11900001 845253.70098160 18257.48080116
0.12000001 836243.09075726 18213.37537463
0.12100001 827282.80241696 21194.98639638
0.12200001 818372.12299259 16608.86301860
0.12300001 809513.69147029 27102.51966734
0.12400001 800707.02090768 24021.21175905
0.12500001 791953.33930384 19458.29446358
0.12600001 783255.92862782 14921.02614349
0.12700001 774613.82427683 14872.58612701
0.12800001 766028.03550349 19269.43614124
0.12900001 757500.23369666 16248.38077861
0.13000001 749031.24341770 17662.15755229
0.13100001 740620.74175732 21996.43706705
0.13200001 732270.50210463 14608.79720565
0.13300001 723982.53691338 17462.45961358
0.13400001 715755.14927158 18842.25519290
0.13500001 707591.28674554 23095.78068830
0.13600001 699489.51127518 18686.86317482
0.13700001 691452.35922052 17175.67741293
0.13800001 683478.27924225 15675.57507361
0.13900001 675570.61049278 22699.17358301
0.14000001 667727.75276200 14122.44263694
0.14100001 659950.95936313 16868.34731688
0.14200001 652239.92494953 15389.60175504
0.14300001 644597.06471795 13923.29725464
0.14400001 637018.97532206 16626.19604016
0.14500001 629510.08470968 15164.89865602
0.14600001 622068.49216010 13716.61089920
0.14700001 614696.49720367 13646.26288170
0.14800001 607390.20354978 14932.68885878
0.14900001 600153.72128282 21605.53498555
0.15000001 592985.31205806 17460.45333738
0.15100001 585886.31995848 14694.02959790
0.15200001 578856.23532488 18598.65171860
0.15300001 571896.33907677 15852.96726729
0.15400001 565002.94054366 18390.84658258
0.15500001 558180.57519003 18285.99650620
0.15600001 551424.73695807 22076.29038601
0.15700001 544741.44065736 14201.41002820
0.15800001 538123.42096708 14117.66861541
0.15900001 531576.79150439 12757.84359828
0.16000001 525096.35532109 16485.40085346
0.16100001 518687.60704250 15124.93133532
0.16200001 512346.11268190 13779.54935106
0.16300001 506072.50061267 14939.26092334
0.16400001 499867.33943420 16083.23240558
0.16500001 493729.38712795 14752.63478387
0.16600001 487659.91192528 14659.05764457
0.16700001 481656.31863415 16992.83572372
0.16800001 475719.27160489 15677.32933597
0.16900001 469850.80919955 14377.43544038
0.17000001 464047.32823536 13093.09598441
0.17100001 458309.47388086 16554.13897828
0.17200001 452637.71010437 14095.13895826
0.17300001 447031.23345524 16334.52204184
0.17400001 441489.42841413 17383.64706477
0.17500001 436011.81218114 11510.71238521
0.17600001 430596.40504347 13718.80211261
0.17700001 425246.60192487 12489.49328842
0.17800001 419957.90872742 12403.45742011
0.17900001 414732.50502881 12317.55598116
0.18000001 409568.84937830 15567.71270021
0.18100001 404468.10058459 13250.37560105
0.18200001 399425.55606528 16446.34804788
0.18300001 394444.61118756 11975.33896136
0.18400001 389522.85175600 12971.11157624
0.18500001 384662.00047068 13951.69141618
0.18600001 379858.06480427 15982.52883171
0.18700001 375112.04253384 10578.16009922
0.18800001 370423.50942556 12601.80838604
0.18900001 365793.80654630 10425.12397913
0.19000001 361216.30166208 15523.27129738
0.19100001 356699.12271895 10272.93521970
0.19200001 352233.75320088 14276.03469179
0.19300001 347825.35524178 11133.89014739
0.19400001 343468.76643651 12055.75427160
0.19500001 339166.33797480 10968.63988843
0.19600001 334916.35710255 10886.45670207
0.19700001 330717.99559250 10804.55742660
0.19800001 326571.40308747 10722.97252713
0.19900001 322475.94889098 10641.70681633
0.20000001 318429.20518624 13440.89738614
0.20100001 314433.38725878 12385.53170949
0.20200001 310484.95634783 9454.26736763
0.20300001 306586.29529151 13134.15751107
0.20400001 302734.51379381 14894.53878266
0.20500001 298929.39773793 16626.45388806
0.20600001 295170.71376546 10998.06131476
0.20700001 291458.22470842 12730.89585704
0.20800001 287789.45087188 9924.41968245
0.20900001 284167.76894512 9846.41365940
0.21000001 280587.77773731 10656.72430223
0.21100001 277051.72383707 11453.31880486
0.21200001 273557.93009642 13984.28204763
0.21300001 270105.27885375 13005.56979165
0.21400001 266695.23324905 12041.29035046
0.21500001 263326.89059985 9384.97082468
0.21600001 259997.45249866 11848.08447052
0.21700001 256708.07028505 10912.66058376
0.21800001 253457.88744842 9991.31039561
0.21900001 250245.31798256 8258.09588388
0.22000001 247070.60872405 12285.58659970
0.22100001 243934.71962227 10559.93451176
0.22200001 240835.55438115 11278.32954496
0.22300001 237771.42618590 7989.12029762
0.22400001 234742.53380062 11883.84133560
0.22500001 231751.32075832 9427.64417426
0.22600001 228792.55622508 10127.50298021
0.22700001 225870.07536671 10042.18402569
0.22800001 222979.91400245 12254.97665311
0.22900001 220122.23095812 11391.32599079
0.23000001 217298.47549447 9788.21029155
0.23100001 214507.50826535 8957.83396880
0.23200001 211746.48618319 9620.70205473
0.23300001 209017.44584818 9537.46650512
0.23400001 206319.80964360 11636.43781425
0.23500001 203650.70883938 9372.00606405
0.23600001 201013.23008903 10004.42893471
0.23700001 198404.49237008 7083.04071262
0.23800001 195824.97632230 9126.42345317
0.23900001 193273.69707113 7653.63876603
0.24000001 190750.59224092 8964.32450638
0.24100001 188256.36115588 7517.07685652
0.24200001 185788.93972067 8126.40860778
0.24300001 183348.62108098 8723.72780369
0.24400001 180934.67990289 9974.02470145
0.24500001 178547.16995502 9882.58632450
0.24600001 176185.68459094 7833.21590746
0.24700001 173849.86806177 7760.65847740
0.24800001 171539.54163216 7688.40261967
0.24900001 169253.12623364 9520.48880103
0.25000001 166992.36852802 8173.44186427
0.25100001 164754.56384408 6850.49508873
0.25200001 162542.55128751 7402.18813583
0.25300001 160353.98049041 6720.43564030
0.25400001 158188.16177161 6655.76722143
0.25500001 156045.28453839 7789.78097271
0.25600001 153925.83422468 6527.22530912
0.25700001 151828.33238325 8813.63511185
0.25800001 149753.63712542 8145.10070863
0.25900001 147701.01235175 6912.40770512
0.26000001 145670.23585179 7413.88700447
0.26100001 143660.21379237 6210.43133610
0.26200001 141672.65623626 6147.88520827
0.26300001 139705.25185205 6638.79388214
0.26400001 137759.20880498 6571.11457093
0.26500001 135834.20622341 5961.76359325
0.26600001 133928.69801349 5363.84460925
0.26700001 132044.46929261 6369.82550010
0.26800001 130180.69340830 5778.07035035
0.26900001 128335.40360046 8835.89295602
0.27000001 126510.98196833 7714.00749056
0.27100001 124705.42405705 6105.57785077
0.27200001 122920.80875443 7047.05029938
0.27300001 121154.39264073 4979.44577318
0.27400001 119405.26869277 5418.01432334
0.27500001 117677.83637608 5359.04892219
0.27600001 115966.74086973 4818.41831117
0.27700001 114276.10407118 6194.90789488
0.27800001 112602.76675840 4712.42601187
0.27900001 110948.92411487 6057.81154338
0.28000001 109311.83581848 6450.49173694
0.28100001 107693.62022674 5010.98438632
0.28200001 106093.81266350 5854.78732894
0.28300001 104511.40069718 7123.49740868
0.28400001 102946.43789531 7481.63272815
0.28500001 101399.43397713 5220.04310821
0.28600001 99869.79176457  4729.33421286
0.28700001 98357.47925697  5098.85196602
0.28800001 96861.60238783  4618.84572849
0.28900001 95384.85139667  4564.16535537
0.29000001 93923.50131829  4919.71323192
0.29100001 92480.05652183  5265.81466761
0.29200001 91053.21943423  4802.14702027
0.29300001 89643.27211329  4743.92218479
0.29400001 88249.33793372  4686.04006610
0.29500001 86873.15359668  5014.31866296
0.29600001 85512.71993940  5333.42859509
0.29700001 84168.63740998  5267.27357846
0.29800001 82840.94487663  3715.41655360
0.29900001 81530.11676277  4035.74097081
0.30000001 80234.57165713  3622.59108181
0.30100001 78956.25876017  6080.42177497
0.30200001 77692.40395084  6002.90387544
0.30300001 76445.67119192  4183.10732565
0.30400001 75214.78042623  3785.18400415
0.30500001 73999.33561377  4075.88359857
0.30600001 72798.72868140  3352.38161449
0.30700001 71614.97036971  4962.91768158
0.30800001 70446.23615669  3265.18320045
0.30900001 69292.95918006  3866.54730531
0.31000001 68155.45362487  4769.17809320
0.31100001 67032.26341272  3450.82108387
0.31200001 65925.00940242  4642.76900698
0.31300001 64832.46284617  3358.97005909
0.31400001 63755.99046931  3313.71776154
0.31500001 62693.35217534  4754.66405410
0.31600002 61646.13985462  4396.91113331
0.31700002 60613.58843696  4047.77562747
0.31800002 59595.97304853  5133.00140171
0.31900002 58593.10357932  2812.46910497
0.32000002 57604.91500580  3328.41214663
0.32100002 56630.50537157  3282.30424675
0.32200002 55671.88179956  3776.22392127
0.32300002 54725.72745928  3191.60457655
0.32400002 53794.66715141  3146.98817737
0.32500002 52877.69141961  3878.57884929
0.32600002 51975.14597553  3059.25723698
0.32700002 51085.91546928  3016.11259213
0.32800002 50211.37758212  2973.51792122
0.32900002 49349.92471266  3175.66780564
0.33000002 48503.15185219  3612.27240525
0.33100002 47667.67951643  3086.00571803
0.33200002 46848.55571094  3042.11110915
0.33300002 46041.56745726  2537.35090273
0.33400002 45248.34211366  3410.59394833
0.33500002 44467.31646120  3137.61399809
0.33600002 43700.55729881  2650.87593128
0.33700002 42945.76930421  2177.35060684
0.33800002 42205.10324049  2360.74256156
0.33900002 41476.05622886  2115.27896785
0.34000002 40760.43041432  2710.36494876
0.34100002 40057.08366016  2054.92848908
0.34200002 39367.03185267  2430.52066169
0.34300002 38688.16079683  2195.94011083
0.34400002 38023.06935389  1967.69393225
0.34500002 37369.10142955  2521.29339286
0.34600002 36728.26611495  2102.87697600
0.34700002 36097.89483694  2072.74121970
0.34800002 35480.89468732  2043.16741734
0.34900002 34874.82863420  1830.92859001
0.35000002 34280.71436566  1804.87969684
0.35100002 33698.59457003  2135.14305308
0.35200002 33126.68889160  1929.46408588
0.35300002 32566.58393872  1902.21425796
0.35400002 32017.87835933  1875.44731373
0.35500002 31480.50365748  2017.27076992
0.35600002 30953.05406404  2320.55057309
0.35700002 30436.97071728  1797.91194543
0.35800002 29932.02838420  1934.20776580
0.35900002 29437.59350723  2384.44518703
0.36000002 28953.94085607  1881.42716594
0.36100002 28479.70940928  1701.09312359
0.36200002 28017.02066885  1525.52684768
0.36300002 27563.37431090  1655.45633953
0.36400002 27119.79643936  1781.77071046
0.36500002 26685.91093879  1611.56223793
0.36600002 26262.29437131  1734.88724835
0.36700002 25847.67531379  1854.82926838
0.36800002 25444.03862116  1689.99312527
0.36900002 25048.76575849  1529.22722199
0.37000002 24662.37191193  1784.19938048
0.37100002 24285.13048732  2032.66551808
0.37200002 23917.73874525  2141.11607390
0.37300002 23558.50895464  1453.79565646
0.37400002 23208.22767173  1566.55544205
0.37500002 22866.93040456  2192.48139105
0.37600002 22534.23598994  1529.17332672
0.37700002 22209.42143489  1888.91138252
0.37800002 21892.91058922  1493.53443115
0.37900002 21585.22206633  1476.42925928
0.38000002 21285.26091755  1338.09799097
0.38100002 20992.31909863  1323.14593547
0.38200002 20708.18790779  1546.59108716
0.38300002 20431.11609359  1294.51557702
0.38400002 20162.32988285  1164.37460590
0.38500002 19899.80480478  1497.85837862
0.38600002 19645.90634926  1368.53390112
0.38700002 19398.13453354  1693.45722501
0.38800002 19157.89604563  1341.43594467
0.38900002 18923.89290292  1217.75256599
0.39000002 18697.92066478  1425.62302863
0.39100002 18477.57913580  1086.48170466
0.39200002 18264.33006519  1292.01877002
0.39300002 18057.16035814  1600.76734159
0.39400002 17857.70439029  1798.71735993
0.39500002 17663.28509181  1363.95893941
0.39600002 17475.07010850  1352.83261654
0.39700002 17292.81795492  1032.38128082
0.39800002 17116.68387227  1434.20700961
0.39900002 16946.02505393  1321.79001683
0.40000002 16781.00697501  1009.37761737
0.40100002 16621.89969472  1102.53065899
0.40200002 16468.31043961  1095.06035457
0.40300002 16319.43959532  1384.54132087
0.40400002 16176.25253599  1277.51960456
0.40500002 16038.25556984  1367.42173467
0.40600002 15905.20861734  1262.31694172
0.40700002 15777.08781416  965.55781998
0.40800002 15653.79831019  1440.54085775
0.40900002 15535.04691022  1242.02705932
0.41000002 15421.35338099  1045.79912908
0.41100002 15311.76526342  946.26713812
0.41200002 15206.34182441  1036.23621272
0.41300002 15106.06835682  938.08688941
0.41400002 15009.36825856  1308.06650571
0.41500002 14917.02464754  1116.98685853
0.41600002 14828.09937782  1298.49672404
0.41700002 14743.57668782  1201.74899277
0.41800002 14663.74078793  1105.93938263
0.41900002 14585.77731370  1194.57521860
0.42000002 14512.70442811  916.47732806
0.42100002 14443.34952121  1188.54328842
0.42200002 14377.51939271  1094.70437843
0.42300002 14314.38148966  1456.63152941
0.42400002 14254.67015733  999.60879215
0.42500002 14198.53463195  1088.74368717
0.42600002 14144.63061569  905.96363387
0.42700002 14095.06713039  1085.88402318
0.42800002 14047.62944273  994.36149722
0.42900002 14004.01378656  1174.23661165
0.43000002 13962.74029455  1083.22944338
0.43100002 13923.29309810  1172.89826616
0.43200002 13887.57611742  901.99811157
0.43300002 13854.27731250  1082.29619494
0.43400002 13823.40853583  1262.76842959
0.43500002 13794.80485470  992.39830828
0.43600002 13769.04708779  992.81718731
0.43700002 13744.94128945  1083.65122261
0.43800002 13722.99875183  1445.85521701
0.43900002 13703.92018375  1447.13403998
0.44000002 13686.46855280  995.89593144
0.44100002 13671.38709421  1450.26081168
0.44200002 13657.95930258  1179.84287027
0.44300002 13646.66047871  1090.64115714
0.44400002 13637.47933593  910.30178881
0.44500002 13628.80133885  1367.65027917
0.44600002 13622.36695829  1004.71772262
0.44700002 13618.59633413  1006.68668873
0.44800002 13614.86637148  1192.04968165
0.44900002 13614.29545316  1102.75798397
0.45000002 13614.58440013  1197.33468181
0.45100002 13616.00300761  923.16504767
0.45200002 13619.07734009  1665.74942841
0.45300002 13623.11782594  1020.50780471
0.45400002 13628.79139030  1116.19806777
0.45500002 13635.69845495  1585.55909149
0.45600002 13643.64667342  1309.38083330
0.45700002 13652.78516056  1500.71421597
0.45800002 13662.53822720  1034.73238168
0.45900002 13673.52415084  1226.51517446
0.46000002 13686.15739857  1041.03761186
0.46100002 13698.61012353  949.31372655
0.46200002 13712.90461196  1238.06965157
0.46300002 13727.91566227  1337.64816553
0.46400002 13743.06725406  1246.15268232
0.46500002 13759.53480131  1250.32898665
0.46600002 13776.44536607  1158.04805236
0.46700002 13793.76472008  1161.98679509
0.46800002 13812.72518609  1263.24284177
0.46900002 13831.22620848  1170.12179270
0.47000002 13850.65401501  978.54875254
0.47100002 13870.62941794  1374.85685307
0.47200002 13891.34602006  1675.50477962
0.47300002 13912.57342922  1879.44963363
0.47400002 13933.47778356  1389.86447479
0.47500002 13955.19203074  1394.96106151
0.47600002 13977.83256309  1000.11396729
0.47700002 13999.84753588  1104.16802749
