# SAXS profile: number of points = 501, q_min = 0, q_max = 0.5, delta_q = 0.001
#    q    intensity    error
0.00000000 1682732.95097188 328.13292544
0.00100000 1682645.40439397 605.75235997
0.00200000 1682382.73572318 1059.90115707
0.00300000 1681945.15345359 1311.91726643
0.00400000 1681332.54652541 1639.29929515
0.00500000 1680545.57539460 1663.74018549
0.00600000 1679584.07752681 3350.77037108
0.00700000 1678448.79310299 3424.03568023
0.00800000 1677139.52306423 2490.55229690
0.00900000 1675657.69660706 3267.53264806
0.01000000 1674002.70171955 3590.73595023
0.01100000 1672176.09590536 3611.90052442
0.01200000 1670177.84570053 4885.27041286
0.01300000 1668009.23456317 4553.66541120
0.01400000 1665670.56968740 4122.53484273
0.01500000 1663163.17686643 5189.06934289
0.01600000 1660487.00195386 4657.66624869
0.01700000 1657644.09051731 5370.76709420
0.01800000 1654635.05085159 6130.42313926
0.01900000 1651460.76999883 5449.82078691
0.02000000 1648122.13689277 5710.74346266
0.02100000 1644621.78800750 8140.87821973
0.02200000 1640958.48336418 6793.56842978
0.02300000 1637135.36624792 7072.42510412
0.02400000 1633152.93794462 7349.18855586
0.02500000 1629013.68069602 7623.78437384
0.02600000 1624718.04610364 6580.10838768
0.02700000 1620267.84062164 8166.15029075
0.02800000 1615663.65438108 12650.64699396
0.02900000 1610908.98762139 8698.90893256
0.03000000 1606004.29543918 8214.71234876
0.03100000 1600951.27832971 8453.02313853
0.03200000 1595751.20254803 11058.55634299
0.03300000 1590408.24359786 12977.73186604
0.03400000 1584921.01646937 12481.25358059
0.03500000 1579293.41465199 8528.18483294
0.03600000 1573526.05143875 9606.37698798
0.03700000 1567622.47708838 12509.62794570
0.03800000 1561583.67486384 11875.84439695
0.03900000 1555412.50169127 9332.47544233
0.04000000 1549109.01377409 10479.72296380
0.04100000 1542677.39023264 10690.75481001
0.04200000 1536119.15231834 12880.35968975
0.04300000 1529436.13079713 11103.70682500
0.04400000 1522631.07113613 16444.41633198
0.04500000 1515706.60720045 12550.05129076
0.04600000 1508662.98302932 11699.68197727
0.04700000 1501504.72931371 12973.00146462
0.04800000 1494233.13767965 12080.87548024
0.04900000 1486851.13602725 17842.21446284
0.05000000 1479360.28202654 13580.52802140
0.05100000 1471764.94042604 12627.74377711
0.05200000 1464063.81985104 13967.16949227
0.05300000 1456262.84388611 18873.16733659
0.05400000 1448362.65196148 14338.79092309
0.05500000 1440367.22669705 15728.81084927
0.05600000 1432277.14610635 15919.76122185
0.05700000 1424097.72899360 21062.40639498
0.05800000 1415828.10544668 15036.09518192
0.05900000 1407472.28908238 15200.70143205
0.06000000 1399034.18677262 15361.39608843
0.06100000 1390515.07268531 18104.50709241
0.06200000 1381917.78439823 15670.94840759
0.06300000 1373245.84995528 14501.47685355
0.06400000 1364498.31655358 15964.63105029
0.06500000 1355682.02667586 16105.50323029
0.06600000 1346797.86453666 18949.44684065
0.06700000 1337847.57459903 27292.09179906
0.06800000 1328835.07165923 17879.47672610
0.06900000 1319764.07640134 15243.27579611
0.07000000 1310633.98566689 18145.72838129
0.07100000 1301449.51040289 19677.91751896
0.07200000 1292212.48424301 15564.70010186
0.07300000 1282926.44485430 17088.58104615
0.07400000 1273594.35809644 14327.93720005
0.07500000 1264216.68632289 15853.27798957
0.07600000 1254797.05214592 17391.48795807
0.07700000 1245339.09611711 17484.56172931
0.07800000 1235844.06663644 19038.17873935
0.07900000 1226313.87632819 16187.34392678
0.08000000 1216753.80144618 16261.91531919
0.08100000 1207164.81139582 14848.12787682
0.08200000 1197548.14942455 19382.31770796
0.08300000 1187907.19474937 20954.68389882
0.08400000 1178245.31764903 18027.15420620
0.08500000 1168564.24605309 16581.92742993
0.08600000 1158866.45804861 24197.13278015
0.08700000 1149154.47841124 19719.49177552
0.08800000 1139429.65448369 18253.66392209
0.08900000 1129695.81334678 21351.25187512
0.09000000 1119954.97299656 18344.86331944
0.09100000 1110209.08805435 16852.97474844
0.09200000 1100459.84414800 23027.12332077
0.09300000 1090711.79268484 19992.74809942
0.09400000 1080963.61038972 16944.10538919
0.09500000 1071219.43056477 20053.22868273
0.09600000 1061481.22388600 16989.00778691
0.09700000 1051753.69783312 18552.93610200
0.09800000 1042035.28616929 17021.64719989
0.09900000 1032330.52531535 26324.42963338
0.10000000 1022638.81726172 24788.76609617
0.10100000 1012963.80557684 18598.01634509
0.10200000 1003307.77875101 17051.21650190
0.10300000 993671.88560965 18601.53857364
0.10400000 984058.73293342 18598.71092742
0.10500000 974471.78828384 17043.51237897
0.10600001 964907.26808213 20132.79109585
0.10700001 955373.65920478 18572.46480892
0.10800001 945867.73063445 18557.92574842
0.10900001 936394.65731395 15450.51257287
0.11000001 926954.68335376 16977.17582473
0.11100001 917548.73278686 18497.78332374
0.11200001 908180.08042913 16933.01839676
0.11300001 898848.36971896 23055.46176876
0.11400001 889556.81906913 21482.79819202
0.11500001 880306.55282471 19912.53516254
0.11600001 871099.01977565 16816.56736869
0.11700001 861935.63351794 21358.76600446
0.11800001 852816.56697019 25878.71994355
0.11900001 843743.86086429 15187.39021091
0.12000001 834718.86075740 15150.14803639
0.12100001 825744.35398166 27200.02030150
0.12200001 816819.78504924 16577.35831856
0.12300001 807947.44518890 22541.73478281
0.12400001 799127.09312089 26970.54066361
0.12500001 790360.11645997 16431.58759547
0.12600001 781649.56529753 17868.50990473
0.12700001 772994.33321439 17809.79027657
0.12800001 764395.69410306 17749.26885358
0.12900001 755855.55887460 16213.10250202
0.13000001 747373.94062065 16154.48848796
0.13100001 738951.32704548 14631.23696518
0.13200001 730589.15885425 23320.40704996
0.13300001 722289.36344640 18873.42195660
0.13400001 714050.46748850 15905.47491318
0.13500001 705875.40353485 21599.78836656
0.13600001 697762.56031504 14339.02129057
0.13700001 689714.74363197 19987.93421295
0.13800001 681730.08165841 17056.88744742
0.13900001 673811.88231582 18395.06525470
0.14000001 665958.97067078 14085.03289395
0.14100001 658172.23868750 15420.97627975
0.14200001 650451.72401286 16742.62816576
0.14300001 642799.46264040 18049.80976231
0.14400001 635212.01337443 16579.03433110
0.14500001 627694.39681382 13746.50793867
0.14600001 620244.21198946 15044.02407150
0.14700001 612864.06726561 16326.69952219
0.14800001 605549.51116817 16240.83865575
0.14900001 598305.30159188 13461.86992096
0.15000001 591129.19818540 14727.98466770
0.15100001 584022.76213296 15978.86352592
0.15200001 576985.79946148 15890.18966698
0.15300001 570019.24196700 21067.91217727
0.15400001 563119.27431783 15711.02849489
0.15500001 556290.66146152 14318.92230177
0.15600001 549528.83503304 15529.68561096
0.15700001 542839.92509090 20584.49093097
0.15800001 536216.49138822 15346.51670787
0.15900001 529664.79401938 12711.95565648
0.16000001 523179.43531952 12634.78395936
0.16100001 516766.06503437 15068.89916772
0.16200001 510420.16310422 14975.72829242
0.16300001 504142.41250977 14882.28471985
0.16400001 497933.44758599 13556.23875051
0.16500001 491791.98302905 13470.18305111
0.16600001 485719.41965951 14600.72644431
0.16700001 479712.68373170 12088.76020081
0.16800001 473772.85663372 15613.18522756
0.16900001 467902.11316909 15510.95578395
0.17000001 462096.41699783 13038.05102125
0.17100001 456356.80192863 11774.00604574
0.17200001 450683.58527523 15203.81146723
0.17300001 445075.68547022 13939.77112723
0.17400001 439532.81344493 12691.51058759
0.17500001 434054.43391421 13750.84511582
0.17600001 428638.63050921 15932.49864851
0.17700001 423288.58134191 13562.16678674
0.17800001 417999.93441811 15712.61827692
0.17900001 412774.78039084 14488.39547606
0.18000001 407611.69260281 12173.32377459
0.18100001 402511.93296905 10988.57628912
0.18200001 397470.50113969 14183.73550318
0.18300001 392490.90952256 12999.29953747
0.18400001 387570.76531383 13981.61601920
0.18500001 382711.74375143 13880.95560163
0.18600001 377910.11247803 14840.53081813
0.18700001 373166.42140833 13680.28165515
0.18800001 368480.53778662 11491.06611378
0.18900001 363853.80570278 12443.80074297
0.19000001 359279.62552075 13381.37028477
0.19100001 354765.88339289 12260.70950938
0.19200001 350304.08999242 13183.69504981
0.19300001 345899.77546133 12078.82072987
0.19400001 341547.12946766 13986.35561261
0.19500001 337249.30597203 10906.64307053
0.19600001 333003.85597536 13776.37017272
0.19700001 328810.49815539 9765.67225672
0.19800001 324669.00706749 13567.91844655
0.19900001 320578.97140359 11540.84351595
0.20000001 316537.82231153 13361.06211123
0.20100001 312547.89610550 12311.26220945
0.20200001 308605.49739638 11276.44540783
0.20300001 304713.19952692 12121.49165010
0.20400001 300867.91410545 10176.85767563
0.20500001 297069.44713849 10097.39098551
0.20600001 293317.80755558 9107.51835509
0.20700001 289612.46383802 11746.68208853
0.20800001 285951.01509199 8964.56474689
0.20900001 282336.74955575 9782.96883456
0.21000001 278764.63085426 10587.48118034
0.21100001 275236.53948285 9627.77460625
0.21200001 271750.89929048 9550.68580707
0.21300001 268306.69577458 11196.43894399
0.21400001 264905.25804630 11106.15346865
0.21500001 261545.55872874 11016.29945448
0.21600001 258225.12431903 10086.27383277
0.21700001 254944.80570507 9170.36509478
0.21800001 251703.96387931 9095.32316481
0.21900001 248500.95839306 13120.85122353
0.22000001 245335.69268687 8946.16645682
0.22100001 242209.70297341 9678.70018846
0.22200001 239120.55108871 13597.59078061
0.22300001 236066.47327621 8725.01726485
0.22400001 233047.81127735 9438.43680304
0.22500001 230067.12386395 7799.27586779
0.22600001 227118.96862464 8506.74137210
0.22700001 224207.23885327 11501.83189708
0.22800001 221327.86164535 8362.87364775
0.22900001 218481.28563163 8291.36518183
0.23000001 215668.55738676 9714.79062692
0.23100001 212888.88213091 8149.38679338
0.23200001 210139.27829107 8813.24174834
0.23300001 207421.90995191 8008.56032200
0.23400001 204735.93998315 12268.80178375
0.23500001 202078.62157284 9299.65860462
0.23600001 199453.02428457 9217.72195328
0.23700001 196856.26062680 9838.87637149
0.23800001 194288.95426195 6965.25933974
0.23900001 191749.91695049 11044.79573876
0.24000001 189239.09139270 8209.19217291
0.24100001 186757.30709389 6779.29056818
0.24200001 184302.32275026 7389.60198021
0.24300001 181874.74914562 8653.60097369
0.24400001 179473.47678926 9233.91081760
0.24500001 177098.64588175 8495.42244482
0.24600001 174750.12668475 7121.94174994
0.24700001 172427.34556056 7055.72731412
0.24800001 170129.80977567 10166.95791316
0.24900001 167856.42812699 6924.07798780
0.25000001 165608.84113680 6858.69048015
0.25100001 163384.38574788 7411.11608814
0.25200001 161185.48298689 7340.38724249
0.25300001 159010.21355979 6664.11836557
0.25400001 156857.78232611 6599.79150361
0.25500001 154728.32637320 7129.88161661
0.25600001 152622.36083151 7060.31074611
0.25700001 150538.21330837 5825.82913067
0.25800001 148477.15432504 6922.00526214
0.25900001 146438.13687752 6282.19636929
0.26000001 144420.87283922 5654.07743918
0.26100001 142424.56407076 7276.47132267
0.26200001 140450.56214776 9419.31739613
0.26300001 138496.82745282 7129.81701464
0.26400001 136564.37472221 6514.12098249
0.26500001 134653.08588311 5909.92421906
0.26600001 132761.20551850 5848.79518588
0.26700001 130890.77833620 7366.53335335
0.26800001 129040.72501119 5727.47285065
0.26900001 127209.06888019 7212.75454683
0.27000001 125398.33307804 5097.44248084
0.27100001 123606.41357140 5547.45610361
0.27200001 121835.50824656 5488.08072868
0.27300001 120082.74800661 4935.40117664
0.27400001 118347.15928441 5858.18466182
0.27500001 116633.33938911 5794.34457507
0.27600001 114935.99241188 5730.70885287
0.27700001 113258.79926097 5195.18136797
0.27800001 111599.05097319 6538.58870597
0.27900001 109958.75664905 6003.74839718
0.28000001 108335.09782121 5936.22196607
0.28100001 106730.35276333 5869.10237623
0.28200001 105143.99415648 4463.36276319
0.28300001 103574.96981595 6177.21149219
0.28400001 102023.26630534 4797.64432508
0.28500001 100489.62306367 6897.60805356
0.28600001 98973.15454150  5965.11230656
0.28700001 97474.05423159  5895.23107896
0.28800001 95991.29599248  4161.22287824
0.28900001 94527.62928245  4111.95206842
0.29000001 93079.29186545  4062.91128224
0.29100001 91648.77649552  4817.05992062
0.29200001 90234.86240541  5155.56910757
0.29300001 88837.65972323  4309.51507717
0.29400001 87456.47721762  4643.93916008
0.29500001 86092.98570824  4587.03449567
0.29600001 84745.17721500  6418.17630020
0.29700001 83413.65873482  4474.30886634
0.29800001 82098.32361859  5154.95398404
0.29900001 80799.87257313  5090.39221308
0.30000001 79516.69610461  3949.19689899
0.30100001 78250.67218360  4962.65786482
0.30200001 76998.91346916  5249.40117427
0.30300001 75764.26375531  5527.76094528
0.30400001 74545.33520429  4774.62894587
0.30500001 73341.74381957  3703.02482076
0.30600001 72152.93922152  3987.17161015
0.30700001 70980.85220672  5574.83639625
0.30800001 69823.77686626  3236.33221097
0.30900001 68682.04034534  4471.20103817
0.31000001 67555.92862836  3781.78106366
0.31100001 66444.00975244  3109.57980364
0.31200001 65348.00591282  4295.32463201
0.31300001 64266.49773717  3632.34262408
0.31400001 63201.04302195  3284.87436659
0.31500001 62149.42085472  3829.64749439
0.31600002 61112.94794941  3196.51289384
0.31700002 60091.11929945  3152.98117893
0.31800002 59084.00294095  3675.32057696
0.31900002 58091.53647153  3067.23327093
0.32000002 57113.83672783  4675.05332672
0.32100002 56149.80979292  3254.44312970
0.32200002 55201.19637156  3209.39770901
0.32300002 54265.17561846  3164.74519192
0.32400002 53343.95512301  3900.77690308
0.32500002 52436.70789787  3076.98616515
0.32600002 51543.90188112  2528.22850699
0.32700002 50664.25922343  2492.68167183
0.32800002 49799.18003246  2949.10758117
0.32900002 48947.09612106  2665.16951000
0.33000002 48109.66810943  3105.23867517
0.33100002 47283.20287212  4238.46650617
0.33200002 46473.11394818  2553.46536680
0.33300002 45674.99139707  2288.31717736
0.33400002 44890.53776966  3158.04948165
0.33500002 44118.11289794  2668.26359443
0.33600002 43359.96559411  2411.03100104
0.33700002 42613.56219794  2808.66001748
0.33800002 41881.06755817  2342.61762481
0.33900002 41160.25900400  2309.09063948
0.34000002 40452.67572065  2482.98535332
0.34100002 39757.24549835  2039.54679066
0.34200002 39075.00966643  2211.45027680
0.34300002 38403.74904923  2774.28696270
0.34400002 37746.18624861  2148.70175396
0.34500002 37099.74362364  1925.47678526
0.34600002 36466.33126651  2087.87989555
0.34700002 35843.06600878  2806.51220141
0.34800002 35233.11352614  1844.45358045
0.34900002 34634.07916546  2909.26278769
0.35000002 34046.70937964  1971.81526711
0.35100002 33471.41642904  3357.85265520
0.35200002 32905.92849820  2090.84279580
0.35300002 32352.33298465  2233.28165171
0.35400002 31810.04719890  1863.27360293
0.35500002 31278.87530403  2171.37962645
0.35600002 30757.53010556  2141.18555971
0.35700002 30247.40089544  2111.57115652
0.35800002 29748.52860232  1922.35000933
0.35900002 29259.70920296  1580.02437180
0.36000002 28781.64244951  2026.08381620
0.36100002 28312.99286856  2152.35381982
0.36200002 27855.72198811  1668.41854751
0.36300002 27407.26915804  1646.08066360
0.36400002 26968.85973140  1771.85416828
0.36500002 26540.13204763  2039.87464580
0.36600002 26121.39632235  1869.37781636
0.36700002 25711.52232250  1419.27609943
0.36800002 25312.64505370  1401.05497009
0.36900002 24921.92619210  1383.16696918
0.37000002 24540.06242377  1638.78544629
0.37100002 24167.12358668  1753.08322802
0.37200002 23803.99762145  1598.20047601
0.37300002 23448.98443552  1973.23213372
0.37400002 23102.69076468  1429.47905878
0.37500002 22765.33944482  1540.75824661
0.37600002 22436.47772177  1776.29602538
0.37700002 22115.41755734  1755.52192886
0.37800002 21802.43738786  1363.41548664
0.37900002 21498.17977302  1470.47556613
0.38000002 21201.66295567  1332.84260485
0.38100002 20912.02677636  1677.56286747
0.38200002 20631.15996969  1303.78621605
0.38300002 20357.08355267  2110.62252273
0.38400002 20091.37045671  1508.35970849
0.38500002 19831.62768259  1148.25129722
0.38600002 19580.41319186  1363.97164756
0.38700002 19335.45297013  1462.92044103
0.38800002 19097.72182155  1225.78733319
0.38900002 18866.23983557  1214.04259094
0.39000002 18642.62713371  1093.39013319
0.39100002 18424.57451549  1625.04754926
0.39200002 18213.53892129  1717.90107244
0.39300002 18008.50182075  1383.59326044
0.39400002 17810.97830872  1477.42072070
0.39500002 17618.52851819  1046.54064356
0.39600002 17432.11593057  1141.89080813
0.39700002 17251.60931213  1132.91323720
0.39800002 17077.09274209  1328.68326375
0.39900002 16908.02442251  1724.61857281
0.40000002 16744.42631706  1309.33047790
0.40100002 16586.65870766  1100.19312421
0.40200002 16434.48792814  1192.15781079
0.40300002 16286.72954998  1480.46378624
0.40400002 16144.74035879  1275.03093025
0.40500002 16007.82472117  1072.36422888
0.40600002 15875.73022702  1163.05605154
0.40700002 15748.41445404  1156.56361230
0.40800002 15626.05358359  1246.25596261
0.40900002 15507.99272495  1335.23823688
0.41000002 15394.91178488  1044.00599216
0.41100002 15285.96137153  1133.60694903
0.41200002 15181.08074549  1034.51479642
0.41300002 15081.20642193  1123.85155581
0.41400002 14984.84811148  1026.08752305
0.41500002 14892.81801654  929.31188827
0.41600002 14804.13797290  1296.39842371
0.41700002 14719.76680721  1199.80824931
0.41800002 14640.06244653  1656.23034306
0.41900002 14562.06967232  1009.15147611
0.42000002 14488.94333474  1280.96754092
0.42100002 14419.52676725  1186.58291390
0.42200002 14353.54449438  1001.80568546
0.42300002 14290.21023727  1090.62889699
0.42400002 14230.23333002  1088.61290133
0.42500002 14173.73295362  996.27173652
0.42600002 14119.43968988  904.35015499
0.42700002 14069.40839112  903.25606151
0.42800002 14021.32017088  1082.72639490
0.42900002 13977.22898012  901.53131194
0.43000002 13935.34440555  1081.10407021
0.43100002 13895.16513587  1440.65078956
0.43200002 13858.72568655  1080.14913120
0.43300002 13824.66575350  899.98578320
0.43400002 13792.98335023  1169.98986813
0.43500002 13763.51669901  1260.18764868
0.43600002 13736.75633695  1350.66663084
0.43700002 13711.71564884  1351.28964123
0.43800002 13688.76432397  1171.82672549
0.43900002 13668.66109244  992.34484234
0.44000002 13650.05810383  1173.83680227
0.44100002 13633.82137073  903.92239972
0.44200002 13619.28943531  1176.50237362
0.44300002 13606.74872386  1268.69331114
0.44400002 13596.30892813  1089.06439675
0.44500002 13586.37514697  908.92854041
0.44600002 13578.61187832  1456.71355134
0.44700002 13573.48353969  1003.35195080
0.44800002 13568.28344161  1096.58871972
0.44900002 13566.32751468  1098.87258077
0.45000002 13565.11639579  1009.44818443
0.45100002 13565.00404336  1011.67804950
0.45200002 13566.55329676  1106.21680824
0.45300002 13569.02133465  1108.86047602
0.45400002 13573.12851425  1111.63927800
0.45500002 13578.46290366  1114.52028795
0.45600002 13584.69960688  1210.60056284
0.45700002 13592.17020331  1307.29499211
0.45800002 13600.27245705  1310.93032426
0.45900002 13609.52832419  1408.58624831
0.46000002 13620.50495855  941.85796252
0.46100002 13631.19855854  944.64210488
0.46200002 13643.72484161  1042.31240868
0.46300002 13656.96012357  1045.57691662
0.46400002 13670.26679681  1239.55150055
0.46500002 13684.91806043  1147.89098131
0.46600002 13700.08706695  1055.66025898
0.46700002 13715.52204512  962.82969320
0.46800002 13732.65134324  1352.52889490
0.46900002 13749.24064356  1163.18581358
0.47000002 13766.79746504  1167.14914441
0.47100002 13784.93614914  1171.16823074
0.47200002 13803.72890592  1371.12445721
0.47300002 13822.98498278  1179.37713463
0.47400002 13841.95420603  1084.86321232
0.47500002 13861.77335264  1088.70373072
0.47600002 13882.47500172  1390.60758683
0.47700002 13902.56816069  1096.49560281
