# SAXS profile: number of points = 501, q_min = 0, q_max = 0.5, delta_q = 0.001
#    q    intensity    error
0.00000000 1700912.83420644 255.13692513
0.00100000 1700824.91749431 561.27223610
0.00200000 1700561.13249312 1224.40405417
0.00300000 1700121.69845729 1122.08036095
0.00400000 1699506.50040872 1911.94488561
0.00500000 1698716.18988710 1528.84463141
0.00600000 1697750.61873116 2139.16586669
0.00700000 1696610.52322507 2646.71252623
0.00800000 1695295.68392873 2517.51419692
0.00900000 1693807.57882442 3048.85377222
0.01000000 1692145.54189848 3071.24429116
0.01100000 1690311.18687484 3346.81629573
0.01200000 1688304.40940475 3621.41311695
0.01300000 1686126.57153248 4957.21233894
0.01400000 1683777.87948407 4546.20047614
0.01500000 1681259.83635919 4438.52616563
0.01600000 1678572.20877463 4708.39525609
0.01700000 1675717.11956772 4976.88006837
0.01800000 1672695.17972703 5243.89962441
0.01900000 1669507.30684162 5509.37436117
0.02000000 1666154.27847184 6298.06345752
0.02100000 1662638.90803683 6584.05037434
0.02200000 1658959.79799542 8585.11734467
0.02300000 1655120.18426449 8341.80610840
0.02400000 1651120.49482082 6810.87235169
0.02500000 1646963.30791525 7707.78863306
0.02600000 1642649.00019561 6652.72875508
0.02700000 1638179.42197053 8944.46005363
0.02800000 1633555.18913578 7105.96539862
0.02900000 1628779.73602739 8062.46006352
0.03000000 1623853.53000247 8306.01118775
0.03100000 1618778.31155528 10101.17712889
0.03200000 1613555.35171326 8785.80929474
0.03300000 1608188.86918285 9842.11633313
0.03400000 1602677.43052056 8414.05689846
0.03500000 1597024.80252785 9486.32776508
0.03600000 1591231.81667689 11480.73808789
0.03700000 1585301.79864760 10843.46480423
0.03800000 1579236.03859412 9238.53125333
0.03900000 1573037.22682679 9438.22379804
0.04000000 1566705.40721890 12525.81031115
0.04100000 1560244.69599611 13761.35885675
0.04200000 1553656.77824682 12025.30402152
0.04300000 1546943.37298829 13272.77475633
0.04400000 1540107.25062246 12474.86930940
0.04500000 1533151.12547982 11636.61758309
0.04600000 1526075.27043002 10758.83115668
0.04700000 1518884.00032881 13123.15837317
0.04800000 1511578.81103949 11110.10477807
0.04900000 1504162.49474649 12409.34115928
0.05000000 1496636.77566025 13739.12624034
0.05100000 1489005.92711704 12775.67144981
0.05200000 1481268.59922409 12953.69450387
0.05300000 1473430.89659977 16708.70714637
0.05400000 1465493.37471655 14508.38508628
0.05500000 1457459.91862445 13466.93027631
0.05600000 1449331.26287381 12391.78287582
0.05700000 1441112.66016218 12537.68072865
0.05800000 1432803.19453736 16484.40152285
0.05900000 1424407.00307851 19229.49543969
0.06000000 1415927.78879946 14251.31386007
0.06100000 1407367.14485999 19632.77258826
0.06200000 1398727.69235320 14539.77504165
0.06300000 1390013.08227660 22685.01456340
0.06400000 1381222.21588378 16160.30068160
0.06500000 1372361.98338001 16303.66112520
0.06600000 1363433.39716986 21924.01005228
0.06700000 1354438.13797417 17959.85055004
0.06800000 1345380.04310849 18102.08932737
0.06900000 1336263.12353553 16836.91614483
0.07000000 1327086.30025056 18373.51068737
0.07100000 1317854.53043955 17079.39551446
0.07200000 1308569.89710906 20060.37746245
0.07300000 1299235.70831101 21632.27555697
0.07400000 1289854.99895770 21766.30412747
0.07500000 1280428.02894702 18975.94427844
0.07600000 1270958.60534359 19083.44435388
0.07700000 1261450.38874878 14758.97024039
0.07800000 1251904.55898987 16318.57669171
0.07900000 1242323.23817985 17889.45546887
0.08000000 1232711.36725884 26959.39886664
0.08100000 1223070.20519599 21061.26992163
0.08200000 1213401.01100936 18128.21195515
0.08300000 1203706.85130340 15166.70703823
0.08400000 1193991.31841167 19790.40703161
0.08500000 1184256.25239435 15276.90637306
0.08600000 1174504.05498097 16860.00650085
0.08700000 1164737.01178460 16911.98220526
0.08800000 1154956.92642364 20044.27839944
0.08900000 1145167.24577336 17005.73439849
0.09000000 1135370.16502453 18597.36417672
0.09100000 1125567.75830157 17086.11937374
0.09200000 1115761.41464239 17121.35971216
0.09300000 1105955.89592965 20272.17252502
0.09400000 1096149.79767105 18744.16242110
0.09500000 1086347.40886853 18772.08410759
0.09600000 1076550.64292801 15663.81259092
0.09700000 1066763.92040218 18817.71644057
0.09800000 1056986.26024336 18835.49604314
0.09900000 1047221.75975884 18849.99256203
0.10000000 1037469.89887392 23576.50456065
0.10100000 1027734.43077550 17296.77128345
0.10200000 1018017.75859536 18874.05013212
0.10300000 1008320.52287175 25167.68143479
0.10400000 998646.05297649 20447.27889664
0.10500000 988997.09265683 15725.05451310
0.10600001 979370.52779059 18862.67725280
0.10700001 969774.53000083 21994.48737543
0.10800001 960205.83179712 21979.11252421
0.10900001 950669.61122119 18823.25918811
0.11000001 941166.34297200 17237.46238289
0.11100001 931696.68374909 15652.50502380
0.11200001 922264.14352635 18758.85356244
0.11300001 912868.15727042 18732.05546911
0.11400001 903512.12115854 20261.26027097
0.11500001 894197.38231101 23338.55277728
0.11600001 884924.62016933 17083.47059686
0.11700001 875696.07312693 20149.76759160
0.11800001 866511.43452501 18560.67580170
0.11900001 857373.08501544 18519.25950862
0.12000001 848282.12241174 18475.58549642
0.12100001 839241.43808791 15358.11904050
0.12200001 830250.42745680 18381.74532988
0.12300001 821311.56319793 21386.95411331
0.12400001 812424.27918208 19802.84273812
0.12500001 803590.28179288 18225.42844985
0.12600001 794812.51320575 16655.29699908
0.12700001 786089.93920044 19620.80580710
0.12800001 777423.73610120 15043.15000253
0.12900001 768815.80663591 17990.29072320
0.13000001 760266.38184000 14939.23510731
0.13100001 751775.58435238 14885.15727183
0.13200001 743345.15644948 16312.71022727
0.13300001 734977.03106886 22159.55853139
0.13400001 726669.54087394 14715.05889645
0.13500001 718425.92924381 19052.65654184
0.13600001 710244.13269748 16055.06937664
0.13700001 702127.47514379 18894.25124704
0.13800001 694073.65303890 14471.43634827
0.13900001 686086.43229741 17289.37890923
0.14000001 678164.38026348 15777.49505091
0.14100001 670308.30801764 22844.10821464
0.14200001 662518.30821781 15632.12021969
0.14300001 654796.53461714 21215.40872228
0.14400001 647139.60901716 15482.81587606
0.14500001 639552.22622048 18208.05273941
0.14600001 632032.26800238 19510.83703364
0.14700001 624582.32231222 18025.44667231
0.14800001 617197.94728168 15173.81224980
0.14900001 609883.73449490 17839.10007564
0.15000001 602637.74724550 15014.72018106
0.15100001 595461.36165303 20364.77952945
0.15200001 588354.39446362 16203.28078811
0.15300001 581317.78914413 14771.28571919
0.15400001 574347.78009780 14688.94516919
0.15500001 567449.04891074 13278.30837115
0.15600001 560617.11090691 14522.78694345
0.15700001 553858.16615613 17064.37090465
0.15800001 547164.56853684 15659.85069065
0.15900001 540542.70476263 18162.23573729
0.16000001 533987.37754066 15474.95493158
0.16100001 527503.97733742 16663.85143069
0.16200001 521088.14160498 15288.72679641
0.16300001 514740.31000073 16461.39589093
0.16400001 508461.40960483 20135.07277092
0.16500001 502249.93580911 20009.63838732
0.16600001 496107.50463802 17398.49100909
0.16700001 490030.99902715 13583.65993438
0.16800001 484021.50328971 19631.91310038
0.16900001 478081.01192032 18286.59956941
0.17000001 472205.64670431 13323.28295088
0.17100001 466396.46322720 13236.33225142
0.17200001 460653.55792892 13149.35643203
0.17300001 454976.32140319 13062.37080435
0.17400001 449364.30622253 12975.39495495
0.17500001 443816.59315724 16403.46205779
0.17600001 438331.58917336 12801.47466641
0.17700001 432912.53103480 13870.51814947
0.17800001 427554.82621340 14923.80191386
0.17900001 422260.88413498 11401.04441016
0.18000001 417028.97316157 11322.33715615
0.18100001 411860.63141489 13492.55492249
0.18200001 406750.66206313 13398.36744127
0.18300001 401702.88529171 11087.00015779
0.18400001 396714.47168648 13210.59253124
0.18500001 391787.39689760 10930.86888984
0.18600001 386917.75829290 10853.04363285
0.18700001 382106.39327224 20473.26151878
0.18800001 377352.86394127 11767.74961799
0.18900001 372658.60515388 14869.07904817
0.19000001 368016.94024835 14761.16017081
0.19100001 363436.07340396 11513.65534946
0.19200001 358907.29198237 11429.40325323
0.19300001 354436.10756231 10314.09121743
0.19400001 350016.83540072 11261.79221118
0.19500001 345652.51607236 12194.62134329
0.19600001 341340.72522270 11095.28079769
0.19700001 337081.23440516 14015.83838892
0.19800001 332873.90791488 9936.28662084
0.19900001 328718.01524728 10847.69501582
0.20000001 324611.33511304 13701.84510269
0.20100001 320556.03134477 12626.70267144
0.20200001 316548.47291570 13494.46203819
0.20300001 312591.06921836 11478.34460422
0.20400001 308681.09722870 11390.33302611
0.20500001 304818.21197975 10360.77151491
0.20600001 301002.27766778 13084.56962870
0.20700001 297232.83122056 10201.03124968
0.20800001 293507.48370771 11041.75205903
0.20900001 289829.68557768 10042.59907999
0.21000001 286194.05763979 10869.65082299
0.21100001 282602.82063853 11682.80115748
0.21200001 279054.16744118 12482.09349973
0.21300001 275547.24580810 13267.60051289
0.21400001 272083.25829447 14039.49679173
0.21500001 268661.42650758 12186.48288253
0.21600001 265278.94339640 12088.76202211
0.21700001 261936.94249918 9421.87226716
0.21800001 258634.58546909 9345.76118780
0.21900001 255370.30475590 11798.10863756
0.22000001 252144.06832910 10030.29151239
0.22100001 248957.30677875 10777.36232004
0.22200001 245807.74978847 9866.72354305
0.22300001 242693.49282480 8154.50174450
0.22400001 239614.79444159 8086.99969481
0.22500001 236574.45462370 11227.82414737
0.22600001 233566.97271308 7952.95579696
0.22700001 230596.17723056 10252.30652449
0.22800001 227657.85614551 10166.06204693
0.22900001 224752.66117280 12406.34748345
0.23000001 221881.72055001 7688.20198065
0.23100001 219044.01636117 7622.73212987
0.23200001 216236.54923747 7557.46775327
0.23300001 213461.74517832 7492.50761011
0.23400001 210718.66959501 9656.18349088
0.23500001 208004.38886286 7363.35571400
0.23600001 205322.21105449 8029.12544304
0.23700001 202669.14178832 8682.34644487
0.23800001 200045.77973933 7888.80569715
0.23900001 197451.01821986 9951.53178898
0.24000001 194884.73013567 7749.59166040
0.24100001 192347.87082517 7680.45084534
0.24200001 189837.94284992 10379.39001628
0.24300001 187355.82299125 7542.94579043
0.24400001 184900.38123855 8833.61613153
0.24500001 182471.61519669 10773.12467083
0.24600001 180069.45713281 8673.04581308
0.24700001 177693.24484585 7271.20792306
0.24800001 175342.76216111 6549.05247653
0.24900001 173016.69953502 7136.93919345
0.25000001 170716.67037302 8355.72782670
0.25100001 168439.93356753 10187.24766411
0.25200001 166189.36884542 9460.33026909
0.25300001 163962.53579272 7496.36749110
0.25400001 161758.95103556 9899.64827174
0.25500001 159578.57090685 6740.59915402
0.25600001 157421.94585622 7282.33955986
0.25700001 155287.63082454 7211.55791669
0.25800001 153176.64280110 5950.91285438
0.25900001 151087.93346713 8838.64452603
0.26000001 149021.31067636 6417.60304793
0.26100001 146976.02222085 9819.46850919
0.26200001 144953.29000197 7433.92982950
0.26300001 142951.16817442 6226.95318032
0.26400001 140970.79896574 7284.66638125
0.26500001 139011.78078686 5546.57031585
0.26600001 137072.43302390 8234.62680357
0.26700001 135154.84724931 6519.87013983
0.26800001 133257.96517090 8603.13463854
0.26900001 131379.90194170 5320.88628043
0.27000001 129522.93419074 5265.10752401
0.27100001 127685.26260685 7293.38254525
0.27200001 125868.83337428 7731.49345590
0.27300001 124070.84346460 7139.03667080
0.27400001 122290.37292140 5548.92593391
0.27500001 120531.98307361 5988.02920248
0.27600001 118790.32100539 6416.45949277
0.27700001 117069.29331950 4881.78976246
0.27800001 115365.94602762 7724.90411161
0.27900001 113682.27969970 5252.12157070
0.28000001 112015.63374514 4721.45918582
0.28100001 110368.21893657 5602.29105837
0.28200001 108739.48332777 6000.78867146
0.28300001 107128.38827568 5932.77042351
0.28400001 105535.07769371 5865.11222043
0.28500001 103959.96142474 5797.84732308
0.28600001 102402.43095803 5730.95231982
0.28700001 100862.53512165 5228.71406819
0.28800001 99339.31288294  6028.90318423
0.28900001 97835.50427804  5532.59802880
0.29000001 96347.35219765  4626.11833474
0.29100001 94877.37422967  7064.56961954
0.29200001 93424.18204615  4927.19159434
0.29300001 91988.13078706  4462.34443571
0.29400001 90568.39324754  4809.18190909
0.29500001 89166.64896386  5146.69922182
0.29600001 87780.83528190  3910.63639693
0.29700001 86411.70891480  4248.86392847
0.29800001 85058.97103152  4959.36354076
0.29900001 83723.56882257  4897.82900798
0.30000001 82403.67252445  4092.57858967
0.30100001 81101.12768377  3673.88125800
0.30200001 79813.40860184  3990.27155195
0.30300001 78542.90630638  4656.02370626
0.30400001 77288.40633262  3889.53923283
0.30500001 76049.62141692  5236.01668244
0.30600001 74825.97060749  5513.17777537
0.30700001 73619.25496346  4081.45168840
0.30800001 72427.94323947  4028.44239370
0.30900001 71252.15195590  3975.87026737
0.31000001 70092.35521512  3923.77023071
0.31100001 68947.03375641  3549.39346583
0.31200001 67817.87501764  4776.07407424
0.31300001 66703.61711006  3455.91456610
0.31400001 65605.77289276  4649.80937393
0.31500001 64521.82078170  3670.00133983
0.31600002 63453.45132451  3620.65410401
0.31700002 62399.94154395  2976.47735258
0.31800002 61361.52586935  3229.76406706
0.31900002 60338.02812125  4054.71568173
0.32000002 59329.61091221  4285.08135103
0.32100002 58335.02199775  3381.09803508
0.32200002 57356.30486908  3334.69572299
0.32300002 56390.22734095  3288.67821425
0.32400002 55439.47545062  4054.01183429
0.32500002 54502.93438929  3198.23234141
0.32600002 53581.06156925  2890.96631386
0.32700002 52672.70666513  4146.39566502
0.32800002 51779.02952718  3066.35427380
0.32900002 50898.70738824  2519.48613502
0.33000002 50033.33557745  2484.15522905
0.33100002 49179.32202057  3183.86945838
0.33200002 48341.75142098  3622.00589674
0.33300002 47516.45718771  2380.57461784
0.33400002 46705.24269876  2581.63241243
0.33500002 45906.14227378  2776.40361620
0.33600002 45121.71245628  2965.17347448
0.33700002 44349.21085136  2923.05662564
0.33800002 43591.09488823  3324.91092006
0.33900002 42844.62612571  2403.58363948
0.34000002 42111.81726621  2369.42151069
0.34100002 41391.37542653  2123.37765994
0.34200002 40684.46864064  4186.43202139
0.34300002 39988.67373420  2888.78192737
0.34400002 39306.99172590  2237.55060997
0.34500002 38636.47828214  2205.75664959
0.34600002 37979.29619147  2174.50470643
0.34700002 37332.58336970  2143.63703861
0.34800002 36699.49290048  2305.46225320
0.34900002 36077.42796509  2462.28457524
0.35000002 35467.40672855  1867.35905270
0.35100002 34869.52353061  1841.11092962
0.35200002 34281.93559101  1996.75143307
0.35300002 33706.34113073  1789.80679881
0.35400002 33142.29848032  2823.72396427
0.35500002 32589.71574448  2262.37817414
0.35600002 32047.11887727  1887.73562688
0.35700002 31515.86075840  2030.88216346
0.35800002 30996.16680225  1836.05802750
0.35900002 30486.86018009  2469.43579155
0.36000002 29988.51476260  2273.42941184
0.36100002 29499.69997917  1762.01716322
0.36200002 29022.61046636  1738.30933622
0.36300002 28554.52199671  2026.80006733
0.36400002 28096.68785943  1538.29373317
0.36500002 27648.73147015  1669.70697257
0.36600002 27211.11047069  1797.56604284
0.36700002 26782.49203967  2217.59044593
0.36800002 26365.12075203  1751.17140330
0.36900002 25956.07287744  2016.78695811
0.37000002 25556.12180366  1991.07754404
0.37100002 25165.36276159  1965.91823206
0.37200002 24784.64482155  2496.06169822
0.37300002 24412.08722939  1506.46997429
0.37400002 24048.61132792  1352.73445128
0.37500002 23694.20986472  1469.98884964
0.37600002 23348.50526948  1848.50124975
0.37700002 23010.81911475  1696.12755730
0.37800002 22681.51450741  1805.22182516
0.37900002 22361.13370652  1402.04314982
0.38000002 22048.56647531  1260.07563376
0.38100002 21743.06224033  1619.64078301
0.38200002 21446.59155503  1232.10674321
0.38300002 21157.12327513  2193.57064508
0.38400002 20876.22223240  1687.84264745
0.38500002 20601.44678490  1431.38859043
0.38600002 20335.53824301  1298.52585602
0.38700002 20075.78026439  1752.61570011
0.38800002 19823.66292116  1388.05294350
0.38900002 19577.88525243  1374.36760983
0.39000002 19340.28781244  1588.03110751
0.39100002 19108.24159904  1235.92112518
0.39200002 18883.51013701  1335.81957038
0.39300002 18664.85459398  1434.02084639
0.39400002 18454.08907897  1312.08579568
0.39500002 18248.45349266  1409.14564546
0.39600002 18049.05343799  1182.30330147
0.39700002 17855.72716475  1598.98044336
0.39800002 17668.51026972  1163.20642872
0.39900002 17486.93314266  1154.13764210
0.40000002 17311.08133539  1249.51390999
0.40100002 17141.16357732  1240.33465522
0.40200002 16977.00665956  1128.88611131
0.40300002 16817.46825268  1121.05248684
0.40400002 16663.79527136  1113.55817177
0.40500002 16515.37571025  1307.52235693
0.40600002 16371.91900026  1099.45627256
0.40700002 16233.48638910  1291.53623831
0.40800002 16100.07611658  1086.51368821
0.40900002 15971.19746960  1375.12016729
0.41000002 15847.43497097  1074.69385348
0.41100002 15727.87241144  1069.18081719
0.41200002 15612.59297300  1257.36023466
0.41300002 15502.42803558  1251.51107461
0.41400002 15396.02561772  1245.92343215
0.41500002 15294.04444404  1240.65294409
0.41600002 15195.49468079  1045.52606105
0.41700002 15101.51298760  1136.23789103
0.41800002 15012.18047294  1037.86714618
0.41900002 14924.83656525  1222.34417261
0.42000002 14842.58215335  1124.77092888
0.42100002 14763.93170183  1495.29107362
0.42200002 14689.02013529  1025.22020892
0.42300002 14616.78364472  1115.55298063
0.42400002 14548.11578698  1391.16363805
0.42500002 14482.98980145  1018.00940138
0.42600002 14420.27555685  1200.70430114
0.42700002 14361.85754864  1383.04694747
0.42800002 14305.68475476  1380.85628639
0.42900002 14253.44683074  1011.28210056
0.43000002 14203.57455472  1101.91336617
0.43100002 14155.62206004  1100.74122355
0.43200002 14111.47463590  1099.84838524
0.43300002 14069.78814298  1099.13190182
0.43400002 14030.69492818  1190.15375368
0.43500002 13993.85729382  1281.27763454
0.43600002 13959.88116420  1189.59132978
0.43700002 13927.70711072  1006.55544059
0.43800002 13897.70749121  1098.19689800
0.43900002 13870.74754680  1190.11019591
0.44000002 13845.36463658  915.87091411
0.44100002 13822.47368790  1008.07305383
0.44200002 13801.35398581  1283.94002215
0.44300002 13782.31648449  1101.48278564
0.44400002 13765.55863658  1010.73619079
0.44500002 13749.35403820  1655.69729175
0.44600002 13735.39738350  1289.34181349
0.44700002 13724.24099447  1014.49594239
0.44800002 13713.07548672  1477.72108448
0.44900002 13705.22314891  925.10260639
0.45000002 13698.32340673  1112.02994686
0.45100002 13692.58547322  928.35733908
0.45200002 13688.57567701  1116.16651360
0.45300002 13685.51073785  1025.18165796
0.45400002 13684.20521254  1027.34175502
0.45500002 13684.24296524  1216.80294214
0.45600002 13685.31802856  1031.94145485
0.45700002 13687.71372857  1598.58816212
0.45800002 13690.74050249  1131.12903392
0.45900002 13695.04550939  944.95818493
0.46000002 13701.19256948  1421.15626662
0.46100002 13707.03215692  1044.88711084
0.46200002 13714.93914042  1047.75282529
0.46300002 13723.52441067  1337.22028195
0.46400002 13732.33851993  957.83065716
0.46500002 13742.54365653  1440.90577068
0.46600002 13753.30341631  963.41894997
0.46700002 13764.42668196  1449.39419831
0.46800002 13777.36900209  1260.00934181
0.46900002 13789.81189821  972.18178490
0.47000002 13803.29352677  1267.76355405
0.47100002 13817.38612813  1076.09808266
0.47200002 13832.27744641  1373.96018387
0.47300002 13847.72053297  1181.48757187
0.47400002 13862.90163450  1580.37086124
0.47500002 13878.95922938  1090.05350954
0.47600002 13896.08268325  1292.54419205
0.47700002 13912.54865254  1197.03574280
