# SAXS profile: number of points = 501, q_min = 0, q_max = 0.5, delta_q = 0.001
#    q    intensity    error
0.00000000 1700912.83420643 306.16431016
0.00100000 1700824.92736087 510.24749033
0.00200000 1700561.17255557 1224.40408301
0.00300000 1700121.78590557 1224.08772946
0.00400000 1699506.65738597 1402.09304562
0.00500000 1698716.42624462 1987.49829737
0.00600000 1697750.96650619 2317.43016363
0.00700000 1696610.99616043 2646.71326401
0.00800000 1695296.29978866 2517.51511148
0.00900000 1693808.35268824 4065.14022023
0.01000000 1692146.50116212 4188.06277121
0.01100000 1690312.33942513 3042.56234344
0.01200000 1688305.77376375 3621.41604350
0.01300000 1686128.17334797 3894.95625222
0.01400000 1683779.75376814 5303.90645950
0.01500000 1681261.94768618 4438.53173953
0.01600000 1678574.60471171 4280.36543336
0.01700000 1675719.81246922 5429.33243595
0.01800000 1672698.15535721 5243.90895301
0.01900000 1669510.64680305 5008.53216641
0.02000000 1666157.96601040 6822.91717945
0.02100000 1662642.96196435 8778.75523719
0.02200000 1658964.18599766 7440.45471224
0.02300000 1655124.94589173 6554.29508407
0.02400000 1651125.67884612 10525.92668260
0.02500000 1646968.84850773 10277.08608405
0.02600000 1642654.98136535 9979.12946822
0.02700000 1638185.82447004 8256.45693348
0.02800000 1633562.02355818 9237.79366686
0.02900000 1628787.01470240 10261.35866377
0.03000000 1623861.29715869 9061.14645464
0.03100000 1618786.51369105 9324.21074790
0.03200000 1613564.02171228 11181.99918549
0.03300000 1608197.97023045 9842.17203154
0.03400000 1602686.91615019 9255.51736782
0.03500000 1597034.82715662 12935.98269733
0.03600000 1591242.36531618 9714.53508920
0.03700000 1585312.79151162 12650.79666133
0.03800000 1579247.53014944 11086.31817472
0.03900000 1573049.20303282 9438.29565528
0.04000000 1566717.80258926 12525.90941214
0.04100000 1560257.59319437 12778.51028076
0.04200000 1553670.14267933 10021.17288519
0.04300000 1546957.20315506 12251.90161770
0.04400000 1540121.55739978 10395.82099525
0.04500000 1533165.89265526 12694.61418104
0.04600000 1526090.43127851 15062.51325693
0.04700000 1518899.67965731 10936.07820215
0.04800000 1511594.85460896 11110.22269831
0.04900000 1504179.00524155 11281.34306443
0.05000000 1496653.73418229 12594.34175961
0.05100000 1489023.20877580 15098.69604034
0.05200000 1481286.36250926 18841.96340918
0.05300000 1473448.93143856 17902.40535155
0.05400000 1465511.75143289 13299.51976446
0.05500000 1457478.58591865 17139.94896997
0.05600000 1449350.35009680 16109.52989306
0.05700000 1441132.02088449 20060.55866711
0.05800000 1432822.83476775 13948.53094775
0.05900000 1424426.85893472 17947.77926084
0.06000000 1415948.02855675 14251.51757324
0.06100000 1407387.51228511 14397.57492349
0.06200000 1398748.29318977 15861.80638621
0.06300000 1390033.82215681 17347.62291161
0.06400000 1381243.09547562 14813.83289177
0.06500000 1372383.03644776 20379.88904458
0.06600000 1363454.53117270 19183.80615118
0.06700000 1354459.28469625 15197.03388550
0.06800000 1345401.29879579 13924.90409435
0.06900000 1336284.32437034 16837.18327536
0.07000000 1327107.37953574 15547.06367931
0.07100000 1317875.70651537 24196.19910492
0.07200000 1308591.02400394 17194.88686094
0.07300000 1299256.69192054 17306.09994727
0.07400000 1289875.77968854 18864.43416201
0.07500000 1280448.59861247 16056.82617922
0.07600000 1270978.98972931 16147.78882153
0.07700000 1261470.50128495 16235.12611278
0.07800000 1251924.33440155 19285.89527589
0.07900000 1242342.83119038 17889.73760824
0.08000000 1232730.57981319 25462.05132049
0.08100000 1223088.89519729 21061.59176347
0.08200000 1213419.24987696 18128.48444384
0.08300000 1203724.58134055 15166.93043671
0.08400000 1194008.54422618 18268.33158415
0.08500000 1184272.97287956 21387.97089427
0.08600000 1174520.11975376 19925.73476717
0.08700000 1164752.42984660 16912.20607553
0.08800000 1154971.53974220 15418.87077969
0.08900000 1145181.16227221 18551.93570019
0.09000000 1135383.31762617 17047.78131498
0.09100000 1125580.05144853 18639.60652770
0.09200000 1115772.87092517 23347.54842113
0.09300000 1105966.40440389 23391.19055234
0.09400000 1096159.23175307 28116.48561587
0.09500000 1086355.89957690 17207.87825811
0.09600000 1076558.13479835 15663.92159764
0.09700000 1066770.18727633 20385.97923725
0.09800000 1056991.33993534 20405.21877686
0.09900000 1047225.76635521 18850.06468077
0.10000000 1037472.62234911 25148.33754840
0.10100000 1027735.77994688 17296.79399001
0.10200000 1018017.56852620 20446.88382559
0.10300000 1008319.07963231 23594.66757331
0.10400000 998643.02479980 25165.80540888
0.10500000 988992.75441765 18869.98264211
0.10600001 979364.63805799 20434.44413459
0.10700001 969767.00937731 18852.27154944
0.10800001 960196.80385606 17269.14033007
0.10900001 950658.82898711 15685.87141655
0.11000001 941153.77574505 15670.21110374
0.11100001 931682.35809197 23478.39652912
0.11200001 922247.88287098 17195.31258564
0.11300001 912850.17377146 20292.66031833
0.11400001 903492.18558735 21819.33730929
0.11500001 894175.42142986 17114.51837206
0.11600001 884900.65454152 17083.00794039
0.11700001 875670.17680648 23249.04428912
0.11800001 866483.44017363 21653.42218978
0.11900001 857342.91767151 18518.60789396
0.12000001 848249.67680801 15395.73235928
0.12100001 839206.83360171 24571.97724540
0.12200001 830213.52050623 24507.90427994
0.12300001 821272.52586311 22913.50455114
0.12400001 812382.86212962 21325.05113569
0.12500001 803546.45722395 16705.73163287
0.12600001 794766.25763613 22710.44688215
0.12700001 786041.38498965 19619.59389394
0.12800001 777372.64123920 16546.37744859
0.12900001 768762.09732851 22486.29240668
0.13000001 760210.16280650 16431.94344358
0.13100001 751716.81312663 16372.39296165
0.13200001 743283.76024970 16311.36288760
0.13300001 734912.95555021 26589.15198530
0.13400001 726602.84056867 16185.07903672
0.13500001 718356.50809136 16119.92080160
0.13600001 710172.06834455 20431.65136964
0.13700001 702052.36245681 15985.73304692
0.13800001 693995.79763755 18810.75698200
0.13900001 686005.93801750 17287.35045328
0.14000001 678080.98508181 14341.41351083
0.14100001 670221.98266909 17130.87468496
0.14200001 662429.16133946 14209.10618091
0.14300001 654704.49563393 19798.26488181
0.14400001 647044.57933427 18295.18634366
0.14500001 639454.37174728 15404.45654205
0.14600001 631931.48623940 19507.72590047
0.14700001 624478.57418471 20795.13750139
0.14800001 617091.32047832 16550.38999605
0.14900001 609774.05534803 16463.90027118
0.15000001 602525.13876057 19106.07305158
0.15100001 595345.71095699 17646.04770539
0.15200001 588235.67769493 16200.01132815
0.15300001 581196.12738722 18795.88364666
0.15400001 574223.09667107 14685.75639040
0.15500001 567321.33959433 14602.85197031
0.15600001 560486.41935914 18479.23811840
0.15700001 553724.35753666 14435.59468229
0.15800001 547027.87839888 13046.61551560
0.15900001 540402.96591185 12969.67179406
0.16000001 533844.62487913 12892.34829938
0.16100001 527358.24677227 14096.28660163
0.16200001 520939.32270373 20379.14726619
0.16300001 514588.56059623 13924.76710709
0.16400001 508306.74398857 15096.71100917
0.16500001 502092.43854887 15002.52277213
0.16600001 495947.07451017 17392.86472424
0.16700001 489867.68640208 13579.13290820
0.16800001 483855.37257238 15945.45455601
0.16900001 477911.90479781 14624.10497733
0.17000001 472033.76250532 15739.96655398
0.17100001 466221.63378698 14434.22246365
0.17200001 460476.04379455 11949.35390075
0.17300001 454796.07573392 16618.24939211
0.17400001 449181.29522202 12970.11051206
0.17500001 443630.89632511 16396.59870255
0.17600001 438143.24073016 12795.97394987
0.17700001 432721.55038557 16175.13231737
0.17800001 427361.42571325 11474.65482237
0.17900001 422064.91747347 12535.32864105
0.18000001 416830.59500068 15843.73166436
0.18100001 411659.71245925 15733.63495339
0.18200001 406547.31544808 12275.69676983
0.18300001 401497.22146204 18838.25052090
0.18400001 396506.33449715 11003.05130209
0.18500001 391577.07976736 12017.50114579
0.18600001 386705.17287728 11931.78867283
0.18700001 381891.68842184 14000.14995898
0.18800001 377136.05526560 12830.16920631
0.18900001 372439.68102733 13798.89083403
0.19000001 367795.97970777 12644.82637981
0.19100001 363213.25360379 12552.65063766
0.19200001 358682.44763135 17652.55749428
0.19300001 354209.49812940 11338.24657088
0.19400001 349788.48619621 14323.83918659
0.19500001 345422.42962131 11170.96190184
0.19600001 341109.07724369 12095.72845066
0.19700001 336847.95551886 15006.57712754
0.19800001 332639.04897618 14893.91412178
0.19900001 328481.71464405 10839.89709555
0.20000001 324373.70092862 11735.84105425
0.20100001 320317.09118416 10676.16915375
0.20200001 316308.41110401 10594.75073067
0.20300001 312349.89934509 10513.69810888
0.20400001 308438.72701649 14226.73695607
0.20500001 304574.89115537 9411.36458155
0.20600001 300757.96460628 10272.38876668
0.20700001 296987.72929800 10192.61935130
0.20800001 293261.61710299 12871.25298308
0.20900001 289583.07676259 10034.05408415
0.21000001 285946.72717640 9955.23577725
0.21100001 282355.02879774 11672.55744230
0.21200001 278805.92211614 8907.84963272
0.21300001 275298.53383902 15906.75003722
0.21400001 271834.35853521 11396.65602038
0.21500001 268412.28044703 11305.52578693
0.21600001 265029.66708698 10352.05928585
0.21700001 261687.59051143 12835.77692146
0.21800001 258385.36163710 10185.55143731
0.21900001 255121.09044099 10102.79565914
0.22000001 251895.10735049 14195.54944594
0.22100001 248708.60170840 11594.79555989
0.22200001 245559.45777939 9035.36067622
0.22300001 242445.64700589 10590.02636197
0.22400001 239367.57148816 11310.11828763
0.22500001 236327.82833163 10414.96788707
0.22600001 233321.10202143 9533.50067942
0.22700001 230351.10236451 11029.21130277
0.22800001 227413.67688069 8592.82618729
0.22900001 224509.44732594 9294.69155885
0.23000001 221639.65517742 7679.81441509
0.23100001 218803.09622331 11421.52216301
0.23200001 215996.91077507 9813.82010520
0.23300001 213223.43037095 8980.97131197
0.23400001 210481.76712467 8161.43090626
0.23500001 207768.88785880 8826.02277368
0.23600001 205088.50499166 8019.98636702
0.23700001 202437.04374744 9395.10364469
0.23800001 199815.41909625 9312.39804745
0.23900001 197222.42767333 7100.00773207
0.24000001 194658.18523950 7036.89372926
0.24100001 192123.26245005 6974.07475682
0.24200001 189615.47097068 11749.52321447
0.24300001 187135.58735572 13013.40936029
0.24400001 184682.39897944 10180.61772532
0.24500001 182255.88263064 8070.29086464
0.24600001 179856.28351799 9995.51342935
0.24700001 177482.56224101 7922.82195323
0.24800001 175134.65173369 12428.43114823
0.24900001 172811.23767120 8424.54823501
0.25000001 170513.95486929 7061.83577499
0.25100001 168240.08492219 8903.26571529
0.25200001 165992.38706156 6299.41138701
0.25300001 163768.52740741 7487.49742730
0.25400001 161567.97834752 6179.97546417
0.25500001 159390.65179101 7344.72158202
0.25600001 157237.30142119 7273.79790789
0.25700001 155106.21491301 6002.61080114
0.25800001 152998.57226898 7727.19325805
0.25900001 150913.32084826 7062.74374987
0.26000001 148850.13099902 6410.23119478
0.26100001 146808.35043281 6923.48213400
0.26200001 144789.24096078 9139.09732188
0.26300001 142790.72181816 6785.41542187
0.26400001 140814.01921480 8955.77204583
0.26500001 138858.70794231 9418.78660541
0.26600001 136923.26435796 7128.91009613
0.26700001 135009.53024055 7055.59838424
0.26800001 133116.55669846 7519.75464374
0.26900001 131242.48856805 6378.38524624
0.27000001 129389.58302835 6837.59283870
0.27100001 127556.05442207 5724.71599337
0.27200001 125743.71098163 7208.88729173
0.27300001 123949.86715932 6113.20773760
0.27400001 122173.67427731 6551.56359317
0.27500001 120419.51332266 6979.51532249
0.27600001 118682.08754704 5917.48916515
0.27700001 116965.44450299 5852.95111993
0.27800001 115266.43401646 5306.29054108
0.27900001 113587.23147301 5724.79673718
0.28000001 111925.00857247 6132.93113499
0.28100001 110282.05873269 7463.89008829
0.28200001 108657.82059371 5535.02964301
0.28300001 107051.26966080 5928.49959441
0.28400001 105462.48857523 4508.52159998
0.28500001 103891.90871430 4456.96309480
0.28600001 102338.95693203 8370.81537846
0.28700001 100803.71482893 6096.60896142
0.28800001 99285.18925144  5595.21710510
0.28900001 97785.98682689  7656.64313096
0.29000001 96302.41801321  5044.32089430
0.29100001 94837.13744137  5400.02686152
0.29200001 93388.54106618  6977.52517604
0.29300001 91957.23699498  4866.37721213
0.29400001 90542.21269373  5208.44103176
0.29500001 89145.06678318  4749.64938304
0.29600001 87763.96985287  5864.82756304
0.29700001 86399.54682678  4634.47191118
0.29800001 85051.51124313  5340.38464376
0.29900001 83720.74492568  4520.92044000
0.30000001 82405.47176919  3720.60722651
0.30100001 81107.63191438  4041.59348962
0.30200001 79824.50190009  4353.62853973
0.30300001 78558.56976913  4298.72514127
0.30400001 77308.79072655  4244.25281182
0.30500001 76074.54727188  4190.18626211
0.30600001 74855.43093075  4825.92986058
0.30700001 73653.29486709  3743.06062235
0.30800001 72466.55793571  4030.59014321
0.30900001 71295.16354763  3646.74778811
0.31000001 70139.89374328  4580.83667725
0.31100001 68999.00324381  3874.98420563
0.31200001 67874.28272032  3186.69772460
0.31300001 66764.40105795  4402.44481420
0.31400001 65670.85066270  4344.12697702
0.31500001 64591.21607376  3367.78616554
0.31600002 63527.08811063  4833.14109229
0.31700002 62477.77666985  3874.24711474
0.31800002 61443.54161355  4704.11776867
0.31900002 60424.18869091  3480.43343339
0.32000002 59419.82678659  3147.17127477
0.32100002 58429.25306035  3386.55966773
0.32200002 57454.60601996  2783.67579348
0.32300002 56492.36341901  3294.63479060
0.32400002 55545.50824647  3520.19675181
0.32500002 54612.74452927  3471.73233412
0.32600002 53694.67192869  3687.21329594
0.32700002 52789.96386435  2856.99297962
0.32800002 51899.89263807  3585.76375216
0.32900002 51023.18128663  2778.21235262
0.33000002 50161.34149490  2739.56179547
0.33100002 49310.70241022  2701.24040595
0.33200002 48476.57542832  2905.68606877
0.33300002 47654.61962001  2387.49655602
0.33400002 46846.61394062  2589.44670819
0.33500002 46050.68415150  2320.95459115
0.33600002 45269.37276530  2288.36690166
0.33700002 44499.87253101  2481.75800858
0.33800002 43744.66113380  2669.29934880
0.33900002 43001.14661703  2412.36443946
0.34000002 42271.04395889  2594.59680107
0.34100002 41553.39845409  2558.02732998
0.34200002 40849.08179943  2311.85389393
0.34300002 40155.85460478  2279.24641531
0.34400002 39476.66351081  2655.79266347
0.34500002 38808.50357938  3021.24214674
0.34600002 38153.67516567  2978.84832964
0.34700002 37509.16931254  2349.57447702
0.34800002 36878.24687797  3088.92210479
0.34900002 36258.19401996  2664.97738668
0.35000002 35650.23849810  2627.77920415
0.35100002 35054.19299502  2221.03377336
0.35200002 34468.46405326  2555.14736129
0.35300002 33894.52587373  2159.75929097
0.35400002 33332.16104022  2129.92519135
0.35500002 32781.03914628  2275.65984532
0.35600002 32239.88819690  2244.37992313
0.35700002 31710.02015747  2554.24224467
0.35800002 31191.59415891  1847.63416752
0.35900002 30683.42146207  1656.90483743
0.36000002 30186.19215482  2124.95709739
0.36100002 29698.32215771  1612.61896955
0.36200002 29222.21097680  2227.60924828
0.36300002 28754.92571983  1727.02092054
0.36400002 28297.84187231  1704.23760748
0.36500002 27850.45088339  2140.58575629
0.36600002 27413.33910440  1509.10438918
0.36700002 26985.17360015  1638.53981862
0.36800002 26568.16162556  2058.76694189
0.36900002 26159.40695239  2032.58601648
0.37000002 25759.57376892  2006.92848740
0.37100002 25368.89850450  1557.14306397
0.37200002 24988.14554620  1677.70417144
0.37300002 24615.52207506  1657.11702459
0.37400002 24251.86108380  1909.83415082
0.37500002 23897.20575640  1886.92345591
0.37600002 23551.08794154  1331.81408618
0.37700002 23212.97526337  1447.79333576
0.37800002 22883.11547032  1951.35776417
0.37900002 22562.07329325  1671.84971023
0.38000002 22248.78732062  1525.82190673
0.38100002 21942.50803487  1885.95865494
0.38200002 21645.12998932  2611.37683127
0.38300002 21354.70651404  1599.04049952
0.38400002 21072.69501534  1216.94819479
0.38500002 20796.77509654  1324.54666865
0.38600002 20529.63269387  1549.26880464
0.38700002 20268.56733146  1769.44601186
0.38800002 20015.02491117  1868.60281423
0.38900002 19767.84753781  1387.70296290
0.39000002 19528.64416121  1603.49704804
0.39100002 19294.95832714  1134.54360339
0.39200002 19068.54737425  2023.36365774
0.39300002 18848.08965584  1225.31436658
0.39400002 18635.45371417  1435.39589034
0.39500002 18427.89250881  1970.31036039
0.39600002 18226.44977099  2062.23175704
0.39700002 18031.05995113  1291.74519610
0.39800002 17841.74177114  1281.39395471
0.39900002 17657.93795217  1271.37159279
0.40000002 17479.78103112  1471.97243037
0.40100002 17307.46147828  1565.45996488
0.40200002 17140.92835858  1036.16916837
0.40300002 16978.92971739  1234.70782755
0.40400002 16822.73187008  1124.17911048
0.40500002 16671.69095108  1319.89783513
0.40600002 16525.56110147  1412.43977427
0.40700002 16384.41745169  1203.27167466
0.40800002 16248.24912879  1395.56218380
0.40900002 16116.49217335  991.16431562
0.41000002 15989.85408858  1084.35200640
0.41100002 15867.38444119  980.60440493
0.41200002 15749.05953227  975.65428425
0.41300002 15635.90492711  970.98974198
0.41400002 15526.41549594  1159.82329250
0.41500002 15421.32290181  962.29059467
0.41600002 15319.57669546  1629.00726510
0.41700002 15222.35580206  1336.21845562
0.41800002 15129.77484942  1141.08767321
0.41900002 15039.15177403  1136.95992799
0.42000002 14953.52927326  1133.17850202
0.42100002 14871.52837655  1129.64134901
0.42200002 14793.19781586  938.62844589
0.42300002 14717.53367342  1216.84574178
0.42400002 14645.39341930  1027.00826219
0.42500002 14576.79129980  1304.03981147
0.42600002 14510.53979487  1115.28014148
0.42700002 14448.59791310  1113.12003597
0.42800002 14388.79732609  1111.10298217
0.42900002 14333.01634110  1479.16735649
0.43000002 14279.50889479  1384.75544069
0.43100002 14227.94600634  1014.16803939
0.43200002 14180.10051115  1105.19708621
0.43300002 14134.75892344  1012.19013447
0.43400002 14091.99340487  1103.40313589
0.43500002 14051.44205400  1102.75722466
0.43600002 14013.76859129  1194.18334710
0.43700002 13977.86866265  918.34601466
0.43800002 13944.15927658  1010.04522506
0.43900002 13913.46825178  1010.11784295
0.44000002 13884.38986363  1010.29767630
0.44100002 13857.74747909  1286.27618197
0.44200002 13832.91872599  1103.03699148
0.44300002 13810.13018245  1287.65659923
0.44400002 13789.67392130  1012.50685566
0.44500002 13769.76237154  1013.31686094
0.44600002 13752.07812612  1014.28457026
0.44700002 13737.20620683  1015.45433093
0.44800002 13722.36560760  924.20136747
0.44900002 13710.80705362  1110.57542398
0.45000002 13700.23028183  1204.86680924
0.45100002 13690.85253168  1113.88781477
0.45200002 13683.20095805  1394.66032375
0.45300002 13676.51256434  1024.50760475
0.45400002 13671.58379945  933.08563853
0.45500002 13668.06448504  1028.38522059
0.45600002 13665.56453973  936.77449360
0.45700002 13664.42568152  1126.49530657
0.45800002 13663.95590323  1034.83974938
0.45900002 13664.75058486  1320.01496906
0.46000002 13667.42409579  1323.14338942
0.46100002 13669.90281325  1136.78917183
0.46200002 13674.33641967  1139.61925123
0.46300002 13679.59156268  1142.51954146
0.46400002 13685.06908963  1145.44033709
0.46500002 13691.97951158  1339.89717851
0.46600002 13699.41805551  1535.43084843
0.46700002 13707.34334185  1347.15776749
0.46800002 13717.09480280  1157.99719814
0.46900002 13726.39512083  1161.25308226
0.47000002 13736.76957956  1164.60338015
0.47100002 13747.75201232  1362.67724405
0.47200002 13759.61339072  976.24461634
0.47300002 13772.07746430  1175.03370495
0.47400002 13784.27386872  982.12955970
0.47500002 13797.45099456  1773.24848587
0.47600002 13811.73733482  1087.05283846
0.47700002 13825.36839068  991.27896060
