# SAXS profile: number of points = 501, q_min = 0, q_max = 0.5, delta_q = 0.001
#    q    intensity    error
0.00000000 1682732.95097188 252.40994265
0.00100000 1682645.52226578 555.27303553
0.00200000 1682383.20678591 757.07246703
0.00300000 1681946.21475062 1311.91809424
0.00400000 1681334.44174149 1639.30114299
0.00500000 1680548.52199025 1966.24184855
0.00600000 1679588.33247674 2116.28138508
0.00700000 1678454.57607670 2014.14557500
0.00800000 1677147.07289071 2490.56350839
0.00900000 1675667.26671169 3770.25151127
0.01000000 1674014.49275670 3038.33643555
0.01100000 1672190.35482151 3310.93704670
0.01200000 1670194.80232358 3908.25600879
0.01300000 1668029.11239844 3502.86129053
0.01400000 1665693.59142075 4497.37289621
0.01500000 1663189.61315599 5189.15182411
0.01600000 1660517.04664962 6351.47798737
0.01700000 1657677.94763942 4475.73065940
0.01800000 1654672.94517714 6130.56353774
0.01900000 1651502.99206741 7431.76379964
0.02000000 1648168.85736776 6230.07856267
0.02100000 1644673.26779050 6512.90643574
0.02200000 1641014.88244576 7926.10224231
0.02300000 1637196.91259458 6483.30006898
0.02400000 1633219.83897443 6737.03214296
0.02500000 1629086.22265142 6353.43655851
0.02600000 1624796.31675884 8554.55299901
0.02700000 1620352.19209149 8166.57542218
0.02800000 1615754.17325402 7028.53097598
0.02900000 1611005.90212961 10149.33764942
0.03000000 1606107.87217841 8962.08233870
0.03100000 1601061.59720939 10759.13442831
0.03200000 1595868.57257193 9479.45975768
0.03300000 1590532.88128881 10545.23348909
0.03400000 1585053.00581649 9153.68153094
0.03500000 1579433.00590185 10234.72635086
0.03600000 1573673.45281603 8733.88806675
0.03700000 1567777.81978613 10723.60078328
0.03800000 1561747.14771748 11877.08760806
0.03900000 1555584.33771205 11200.20775021
0.04000000 1549289.29482064 9528.12960467
0.04100000 1542866.36363966 11664.07024994
0.04200000 1536316.92055938 11891.09351679
0.04300000 1529642.85715682 14133.90065620
0.04400000 1522847.01754824 11307.13963042
0.04500000 1515931.92058360 12551.91688566
0.04600000 1508897.70555836 11701.50225057
0.04700000 1501749.07035782 11893.85319039
0.04800000 1494487.32645094 15378.27530470
0.04900000 1487115.20543081 14499.37392786
0.05000000 1479634.49948428 12451.12489296
0.05100000 1472049.27649291 13778.38186983
0.05200000 1464358.60798608 13969.98177121
0.05300000 1456567.97375806 21236.76204741
0.05400000 1448678.46933580 15537.07730818
0.05500000 1440693.69632663 12101.82761369
0.05600000 1432614.67724493 17148.39848684
0.05700000 1424446.14368620 19828.29124567
0.05800000 1416187.61237490 17546.56533662
0.05900000 1407842.98784202 19005.88122355
0.06000000 1399416.25681803 14085.12528291
0.06100000 1390908.47750526 16816.08427888
0.06200000 1382322.74000288 18288.13070509
0.06300000 1373662.48842848 17143.30865713
0.06400000 1364926.59590752 19962.05239871
0.06500000 1356122.12713827 13425.60968669
0.06600000 1347249.83832211 14893.84765951
0.06700000 1338311.43290771 15015.85497995
0.06800000 1329311.04361743 13758.36994546
0.06900000 1320252.14092325 18021.44256735
0.07000000 1311134.06094443 13963.57840295
0.07100000 1301961.89009935 18279.54579317
0.07200000 1292737.15712462 19817.66154711
0.07300000 1283463.56037572 18520.38004401
0.07400000 1274143.82152949 15767.53053036
0.07500000 1264778.69754335 18744.02117617
0.07600000 1255371.44183671 14499.54083296
0.07700000 1245926.15465534 21866.00503947
0.07800000 1236443.51634948 19047.41326262
0.07900000 1226926.12394620 17667.73701351
0.08000000 1217378.71076549 23665.84324747
0.08100000 1207802.31071925 14855.96911886
0.08200000 1198198.38111702 19392.84170839
0.08300000 1188570.11275367 14975.98412355
0.08400000 1178920.87255803 18037.49019679
0.08500000 1169252.52065347 16591.69404697
0.08600000 1159567.51747056 16645.59249483
0.08700000 1149868.19359390 19731.73912863
0.08800000 1140156.18854185 16743.19441506
0.08900000 1130435.11570990 18313.04973466
0.09000000 1120706.91906679 22946.47524581
0.09100000 1110973.75271416 24530.30161239
0.09200000 1101237.25944116 19970.93863833
0.09300000 1091501.81545237 20007.22921742
0.09400000 1081766.22423861 20039.72024584
0.09500000 1072034.71013235 18524.76066180
0.09600000 1062309.13172560 15456.59859319
0.09700000 1052594.05512836 18567.76000539
0.09800000 1042888.16835148 15486.89002818
0.09900000 1033195.96602931 21697.11630687
0.10000000 1023516.54741650 15506.27642258
0.10100000 1013853.93097025 24819.14539744
0.10200000 1004210.19200793 15515.04819629
0.10300000 994586.47110490 15515.54967910
0.10400000 984985.63418218 17064.87691502
0.10500000 975410.87987789 20161.74383567
0.10600001 965858.36353647 17052.23021060
0.10700001 956336.67842389 20140.45139537
0.10800001 946842.84784243 20125.14567801
0.10900001 937381.64585128 17013.47767295
0.11000001 927953.41579651 15450.42510026
0.11100001 918559.12892543 15431.79409237
0.11200001 909201.94069306 16952.07098228
0.11300001 899881.88312863 18465.57711117
0.11400001 890601.66677233 16899.16742269
0.11500001 881362.90144244 19936.42976939
0.11600001 872166.44327063 21429.13052029
0.11700001 863014.27393287 19857.95937840
0.11800001 853906.18219388 16766.44867705
0.11900001 844844.42117128 22810.80044605
0.12000001 835830.23178588 16687.35136366
0.12100001 826866.61630443 19671.15772855
0.12200001 817952.51729158 25655.08191349
0.12300001 809090.71149577 22573.63191428
0.12400001 800280.87651442 16505.79385582
0.12500001 791524.04739584 16455.78572076
0.12600001 782823.52140634 22369.18317830
0.12700001 774178.51612786 20809.91949421
0.12800001 765589.79570002 17776.99589397
0.12900001 757059.15858259 16238.91971697
0.13000001 748587.37952200 14709.74270095
0.13100001 740174.24156855 20517.63094343
0.13200001 731821.40905965 16059.82157888
0.13300001 723530.94519032 18905.86448910
0.13400001 715301.25507520 23175.76175707
0.13500001 707135.11161924 23080.89113147
0.13600001 699031.09334907 17238.10757478
0.13700001 690991.76651307 17164.23628953
0.13800001 683015.67434434 15664.96522978
0.13900001 675106.00521291 21265.84016707
0.14000001 667261.40606397 15523.83734419
0.14100001 659482.72015469 19665.77564251
0.14200001 651770.23173228 15378.51934306
0.14300001 644125.69646725 15304.42726994
0.14400001 636546.16929844 13844.87983530
0.14500001 629035.95175605 17908.65439128
0.14600001 621593.17345491 16447.35614551
0.14700001 614220.16517682 16362.82597225
0.14800001 606912.81897582 20346.75321610
0.14900001 599675.39453502 16191.23641636
0.15000001 592506.05757640 17446.34168851
0.15100001 585406.33231370 18686.17100916
0.15200001 578375.66706555 13273.72218550
0.15300001 571415.40847244 14519.66621445
0.15400001 564521.52636522 19687.68916107
0.15500001 557698.91338452 22185.26382142
0.15600001 550943.02716662 16867.12157275
0.15700001 544259.58396959 18058.53384842
0.15800001 537641.63335163 15387.30427278
0.15900001 531095.31329913 22943.31861746
0.16000001 524615.14880213 15203.34772992
0.16100001 518206.77995805 12592.42534740
0.16200001 511865.72891398 13766.62942901
0.16300001 505592.72317203 16168.85605034
0.16400001 499388.29013236 14831.83291714
0.16500001 493251.27459586 18422.93597593
0.16600001 487182.85200359 13424.32412076
0.16700001 481180.27291965 14550.89214011
0.16800001 475244.44307606 27709.12856187
0.16900001 469377.40899109 13166.03694387
0.17000001 463575.32844522 16646.99083053
0.17100001 457839.08016021 15355.92347370
0.17200001 452169.11557452 12907.16801359
0.17300001 446564.33689975 20979.59353830
0.17400001 441024.45504781 15049.96023926
0.17500001 435548.87853155 16097.88731079
0.17600001 430135.71846703 11420.10386466
0.17700001 424788.10197345 14744.39571589
0.17800001 419501.94913355 16895.44179936
0.17900001 414279.00669669 12304.08708006
0.18000001 409117.92742806 12218.30747977
0.18100001 404020.04958249 12132.72266207
0.18200001 398980.33288820 12047.21172064
0.18300001 394002.32838550 15224.25068800
0.18400001 389083.56741918 17275.31120951
0.18500001 384226.02671041 13935.87864715
0.18600001 379425.34420912 11707.16954866
0.18700001 374682.79470865 14792.47743397
0.18800001 369997.67767848 11538.37812355
0.18900001 365371.75743446 10413.09557887
0.19000001 360798.01308478 13437.92263227
0.19100001 356284.74739107 16417.60193551
0.19200001 351823.20001976 13240.86675839
0.19300001 347418.97462060 10109.89263918
0.19400001 343066.44812682 15052.04112283
0.19500001 338768.47996345 9959.79378158
0.19600001 334522.89301046 15816.24312895
0.19700001 330329.03577684 15697.23652193
0.19800001 326187.01808601 18499.69760502
0.19900001 322096.20876541 10629.17539159
0.20000001 318054.33898954 12466.14040586
0.20100001 314063.48735330 11419.34893987
0.20200001 310120.13792404 14164.73796916
0.20300001 306226.57482920 9370.53363267
0.20400001 302379.98503616 13947.27746902
0.20500001 298580.13374158 11071.35188245
0.20600001 294826.82912154 9154.37347693
0.20700001 291119.95710894 9082.94309114
0.20800001 287456.67875821 9912.94403556
0.20900001 283840.68598679 9835.08023436
0.21000001 280266.36130545 11531.55998104
0.21100001 276736.14597374 12320.29380117
0.21200001 273248.29864998 8730.28355459
0.21300001 269801.63067323 10392.75930486
0.21400001 266397.72511258 9450.45974515
0.21500001 263035.48345171 11079.05508678
0.21600001 259712.27161859 10144.36180903
0.21700001 256429.25603195 12577.85560304
0.21800001 253185.46997953 8317.14308207
0.21900001 249979.42075595 11549.04978498
0.22000001 246811.07919536 8999.96642840
0.22100001 243681.83465388 8926.06602543
0.22200001 240589.37049917 8047.71482373
0.22300001 237531.91645756 13567.82370962
0.22400001 234509.85982217 11080.59140056
0.22500001 231525.48297936 7848.71424414
0.22600001 228573.56894349 10896.10254679
0.22700001 225658.12519168 7717.50824651
0.22800001 222774.90603034 9948.01389923
0.22900001 219924.29875504 8346.12753245
0.23000001 217107.70384702 11284.17344110
0.23100001 214323.86875496 9696.01228103
0.23200001 211570.09170374 11831.00008760
0.23300001 208848.29354685 10995.86317529
0.23400001 206157.92162159 13080.72074555
0.23500001 203496.11170580 7924.13896461
0.23600001 200866.11589265 7140.79075772
0.23700001 198264.72805724 8493.66135170
0.23800001 195692.63745058 7717.13952287
0.23900001 193148.83578051 9039.36594209
0.24000001 190633.17131068 8958.80630950
0.24100001 188146.44389739 6829.71623653
0.24200001 185686.53617654 9475.58438930
0.24300001 183253.86642264 10060.63774250
0.24400001 180847.42682161 7975.37190010
0.24500001 178467.44165423 9219.62847199
0.24600001 176113.62063351 7177.51094845
0.24700001 173785.43836380 8404.26419684
0.24800001 171482.64065292 8326.34001079
0.24900001 169203.89313875 8248.69018074
0.25000001 166950.70106719 6914.26361180
0.25100001 164720.59114861 8717.01409598
0.25200001 162516.18320755 8634.48522231
0.25300001 160335.21460962 7330.52635876
0.25400001 158177.01873592 6655.29837818
0.25500001 156041.68506653 7190.40118806
0.25600001 153929.86089030 7714.19534350
0.25700001 151839.94319550 7639.06790360
0.25800001 149772.80576461 7564.27591304
0.25900001 147727.79426293 6337.52267374
0.26000001 145704.51446765 7415.63161471
0.26100001 143701.98035094 6776.98571401
0.26200001 141721.90507399 8945.48707154
0.26300001 139761.92020554 6641.48676243
0.26400001 137823.26601616 7669.86511672
0.26500001 135905.63379534 6507.16205403
0.26600001 134007.47828427 5903.69973517
0.26700001 132130.53866604 6373.97748687
0.26800001 130274.02339729 6307.86851139
0.26900001 128435.91060168 5721.82008807
0.27000001 126618.70950589 6176.46094198
0.27100001 124820.35207666 6620.47178745
0.27200001 123042.76226895 6550.18175936
0.27300001 121283.36947740 6480.17073785
0.27400001 119541.15405847 4931.07283827
0.27500001 117820.66396704 5365.55329099
0.27600001 116116.41573358 5307.10103227
0.27700001 114432.63831913 6203.39361687
0.27800001 112765.99196171 4719.25698695
0.27900001 111118.82349965 4666.99080786
0.28000001 109488.34186056 4614.93382784
0.28100001 107876.68131437 5475.82060268
0.28200001 106283.34820187 4511.72834471
0.28300001 104707.31557010 5352.63822528
0.28400001 103148.62025370 4850.56409701
0.28500001 101607.91378567 4794.87767849
0.28600001 100084.39298816 5601.22331870
0.28700001 98578.10938469  5110.28943239
0.28800001 97088.28420708  4208.77731959
0.28900001 95617.50369032  4575.29776815
0.29000001 94161.90768074  4521.18421130
0.29100001 92724.20950274  6091.98085269
0.29200001 91302.99694168  4815.32028664
0.29300001 89898.63120854  5153.88877115
0.29400001 88510.13109298  4699.88818351
0.29500001 87139.29811853  3868.98501961
0.29600001 85784.09946165  5732.52271789
0.29700001 84445.27390219  4152.17431433
0.29800001 83122.58631894  4100.85299017
0.29900001 81816.72469256  4786.27862109
0.30000001 80526.00961488  5090.04930872
0.30100001 79252.53802475  3949.15415673
0.30200001 77993.28465157  5317.19243284
0.30300001 76751.07529357  5249.77379861
0.30400001 75524.66901690  4491.82990243
0.30500001 74313.54766282  4093.19039905
0.30600001 73117.10499243  3703.74712874
0.30700001 71937.48400596  3988.21430211
0.30800001 70772.78876162  3608.35080584
0.30900001 69623.36516521  3561.23529680
0.31000001 68489.63896052  3834.05017053
0.31100001 67370.09875015  3468.21284786
0.31200001 66266.38825314  4044.56919852
0.31300001 65177.25291694  4911.75801237
0.31400001 64104.05623762  4543.37520096
0.31500001 63044.59550958  2988.31396864
0.31600002 62000.46509238  3537.74670568
0.31700002 60970.87836470  3489.97324284
0.31800002 59955.99714056  4016.45243862
0.31900002 58955.80862132  3395.85473738
0.32000002 57970.19596886  3070.39157487
0.32100002 56998.28070812  3028.31879741
0.32200002 56042.00848180  2986.75898346
0.32300002 55097.99018807  2677.76244993
0.32400002 54168.97818189  3168.88537369
0.32500002 53253.91362035  4166.58639895
0.32600002 52353.17325039  3338.30025039
0.32700002 51465.62756809  3291.74169513
0.32800002 50592.64995860  2996.09687242
0.32900002 49732.64826813  2954.11944702
0.33000002 48887.23066464  2669.97622918
0.33100002 48052.88894439  2871.64077930
0.33200002 47234.81413699  3775.00652459
0.33300002 46428.81360429  2791.30040607
0.33400002 45636.33818018  2751.87132258
0.33500002 44855.95014262  2938.96199252
0.33600002 44089.81037281  2451.61402188
0.33700002 43335.42411278  2416.81671722
0.33800002 42595.00392109  2599.14726235
0.33900002 41866.17290170  3416.27987057
0.34000002 41150.59215167  2525.82346589
0.34100002 40447.14325198  3942.38323948
0.34200002 39756.89900043  3886.43584584
0.34300002 39077.65603911  2822.97000596
0.34400002 38412.16874357  2981.74473993
0.34500002 37757.61461771  1959.62029147
0.34600002 37116.09936494  2704.65028882
0.34700002 36484.91013939  3618.57355900
0.34800002 35866.91379125  2065.39632849
0.34900002 35259.80029926  2591.59544474
0.35000002 34664.54028814  2555.12338566
0.35100002 34081.09610843  2159.37835170
0.35200002 33507.73309244  2661.35182692
0.35300002 32946.11281840  2274.27027557
0.35400002 32395.79343196  2070.09129835
0.35500002 31856.61998244  1701.14358764
0.35600002 31327.28645741  2516.36440388
0.35700002 30809.20991579  1985.34558101
0.35800002 30302.20926951  1631.77404645
0.35900002 29805.48139742  1770.44567886
0.36000002 29319.52446476  1905.18278996
0.36100002 28842.84103304  1722.78297651
0.36200002 28377.65135710  1854.19582750
0.36300002 27921.32070921  1829.40501952
0.36400002 27474.98505182  1504.25550284
0.36500002 27038.26755591  2226.60143870
0.36600002 26611.63392420  1611.46756861
0.36700002 26193.95368579  1879.67820553
0.36800002 25787.16559281  2283.71149308
0.36900002 25388.63682601  1690.88329271
0.37000002 24998.87122388  1530.30597446
0.37100002 24618.21249660  1511.06595462
0.37200002 24247.21761409  1763.62145670
0.37300002 23884.40164543  1741.88949452
0.37400002 23530.38590282  2250.09325855
0.37500002 23185.28639147  1438.41523587
0.37600002 22848.63850707  1421.29962566
0.37700002 22519.90832430  1532.25463497
0.37800002 22199.30598057  1766.84284669
0.37900002 21887.43311205  1746.61724508
0.38000002 21583.26629329  1480.18047251
0.38100002 21286.01886977  1585.59562072
0.38200002 20997.48984972  1688.82818862
0.38300002 20715.96772977  2267.15561575
0.38400002 20442.68790256  1298.62181053
0.38500002 20175.54424007  1635.42969358
0.38600002 19916.92430082  1503.03076357
0.38700002 19664.43067559  1373.36390345
0.38800002 19419.35446909  1359.74326434
0.38900002 19180.53707648  1458.67991377
0.39000002 18949.61516485  1333.67397849
0.39100002 18724.28979970  1211.08712162
0.39200002 18506.00492031  1636.39356260
0.39300002 18293.70494991  1297.38961651
0.39400002 18089.05101170  1714.84211715
0.39500002 17889.49299908  1381.42671484
0.39600002 17695.98639611  1264.55524778
0.39700002 17508.41970211  1149.77797631
0.39800002 17326.96743348  1348.12476503
0.39900002 17150.92151256  1131.96087346
0.40000002 16980.43676499  1532.05997971
0.40100002 16815.83602317  1216.79395229
0.40200002 16656.80467375  1107.59427926
0.40300002 16502.32326646  1300.05308853
0.40400002 16353.62677806  1490.22431076
0.40500002 16210.01323254  1480.78477895
0.40600002 16071.33573792  981.15509329
0.40700002 15937.53943537  1950.75491932
0.40800002 15808.56007912  1260.81176885
0.40900002 15684.06819495  1061.02726366
0.41000002 15564.66467867  1247.43010978
0.41100002 15449.32358928  1241.19871597
0.41200002 15338.16030686  1520.31852165
0.41300002 15232.12798419  1135.09823117
0.41400002 15129.58026385  1035.99805766
0.41500002 15031.44912719  1125.55496398
0.41600002 14936.72301042  1308.00889600
0.41700002 14846.36592551  1023.95390640
0.41800002 14760.71174787  1577.10832143
0.41900002 14676.92377175  1017.11086558
0.42000002 14598.01105425  921.86444176
0.42100002 14522.83205413  1011.22484385
0.42200002 14451.17448665  1283.69789048
0.42300002 14382.24150204  1189.12378374
0.42400002 14316.76397487  1186.50187064
0.42500002 14254.79333811  1275.23387246
0.42600002 14195.12315160  1272.87675332
0.42700002 14139.77538312  998.55098487
0.42800002 14086.51659550  1087.76086305
0.42900002 14037.22350294  1086.48115061
0.43000002 13990.24089509  994.91602840
0.43100002 13945.08259235  1355.46209221
0.43200002 13903.67500393  1083.65248116
0.43300002 13864.70592166  1173.37011775
0.43400002 13828.22345468  992.52078549
0.43500002 13794.00477233  1082.55354583
0.43600002 13762.66666250  1443.42854797
0.43700002 13733.03520578  992.48650135
0.43800002 13705.56817460  1263.51638989
0.43900002 13681.05756053  1083.53981014
0.44000002 13658.13768236  903.48585050
0.44100002 13637.65142130  1175.42923171
0.44200002 13618.92479320  1176.47087401
0.44300002 13602.28094683  1087.09434479
0.44400002 13587.85087899  1179.08581590
0.44500002 13573.93072857  1452.95361404
0.44600002 13562.33735588  909.35476281
0.44700002 13553.41655710  1366.18445370
0.44800002 13544.61026246  1094.67545329
0.44900002 13538.99571036  1005.27047914
0.45000002 13534.29705858  1190.27381123
0.45100002 13530.80055643  1009.12715332
0.45200002 13528.96750203  1195.08140093
0.45300002 13528.17132647  1013.39536209
0.45400002 13529.11585398  1015.69842087
0.45500002 13531.33171567  1480.86901315
0.45600002 13534.61747868  1113.35768656
0.45700002 13539.14176904  930.13908362
0.45800002 13544.41594790  932.53308221
0.45900002 13550.88644936  1496.01793491
0.46000002 13559.15387658  1031.37708850
0.46100002 13567.30318301  1128.25698617
0.46200002 13577.30023230  1131.53225499
0.46300002 13588.13101734  1324.02754908
0.46400002 13599.11901316  1043.39245574
0.46500002 13611.53973964  1046.59134018
0.46600002 13624.46261149  954.39365117
0.46700002 13637.88750402  957.37974816
0.46800002 13653.01448094  1536.78338281
0.46900002 13667.71540694  963.57398186
0.47000002 13683.47447641  1256.75877285
0.47100002 13699.79069611  1066.93974998
0.47200002 13716.99050148  1265.18667887
0.47300002 13734.75236272  1562.46550284
0.47400002 13752.21806778  1077.83014215
0.47500002 13770.64640505  1474.83629988
0.47600002 13790.01663784  986.67573720
0.47700002 13808.89410438  1188.11730506
