# SAXS profile: number of points = 501, q_min = 0, q_max = 0.5, delta_q = 0.001
#    q    intensity    error
0.00000000 1700912.83420644 331.67800267
0.00100000 1700825.03584727 612.29702745
0.00200000 1700561.60472564 918.30329563
0.00300000 1700122.76244365 1224.08843257
0.00400000 1699508.40038779 1529.55761847
0.00500000 1698719.14308285 1528.84728929
0.00600000 1697754.88378109 2139.17124065
0.00700000 1696616.32069385 2443.12760334
0.00800000 1695303.25191471 2746.39138405
0.00900000 1693817.17172192 3048.87103943
0.01000000 1692157.36388148 3350.47172516
0.01100000 1690325.47551695 4868.13758144
0.01200000 1688321.40806151 3950.67226808
0.01300000 1686146.49614229 3894.99857788
0.01400000 1683800.95610928 3788.55231920
0.01500000 1681286.33455595 4842.10485913
0.01600000 1678602.32668061 5136.52334926
0.01700000 1675751.06425517 5881.88649939
0.01800000 1672733.16840397 6197.47666781
0.01900000 1669549.63109300 5509.51403121
0.02000000 1666201.11840424 8922.50739267
0.02100000 1662690.52017360 6584.25475841
0.02200000 1659016.34181578 5723.60663930
0.02300000 1655181.87890014 6554.52053880
0.02400000 1651187.55464057 10526.32114081
0.02500000 1647036.02167281 10277.50524462
0.02600000 1642727.46278974 11975.48375148
0.02700000 1638263.97650293 7568.77991810
0.02800000 1633645.93296357 12791.44824172
0.02900000 1628876.88415884 8062.94094679
0.03000000 1623957.36968986 7551.40211616
0.03100000 1618888.90722943 8547.73382348
0.03200000 1613673.02683679 8786.45003581
0.03300000 1608313.81611289 11483.36117643
0.03400000 1602809.75291745 9256.22675018
0.03500000 1597164.74534099 11212.09703005
0.03600000 1591379.59465631 8832.15715851
0.03700000 1585457.53707449 10844.53005512
0.03800000 1579399.92665058 14783.18399761
0.03900000 1573209.50440187 10383.18320990
0.04000000 1566886.15116476 13490.89038668
0.04100000 1560434.15849387 14746.10348149
0.04200000 1553855.04870787 13029.07518787
0.04300000 1547150.63011864 14295.67248587
0.04400000 1540323.77612069 14556.06036035
0.04500000 1533377.02152543 14812.42271619
0.04600000 1526310.61874057 11836.53939858
0.04700000 1519128.98653327 13125.27505408
0.04800000 1511833.68538507 14445.57153598
0.04900000 1504427.26284995 20309.76899384
0.05000000 1496911.73587145 17177.06296899
0.05100000 1489291.02037467 16263.05870009
0.05200000 1481564.17455135 11778.43573657
0.05300000 1473736.83839170 14324.72273696
0.05400000 1465810.06045342 13302.22691895
0.05500000 1457787.26837584 14694.49635072
0.05600000 1449669.71141184 13634.14427205
0.05700000 1441462.02188299 18811.08026365
0.05800000 1433163.67375029 15220.19892590
0.05900000 1424778.72776471 16669.91189343
0.06000000 1416310.92234379 14255.17009937
0.06100000 1407761.63653235 14401.40221472
0.06200000 1399133.79701456 14543.99649980
0.06300000 1390430.90534275 17352.57851000
0.06400000 1381651.70629833 14818.21524305
0.06500000 1372803.33240847 19027.05507722
0.06600000 1363886.63891902 19189.88590746
0.06700000 1354903.31087312 15202.01585943
0.06800000 1345857.36652350 15322.58683511
0.06900000 1336752.57040398 19650.26370494
0.07000000 1327587.83127858 15552.69217174
0.07100000 1318368.38175269 18509.89294677
0.07200000 1309096.11912960 20068.44444640
0.07300000 1299774.39621800 18755.74541624
0.07400000 1290406.09679017 17420.48312306
0.07500000 1280991.69973628 18984.29787993
0.07600000 1271534.73797648 17623.47229455
0.07700000 1262039.19540146 17719.03113426
0.07800000 1252505.80043788 19294.85276060
0.07900000 1242937.32040729 14915.24854447
0.08000000 1233338.17847773 23976.09531435
0.08100000 1223709.63648168 16556.79215841
0.08200000 1214053.24656723 21160.94908065
0.08300000 1204371.80748926 21245.11968119
0.08400000 1194668.98097443 18278.43626687
0.08500000 1184946.70109280 22928.71974254
0.08600000 1175207.36455353 18403.74819299
0.08700000 1165452.99482265 21537.57235568
0.08800000 1155685.75682816 15428.40557823
0.08900000 1145908.92652652 15469.77123472
0.09000000 1136124.54738576 18609.72096038
0.09100000 1126334.89876516 18652.10679985
0.09200000 1116541.38003296 18690.90357998
0.09300000 1106748.53264047 20286.70155662
0.09400000 1096955.10817351 20321.09433395
0.09500000 1087165.44512645 21917.25640392
0.09600000 1077381.34884680 18811.07923513
0.09700000 1067607.11318163 21971.35542221
0.09800000 1057842.06252002 23563.43305053
0.09900000 1048090.16562229 17293.48854595
0.10000000 1038350.68375891 17304.11495861
0.10100000 1028627.66286561 20459.40517664
0.10200000 1018923.35076613 22039.31311372
0.10300000 1009238.32796037 22041.76611952
0.10400000 999576.29359295 20466.32557416
0.10500000 989939.57582883 15740.03999624
0.10600001 980325.05129302 20454.48315768
0.10700001 970741.03685253 17298.60609074
0.10800001 961184.50162467 17286.90407527
0.10900001 951660.22892443 15702.39451630
0.11000001 942168.78814271 18824.53327315
0.11100001 932710.87421318 18803.45210928
0.11200001 923289.84579827 18779.71634763
0.11300001 913905.60307060 25004.45847724
0.11400001 904561.00395612 18724.41366352
0.11500001 895257.78854697 18692.98350508
0.11600001 885996.18090750 20214.00381931
0.11700001 876778.94356107 15518.98803190
0.11800001 867605.34923276 20132.78307717
0.11900001 858478.01452428 16997.86548821
0.12000001 849397.93863362 16958.23064364
0.12100001 840368.20129675 18454.48656983
0.12200001 831387.78937616 16873.01598030
0.12300001 822459.57643439 16827.52372667
0.12400001 813582.84731609 16780.14701653
0.12500001 804759.10898255 16730.94266412
0.12600001 795991.41757319 16680.00094127
0.12700001 787279.13921258 24185.21629637
0.12800001 778622.91529914 24106.16659377
0.12900001 770024.61148476 19520.12482116
0.13000001 761485.05764508 16459.50029681
0.13100001 753003.84168525 14909.47676817
0.13200001 744582.89189880 16339.87233299
0.13300001 736224.13936981 17757.72707875
0.13400001 727925.95312678 17688.60149492
0.13500001 719691.30217608 16149.87358227
0.13600001 711518.47244488 16083.87582798
0.13700001 703410.38429762 17472.71476985
0.13800001 695365.25504509 15948.20287651
0.13900001 687386.61904277 17322.14361676
0.14000001 679472.98060014 15807.93963917
0.14100001 671625.05723432 20027.86015130
0.14200001 663843.19262837 18511.26829953
0.14300001 656129.20633449 19841.34813542
0.14400001 648480.27708992 16925.33603041
0.14500001 640900.43449064 15439.29219518
0.14600001 633387.96902059 18156.06698848
0.14700001 625945.22447384 13895.98463888
0.14800001 618568.21750852 15207.50034492
0.14900001 611260.85579566 16504.04388516
0.15000001 604021.76930399 16417.31246430
0.15100001 596852.12980071 16329.87504187
0.15200001 589751.59094354 14888.27961590
0.15300001 582721.39434223 13460.86484451
0.15400001 575757.59328178 14725.00114307
0.15500001 568864.89461023 15973.72699450
0.15600001 562039.02969840 17206.82570629
0.15700001 555285.67614696 17108.35248955
0.15800001 548597.62415168 15700.86474428
0.15900001 541981.28170597 14308.30651240
0.16000001 535431.23285902 18102.93083747
0.16100001 528952.96087162 14138.91331152
0.16200001 522542.08411646 16609.00092769
0.16300001 516199.12799379 13968.34906293
0.16400001 509924.83880371 13882.70439183
0.16500001 503717.90590262 22576.63760843
0.16600001 497579.75879160 23682.30973780
0.16700001 491507.49976654 12385.98957892
0.16800001 485502.12586111 13538.22741886
0.16900001 479565.46690350 13451.81198181
0.17000001 473693.79545190 18225.36964061
0.17100001 467888.04782016 13278.66342417
0.17200001 462148.60880192 16789.85975064
0.17300001 456474.58380860 15488.18336005
0.17400001 450865.63323636 13018.74577452
0.17500001 445320.83589312 11756.47062281
0.17600001 439838.60251372 17516.57317240
0.17700001 434422.12584663 12758.97843873
0.17800001 429067.04355286 12672.49572988
0.17900001 423775.37194323 12586.12914120
0.18000001 418545.60147866 12499.86497859
0.18100001 413379.27012296 14670.83098966
0.18200001 408271.15292119 15689.86114792
0.18300001 403225.08555614 13354.81546449
0.18400001 398238.15920690 16576.66416008
0.18500001 393312.67573669 12070.76658861
0.18600001 388444.17342543 10895.85957934
0.18700001 383634.03138633 10818.48019621
0.18800001 378881.35351442 12889.54425554
0.18900001 374188.03579615 10664.35952405
0.19000001 369546.95779287 14822.52917742
0.19100001 364966.69655302 13664.35376459
0.19200001 360438.25094236 10434.68785783
0.19300001 355967.29647807 16573.83810718
0.19400001 351548.29251624 11311.06684620
0.19500001 347183.93416271 15310.81222009
0.19600001 342872.10001715 12158.24524116
0.19700001 338612.22746807 13073.81872038
0.19800001 334404.51387366 11978.37025304
0.19900001 330247.96413264 10898.18333142
0.20000001 326140.75474274 14749.71633033
0.20100001 322084.59159519 18542.41081449
0.20200001 318076.24444180 10653.96431112
0.20300001 314117.66985413 11534.40138221
0.20400001 310206.56255591 10492.73747440
0.20500001 306342.40405727 10412.57880608
0.20600001 302524.98446805 13150.76169644
0.20700001 298754.10413998 10253.24133875
0.20800001 295027.02747183 12948.73684783
0.20900001 291347.60865741 10095.19511719
0.21000001 287709.96391296 13659.03118246
0.21100001 284116.70373719 11745.38508774
0.21200001 280566.06634772 10756.90349230
0.21300001 277056.71814531 9782.87318020
0.21400001 273590.42290678 10587.94986705
0.21500001 270166.19781134 11379.40078980
0.21600001 266781.08835055 12157.21477091
0.21700001 263436.48054844 13782.99731395
0.21800001 260131.32611946 9399.84591376
0.21900001 256864.15081656 12714.77606659
0.22000001 253634.99438247 9248.80050746
0.22100001 250445.07203524 11675.74981035
0.22200001 247292.35853440 11580.70169775
0.22300001 244174.88517097 12306.41479453
0.22400001 241092.96584381 8136.88798199
0.22500001 238049.00298782 8876.84774118
0.22600001 235037.87230454 8803.34392346
0.22700001 232063.47548662 7936.57123696
0.22800001 229121.49440851 9444.38844614
0.22900001 226212.39824766 9365.19373034
0.23000001 223337.72078930 12381.84382612
0.23100001 220496.00852664 7673.26145962
0.23200001 217684.51197482 11412.11108000
0.23300001 214905.41253855 8297.49837054
0.23400001 212158.02236678 8974.28477056
0.23500001 209439.31721169 7414.15217995
0.23600001 206752.98641895 7350.06901483
0.23700001 204095.35550406 8014.82498973
0.23800001 201467.35795894 7944.86563689
0.23900001 198867.94855637 9307.02043266
0.24000001 196297.05237306 7096.13877894
0.24100001 193755.34553307 8439.98325064
0.24200001 191240.61480051 7667.79281313
0.24300001 188753.50700598 9671.73015649
0.24400001 186293.04697620 9584.77772032
0.24500001 183859.28514185 8141.28953120
0.24600001 181451.91883479 10756.47025736
0.24700001 179070.47935996 6661.42214732
0.24800001 176714.88867128 6600.30140411
0.24900001 174383.57439206 7193.32278397
0.25000001 172078.06827883 7774.48749263
0.25100001 169795.80952897 10911.07923652
0.25200001 167539.88828325 7629.76687338
0.25300001 165307.46180033 7557.85751108
0.25400001 163098.22058620 8110.05940235
0.25500001 160912.12619903 6796.92853222
0.25600001 158749.81270187 7343.76668304
0.25700001 156609.82425323 7272.96058243
0.25800001 154492.89797656 6602.25430741
0.25900001 152398.36947165 7726.59769779
0.26000001 150325.86702416 6473.78376971
0.26100001 148274.47901930 8158.06222165
0.26200001 146245.79622849 6346.33662762
0.26300001 144237.50213470 5711.80535480
0.26400001 142251.06278643 7350.82401732
0.26500001 140285.83172890 7836.36693118
0.26600001 138340.34281586 6094.58409115
0.26700001 136416.37956360 6580.72646155
0.26800001 134513.15739037 7055.88800480
0.26900001 132628.83577188 6445.76172354
0.27000001 130765.52182616 5847.18058516
0.27100001 128921.52907218 6311.99836208
0.27200001 127098.54697335 5725.15431935
0.27300001 125294.06264080 5664.54484006
0.27400001 123507.11820710 6623.06952729
0.27500001 121742.10962364 5544.13593464
0.27600001 119993.66841165 4985.73715846
0.27700001 118266.17717736 7890.71971471
0.27800001 116556.12648642 5365.66153674
0.27900001 114865.65223379 6754.10067100
0.28000001 113192.27133067 4771.05446239
0.28100001 111538.03788452 7077.08883872
0.28200001 109902.47698906 9330.72073799
0.28300001 108284.49185172 5535.50348546
0.28400001 106684.32328622 5016.83053999
0.28500001 105102.22010463 5410.66254708
0.28600001 103537.78511801 5794.49241839
0.28700001 101990.85910905 4846.60585426
0.28800001 100460.67742265 4354.97057241
0.28900001 98949.82767308  4304.31770752
0.29000001 97454.50127006  5955.44485451
0.29100001 95977.51139473  5885.34127731
0.29200001 94517.11912130  4569.43034021
0.29300001 93074.02952837  5335.93436544
0.29400001 91647.09563619  4460.92259126
0.29500001 90238.09799594  4407.22891475
0.29600001 88845.00803243  3958.04529521
0.29700001 87468.69588240  4300.83598013
0.29800001 86108.69555394  5406.76524978
0.29900001 84766.00794509  4195.91759191
0.30000001 83438.64800502  4520.70616292
0.30100001 82128.84046304  4836.56764383
0.30200001 80833.65785956  4408.66790837
0.30300001 79555.70141426  3990.51417185
0.30400001 78293.81691534  3581.94229345
0.30500001 77047.60390243  4243.78222386
0.30600001 75816.40523181  4189.61475146
0.30700001 74602.26996025  4480.61254594
0.30800001 73403.44664674  6464.27483499
0.30900001 72220.07301923  4701.52697614
0.31000001 71052.73551387  3977.53232238
0.31100001 69899.91556284  4579.84268451
0.31200001 68763.15851287  3874.11653404
0.31300001 67641.37295545  3823.09058045
0.31400001 66535.85922526  4086.96534642
0.31500001 65444.21711534  4032.67284958
0.31600002 64368.19464024  4284.99092008
0.31700002 63306.98890638  4529.61527072
0.31800002 62260.87433528  2979.18297800
0.31900002 61229.80098977  4408.54588000
0.32000002 60213.58466645  3769.06951066
0.32100002 59211.16516439  2859.89941286
0.32200002 58224.87568701  3103.09489667
0.32300002 57250.91124584  3060.63386013
0.32400002 56292.45512162  3018.68304884
0.32500002 55348.13454659  4330.43825198
0.32600002 54418.38825657  3203.06648445
0.32700002 53502.20726344  3422.00133861
0.32800002 52600.74726194  2855.43170033
0.32900002 51712.57078155  2559.77237490
0.33000002 50839.29087950  3533.83927638
0.33100002 49977.44853636  3235.54017146
0.33200002 49131.92007634  3190.38138124
0.33300002 48298.85114678  3145.70432416
0.33400002 47479.67867538  4294.53713956
0.33500002 46672.68488050  2587.53377231
0.33600002 45880.30054650  3246.94902344
0.33700002 45099.90660657  3658.50459718
0.33800002 44333.86722930  2705.25270645
0.33900002 43579.48683331  2222.55393375
0.34000002 42838.69408861  2848.55909832
0.34100002 42110.34181326  2376.28670106
0.34200002 41395.50614502  3194.69833804
0.34300002 40691.73044363  2309.66272936
0.34400002 40002.15890133  3105.16773178
0.34500002 39323.58785195  3061.34145926
0.34600002 38658.37553446  2012.16854187
0.34700002 38003.78494927  2182.17743514
0.34800002 37362.69902489  2933.90607988
0.34900002 36732.58218108  2121.30672143
0.35000002 36114.74077056  1901.44119163
0.35100002 35508.77901043  2249.83634466
0.35200002 34913.31036003  2957.85579379
0.35300002 34329.72959433  1822.90872780
0.35400002 33757.65738419  1797.59534085
0.35500002 33197.10897799  2127.27084407
0.35600002 32646.57490587  1923.04658591
0.35700002 32107.43310716  2413.83693533
0.35800002 31579.66755475  2040.67821405
0.35900002 31062.42560951  2180.58238107
0.36000002 30556.24099083  1820.08258083
0.36100002 30059.40246622  1795.44819435
0.36200002 29574.44897758  1932.39458773
0.36300002 29098.47667300  1588.77690160
0.36400002 28632.72140314  1724.40572818
0.36500002 28176.84182220  2320.36303397
0.36600002 27731.32029564  2442.57480734
0.36700002 27294.90650584  1958.68258364
0.36800002 26869.59352751  1933.40169386
0.36900002 26452.82339039  2055.38447480
0.37000002 26044.91707037  1884.21961471
0.37100002 25646.43512904  1574.17826279
0.37200002 25257.80316023  1695.80898451
0.37300002 24877.50124179  1535.19067435
0.37400002 24506.30509628  1792.02364505
0.37500002 24144.17631172  2178.77057358
0.37600002 23790.67058141  1345.36248511
0.37700002 23445.33763440  2126.96113095
0.37800002 23108.39519228  1970.56849337
0.37900002 22780.36451724  2077.56934239
0.38000002 22460.13914861  2567.19402630
0.38100002 22147.07500733  1395.93020384
0.38200002 21842.88502499  1505.84856496
0.38300002 21545.96139919  1365.15217893
0.38400002 21257.49972056  1841.43100053
0.38500002 20975.28655417  1821.70372353
0.38600002 20701.93434547  1562.27154939
0.38700002 20434.66305299  1783.94616904
0.38800002 20175.14177207  1294.94153599
0.38900002 19922.03360736  1631.61462974
0.39000002 19677.06046202  1154.05965077
0.39100002 19437.74360423  1600.11512931
0.39200002 19205.74166014  1811.48563921
0.39300002 18979.79844705  1570.38859791
0.39400002 18761.82156892  1445.12937481
0.39500002 18549.06754629  1432.35906379
0.39600002 18342.52012656  1419.98626287
0.39700002 18142.14828312  1191.39493420
0.39800002 17947.95541221  1503.85925524
0.39900002 17759.27983113  1278.66820842
0.40000002 17576.50955216  1057.22709965
0.40100002 17399.73017648  1154.12415729
0.40200002 17228.68583174  1145.62151866
0.40300002 17062.38369039  1240.77660075
0.40400002 16901.92361733  1026.79190840
0.40500002 16746.75232851  1325.84044467
0.40600002 16596.64903619  1114.54801883
0.40700002 16451.67462278  1107.52678808
0.40800002 16311.58539259  1300.93055463
0.40900002 16176.20895918  1193.80427775
0.41000002 16046.06465915  1088.16392642
0.41100002 15920.02976423  1082.24367465
0.41200002 15798.36923379  1076.57992245
0.41300002 15682.04489861  1168.62604122
0.41400002 15569.38881554  1550.71119950
0.41500002 15461.23953572  1157.73767129
0.41600002 15356.57356748  1344.77521102
0.41700002 15256.51074258  1052.24159578
0.41800002 15161.14317917  1429.31684094
0.41900002 15067.92904593  1234.06344734
0.42000002 14979.81095287  1418.96265975
0.42100002 14895.32218487  1320.02351457
0.42200002 14814.63032284  1503.98134164
0.42300002 14736.70365569  1124.70527630
0.42400002 14662.45248975  1028.20452957
0.42500002 14591.77620786  1118.89745264
0.42600002 14523.57165076  1209.30525080
0.42700002 14459.76268379  1392.47521243
0.42800002 14398.32625608  1389.79850773
0.42900002 14340.79472489  1017.47943395
0.43000002 14285.70561615  1200.64218540
0.43100002 14232.69440922  922.27864142
0.43200002 14183.46070765  1197.58056160
0.43300002 14136.77426842  1012.33445333
0.43400002 14092.78514346  1379.33141128
0.43500002 14051.08742360  1470.30585768
0.43600002 14012.43456925  1194.06966840
0.43700002 13975.53357158  918.19259917
0.43800002 13940.93359437  1009.81157276
0.43900002 13909.45848270  1285.23402471
0.44000002 13879.63171775  1009.95144980
0.44100002 13852.36819535  1010.25326036
0.44200002 13826.90492072  1010.67766308
0.44300002 13803.65685363  919.32359002
0.44400002 13782.81317296  1196.00366976
0.44500002 13762.49421851  1473.13745096
0.44600002 13744.54813318  1105.88639520
0.44700002 13729.51963709  922.62376334
0.44800002 13714.61524576  1293.15113281
0.44900002 13702.97149157  1202.43580537
0.45000002 13692.43357902  1111.55181062
0.45100002 13683.15884596  1484.34914196
0.45200002 13675.68490145  929.26283309
0.45300002 13669.19947390  1023.95978112
0.45400002 13664.58120335  1305.65079586
0.45500002 13661.38198380  1308.21400077
0.45600002 13659.35576434  1404.52332303
0.45700002 13658.68624562  1032.18696850
0.45800002 13658.73197238  1034.44411495
0.45900002 13660.12294839  1036.80338092
0.46000002 13663.34968842  1133.78481088
0.46100002 13666.54424292  947.09156092
0.46200002 13671.76311306  1329.30559049
0.46300002 13677.78866069  1047.17154949
0.46400002 13684.14888908  1622.59803143
0.46500002 13691.97633740  1052.77611048
0.46600002 13700.35905394  1151.65223666
0.46700002 13709.28398440  1251.10931571
0.46800002 13720.04762692  965.20539630
0.46900002 13730.45001727  1064.79644931
0.47000002 13742.01824440  970.87363498
0.47100002 13754.13694704  1363.31011881
0.47200002 13767.24613800  1269.82200772
0.47300002 13781.03131116  1077.81450993
0.47400002 13794.53505140  1179.43280280
0.47500002 13809.04042100  1084.56208607
0.47600002 13824.68614592  989.15634062
0.47700002 13839.76649879  1091.54243550
