# SAXS profile: number of points = 501, q_min = 0, q_max = 0.5, delta_q = 0.001
#    q    intensity    error
0.00000000 1682732.95097188 353.37391970
0.00100000 1682645.48750171 706.71112153
0.00200000 1682383.06219373 908.48688235
0.00300000 1681945.89690705 1110.08433150
0.00400000 1681333.86821800 1639.30058380
0.00500000 1680547.62355839 1512.49292107
0.00600000 1679587.03031575 1763.56645363
0.00700000 1678452.81680828 2416.97215665
0.00800000 1677144.76389189 2490.56007953
0.00900000 1675664.30993923 3267.54554406
0.01000000 1674010.87080169 4143.17708413
0.01100000 1672186.00769212 3912.91542837
0.01200000 1670189.59274370 4233.93080324
0.01300000 1668023.02137405 4203.41819925
0.01400000 1665686.51405621 4497.35378732
0.01500000 1663181.49236119 4390.79933535
0.01600000 1660507.79658930 5081.15408471
0.01700000 1657667.55033658 4923.27284535
0.01800000 1654661.30010558 6602.09888450
0.01900000 1651489.98582638 5945.36421725
0.02000000 1648154.45390090 7787.53014696
0.02100000 1644657.37706654 9769.26526270
0.02200000 1640997.45199007 7926.01805321
0.02300000 1637177.87787296 7072.60875434
0.02400000 1633199.17171706 6736.94689052
0.02500000 1629063.65447433 9530.02281392
0.02600000 1624772.08294434 6580.32723690
0.02700000 1620325.88916804 9527.51666468
0.02800000 1615726.04813773 9136.93122123
0.02900000 1610975.75644108 10874.08685525
0.03000000 1606075.54262344 8961.90193978
0.03100000 1601027.15518342 9990.40990803
0.03200000 1595831.84486198 11059.11519426
0.03300000 1590493.74648962 12978.42956967
0.03400000 1585011.51244822 12481.96623645
0.03500000 1579389.06941664 8528.70136869
0.03600000 1573627.01589814 9606.99337603
0.03700000 1567728.64212748 14297.68587744
0.03800000 1561695.39893371 13703.87775985
0.03900000 1555529.78463515 9333.17914003
0.04000000 1549232.04441481 12386.11076906
0.04100000 1542806.20534502 13607.55136208
0.04200000 1536253.87322124 10899.72173617
0.04300000 1529576.81547835 10095.20745076
0.04400000 1522777.73549858 13362.37524957
0.04500000 1515859.46311232 12551.31693777
0.04600000 1508822.17576957 12764.63620040
0.04700000 1501670.41917482 10812.02752090
0.04800000 1494405.12607323 15377.42946278
0.04900000 1487029.63138151 16729.08413174
0.05000000 1479545.37732977 18109.63626181
0.05100000 1471956.77655232 18370.02142712
0.05200000 1464262.30129000 22117.68309170
0.05300000 1456468.20038372 12977.13227039
0.05400000 1448574.85401296 15535.96603379
0.05500000 1440586.31568968 13311.01817792
0.05600000 1432503.29383956 20821.43634757
0.05700000 1424330.88479963 13630.84720380
0.05800000 1416068.32728252 15038.64633793
0.05900000 1407719.70699978 15203.37354568
0.06000000 1399288.82534558 17924.89069011
0.06100000 1390776.80918086 15521.06991578
0.06200000 1382186.82929950 19592.49922114
0.06300000 1373522.17469431 22415.88293907
0.06400000 1364781.87058312 15967.94863259
0.06500000 1355972.98291593 16108.95979058
0.06600000 1347096.21441398 17599.81286479
0.06700000 1338153.28011283 16378.99691510
0.06800000 1329148.07982974 16508.01992421
0.06900000 1320084.50950465 22177.42079800
0.07000000 1310961.83427194 22338.79070209
0.07100000 1301784.84173358 14059.27694923
0.07200000 1292555.32983086 16984.17782963
0.07300000 1283276.68557898 14244.37187736
0.07400000 1273952.14423338 15765.15852371
0.07500000 1264581.69700441 15857.85522373
0.07600000 1255169.54747617 20296.09253418
0.07700000 1245718.86724018 14574.91143011
0.07800000 1236231.20631214 20509.07667452
0.07900000 1226708.37486512 14720.50118883
0.08000000 1217155.62092621 19224.97393439
0.08100000 1207573.71999751 16338.47319814
0.08200000 1197964.52404078 14914.65902418
0.08300000 1188330.64993446 19464.85695945
0.08400000 1178675.93617319 22542.17833741
0.08500000 1169002.12768788 16588.14097062
0.08600000 1159311.40515421 21180.62036663
0.08700000 1149606.34024763 24279.68704615
0.08800000 1139888.39279881 22826.26613780
0.08900000 1130161.52804934 16782.89947982
0.09000000 1120427.57771004 15293.83715418
0.09100000 1110688.45828467 16860.25158888
0.09200000 1100945.96020117 19965.65592637
0.09300000 1091204.48915571 18463.18082414
0.09400000 1081462.72170997 20034.09786123
0.09500000 1071725.13587662 24692.54829121
0.09600000 1061993.53922181 16997.20739425
0.09700000 1052272.01005565 15468.39927503
0.09800000 1042560.05367569 23223.02628752
0.09900000 1032861.42821720 17042.21436695
0.10000000 1023175.90703533 17051.22729261
0.10100000 1013506.75300847 17057.31945537
0.10200000 1003856.40690275 26366.28976747
0.10300000 994226.41064595 20162.91255638
0.10400000 984618.94097143 21710.84866981
0.10500000 975037.50946562 21704.33598188
0.10600001 965478.52464955 21694.30346967
0.10700001 955950.33397805 18583.67536704
0.10800001 946449.71466790 17021.89891938
0.10900001 936981.63631820 18552.23727227
0.11000001 927546.60932094 18532.38212654
0.11100001 918145.42183990 20052.29695691
0.11200001 908781.65836209 18484.61980129
0.11300001 899454.64027953 18456.81008750
0.11400001 890167.63123492 23033.08854270
0.11500001 880921.75581072 16860.84320016
0.11600001 871718.49562197 22947.99047790
0.11700001 862559.24859968 16794.02936115
0.11800001 853444.20836594 18280.77580419
0.11900001 844375.38618608 19758.38496741
0.12000001 835353.97102914 25774.84799023
0.12100001 826383.12260670 19659.65541294
0.12200001 817462.04604811 18098.61055215
0.12300001 808593.12378804 18047.79937326
0.12400001 799775.78894936 17994.95609924
0.12500001 791011.86910052 17940.15003655
0.12600001 782304.25999578 23844.63496831
0.12700001 773651.84202240 17824.93928022
0.12800001 765055.83454340 22205.74664416
0.12900001 756518.00497346 20652.94250919
0.13000001 748038.77566778 17638.75516165
0.13100001 739618.23945565 17573.33019783
0.13200001 731258.11263216 17506.32004167
0.13300001 722960.16611451 18890.95003115
0.13400001 714722.93223193 15920.45406605
0.13500001 706549.35396360 20179.05050061
0.13600001 698437.94522782 18658.77058654
0.13700001 690391.30446131 20007.54094671
0.13800001 682407.72365687 15651.02188011
0.13900001 674490.55432720 16997.16277060
0.14000001 666638.35211298 18329.22235576
0.14100001 658852.21989459 15436.90824018
0.14200001 651132.02695563 22346.85221911
0.14300001 643480.24178847 15289.09126604
0.14400001 635892.88073503 16596.80497005
0.14500001 628375.29859363 13761.41968836
0.14600001 620925.02656738 16429.67697803
0.14700001 613544.55320185 16344.82766839
0.14800001 606229.53222525 18968.92295826
0.14900001 598984.55005358 16172.58361448
0.15000001 591807.95106662 14744.89579653
0.15100001 584700.52726238 14664.28991567
0.15200001 577662.49193196 13257.35481541
0.15300001 570694.66691209 18456.26639887
0.15400001 563793.46457805 13108.19867003
0.15500001 556963.16785669 18246.11424007
0.15600001 550199.67003611 18140.08397721
0.15700001 543509.00328445 19321.74597869
0.15800001 536883.59228553 12804.67428037
0.15900001 530329.59189970 19091.86620954
0.16000001 523842.09404217 12650.78716827
0.16100001 517426.51881431 15088.15800085
0.16200001 511077.92346154 13745.44140037
0.16300001 504797.54384862 17385.22823087
0.16400001 498585.73754652 14807.99710421
0.16500001 492441.44210061 15940.33023336
0.16600001 486365.71017637 13401.80777665
0.16700001 480355.78763226 15736.45634583
0.16800001 474412.67890331 12026.36197804
0.16900001 468538.35943329 15532.04734861
0.17000001 462729.03016614 15429.70023948
0.17100001 456985.57617572 16506.31979092
0.17200001 451308.46326547 12882.60069227
0.17300001 445696.68125397 12795.95232308
0.17400001 440149.67467911 13864.71540717
0.17500001 434667.03105768 12622.73117806
0.17600001 429246.96513021 18234.41193993
0.17700001 423892.46149828 18108.68681049
0.17800001 418599.09416679 13487.26345109
0.17900001 413369.33854866 15625.36173518
0.18000001 408201.53574220 12190.93944078
0.18100001 403096.80301826 14305.90621488
0.18200001 398050.29246565 14204.42535762
0.18300001 393065.68800222 15188.05890188
0.18400001 388140.25749303 15079.24971596
0.18500001 383275.91881882 12832.07836827
0.18600001 378468.75540371 12739.25890874
0.18700001 373719.81476994 11592.78920186
0.18800001 369028.45468439 10461.95718459
0.18900001 364395.78908071 13500.86462332
0.19000001 359815.80044261 12370.46780371
0.19100001 355296.32066465 16372.05522981
0.19200001 350828.51958229 19297.32363145
0.19300001 346418.31128087 15121.16000192
0.19400001 342059.57420800 11005.76732021
0.19500001 337755.62763183 12909.02069811
0.19600001 333503.97211993 10840.54712604
0.19700001 329304.28324683 12714.43897701
0.19800001 325156.49742358 12617.69847882
0.19900001 321059.96848337 10594.97946067
0.20000001 317012.44945004 12425.30354343
0.20100001 313015.94141090 12329.69851491
0.20200001 309067.02865072 12234.41890738
0.20300001 305167.99256838 11205.76921675
0.20400001 301315.99340468 14824.74757621
0.20500001 297510.90839580 10112.39625435
0.20600001 293752.56379083 11857.32279789
0.20700001 290040.35913906 9954.18559618
0.20800001 286372.26637550 17057.76485298
0.20900001 282750.97143877 9797.32162349
0.21000001 279171.95965662 13253.68941123
0.21100001 275636.97628982 11394.83313849
0.21200001 272144.42922074 10434.01790959
0.21300001 268693.17108612 11212.56655950
0.21400001 265284.75915903 8555.43388735
0.21500001 261918.08910708 11031.99043476
0.21600001 258590.68284784 9258.83983711
0.21700001 255303.35377476 8348.42006314
0.21800001 252055.50050847 10764.03065814
0.21900001 248845.31247744 12317.84355004
0.22000001 245673.05754720 8144.06224276
0.22100001 242539.92927625 8884.23802947
0.22200001 239443.88898904 8810.33831194
0.22300001 236382.69105877 9530.95055416
0.22400001 233357.03557311 8663.38035531
0.22500001 230369.29789250 8590.47152463
0.22600001 227414.31904037 7743.45792950
0.22700001 224495.51762551 8445.52177245
0.22800001 221609.17476404 9895.95816707
0.22900001 218755.60418888 7547.06870142
0.23000001 215936.07419601 9726.84092216
0.23100001 213149.36874335 13351.67708952
0.23200001 210392.91219199 11029.84894331
0.23300001 207668.72737180 7289.17267549
0.23400001 204976.04204057 8670.48698839
0.23500001 202311.84249332 7878.02351929
0.23600001 199679.62516778 7098.61101046
0.23700001 197076.21778109 8442.74556907
0.23800001 194502.18742910 7670.19412406
0.23900001 191956.50988905 8292.52161944
0.24000001 189439.19857514 10272.34102862
0.24100001 186950.92529607 9500.84647295
0.24200001 184489.35583983 10086.95600768
0.24300001 182055.54688700 7995.87999750
0.24400001 179647.94857715 10563.29987602
0.24500001 177266.74789676 7195.25763750
0.24600001 174912.26449728 8424.64961804
0.24700001 172583.29627094 6420.09892499
0.24800001 170279.63814588 6995.93926418
0.24900001 168000.18069733 8190.00919644
0.25000001 165746.62622797 8736.50508178
0.25100001 163516.19308888 8653.27734764
0.25200001 161311.61324884 7346.13121490
0.25300001 159130.50514504 10306.88330587
0.25400001 156972.47679731 7205.03702588
0.25500001 154837.48335276 6540.33560626
0.25600001 152725.97032755 7065.10372162
0.25700001 150636.31061630 6412.58804634
0.25800001 148569.99782555 6349.13915748
0.25900001 146525.68061134 6857.40217707
0.26000001 144503.13066066 6788.75739965
0.26100001 142501.81383884 8400.48232328
0.26200001 140522.73607233 6097.98442040
0.26300001 138564.09653423 6584.56617887
0.26400001 136626.89803338 5430.91945381
0.26500001 134710.78042589 5912.45643266
0.26600001 132814.23912506 6914.97368726
0.26700001 130939.28806537 7895.63944397
0.26800001 129084.63723895 6771.13496679
0.26900001 127248.72187763 6184.28817590
0.27000001 125433.61454692 6628.53967441
0.27100001 123637.56603270 5548.85422614
0.27200001 121862.58005249 5489.30017824
0.27300001 120105.67378014 6417.24645376
0.27400001 118366.27712491 5859.13099496
0.27500001 116648.58687837 8209.72793303
0.27600001 114947.48002835 6208.88842757
0.27700001 113266.71419208 5195.54442588
0.27800001 111603.41327585 4670.60306664
0.27900001 109959.77377204 6465.63500380
0.28000001 108332.76854516 6392.71697441
0.28100001 106724.70999498 6320.23762503
0.28200001 105135.23034278 4909.28981321
0.28300001 103563.16053946 6176.50718691
0.28400001 102008.69207003 5233.04615088
0.28500001 100472.02493492 5172.30008846
0.28600001 98952.89972759  4685.91478839
0.28700001 97451.16548258  5051.86865773
0.28800001 95966.01564439  6656.20316015
0.28900001 94499.74151797  4932.88674073
0.29000001 93049.09626898  4873.91189327
0.29100001 91616.42975483  4414.07979453
0.29200001 90200.25829219  4360.73169355
0.29300001 88801.11802377  4699.35538827
0.29400001 87418.00923959  3868.24709196
0.29500001 86052.63190114  6113.17925964
0.29600001 84703.05603678  5660.28198760
0.29700001 83369.91562256  4471.96248569
0.29800001 82053.06898824  5520.12047750
0.29900001 80753.12544472  5450.83622556
0.30000001 79468.65599894  4664.41298467
0.30100001 78201.29977297  5313.77857113
0.30200001 76948.40819214  4196.76638148
0.30300001 75712.59726470  3797.74405859
0.30400001 74492.73642975  3408.04285300
0.30500001 73288.30889231  4373.11359864
0.30600001 72098.70638403  3652.16014479
0.30700001 70925.84914495  4259.80670132
0.30800001 69768.17237479  3880.50593120
0.30900001 68625.81380642  3510.21054239
0.31000001 67499.26034024  3463.72470835
0.31100001 66386.94289614  4349.67270449
0.31200001 65290.69541345  5211.17710115
0.31300001 64208.97716374  3629.09156112
0.31400001 63143.53830008  4773.65172150
0.31500001 62091.78288354  3531.78077764
0.31600002 61055.35045622  4064.45487231
0.31700002 60033.65392049  4009.04759863
0.31800002 59026.77586883  3106.87449496
0.31900002 58034.52367174  3064.22299496
0.32000002 57057.26279871  3296.76880061
0.32100002 56093.56936229  3793.04733988
0.32200002 55145.56024487  2671.80252037
0.32300002 54209.99361566  2898.06639592
0.32400002 53289.47629988  3117.43451116
0.32500002 52382.94730927  3073.83149366
0.32600002 51490.91580788  3283.31840196
0.32700002 50612.20884394  3237.15703095
0.32800002 49747.89068419  2700.56437367
0.32900002 48896.79605765  2904.46982336
0.33000002 48060.48210683  2624.82335456
0.33100002 47235.07331362  3293.22946737
0.33200002 46426.13633282  3014.68130553
0.33300002 45629.26477690  2514.62890094
0.33400002 44846.12732708  2478.86980539
0.33500002 44074.88237084  3554.19868270
0.33600002 43318.19555570  2846.65535575
0.33700002 42573.16961422  2590.15176199
0.33800002 41842.11796352  2340.43897913
0.33900002 41122.84217090  2936.17107005
0.34000002 40416.69200726  4134.62778815
0.34100002 39723.00586673  2445.34835696
0.34200002 39042.43195054  2209.60654089
0.34300002 38372.79407603  2772.05077534
0.34400002 37716.98577510  2342.22492756
0.34500002 37072.23417344  1924.04904472
0.34600002 36440.66295376  2655.43123520
0.34700002 35819.16902854  2991.61713895
0.34800002 35211.21735039  2396.29951027
0.34900002 34613.99646107  2362.40537036
0.35000002 34028.55921708  2149.92447316
0.35100002 33455.19117444  2119.72101321
0.35200002 32891.77210685  2264.10524021
0.35300002 32340.10157000  2575.88921205
0.35400002 31799.94301280  2370.68586389
0.35500002 31270.79554100  1669.86056098
0.35600002 30751.49904843  1646.74285204
0.35700002 30243.42090121  1786.47895725
0.35800002 29746.72808981  1601.86138351
0.35900002 29259.97610087  1738.04266272
0.36000002 28784.05397268  2337.98489467
0.36100002 28317.48249846  2152.69512150
0.36200002 27862.44034967  2123.95392846
0.36300002 27416.11435747  1945.99588927
0.36400002 26979.88264347  1920.29323811
0.36500002 26553.26237221  1895.10642527
0.36600002 26136.76511647  1582.71188660
0.36700002 25729.04900049  1420.24357210
0.36800002 25332.37072834  2243.43485797
0.36900002 24943.80408302  1938.13366906
0.37000002 24564.12037627  1503.69270006
0.37100002 24193.39898449  1754.98924547
0.37200002 23832.49153275  1733.45635375
0.37300002 23479.59473959  1712.36692547
0.37400002 23135.49533471  1691.78317649
0.37500002 22800.30239408  1928.90567391
0.37600002 22473.50674841  1270.87686683
0.37700002 22154.59054116  1507.39841183
0.37800002 21843.81118985  1366.00279747
0.37900002 21541.66878524  1596.23773260
0.38000002 21247.19771040  1457.13288801
0.38100002 20959.62032315  1321.08493155
0.38200002 20680.82602108  1306.92486232
0.38300002 20408.79807045  1410.65618946
0.38400002 20145.11980138  1279.71879601
0.38500002 19887.33101952  1151.47652058
0.38600002 19638.17184941  1139.99592986
0.38700002 19395.19252924  1128.80025868
0.38800002 19159.26753384  1341.53197627
0.38900002 18929.81838893  1107.39442822
0.39000002 18708.08463921  1206.95213768
0.39100002 18491.75247101  1196.04660649
0.39200002 18282.60078399  1077.75936728
0.39300002 18079.31640327  1175.33641506
0.39400002 17883.65474616  1483.44923148
0.39500002 17692.89041841  1261.14928877
0.39600002 17508.15351214  1459.65482746
0.39700002 17329.37282559  1138.01996737
0.39800002 17156.43363733  1232.17512221
0.39900002 16989.02905058  1427.07850786
0.40000002 16826.98187604  1518.21451170
0.40100002 16670.72665170  1206.29383767
0.40200002 16520.04442109  1298.22775234
0.40300002 16373.82794878  1289.93022692
0.40400002 16233.26691279  1282.02231518
0.40500002 16097.65238288  1078.38178422
0.40600002 15966.96693373  1169.74005299
0.40700002 15840.88949800  969.46248321
0.40800002 15719.88199523  1446.62220915
0.40900002 15603.03898411  1055.54563729
0.41000002 15491.08866891  1050.52822786
0.41100002 15383.33091459  1045.75888512
0.41200002 15279.48971068  1041.22087567
0.41300002 15180.61118106  1225.53079872
0.41400002 15085.34185445  939.06257493
0.41500002 14994.30241062  1029.20896623
0.41600002 14906.56435419  1212.12733790
0.41700002 14823.06083968  1208.22774629
0.41800002 14744.21687240  1390.01111151
0.41900002 14666.97117665  1108.82307350
0.42000002 14594.72342561  921.65682800
0.42100002 14525.88181078  1011.43719841
0.42200002 14460.60263751  1009.27780891
0.42300002 14397.92286205  1373.56190613
0.42400002 14338.44027839  1096.89073327
0.42500002 14282.49170121  1277.71176814
0.42600002 14228.67487204  911.34666874
0.42700002 14179.07922961  1183.38600858
0.42800002 14131.32906756  1273.09149602
0.42900002 14087.58335092  1362.97375379
0.43000002 14045.97498260  1089.68679079
0.43100002 14006.07274795  1089.11226849
0.43200002 13969.84145313  1542.48011714
0.43300002 13935.88572514  997.94882407
0.43400002 13904.35147867  997.98487467
0.43500002 13874.90718213  1179.64466453
0.43600002 13848.15584267  998.52132435
0.43700002 13823.06966134  908.17571979
0.43800002 13800.07524732  1272.22899734
0.43900002 13779.84029367  1364.20425372
0.44000002 13761.08363608  910.29572567
0.44100002 13744.63851369  911.26957664
0.44200002 13729.89300651  1003.58657687
0.44300002 13716.97227881  1004.90543677
0.44400002 13706.26177284  1006.38231836
0.44500002 13695.96263297  1099.51193228
0.44600002 13687.65169878  1101.30850788
0.44700002 13682.13299949  1103.32725737
0.44800002 13676.36817467  1105.32412826
0.44900002 13673.75378143  1384.46763598
0.45000002 13672.02030818  1017.40343945
0.45100002 13671.23394596  1297.67358765
0.45200002 13672.10153540  1207.72514637
0.45300002 13673.83452794  1024.30699303
0.45400002 13677.09382528  1026.80786760
0.45500002 13681.60361501  1029.40390478
0.45600002 13686.98095346  1407.36388324
0.45700002 13693.54767791  1034.82144706
0.45800002 13700.66186916  1414.93592160
0.45900002 13708.99514238  945.92070966
0.46000002 13718.94559579  1422.99769937
0.46100002 13728.53129307  1522.21962192
0.46200002 13739.99841882  1335.94010958
0.46300002 13752.05434968  1052.85733091
0.46400002 13764.19139526  1056.05763485
0.46500002 13777.61646044  1251.97206710
0.46600002 13791.53248648  1352.53565505
0.46700002 13805.70475922  1162.99262404
0.46800002 13821.51101868  1166.81201550
0.46900002 13836.75722252  1365.68800259
0.47000002 13852.87027791  1272.31693098
0.47100002 13869.59023915  1374.75384966
0.47200002 13886.91075407  985.27636470
0.47300002 13904.68524703  1384.07243509
0.47400002 13922.09355272  1587.11874024
0.47500002 13940.33959132  1194.40835280
0.47600002 13959.55037076  1298.44763928
0.47700002 13977.89716529  1102.43680168
