# SAXS profile: number of points = 501, q_min = 0, q_max = 0.5, delta_q = 0.001
#    q    intensity    error
0.00000000 1664650.74656090 324.60689558
0.00100000 1664563.78040920 898.86446277
0.00200000 1664302.84456122 1123.40445565
0.00300000 1663868.16733055 1197.98512315
0.00400000 1663259.61480763 1871.16713776
0.00500000 1662477.84048400 1795.47613879
0.00600000 1661522.70965087 1919.05880778
0.00700000 1660394.94601576 1992.47401803
0.00800000 1659094.33183337 2463.75518679
0.00900000 1657622.31902282 2735.07694331
0.01000000 1655978.30203763 3278.83717961
0.01100000 1654163.84176919 5657.24058516
0.01200000 1652178.81418824 3543.92371181
0.01300000 1650024.60079729 3811.55699595
0.01400000 1647701.44893593 4819.52695179
0.01500000 1645210.78301944 6712.46029362
0.01600000 1642552.38893255 5026.21053482
0.01700000 1639728.42161709 6198.17371175
0.01800000 1636739.43399699 5131.17835647
0.01900000 1633586.33194429 4900.75921697
0.02000000 1630270.00458408 6675.95597076
0.02100000 1626793.04505138 6442.10075048
0.02200000 1623154.25260019 8399.82363883
0.02300000 1619356.75489706 8744.52687448
0.02400000 1615401.03150520 6663.52955880
0.02500000 1611289.52414022 6284.02943114
0.02600000 1607022.83914947 7159.28707586
0.02700000 1602602.54523284 9423.30339757
0.02800000 1598029.46953833 11122.28561805
0.02900000 1593306.87543415 7169.88126865
0.03000000 1588435.30700968 9602.09187224
0.03100000 1583416.51567026 8360.43958743
0.03200000 1578251.73597835 9374.81574350
0.03300000 1572945.07814035 11230.82837567
0.03400000 1567495.17522342 9052.28505459
0.03500000 1561905.98432044 9277.72197529
0.03600000 1556177.97951327 9500.46700398
0.03700000 1550314.69959967 8836.79419640
0.03800000 1544317.35859516 9937.68266247
0.03900000 1538188.54747364 11074.95805469
0.04000000 1531928.44315001 11305.63243434
0.04100000 1525541.24834610 12494.18340327
0.04200000 1519028.27837634 11757.27942009
0.04300000 1512391.47095842 12976.31942316
0.04400000 1505633.54143730 13211.93493970
0.04500000 1498757.34320164 11375.56876347
0.04600000 1491762.86000203 13672.00724749
0.04700000 1484654.73531590 12827.41750971
0.04800000 1477433.97994612 11945.05428365
0.04900000 1470103.70997353 12128.35617183
0.05000000 1462665.66973078 20140.90721008
0.05100000 1455124.04465665 14754.95850016
0.05200000 1447477.23305026 18411.91126242
0.05300000 1439731.69035282 11661.82723551
0.05400000 1431887.67418070 11813.07386288
0.05500000 1423949.19124942 13157.29114092
0.05600000 1415917.03839742 12106.09124322
0.05700000 1407796.24552929 13472.61069860
0.05800000 1399586.15795340 14863.60569148
0.05900000 1391290.68668348 12521.61676498
0.06000000 1382913.66977163 22776.58920523
0.06100000 1374456.21027350 14060.68768817
0.06200000 1365921.54156826 15489.55100542
0.06300000 1357312.95987716 19545.30753608
0.06400000 1348629.33475499 14464.05029168
0.06500000 1339878.02226077 19897.18956132
0.06600000 1331059.43390086 13377.14793660
0.06700000 1322175.31108711 17532.04544550
0.06800000 1313229.54828559 14951.11910708
0.06900000 1304226.08555355 17802.68690131
0.07000000 1295164.29351412 15172.85040904
0.07100000 1286048.88362245 15278.26145303
0.07200000 1276881.34745424 16778.22169155
0.07300000 1267665.53479806 18292.41452424
0.07400000 1258404.27784298 16988.45854703
0.07500000 1249097.93957704 19935.60405008
0.07600000 1239750.18709474 18614.84993190
0.07700000 1230364.76650248 15834.79528736
0.07800000 1220942.78371184 21702.25899823
0.07900000 1211486.22721161 15991.61894926
0.08000000 1202000.48563252 14604.30658554
0.08100000 1192485.86084563 17601.09213189
0.08200000 1182944.82150666 19145.96283451
0.08300000 1173379.30225806 20698.41186325
0.08400000 1163793.76707571 16322.20834938
0.08500000 1154189.44852027 17866.85350186
0.08600000 1144568.88325152 19417.61201605
0.08700000 1134934.22528952 16479.24572503
0.08800000 1125287.46583239 19529.36488669
0.08900000 1115632.01896042 18073.23955605
0.09000000 1105970.06304197 18115.79048363
0.09100000 1096303.27120307 19667.68160939
0.09200000 1086633.70097540 18190.24900903
0.09300000 1076965.57697709 16703.73688386
0.09400000 1067297.60765984 21292.58827351
0.09500000 1057634.17443135 21321.90595872
0.09600000 1047977.16050792 21347.29576304
0.09700000 1038330.44604755 15263.45827448
0.09800000 1028694.07282548 22914.16154956
0.09900000 1019070.94771618 18343.27792144
0.10000000 1009461.60574038 22940.01606925
0.10100000 999868.94165196 16827.79507944
0.10200000 990295.33815310 18360.07643295
0.10300000 980742.44551006 18359.49944359
0.10400000 971212.58421594 22944.89838155
0.10500000 961708.83572000 21407.63969034
0.10600001 952227.79461145 24453.21091623
0.10700001 942777.93355023 16800.30356645
0.10800001 933355.93485161 21364.51835420
0.10900001 923966.80406538 15245.45298462
0.11000001 914610.99872558 15228.27384557
0.11100001 905289.17930924 16729.74482116
0.11200001 896005.06845434 18224.74395033
0.11300001 886757.98339895 18196.27467604
0.11400001 877551.00168242 18165.30659013
0.11500001 868385.56394483 15109.90952414
0.11600001 859262.77890129 15080.06247986
0.11700001 850184.18304466 21067.56504802
0.11800001 841150.10960653 22521.79524545
0.11900001 832162.31837220 17974.70692348
0.12000001 823222.14369298 16435.63087303
0.12100001 814332.69879106 16392.51799888
0.12200001 805493.14904959 17833.61916012
0.12300001 796705.69314667 17782.47190884
0.12400001 787970.25293655 19206.77582030
0.12500001 779288.18137612 16201.40205423
0.12600001 770662.51371062 20553.57020922
0.12700001 762092.21537171 21948.25683705
0.12800001 753578.40706873 16039.91715041
0.12900001 745122.61192614 15982.88077912
0.13000001 736725.75332635 14476.66173522
0.13100001 728387.47149044 14422.07261533
0.13200001 720109.78822636 20112.66733328
0.13300001 711894.27079007 17170.89062094
0.13400001 703739.48830160 17100.87037196
0.13500001 695648.33421965 19867.71736204
0.13600001 687619.25252710 16956.69156684
0.13700001 679655.15179448 18289.52099720
0.13800001 671754.18600196 15406.68298247
0.13900001 663919.11177143 13942.30200469
0.14000001 656149.38847194 15265.31624272
0.14100001 648445.65680042 15193.08245538
0.14200001 640807.65074405 16494.38970811
0.14300001 633238.02670496 21884.70723517
0.14400001 625732.90933089 14970.66056191
0.14500001 618297.29763666 24373.28062258
0.14600001 610929.01095962 16165.18239257
0.14700001 603630.45846312 18760.83553410
0.14800001 596397.16650405 14662.42503026
0.14900001 589233.72577630 13257.75945548
0.15000001 582138.75311767 18459.62073234
0.15100001 575112.82146096 14423.83024283
0.15200001 568155.96341204 13039.17997559
0.15300001 561269.28645028 15558.38535459
0.15400001 554449.03052771 18047.31679535
0.15500001 547699.58470847 15379.40506441
0.15600001 541016.72672631 14015.03896728
0.15700001 534406.40787628 13931.97571088
0.15800001 527861.20593515 16366.33746249
0.15900001 521387.44059784 13764.62908148
0.16000001 514979.88606897 19898.82373698
0.16100001 508643.95946002 14832.05855799
0.16200001 502374.87027814 15967.98600558
0.16300001 496173.77968030 15867.63822325
0.16400001 490040.82947772 14554.21332259
0.16500001 483975.39785035 14461.18557050
0.16600001 477978.12943732 13170.68797847
0.16700001 472046.48427308 13085.12916186
0.16800001 466181.36401211 11817.69813570
0.16900001 460384.88645413 12913.79667480
0.17000001 454652.89287996 15160.40142895
0.17100001 448986.72141030 12742.24375533
0.17200001 443386.43395467 13807.05420536
0.17300001 437851.35597253 14856.29720973
0.17400001 432380.60080758 14754.98869938
0.17500001 426974.00985735 13526.53727111
0.17600001 421629.68386336 13433.12236232
0.17700001 416350.56966776 13339.87288221
0.17800001 411132.20088375 13246.68013814
0.17900001 405977.22795993 12057.52423993
0.18000001 400883.77163370 14149.19338815
0.18100001 395853.20174122 17290.86866882
0.18200001 390880.35226345 15021.53264707
0.18300001 385969.03671515 12783.29509988
0.18400001 381116.78016584 12691.18937906
0.18500001 376325.10650490 16799.15354801
0.18600001 371590.13278805 12507.72446055
0.18700001 366913.14800737 12416.34151518
0.18800001 362293.31918266 11298.11769250
0.18900001 357731.81289900 12234.42857919
0.19000001 353222.73021194 12143.79803847
0.19100001 348773.58763661 11049.14777840
0.19200001 344375.76296438 9969.67880890
0.19300001 340035.21659145 14842.53790557
0.19400001 335745.67077816 11784.67360118
0.19500001 331510.58791980 14619.61761812
0.19600001 327327.30798516 12574.27913046
0.19700001 323195.58399144 11518.69115780
0.19800001 319115.37710209 10478.15390233
0.19900001 315085.87191679 14178.86490635
0.20000001 311105.13138755 12193.76620103
0.20100001 307174.87019110 11168.87880802
0.20200001 303291.83543657 12005.80787319
0.20300001 299458.20500240 9163.42150618
0.20400001 295671.23536340 13637.83637574
0.20500001 291930.73883865 11726.85833344
0.20600001 288236.40402797 9844.71484492
0.20700001 284587.84235392 11542.88343150
0.20800001 280983.10442211 8808.82074003
0.20900001 277424.61756771 9612.76345313
0.21000001 273907.85981849 9536.10259037
0.21100001 270434.70497221 10319.78882959
0.21200001 267003.62290384 9383.84277057
0.21300001 263613.22143478 11846.77873134
0.21400001 260265.34551628 9232.91356869
0.21500001 256958.59108655 10823.09636825
0.21600001 253690.79176071 8257.63566222
0.21700001 250462.66784466 10647.16851347
0.21800001 247273.33598275 8935.22241820
0.21900001 244121.24028601 8056.00131034
0.22000001 241006.84513104 11185.12821139
0.22100001 237930.86121832 9507.71766384
0.22200001 234891.55212677 10214.25962721
0.22300001 231886.50781959 10128.80314050
0.22400001 228916.92975174 13906.70414002
0.22500001 225984.27969800 10725.21442163
0.22600001 223084.03280429 8355.61284381
0.22700001 220219.59719234 11297.26587020
0.22800001 217387.28286346 10454.15492728
0.22900001 214587.07914634 7403.25458066
0.23000001 211820.44507721 9541.45239974
0.23100001 209086.17380093 9459.05895010
0.23200001 206381.64116633 8655.64643987
0.23300001 203708.85419465 8580.21734448
0.23400001 201067.24996504 9213.90716542
0.23500001 198453.61885197 7727.78428359
0.23600001 195871.31497302 8355.87069196
0.23700001 193317.57471321 7591.58151805
0.23800001 190792.54754027 10259.86972926
0.23900001 188295.50956357 7456.50253141
0.24000001 185826.29429516 7389.38294217
0.24100001 183385.65834868 8653.96962682
0.24200001 180971.31299467 7915.68560481
0.24300001 178584.24093887 6536.18352754
0.24400001 176222.76322172 8419.04291117
0.24500001 173887.35147774 7699.73228767
0.24600001 171578.12142829 8264.06060953
0.24700001 169293.87997146 7557.27915943
0.24800001 167034.57109423 6238.74152550
0.24900001 164798.99112836 9269.94368951
0.25000001 162588.81169107 6733.61595474
0.25100001 160401.15894499 6063.16409496
0.25200001 158239.21031414 7806.73181018
0.25300001 156100.07006061 6542.15424575
0.25400001 153983.54449278 9423.79336881
0.25500001 151889.67178665 7582.33277432
0.25600001 149818.67010535 6353.06100640
0.25700001 147769.11433609 5718.66499538
0.25800001 145742.49868299 8493.14451260
0.25900001 143737.38016594 7287.48551922
0.26000001 141753.63424332 6104.62054753
0.26100001 139790.57645882 6043.14690625
0.26200001 137849.45948317 5981.97757732
0.26300001 135928.31194843 5921.03754864
0.26400001 134028.07744079 6393.13959644
0.26500001 132148.46419960 6327.26876528
0.26600001 130288.00880798 6261.64199961
0.26700001 128448.75837659 5680.00436419
0.26800001 126629.33990067 7664.24116017
0.26900001 124828.26196082 7077.76278811
0.27000001 123047.51606908 6502.44629438
0.27100001 121285.48779727 6432.98257719
0.27200001 119544.00402137 5384.85991597
0.27300001 117820.10202539 4842.40642241
0.27400001 116113.46099999 5268.64854221
0.27500001 114428.05175647 6158.51803699
0.27600001 112758.69464354 6559.17357783
0.27700001 111109.46689916 6023.24448566
0.27800001 109477.22730215 5956.10883326
0.27900001 107864.19370844 5436.35562020
0.28000001 106267.45966483 5375.00836424
0.28100001 104689.23118420 5756.86109529
0.28200001 103129.21430294 4815.61888980
0.28300001 101586.11265639 5625.83918518
0.28400001 100060.31432363 5133.09436776
0.28500001 98551.89109816  6341.81449233
0.28600001 97060.71880326  5014.15697071
0.28700001 95586.43136120  4955.20083631
0.28800001 94128.44851892  4488.51528008
0.28900001 92688.90743578  4838.36119717
0.29000001 91264.69076224  6373.92630454
0.29100001 89857.98315226  5116.51380288
0.29200001 88467.54274080  4276.96355626
0.29300001 87093.69769515  5377.16515023
0.29400001 85735.48996157  4931.93429350
0.29500001 84394.67677986  4121.83620904
0.29600001 83069.35612604  4440.88798872
0.29700001 81760.16404918  4020.14745660
0.29800001 80466.92865925  3969.83611333
0.29900001 79190.13699559  3563.55633350
0.30000001 77928.59832868  3870.32401921
0.30100001 76683.72117663  4168.52728050
0.30200001 75452.98776192  4801.07383858
0.30300001 74239.10802604  4062.36418350
0.30400001 73040.84887120  4344.10469227
0.30500001 71857.71997079  3957.92340337
0.30600001 70688.97445872  4557.31839911
0.30700001 69536.78304649  4818.89929326
0.30800001 68399.38598935  3487.34285977
0.30900001 67277.06826030  3754.06058666
0.31000001 66170.15987899  3704.20572540
0.31100001 65077.32686790  3654.74284994
0.31200001 64000.18709512  3605.77071166
0.31300001 62937.29478271  3853.65074200
0.31400001 61890.46583350  3216.75711400
0.31500001 60856.88764106  3461.53993292
0.31600002 59838.49349747  3414.38460063
0.31700002 58834.47558608  3648.32600383
0.31800002 57845.05796167  4705.40646269
0.31900002 56869.94876986  3275.70920425
0.32000002 55909.61241320  3499.66235471
0.32100002 54962.50955515  2920.15827093
0.32200002 54030.91816581  2879.57792000
0.32300002 53111.49268843  2839.34053357
0.32400002 52206.94037572  4326.65038851
0.32500002 51316.08402269  3513.09927854
0.32600002 50439.38394264  4205.88822922
0.32700002 49575.86849262  2926.95941440
0.32800002 48726.50168180  2885.58356624
0.32900002 47890.03512788  3081.72390641
0.33000002 47068.19010337  3505.40362394
0.33100002 46256.96585998  3455.39551337
0.33200002 45462.07517932  2952.07999156
0.33300002 44678.96247531  2238.41612601
0.33400002 43909.39409658  3530.31545255
0.33500002 43151.49891313  2392.31921303
0.33600002 42407.95278609  2358.09432634
0.33700002 41675.97383948  2535.56636847
0.33800002 40957.60269029  2290.96361498
0.33900002 40250.91101825  2258.07621506
0.34000002 39557.07395690  2428.01331446
0.34100002 38875.50927770  2991.47058059
0.34200002 38206.90295600  2162.31977520
0.34300002 37549.12215421  2518.79523339
0.34400002 36904.88758195  2100.81082510
0.34500002 36271.54646140  2258.99202060
0.34600002 35651.20655126  2597.90354443
0.34700002 35040.77045847  2194.95396547
0.34800002 34443.73851755  2524.38171551
0.34900002 33857.27194907  1955.25754766
0.35000002 33282.37194706  2628.47544901
0.35100002 32719.38732764  2591.37559908
0.35200002 32166.19779937  2043.84030497
0.35300002 31624.67711759  1847.19747793
0.35400002 31094.46560969  2483.67055821
0.35500002 30575.01689434  2285.78837128
0.35600002 30065.38450298  1771.00155803
0.35700002 29566.83550244  2064.06088419
0.35800002 29079.48414779  2192.30241374
0.35900002 28601.92409907  1544.50397451
0.36000002 28135.06368032  1980.56790159
0.36100002 27677.46784667  2254.32986289
0.36200002 27231.22520227  1779.28833899
0.36300002 26793.60403852  1901.81010474
0.36400002 26365.90677995  1876.59350395
0.36500002 25947.73615442  1566.98386059
0.36600002 25539.55900773  1968.33390596
0.36700002 25140.10828362  1942.82766019
0.36800002 24751.48980589  1369.99502565
0.36900002 24370.83549867  1487.83957767
0.37000002 23999.03197969  1469.10081223
0.37100002 23636.13679815  1318.89649581
0.37200002 23282.82745015  1302.67425754
0.37300002 22937.52451620  2187.55181674
0.37400002 22600.81879222  1779.81456420
0.37500002 22272.99948679  1381.81695362
0.37600002 21953.41367887  1365.61216258
0.37700002 21641.68000683  1840.62497177
0.37800002 21338.00525561  1334.37222187
0.37900002 21042.77059562  1439.32557692
0.38000002 20755.19617068  1423.39142082
0.38100002 20474.36418780  1290.49923589
0.38200002 20202.29982721  1740.93327008
0.38300002 19936.91044780  1148.36609620
0.38400002 19679.77165519  1477.45892701
0.38500002 19428.49167595  1462.38263773
0.38600002 19185.68270741  1559.22050750
0.38700002 18949.05563224  1102.83509004
0.38800002 18719.38323263  1529.18648872
0.38900002 18496.08958048  1082.02129172
0.39000002 18280.47247598  1179.36473766
0.39100002 18070.12780618  1062.52356534
0.39200002 17866.94430031  1579.88462460
0.39300002 17669.58403470  1044.27246593
0.39400002 17479.78266763  1139.24488934
0.39500002 17294.75948246  1232.77051432
0.39600002 17115.79079304  1223.09446802
0.39700002 16942.65722988  1112.62435300
0.39800002 16775.25832538  1204.79911001
0.39900002 16613.42848269  1495.20863428
0.40000002 16456.89971076  1286.84733385
0.40100002 16306.15689480  1179.91356881
0.40200002 16160.77150687  1269.99428904
0.40300002 16019.88496951  970.80507515
0.40400002 15884.65706828  964.99296262
0.40500002 15754.25292640  959.43404868
0.40600002 15628.83750813  1049.55463259
0.40700002 15507.87229171  1138.89819507
0.40800002 15391.92833048  1038.72433260
0.40900002 15280.12923264  1033.70079157
0.41000002 15173.18793709  1028.96978871
0.41100002 15070.40364781  1303.89138539
0.41200002 14971.50604916  1020.23332806
0.41300002 14877.52807996  1293.45235256
0.41400002 14787.11476047  920.49793746
0.41500002 14700.85495130  1376.00008864
0.41600002 14617.94150025  1188.65796942
0.41700002 14539.15159860  1640.88872717
0.41800002 14465.01241070  909.12607309
0.41900002 14392.49723787  1178.74557964
0.42000002 14324.84752274  995.07558032
0.42100002 14260.60948431  1624.85392164
0.42200002 14199.89487130  1261.37672119
0.42300002 14141.76393674  1079.29947480
0.42400002 14086.74344406  987.83293082
0.42500002 14035.33950465  986.54406053
0.42600002 13985.94899472  1164.54009823
0.42700002 13940.82049314  1521.50122072
0.42800002 13897.42135648  1162.58883867
0.42900002 13858.03202736  1072.61172975
0.43000002 13820.81225242  1161.57022080
0.43100002 13785.20090548  1071.93727321
0.43200002 13753.28549395  982.60352868
0.43300002 13723.54356487  982.74300125
0.43400002 13696.22525164  983.04661402
0.43500002 13670.98103074  983.49042196
0.43600002 13648.40511082  1520.91009560
0.43700002 13627.43373072  984.85468239
0.43800002 13608.63058463  985.74120311
0.43900002 13592.50366986  1255.94739861
0.44000002 13577.81802284  898.17270477
0.44100002 13565.43310993  1349.08238672
0.44200002 13554.66877252  990.77856088
0.44300002 13545.81341105  1082.58145912
0.44400002 13539.08462143  994.10733544
0.44500002 13532.76966118  1539.08196651
0.44600002 13528.43139065  1088.49764128
0.44700002 13526.80582962  1363.50209224
0.44800002 13524.95023321  1366.35816206
0.44900002 13526.17982375  1186.92233578
0.45000002 13528.32202942  1098.22923440
0.45100002 13531.41330082  1100.91583833
0.45200002 13535.99809460  1287.67955977
0.45300002 13541.56450802  1475.48893872
0.45400002 13548.60951361  1294.56970038
0.45500002 13556.84220110  927.28805050
0.45600002 13565.93260620  1115.93366907
0.45700002 13576.19713047  1305.75870189
0.45800002 13586.95768627  1403.19312155
0.45900002 13599.01237519  1032.16508820
0.46000002 13612.52146214  1600.22003632
0.46100002 13625.74278691  1038.69042187
0.46200002 13640.79326482  1042.08845086
0.46300002 13656.43866922  1330.68344700
0.46400002 13672.10194475  1048.99207143
0.46500002 13689.03075132  1339.60861282
0.46600002 13706.45216339  960.13701955
0.46700002 13724.18252852  1156.12519100
0.46800002 13743.38781988  1160.21685474
0.46900002 13762.05427684  1067.24735975
0.47000002 13781.61310939  1071.03811356
0.47100002 13801.74184715  1172.59604291
0.47200002 13822.38945280  1176.83829379
0.47300002 13843.51604716  1181.12884513
0.47400002 13864.27128254  1086.61231327
0.47500002 13885.80346471  1189.73569725
0.47600002 13908.25044755  1194.16244003
0.47700002 13929.85349050  1198.52465113
