# SAXS profile: number of points = 501, q_min = 0, q_max = 0.5, delta_q = 0.001
#    q    intensity    error
0.00000000 1700912.83420644 382.70538770
0.00100000 1700824.69652095 867.42061583
0.00200000 1700560.25238823 1147.87820671
0.00300000 1700119.71244620 1122.07905019
0.00400000 1699502.97706130 1657.01546560
0.00500000 1698710.67364654 2293.25950019
0.00600000 1697742.69037489 2139.15587696
0.00700000 1696599.74270054 2646.69570861
0.00800000 1695281.59370909 4119.53444664
0.00900000 1693789.76493267 2794.75323161
0.01000000 1692123.56372614 3908.80560099
0.01100000 1690284.60737562 3346.76366832
0.01200000 1688272.81315350 3950.55855599
0.01300000 1686089.53068738 4248.94580473
0.01400000 1683734.97029038 4546.08462132
0.01500000 1681210.62695864 4438.39625281
0.01600000 1678516.29608541 5136.26009563
0.01700000 1675654.07287914 5429.11943967
0.01800000 1672624.53863962 6197.07419451
0.01900000 1669428.70994698 5509.11499141
0.02000000 1666067.35305715 6297.73487944
0.02100000 1662543.21548200 5486.39285984
0.02200000 1658854.91354104 6867.65965407
0.02300000 1655005.75641468 6553.82309372
0.02400000 1650996.17192096 8667.73029781
0.02500000 1646828.59780454 8991.68455467
0.02600000 1642503.56466814 6652.13974116
0.02700000 1638022.92945558 13759.39323762
0.02800000 1633387.22566273 11368.37561196
0.02900000 1628600.00190038 10260.18048306
0.03000000 1623661.60551087 7550.02681266
0.03100000 1618573.89886457 8546.07057924
0.03200000 1613337.97040731 10381.83031774
0.03300000 1607958.27100886 10660.76382825
0.03400000 1602433.09709590 10095.32897751
0.03500000 1596766.68293819 9484.79453464
0.03600000 1590959.57691461 13244.73908990
0.03700000 1585014.96560119 9938.04429393
0.03800000 1578934.35883997 13855.14964003
0.03900000 1572720.30479250 14154.48339863
0.04000000 1566373.03067833 11559.83350208
0.04100000 1559896.57665876 11792.81866633
0.04200000 1553292.66552354 13024.35960465
0.04300000 1546562.83039192 12248.77818527
0.04400000 1539710.29877791 11432.34949937
0.04500000 1532737.07018786 10575.88627570
0.04600000 1525644.09844633 11831.37053345
0.04700000 1518435.48786149 10932.73602106
0.04800000 1511112.70298134 15549.35043716
0.04900000 1503678.67593155 15788.62683220
0.05000000 1496134.84693223 13734.51853440
0.05100000 1488485.57099086 17415.28199187
0.05200000 1480729.82973143 16480.52377292
0.05300000 1472873.26971899 14316.32884907
0.05400000 1464916.95543319 13294.12199051
0.05500000 1456864.39981689 12237.66152934
0.05600000 1448716.53086033 18579.79037529
0.05700000 1440478.42619545 13785.37918217
0.05800000 1432149.30037477 19011.78285018
0.05900000 1423733.51652695 12813.60224721
0.06000000 1415234.50469703 12949.39632296
0.06100000 1406653.69735336 15698.25599606
0.06200000 1397994.19521153 17174.35949096
0.06300000 1389259.18039098 18671.64425745
0.06400000 1380448.01852607 20189.05321512
0.06500000 1371567.20116003 14936.36751932
0.06600000 1362618.12297962 19172.03788735
0.06700000 1353602.24032768 16568.09219698
0.06800000 1344523.53609028 23656.89272487
0.06900000 1335385.67660647 16825.86031301
0.07000000 1326187.92850023 21185.85314989
0.07100000 1316935.40615466 22756.64488422
0.07200000 1307629.82889619 14318.54729719
0.07300000 1298274.65348837 21616.27399342
0.07400000 1288872.99499259 14499.82187319
0.07500000 1279424.95251199 14585.44514229
0.07600000 1269934.71418267 20534.84529102
0.07700000 1260405.49072142 20645.44290605
0.07800000 1250838.73967261 20751.41566433
0.07900000 1241236.48041770 16384.32231000
0.08000000 1231603.88343216 14963.98788568
0.08100000 1221941.78893661 25550.80400546
0.08200000 1212251.49871763 21129.54461416
0.08300000 1202536.84036266 22727.94734952
0.08400000 1192800.54820166 19770.67001445
0.08500000 1183044.91953362 18313.53621411
0.08600000 1173272.27050382 22966.80577344
0.08700000 1163484.84742690 26108.60120226
0.08800000 1153684.41581632 16941.85644192
0.08900000 1143874.66008911 24707.69381844
0.09000000 1134057.51643131 18575.86299176
0.09100000 1124235.10202184 20168.77867782
0.09200000 1114408.86596615 27982.80793923
0.09300000 1104583.72024441 23361.94678100
0.09400000 1094758.01586309 18720.36295107
0.09500000 1084936.37727811 23434.62685070
0.09600000 1075120.38200282 21900.20321088
0.09700000 1065314.70255195 18792.15223649
0.09800000 1055518.21575706 18809.33548916
0.09900000 1045735.23909453 17254.63225642
0.10000000 1035964.89378016 18833.84265463
0.10100000 1026211.37819246 18841.24178975
0.10200000 1016476.32581955 15704.55997260
0.10300000 1006761.45424577 21987.67119504
0.10400000 997069.32005000 18844.61103549
0.10500000 987403.18759022 18839.65370561
0.10600001 977759.65918189 17262.34759511
0.10700001 968146.65230411 21957.56710753
0.10800001 958561.63005827 20374.22840573
0.10900001 949009.08539372 18790.38077518
0.11000001 939489.62083117 21899.50409237
0.11100001 930004.44590742 18748.89051207
0.11200001 920556.33144593 21844.80277360
0.11300001 911145.24626213 21812.81822248
0.11400001 901774.32027694 24888.97241153
0.11500001 892444.98092929 18634.25207925
0.11600001 883157.93131697 18599.30690940
0.11700001 873915.42247933 20108.79481827
0.11800001 864717.13436463 18522.24189046
0.11900001 855565.34658126 16940.19466022
0.12000001 846461.55061553 16899.60565409
0.12100001 837408.16809394 16857.02721783
0.12200001 828404.84470961 18340.88412593
0.12300001 819454.04584922 22862.76895636
0.12400001 810555.30300560 18237.49517693
0.12500001 801709.87908759 16667.54917161
0.12600001 792921.27624764 16615.66612676
0.12700001 784188.15849692 19573.33735850
0.12800001 775511.62194174 16506.76565098
0.12900001 766893.84620444 17945.31684698
0.13000001 758335.03299091 16391.41251071
0.13100001 749835.22410736 26724.12864690
0.13200001 741396.07889623 17749.02296547
0.13300001 733019.58965225 19153.80278058
0.13400001 724704.06544965 16142.78381895
0.13500001 716452.91803758 16077.20423877
0.13600001 708264.21311467 23287.72842524
0.13700001 700140.36970337 14492.90633625
0.13800001 692080.16301239 15872.85928719
0.13900001 684087.16433731 18675.58046712
0.14000001 676159.31794093 17160.92429866
0.14100001 668298.09104000 15658.22501156
0.14200001 660503.29619362 18418.13528306
0.14300001 652777.16511535 21149.98114733
0.14400001 645116.19625228 15434.40572337
0.14500001 637525.31037368 15357.98545137
0.14600001 630002.08211002 15280.70122244
0.14700001 622549.25374553 20730.89112774
0.14800001 615162.63581849 19248.43978288
0.14900001 607846.51316608 13676.54719151
0.15000001 600599.05773498 16324.28315946
0.15100001 593421.41024364 17589.01142956
0.15200001 586313.45312586 20183.84157627
0.15300001 579276.49129506 14719.41633840
0.15400001 572306.55611501 17297.96647488
0.15500001 565408.29387315 15876.66564123
0.15600001 558577.22103241 14469.94359375
0.15700001 551819.48424091 13078.12239376
0.15800001 545127.66134489 18201.81347141
0.15900001 538507.77977442 14216.60605708
0.16000001 531954.85486041 14131.38138640
0.16100001 525474.19417345 16599.73057752
0.16200001 519061.58613448 13960.16201809
0.16300001 512717.51670268 20180.56241010
0.16400001 506442.81624789 12534.46029388
0.16500001 500235.78346432 13701.45875595
0.16600001 494098.01455205 21041.16494312
0.16700001 488026.96331375 20907.07609548
0.16800001 482022.90899552 12219.28131999
0.16900001 476088.19684365 18210.37438913
0.17000001 470219.33474875 14473.35180699
0.17100001 464416.76928246 15576.53917728
0.17200001 458681.02743885 11902.77322412
0.17300001 453011.21817922 14188.31202341
0.17400001 447406.94410252 12918.87612107
0.17500001 441867.43595649 15164.89111823
0.17600001 436390.98304457 12744.79926174
0.17700001 430980.71469692 16110.05987626
0.17800001 425632.51454640 14856.70362196
0.17900001 420348.13374831 12484.34016200
0.18000001 415126.22589580 11270.67756544
0.18100001 409967.92689835 15668.97490620
0.18200001 404868.75198959 13336.37732052
0.18300001 399831.76542294 15449.50014577
0.18400001 394854.73852534 12052.94146288
0.18500001 389939.24921774 14143.09723728
0.18600001 385081.57184170 16202.30790069
0.18700001 380282.26554446 17158.33663201
0.18800001 375541.29116400 15969.89416126
0.18900001 370859.98921988 10569.51019215
0.19000001 366231.29044254 14689.53775371
0.19100001 361663.89121641 15623.88083878
0.19200001 357148.88535983 11373.40679169
0.19300001 352691.55764035 11289.65729353
0.19400001 348286.70749198 15281.08001330
0.19500001 343936.69636374 15167.60902639
0.19600001 339639.83261949 13047.26478664
0.19700001 335395.42230657 10957.36896457
0.19800001 331203.20449737 9886.41612147
0.19900001 327063.09452754 10793.08262949
0.20000001 322972.11590801 10711.37073032
0.20100001 318932.88007844 11596.40006772
0.20200001 314941.62390696 10548.97019134
0.20300001 311000.88764963 11419.95313425
0.20400001 307107.46156854 12276.62135647
0.20500001 303261.56677612 14056.17428446
0.20600001 299462.66274028 15807.13739992
0.20700001 295710.64804925 10148.78992077
0.20800001 292002.81083689 9154.28855246
0.20900001 288342.73298751 12715.91512585
0.21000001 284724.87465489 11715.00552147
0.21100001 281151.68396943 11622.81116475
0.21200001 277621.34336432 10644.00280778
0.21300001 274132.85521850 11439.56458908
0.21400001 270687.51550803 10475.60734541
0.21500001 267284.40195763 12124.02104599
0.21600001 263920.76443449 12026.86980389
0.21700001 260597.64648289 9373.69778717
0.21800001 257314.45941285 10143.33646964
0.21900001 254069.46471619 10899.58055167
0.22000001 250862.67013735 9979.31748991
0.22100001 247695.36227163 16496.51190730
0.22200001 244565.30889504 9816.85196323
0.22300001 241470.89951359 8924.76486803
0.22400001 238411.89296784 9655.68212178
0.22500001 235391.50876197 9575.72702925
0.22600001 232403.97323306 11078.69792791
0.22700001 229453.21848011 11770.95066467
0.22800001 226535.03221678 10115.92234202
0.22900001 223650.04009194 8487.51942287
0.23000001 220799.35873902 10710.97739897
0.23100001 217981.95453921 12137.23580275
0.23200001 215194.90713996 9777.38106831
0.23300001 212440.38557620 10439.32104094
0.23400001 209717.66060250 9610.31225163
0.23500001 207023.84298413 8794.37326591
0.23600001 204362.16952235 7265.07547014
0.23700001 201729.51261168 7201.74394086
0.23800001 199126.65530678 12135.77458168
0.23900001 196552.27476062 14859.35267474
0.24000001 194006.49208522 9117.33552680
0.24100001 191490.09053441 10426.63592279
0.24200001 189000.77533905 7577.98644567
0.24300001 186538.92222346 9558.25482686
0.24400001 184103.80872366 9472.14140690
0.24500001 181695.49235295 7375.02038348
0.24600001 179313.55797363 7972.28116464
0.24700001 176957.65364284 7241.10752961
0.24800001 174627.46581961 9131.27061968
0.24900001 172321.66123255 9046.88764269
0.25000001 170041.76000506 11523.73062071
0.25100001 167785.16981978 12050.33146655
0.25200001 165554.51783322 8795.91194861
0.25300001 163347.68663396 7468.25658623
0.25400001 161163.89832319 6780.97134276
0.25500001 159003.18893634 6105.72274403
0.25600001 156866.30730091 6651.91607581
0.25700001 154751.65473979 6587.77825396
0.25800001 152660.05719176 7710.09655327
0.25900001 150590.75045627 7634.95140938
0.26000001 148543.51521867 7560.12256476
0.26100001 146517.26014450 6333.94145574
0.26200001 144513.59884729 6271.16791871
0.26300001 142530.36827072 6773.04342071
0.26400001 140568.71311291 7263.88859382
0.26500001 138628.29823418 6084.39629740
0.26600001 136707.59167900 6570.16716699
0.26700001 134808.34613075 7045.08450217
0.26800001 132929.84265230 5900.09134532
0.26900001 131069.76344604 6900.82337199
0.27000001 129230.77203229 6829.20047122
0.27100001 127410.95001275 5198.36700652
0.27200001 125612.08592859 7201.34122708
0.27300001 123831.64156660 6107.37685109
0.27400001 122068.50709393 7049.45661829
0.27500001 120327.34158463 5479.70739509
0.27600001 118602.61401165 5420.73272994
0.27700001 116898.36055174 6824.52661199
0.27800001 115211.65621662 7232.41206129
0.27900001 113544.48670630 5722.64240084
0.28000001 111894.09252690 6131.23709019
0.28100001 110262.77559478 6063.35031693
0.28200001 108649.98842281 5073.41144953
0.28300001 107054.61017963 5472.63193140
0.28400001 105476.76949312 5410.95853110
0.28500001 103917.08456733 5349.65176673
0.28600001 102374.59881598 6170.11736268
0.28700001 100849.65579281 5228.04640376
0.28800001 99341.14081618  6029.01412151
0.28900001 97851.93672203  4682.21539378
0.29000001 96378.00419243  4206.90008213
0.29100001 94922.12557348  4157.58929692
0.29200001 93482.82496517  5751.99849238
0.29300001 92060.59457420  6495.79586064
0.29400001 90654.41428746  4813.74962653
0.29500001 89265.92421507  4756.08866732
0.29600001 87893.11314122  3915.63837580
0.29700001 86536.84869449  4255.01705173
0.29800001 85196.68672223  4203.17873841
0.29900001 83873.69064640  5661.47438664
0.30000001 82565.85948350  4473.41847859
0.30100001 81275.47504795  4418.13503276
0.30200001 79999.32577084  3999.56648126
0.30300001 78740.51713502  4308.68130161
0.30400001 77497.38301164  4609.15707282
0.30500001 76269.51683966  3850.84808754
0.30600001 75056.77053149  4838.91022525
0.30700001 73860.65760903  3412.36254309
0.30800001 72679.75355048  5053.06010483
0.30900001 71514.10791754  3657.94679316
0.31000001 70364.36343067  3610.74748039
0.31100001 69228.81306974  3239.90860506
0.31200001 68109.20106320  4476.81799784
0.31300001 67004.14780627  3155.89551109
0.31400001 65915.26809162  3737.39587775
0.31500001 64840.20585681  4302.79626438
0.31600002 63780.45879190  3942.58924689
0.31700002 62735.36372723  4488.71548722
0.31800002 61705.09862986  2952.58910924
0.31900002 60689.62002184  3495.72227878
0.32000002 59688.79956592  3448.81900222
0.32100002 58701.70044800  5954.11375837
0.32200002 57730.31551476  3636.14409487
0.32300002 56771.30674639  3310.90276622
0.32400002 55827.34399732  4626.69135286
0.32500002 54897.49317693  3221.38505216
0.32600002 53981.99488950  2912.59867218
0.32700002 53079.70511543  3656.13026148
0.32800002 52192.09112765  3605.95174676
0.32900002 51317.52132213  3302.28265345
0.33000002 50457.65991201  2505.22293326
0.33100002 49608.94520627  3211.68326474
0.33200002 48776.61773423  2923.67060544
0.33300002 47956.23339005  4084.43259125
0.33400002 47149.64519783  3553.90467508
0.33500002 46355.13223270  2569.92865268
0.33600002 45574.88683426  2303.81063857
0.33700002 44806.51060160  2726.02823410
0.33800002 44052.21161108  2464.06057316
0.33900002 43309.58082522  2650.54647203
0.34000002 42580.23042320  2831.37255608
0.34100002 41863.20253580  3006.61534851
0.34200002 41159.25191430  2752.93669466
0.34300002 40466.43012191  2714.48826113
0.34400002 39787.46713670  2882.60213057
0.34500002 39119.52466104  2842.42479649
0.34600002 38464.68920502  2002.08716794
0.34700002 37820.21542425  2369.05840638
0.34800002 37189.00733338  2336.21355133
0.34900002 36568.69778880  3071.77075974
0.35000002 35960.40029703  2461.30971490
0.35100002 35364.01797572  2614.10833258
0.35200002 34777.78204395  2578.07710502
0.35300002 34203.24393250  1816.19233884
0.35400002 33640.06554005  2687.00036228
0.35500002 33088.29946051  1943.60680237
0.35600002 32546.27443014  2091.42369394
0.35700002 32015.55367503  2235.00590791
0.35800002 31496.11754709  1865.67261127
0.35900002 30987.03110362  2342.61966239
0.36000002 30488.66563581  2146.24971909
0.36100002 29999.73842757  2117.68163591
0.36200002 29522.28756244  2250.48408748
0.36300002 29053.85384885  2379.51074293
0.36400002 28595.42299089  1878.71937949
0.36500002 28146.71798074  1699.78037937
0.36600002 27708.16979174  2288.00222893
0.36700002 27278.61152202  1957.51325554
0.36800002 26860.04674641  2081.38512097
0.36900002 26449.88418406  1761.56237010
0.37000002 26048.48482802  1884.47772415
0.37100002 25656.13779939  1717.93506843
0.37200002 25273.73288763  1979.69159087
0.37300002 24899.49443146  1815.92021491
0.37400002 24534.17243940  1932.06617113
0.37500002 24177.80191924  2045.44213926
0.37600002 23830.08590259  1482.35056379
0.37700002 23490.19823063  2663.78860554
0.37800002 23158.51170454  1579.87374333
0.37900002 22835.67024674  1561.95991887
0.38000002 22520.69066867  1544.46903922
0.38100002 22212.66639672  1909.17876724
0.38200002 21913.43563466  1636.60501791
0.38300002 21621.21650993  1245.38212997
0.38400002 21337.34353937  1601.90114211
0.38500002 21059.64724980  1341.28899688
0.38600002 20790.67990182  1206.89902548
0.38700002 20527.90036823  1433.66862964
0.38800002 20272.52907390  1419.48255300
0.38900002 20023.44697960  1405.64604456
0.39000002 19782.46498643  1160.24162642
0.39100002 19547.06677208  1264.30433872
0.39200002 19318.88455060  1252.73312803
0.39300002 19096.68854968  1467.19865078
0.39400002 18882.31843293  1230.65516217
0.39500002 18672.94727671  1663.75968118
0.39600002 18469.79567790  1099.87638473
0.39700002 18272.68002658  1090.87904927
0.39800002 18081.74030832  1190.41142960
0.39900002 17896.25287554  1395.90779043
0.40000002 17716.45202973  1172.20910408
0.40100002 17542.53892439  1692.50423562
0.40200002 17374.28758650  1470.38602811
0.40300002 17210.77070583  1668.75640670
0.40400002 17052.98108087  1346.75924467
0.40500002 16900.52095690  1132.16595255
0.40600002 16752.78844748  1431.86089645
0.40700002 16610.23870692  1524.81998554
0.40800002 16472.53308153  1414.82593341
0.40900002 16339.46270007  1205.85240440
0.41000002 16211.45762961  1299.26733329
0.41100002 16087.62754889  1491.32314444
0.41200002 15968.00704505  1483.82712497
0.41300002 15853.59676714  1279.86092765
0.41400002 15742.77236339  1273.98391387
0.41500002 15636.41727029  1170.85498068
0.41600002 15533.55309282  1457.43568799
0.41700002 15435.18266461  1161.34319871
0.41800002 15341.51104349  964.21401477
0.41900002 15249.76949929  1345.02973357
0.42000002 15163.06474288  1053.30234227
0.42100002 15080.15242233  1050.03106292
0.42200002 15000.76319010  1237.33801037
0.42300002 14924.25894367  1423.77437069
0.42400002 14851.11025487  1041.43415597
0.42500002 14781.66388453  1039.00320368
0.42600002 14714.53115679  1036.71234178
0.42700002 14651.84075110  940.64822079
0.42800002 14591.36127066  1408.43121339
0.42900002 14534.84742868  1031.24747393
0.43000002 14480.70397764  936.17755652
0.43100002 14428.48329155  1121.95891392
0.43200002 14380.03856539  1214.17861381
0.43300002 14334.07681475  1306.40782280
0.43400002 14290.78293186  1305.46308269
0.43500002 14249.75915514  931.93429291
0.43600002 14211.67849244  1211.04824012
0.43700002 14175.35123789  1117.58474456
0.43800002 14141.21524181  1024.31897458
0.43900002 14110.11432943  1024.39434886
0.44000002 14080.72029121  1117.72762969
0.44100002 14053.79717558  1211.29683597
0.44200002 14028.71207971  1305.09114662
0.44300002 14005.71591656  1026.05879667
0.44400002 13984.96146007  1120.19546604
0.44500002 13964.87980345  1027.67555344
0.44600002 13947.03649909  1309.20837821
0.44700002 13932.08493710  1217.10699779
0.44800002 13917.22608358  1312.25530961
0.44900002 13905.68968117  1126.36091756
0.45000002 13895.02429119  1033.99828163
0.45100002 13885.58927278  1035.58729704
0.45200002 13878.01457455  1320.21558905
0.45300002 13871.39205486  1039.10602808
0.45400002 13866.58735395  1135.67355811
0.45500002 13863.15313790  1137.88766349
0.45600002 13860.82303910  1235.20730367
0.45700002 13859.77967945  1237.81698184
0.45800002 13859.55970811  1145.07687735
0.45900002 13860.51258114  1052.01295477
0.46000002 13863.33178569  1150.37932610
0.46100002 13866.11876538  960.92207598
0.46200002 13870.78410613  1637.65420311
0.46300002 13876.33557737  1448.68950294
0.46400002 13882.09397670  1065.10371084
0.46500002 13889.31339973  1165.03566319
0.46600002 13897.08162482  1265.53779815
0.46700002 13905.25857754  1171.37903809
0.46800002 13915.29595877  1076.83522881
0.46900002 13925.02159856  1178.05688307
0.47000002 13935.79719939  1279.93335444
0.47100002 13947.15375088  1283.69609207
0.47200002 13959.36089262  1287.54171296
0.47300002 13972.23090488  1589.48106308
0.47400002 13984.84099605  1394.98795547
0.47500002 13998.40392380  999.48608753
0.47600002 14013.01820979  1203.15780052
