# SAXS profile: number of points = 501, q_min = 0, q_max = 0.5, delta_q = 0.001
#    q    intensity    error
0.00000000 1700912.83420644 331.67800267
0.00100000 1700824.65879011 510.24740975
0.00200000 1700560.10238918 1071.35289843
0.00300000 1700119.37821081 1122.07882959
0.00400000 1699502.38106994 1274.62683424
0.00500000 1698709.75034576 2599.02602090
0.00600000 1697741.35460777 2317.41704339
0.00700000 1696597.92432744 2443.10111257
0.00800000 1695279.22117686 2517.48974974
0.00900000 1693786.74896570 2794.74825526
0.01000000 1692119.84366465 3908.79700765
0.01100000 1690280.13968390 3955.25569907
0.01200000 1688267.47843397 3621.33390001
0.01300000 1686083.26974088 4603.00752941
0.01400000 1683727.71733019 5303.74254471
0.01500000 1681202.35301436 5245.35157497
0.01600000 1678506.86884377 4708.21197758
0.01700000 1675643.45364563 5429.08503335
0.01800000 1672612.72858259 5243.64114006
0.01900000 1669415.51243296 7512.37014493
0.02000000 1666052.79839034 7347.29317326
0.02100000 1662527.16169061 6034.97387055
0.02200000 1658837.37992341 7439.88598697
0.02300000 1654986.61986108 7745.33773351
0.02400000 1650975.35480542 6191.15786282
0.02500000 1646806.12893129 7064.79861577
0.02600000 1642479.35255552 8647.65418673
0.02700000 1637996.88172477 8943.46338384
0.02800000 1633359.33312374 8526.13610991
0.02900000 1628570.09429965 9527.13548908
0.03000000 1623629.72714814 9059.85429393
0.03100000 1618539.97111332 9322.79066258
0.03200000 1613301.96447841 10381.59861958
0.03300000 1607920.14726573 9840.47175492
0.03400000 1602392.89921643 10095.07573085
0.03500000 1596724.17949571 11209.00425767
0.03600000 1590914.66184447 9712.53445941
0.03700000 1584967.80102351 11744.61194874
0.03800000 1578884.87137120 12007.42000248
0.03900000 1572668.39980159 11323.21300295
0.04000000 1566318.67111302 10596.14630109
0.04100000 1559839.75230559 9826.99089517
0.04200000 1553233.33734759 14025.69768694
0.04300000 1546501.03561292 14289.67023236
0.04400000 1539645.73552173 16628.17471588
0.04500000 1532670.07254281 11632.96639112
0.04600000 1525574.48788456 13981.89083144
0.04700000 1518363.18801787 17491.54473946
0.04800000 1511037.76806497 15548.57935683
0.04900000 1503600.92128024 13532.40892142
0.05000000 1496054.42028189 16022.74358734
0.05100000 1488402.49444326 12770.49399722
0.05200000 1480643.94848022 11771.11993897
0.05300000 1472784.70783433 17894.33503438
0.05400000 1464825.58682732 18127.21748233
0.05500000 1456770.24787812 17131.61891422
0.05600000 1448619.52995949 13624.26731503
0.05700000 1440378.63657357 16290.68314007
0.05800000 1432046.80771946 12673.61484008
0.05900000 1423628.17578376 12812.65418048
0.06000000 1415126.30924540 16832.92823489
0.06100000 1406542.76972831 14388.93320674
0.06200000 1397880.39794079 13209.97037802
0.06300000 1389142.66800183 17336.50130724
0.06400000 1380328.75861866 22878.95024408
0.06500000 1371445.20734933 17650.50064424
0.06600000 1362493.45244654 17800.97778910
0.06700000 1353474.74416841 16566.53164392
0.06800000 1344393.27288465 15305.91812825
0.06900000 1335252.76708464 15422.17018188
0.07000000 1326052.45114343 18359.19704581
0.07100000 1316797.29285047 15643.55257177
0.07200000 1307489.09153002 20043.80871214
0.07300000 1298131.39028277 18732.03683948
0.07400000 1288727.08103335 17397.81640928
0.07500000 1279276.66851143 17500.50564553
0.07600000 1269783.79253950 19065.80453880
0.07700000 1260252.15285700 17693.94105575
0.07800000 1250683.08474297 16302.65477416
0.07900000 1241078.37205556 16382.23527952
0.08000000 1231443.43123968 23939.26142632
0.08100000 1221779.07024109 21039.03657667
0.08200000 1212086.71217082 16599.52830212
0.08300000 1202369.69061281 16664.84469401
0.08400000 1192631.47416084 21288.47281302
0.08500000 1182873.72227517 19836.79325380
0.08600000 1173099.16855742 16839.83935530
0.08700000 1163309.71760687 18426.82679217
0.08800000 1153507.41870285 15399.32476289
0.08900000 1143695.72980705 16983.88238536
0.09000000 1133876.84763890 15477.41969733
0.09100000 1124052.66354034 20165.50573131
0.09200000 1114224.97111934 21760.81470843
0.09300000 1104398.22657528 17129.21729912
0.09400000 1094571.06942502 20276.93001406
0.09500000 1084747.98393295 20306.48321368
0.09600000 1074930.70543865 17204.26674928
0.09700000 1065123.72450745 20354.51533226
0.09800000 1055326.22449415 21940.23323881
0.09900000 1045541.91065539 20388.06821648
0.10000000 1035770.54593406 21968.69431239
0.10100000 1026016.06961205 20407.46058438
0.10200000 1016280.35674729 15701.53225029
0.10300000 1006564.70024051 15702.41006240
0.10400000 996871.90089560 23551.09976662
0.10500000 987205.02309959 18835.87272696
0.10600001 977561.04174887 17258.84100417
0.10700001 967947.72780510 28225.35707102
0.10800001 958362.18696955 18803.06699325
0.10900001 948809.36330492 21917.49732391
0.11000001 939289.94107816 17203.09608059
0.11100001 929804.57855935 17182.78942063
0.11200001 920356.55012297 18720.05311079
0.11300001 910945.58399154 17134.88724161
0.11400001 901574.94824573 18662.60230740
0.11500001 892245.95853894 18630.09649155
0.11600001 882959.43955719 18595.12667275
0.11700001 873717.39480977 21650.71806303
0.11800001 864519.74505607 15431.67817606
0.11900001 855368.76357841 16936.30231658
0.12000001 846265.75400094 18431.66899036
0.12100001 837213.40618221 16853.10666037
0.12200001 828211.19508705 19864.64645001
0.12300001 819261.39812543 18285.91526769
0.12400001 810363.86362923 16713.75547486
0.12500001 801519.85425444 21208.21634291
0.12600001 792732.73892296 15101.55938812
0.12700001 784001.19460236 18063.38837490
0.12800001 775326.38367627 19503.33610055
0.12900001 766710.38215662 16445.93847239
0.13000001 758153.42457485 19367.03014363
0.13100001 749655.53699500 19296.13443183
0.13200001 741218.51512602 14787.31007384
0.13300001 732844.26634121 19149.22158225
0.13400001 724531.07287846 16138.93040925
0.13500001 716282.34667407 16073.37661720
0.13600001 708095.92579737 16006.50915737
0.13700001 699975.08661259 20285.27896655
0.13800001 691917.74960119 15869.13433542
0.13900001 683927.26576015 17234.96790993
0.14000001 676002.53906231 20016.43612562
0.14100001 668144.22900005 21347.20912335
0.14200001 660352.57393993 15581.01971700
0.14300001 652629.78386235 19735.52559488
0.14400001 644972.09705293 16833.77252713
0.14500001 637384.54431102 15354.59439676
0.14600001 629864.91467562 15277.37422616
0.14700001 622415.95986568 13817.63496089
0.14800001 615032.91126055 20618.97932279
0.14900001 607720.58805541 16408.45665166
0.15000001 600477.09726367 17681.04896317
0.15100001 593303.56916009 13527.32201514
0.15200001 586199.79201524 21525.25737851
0.15300001 579167.17499237 14716.63861102
0.15400001 572201.46248853 18625.15848294
0.15500001 565307.55725675 18519.47644972
0.15600001 558481.04869453 14467.45224922
0.15700001 551727.88521649 14383.54664645
0.15800001 545040.68019682 16898.98708711
0.15900001 538425.55183808 15506.65662486
0.16000001 531877.58781808 15413.81322254
0.16100001 525401.98191835 14043.99563961
0.16200001 518994.48849266 16496.24059546
0.16300001 512655.38247254 13872.45530460
0.16400001 506385.74552665 16292.96213150
0.16500001 500183.98728413 19927.33099420
0.16600001 494051.76326628 14851.19670495
0.16700001 487985.85318880 12297.24408097
0.16800001 481987.44894428 13440.22064841
0.16900001 476058.42026250 15781.33737687
0.17000001 470194.98183294 14472.60222421
0.17100001 464398.24893250 15575.91800471
0.17200001 458668.16593016 16663.41525514
0.17300001 453004.29091463 11823.41255123
0.17400001 447405.92341727 19965.49027539
0.17500001 441872.37695924 12831.97443292
0.17600001 436401.98036362 12745.12043846
0.17700001 430997.85829828 14959.93636810
0.17800001 425655.50675747 13714.62107550
0.17900001 420377.31634031 15890.26330822
0.18000001 415161.62380219 12398.80248051
0.18100001 410009.78941068 11193.26777964
0.18200001 404916.81731647 11114.96716038
0.18300001 399886.26393438 15451.60596835
0.18400001 394915.60159585 10958.90846199
0.18500001 390006.56933171 13057.42055809
0.18600001 385155.24300367 11883.96558432
0.18700001 380362.61106650 13944.09398048
0.18800001 375628.16549356 11713.96489436
0.18900001 370953.29425544 11629.38632437
0.19000001 366331.36916555 13644.01248923
0.19100001 361770.53919873 14586.58882971
0.19200001 357262.20776276 10342.74140344
0.19300001 352811.57426560 11293.49902589
0.19400001 348413.28272132 11210.19790128
0.19500001 344070.14850138 14161.92798154
0.19600001 339779.85775636 11044.54479830
0.19700001 335542.20771201 9965.60404000
0.19800001 331356.99198269 9891.00667812
0.19900001 327223.31448712 14725.04984783
0.20000001 323139.26343875 13639.70895438
0.20100001 319106.72193050 12569.61437091
0.20200001 315122.24170406 9595.47271340
0.20300001 311188.14535379 9522.35769790
0.20400001 307301.47066997 9449.52066974
0.20500001 303462.34674834 14065.48043662
0.20600001 299670.36394333 9304.76524026
0.20700001 295924.91647432 10156.14361347
0.20800001 292223.85078540 10993.46178621
0.20900001 288570.45546951 10907.96373238
0.21000001 284959.34331947 9018.96364241
0.21100001 281392.82799436 12527.60929453
0.21200001 277869.14170977 11541.29534652
0.21300001 274387.18295985 10569.39478729
0.21400001 270948.43712643 11359.51376356
0.21500001 267551.80932240 9535.54693507
0.21600001 264194.76172839 11179.40187108
0.21700001 260878.24169750 8530.71890684
0.21800001 257601.43674499 8462.20759717
0.21900001 254362.80687040 14269.75414013
0.22000001 251162.30612194 9991.23700994
0.22100001 248001.32795558 9084.28907255
0.22200001 244877.75760266 10648.50979286
0.22300001 241789.35972749 8936.53515810
0.22400001 238736.62587253 8863.09765462
0.22500001 235722.33305345 7990.98746838
0.22600001 232740.88103481 8717.31011138
0.22700001 229796.14313025 11788.54270005
0.22800001 226883.90486596 9352.15500084
0.22900001 224004.82501143 8500.98351120
0.23000001 221159.92951308 9962.14949604
0.23100001 218348.25865311 9878.07568863
0.23200001 215566.87916436 10547.68789635
0.23300001 212818.03304716 8216.90464457
0.23400001 210100.97180337 8887.27152761
0.23500001 207412.54694808 8076.64496015
0.23600001 204756.25136376 8734.90209631
0.23700001 202129.02434350 8659.20781244
0.23800001 199531.32368339 7868.51812163
0.23900001 196962.26319865 8508.77017264
0.24000001 194421.47160650 9136.83749032
0.24100001 191910.14671711 6966.33865535
0.24200001 189425.64488955 8285.47809939
0.24300001 186968.84750412 10948.89622775
0.24400001 184538.45133810 7459.96724823
0.24500001 182134.80174066 8737.00685280
0.24600001 179757.62239996 7992.02426997
0.24700001 177406.15978697 7259.46040190
0.24800001 175080.26267150 9808.87218020
0.24900001 172778.78347246 9718.80703010
0.25000001 170503.04914210 8345.27213506
0.25100001 168250.52874497 7631.84434493
0.25200001 166024.01861585 6930.67298501
0.25300001 163821.04264374 6241.58202002
0.25400001 161641.13520848 8037.60582851
0.25500001 159484.21572953 6736.61359114
0.25600001 157350.90392584 7279.05316000
0.25700001 155239.71719081 8410.88827535
0.25800001 153151.64652459 5949.94174900
0.25900001 151085.53434042 7070.80334168
0.26000001 149041.37976445 7585.46138202
0.26100001 147018.40846844 5777.82372619
0.26200001 145017.78126955 6293.04691596
0.26300001 143037.43317130 9062.85219457
0.26400001 141078.50625679 5607.87088906
0.26500001 139140.77290989 8882.74736289
0.26600001 137222.60056252 8243.64811888
0.26700001 135325.88632666 5440.10088776
0.26800001 133449.58620514 6461.62926982
0.26900001 131591.86095375 6395.36474499
0.27000001 129754.93411441 7911.80748203
0.27100001 127937.13246725 7307.76935235
0.27200001 126140.20045388 6198.52974364
0.27300001 124361.50435927 7666.88710658
0.27400001 122600.04832061 7080.15312558
0.27500001 120860.29264194 7005.06289304
0.27600001 119137.06317807 5445.15973025
0.27700001 117434.16260277 4897.00481229
0.27800001 115748.69936608 5328.49162750
0.27900001 114082.63303024 5749.76497685
0.28000001 112433.20912462 7108.58998334
0.28100001 110802.73518471 8436.52065626
0.28200001 109190.65488715 6489.20092707
0.28300001 107595.90843066 5958.66169091
0.28400001 106018.68525056 4985.52890988
0.28500001 104459.33560084 5825.69742220
0.28600001 102917.26177911 4873.64716223
0.28700001 101392.48919053 4818.17131439
0.28800001 99884.11991545  4329.97680329
0.28900001 98394.78707238  5992.24281634
0.29000001 96920.80620404  6345.89008659
0.29100001 95464.74401713  4599.49158446
0.29200001 94025.07381724  4545.64240886
0.29300001 92602.30326632  5717.26647429
0.29400001 91195.52829854  4438.94255005
0.29500001 89806.33315110  5582.36193292
0.29600001 88432.75368245  5121.58317196
0.29700001 87075.58893643  5059.96271262
0.29800001 85734.52414775  4229.71294906
0.29900001 84410.46278825  4178.31810582
0.30000001 83101.48238054  5628.04816065
0.30100001 81809.66589402  4817.77145257
0.30200001 80532.15862828  4026.20546122
0.30300001 79271.82498420  4699.23400753
0.30400001 78026.93831199  3569.73259677
0.30500001 76797.54433591  4582.50968747
0.30600001 75582.93923141  5917.01067786
0.30700001 74384.96228521  3780.24396230
0.30800001 73202.11046767  3732.20977889
0.30900001 72034.38035854  3349.59884526
0.31000001 70882.34938570  3967.99410648
0.31100001 69744.48637632  4243.25475203
0.31200001 68622.49717029  3544.00903415
0.31300001 67515.00095778  4133.94370437
0.31400001 66423.74713309  3766.22664076
0.31500001 65345.88417066  3407.13456198
0.31600002 64283.42137061  3362.34451399
0.31700002 63235.52122790  4826.13520862
0.31800002 62202.40501489  5059.85487551
0.31900002 61183.87669299  3524.19146438
0.32000002 60180.14127518  3187.44133356
0.32100002 59189.86846005  4002.41909478
0.32200002 58215.25631309  3384.63516231
0.32300002 57252.91194470  3895.48831317
0.32400002 56305.62009850  4117.34866466
0.32500002 55372.31299936  4603.10059760
0.32600002 54453.33856384  2938.03002133
0.32700002 53547.50382572  3951.80596947
0.32800002 52656.16314332  3118.29812901
0.32900002 51777.91715058  2563.00702032
0.33000002 50914.34994478  4044.63615114
0.33100002 50061.76022983  2493.07577750
0.33200002 49225.42619559  3688.21523236
0.33300002 48401.08873380  2667.38412643
0.33400002 47590.52842752  2869.70900008
0.33500002 46791.84474564  2829.97090423
0.33600002 46007.57516714  2325.68303484
0.33700002 45235.01620593  2752.09851630
0.33800002 44476.40710133  2713.95048985
0.33900002 43729.43560658  4014.36237880
0.34000002 42995.67960448  2419.15202751
0.34100002 42274.27714480  2385.53757226
0.34200002 41565.92541175  2566.28035646
0.34300002 40868.54689658  2108.81711974
0.34400002 40185.10911783  3119.36924300
0.34500002 39512.54366188  2050.70111317
0.34600002 38853.10424038  2628.99542294
0.34700002 38203.89810127  3390.21407807
0.34800002 37568.09496901  2163.35885125
0.34900002 36943.03437303  1939.50939644
0.35000002 36329.95304950  2104.04933051
0.35100002 35728.76417013  2452.42248879
0.35200002 35137.67362745  2418.70187870
0.35300002 34558.30931707  2018.55094282
0.35400002 33990.28070933  1809.98253350
0.35500002 33433.54520966  2678.02709814
0.35600002 32886.65859823  2289.40484675
0.35700002 32350.89249888  2779.58881516
0.35800002 31826.56476459  2570.79089063
0.35900002 31312.40274887  2198.13077709
0.36000002 30809.04192302  2001.97163898
0.36100002 30315.01766146  1975.32664438
0.36200002 29832.55144841  2274.13550463
0.36300002 29359.01787450  1923.60294225
0.36400002 28895.51275384  2056.63821767
0.36500002 28441.68979247  1717.59372793
0.36600002 27998.08981148  1849.55390056
0.36700002 27563.43881462  2130.10265249
0.36800002 27139.74142527  1652.40323495
0.36900002 26724.37699994  1779.84359251
0.37000002 26317.84867830  1903.96485282
0.37100002 25920.47383052  2169.54376239
0.37200002 25532.96291201  2142.85401390
0.37300002 25153.65101043  1693.34386624
0.37400002 24783.11544820  1812.26540300
0.37500002 24421.64854193  1377.38104301
0.37600002 24068.69534549  1633.30174352
0.37700002 23723.74404335  1748.67725627
0.37800002 23387.04046830  1462.50864497
0.37900002 23059.11165223  1708.68025437
0.38000002 22738.97661712  1689.39234780
0.38100002 22425.85094939  1670.50171636
0.38200002 22121.62449593  1525.06486500
0.38300002 21824.26461825  2011.32432250
0.38400002 21535.47885706  1368.04135920
0.38500002 21252.71153213  1722.74487841
0.38600002 20978.75974321  1217.81706079
0.38700002 20710.94753931  1446.45264467
0.38800002 20450.58096641  1431.94974711
0.38900002 20196.59334476  1535.95099664
0.39000002 19950.69432848  1521.14076114
0.39100002 19710.31704627  1854.34671557
0.39200002 19477.24945232  1607.45747346
0.39300002 19250.15002526  1251.45231243
0.39400002 19030.99921505  1465.86278399
0.39500002 18816.83176996  1341.26383211
0.39600002 18608.86635170  1662.23706562
0.39700002 18407.01779758  1318.67881750
0.39800002 18211.24771463  1307.93187283
0.39900002 18021.06462800  1081.26392891
0.40000002 17836.60466697  1287.44618586
0.40100002 17658.00874805  1064.77797796
0.40200002 17485.24985639  1374.07842507
0.40300002 17317.07604040  1364.23931510
0.40400002 17154.79771213  1354.80021351
0.40500002 16997.70738033  1345.70855706
0.40600002 16845.54908929  1953.99955919
0.40700002 16698.48975442  1124.14238353
0.40800002 16556.42542856  1218.88409780
0.40900002 16418.93408662  1514.64674126
0.41000002 16286.53059983  1305.28405677
0.41100002 16158.37138079  1098.44613851
0.41200002 16034.50413238  1390.67260929
0.41300002 15915.78974722  1680.23000323
0.41400002 15800.83745308  1475.40326709
0.41500002 15690.34909418  1076.98561286
0.41600002 15583.31756822  1072.21021609
0.41700002 15480.84683711  1553.03862829
0.41800002 15383.12509208  1256.87829520
0.41900002 15287.36582911  1155.72491144
0.42000002 15196.77044261  1247.57892860
0.42100002 15109.81877009  1530.32251755
0.42200002 15026.54328000  1144.12105955
0.42300002 14946.21484214  1045.63723990
0.42400002 14869.26063527  947.91541042
0.42500002 14796.02972876  1229.10624781
0.42600002 14725.21039162  1226.09470136
0.42700002 14658.78463051  1129.31282145
0.42800002 14594.59990144  939.16254816
0.42900002 14534.47030182  937.47337889
0.43000002 14476.78042390  935.92389876
0.43100002 14421.03825017  1121.37998747
0.43200002 14369.12697030  1119.92980914
0.43300002 14319.69896185  1491.53991455
0.43400002 14273.05007204  1210.71152973
0.43500002 14228.62183283  930.55191196
0.43600002 14187.20982651  1487.95463712
0.43700002 14147.61839146  1394.24785855
0.43800002 14110.26638126  1022.07719376
0.43900002 14075.97572274  1021.91588590
0.44000002 14043.41759916  1021.86933003
0.44100002 14013.37367481  1114.90406240
0.44200002 13985.29539444  1301.05209220
0.44300002 13959.21611080  1208.58898815
0.44400002 13935.56038178  1302.27817939
0.44500002 13912.54588919  1116.89923692
0.44600002 13891.80356409  1304.02366236
0.44700002 13874.03507363  1118.80224136
0.44800002 13856.24608620  933.21821813
0.44900002 13841.88964537  1588.35691208
0.45000002 13828.54767953  1590.35220125
0.45100002 13816.41006154  1030.42791122
0.45200002 13806.18134077  1313.38209319
0.45300002 13796.98426607  1127.48960766
0.45400002 13789.57463778  1223.48006772
0.45500002 13783.60731587  1037.07866360
0.45600002 13778.73294767  1227.89184483
0.45700002 13775.28274070  1135.63436296
0.45800002 13772.58890881  1232.71562871
0.45900002 13771.20760455  1045.23470672
0.46000002 13771.71697607  1142.77712884
0.46100002 13772.08468374  1717.92992487
0.46200002 13774.57233420  1052.30850335
0.46300002 13777.87339922  1150.72804084
0.46400002 13781.44890883  1249.63293904
0.46500002 13786.47634815  1156.40969089
0.46600002 13792.21123209  1062.75888686
0.46700002 13798.30320778  1065.50502421
0.46800002 13806.33977173  1262.65886367
0.46900002 13813.98516895  1168.66320068
0.47000002 13822.79679877  1171.89676814
0.47100002 13832.18473490  1175.18247078
0.47200002 13842.57726673  1080.34399399
0.47300002 13853.53177054  1181.98338669
0.47400002 13864.32555983  987.83324296
0.47500002 13876.09384985  1287.97909219
0.47600002 13888.98751705  1093.13281434
0.47700002 13901.35431942  1395.41801272
