# SAXS profile: number of points = 501, q_min = 0, q_max = 0.5, delta_q = 0.001
#    q    intensity    error
0.00000000 1719190.39626458 283.66641538
0.00100000 1719101.83168619 567.30361793
0.00200000 1718836.10797937 1005.51915501
0.00300000 1718393.43572857 1340.34692762
0.00400000 1717773.72313198 1545.99640956
0.00500000 1716977.58939805 1699.80788078
0.00600000 1716004.92058887 2162.16628797
0.00700000 1714856.43681207 2469.39337164
0.00800000 1713531.90470904 3469.90225353
0.00900000 1712032.86091390 3338.46422149
0.01000000 1710358.55489066 4233.13760614
0.01100000 1708510.70513509 3997.91522408
0.01200000 1706489.14479688 4658.71556955
0.01300000 1704295.24748291 5010.62824859
0.01400000 1701929.20091258 3829.34087181
0.01500000 1699392.63003229 6525.66798990
0.01600000 1696685.15779333 6922.47575326
0.01700000 1693808.97657842 5030.61288610
0.01800000 1690764.71332758 5782.41557978
0.01900000 1687553.23348113 7593.98989333
0.02000000 1684175.44900622 7427.21406609
0.02100000 1680634.04385283 6100.70185578
0.02200000 1676927.72522802 6363.94100637
0.02300000 1673059.63527879 7227.61795339
0.02400000 1669030.28456051 9388.29577874
0.02500000 1664842.31281670 7142.17384817
0.02600000 1660495.93283860 7397.50971915
0.02700000 1655993.18305936 8346.20602488
0.02800000 1651334.55276256 9338.29732412
0.02900000 1646523.56854431 8150.29203851
0.03000000 1641560.65523558 7633.25739771
0.03100000 1636447.62682094 10996.92855824
0.03200000 1631185.64137253 13726.42780436
0.03300000 1625779.16502495 8291.47412387
0.03400000 1620226.53399900 9356.80866557
0.03500000 1614531.59146919 14821.40069411
0.03600000 1608695.25739540 9821.08500027
0.03700000 1602720.78061756 10962.61064642
0.03800000 1596609.54400322 9340.16626468
0.03900000 1590364.13154505 11450.62227740
0.04000000 1583984.72478473 14612.25976326
0.04100000 1577475.32215750 12919.52348750
0.04200000 1570837.80016837 14184.66599359
0.04300000 1564073.71155340 12387.46437050
0.04400000 1557185.97741555 14715.40816999
0.04500000 1550177.10719269 11765.84479029
0.04600000 1543047.69707346 14142.03280110
0.04700000 1535801.80580547 11057.77351607
0.04800000 1528441.26420126 13480.85257749
0.04900000 1520968.57443700 18251.62374281
0.05000000 1513385.51515321 12735.13970304
0.05100000 1505696.35484137 18791.09138379
0.05200000 1497900.02909582 16671.62810076
0.05300000 1490002.27269699 19310.43035436
0.05400000 1482004.08822659 14671.84115765
0.05500000 1473909.01468835 13618.91993103
0.05600000 1465717.97331200 20051.02281057
0.05700000 1457436.07236856 12679.69442148
0.05800000 1449062.53726689 19236.30608041
0.05900000 1440601.62717327 15558.49830014
0.06000000 1432056.83720394 18344.64894162
0.06100000 1423429.87711885 13237.89847583
0.06200000 1414723.42324319 14706.05067203
0.06300000 1405941.08052508 16196.44200492
0.06400000 1397081.96799829 13621.54982502
0.06500000 1388152.39335441 13742.70933706
0.06600000 1379154.14040976 19404.69966348
0.06700000 1370088.46866077 15372.39333779
0.06800000 1360959.50710893 22537.49049268
0.06900000 1351770.92409281 19871.03351450
0.07000000 1342521.77874849 18587.21489718
0.07100000 1333217.18714227 14398.74629554
0.07200000 1323859.27134457 20294.76358046
0.07300000 1314451.29867194 21885.61514835
0.07400000 1304996.14851519 19085.56956646
0.07500000 1295494.30573047 20676.09008860
0.07600000 1285949.54638487 16337.98975275
0.07700000 1276365.45449826 17920.17182141
0.07800000 1266743.30663209 15010.90888755
0.07900000 1257085.26120515 19610.53099461
0.08000000 1247396.23981229 18187.03802964
0.08100000 1237677.61668395 18268.12247936
0.08200000 1227930.23661952 16816.50537962
0.08300000 1218157.88317743 21488.30606774
0.08400000 1208363.62436848 16947.30062725
0.08500000 1198549.54759060 17007.41887873
0.08600000 1188718.12251253 18615.32667256
0.08700000 1178871.46673570 15561.10409163
0.08800000 1169011.51740939 17166.93493938
0.08900000 1159141.70161772 17213.25507752
0.09000000 1149264.13339138 25099.92985235
0.09100000 1139381.11468592 18868.15214565
0.09200000 1129493.87857509 18907.72841576
0.09300000 1119607.37110504 17365.11114186
0.09400000 1109719.94863150 20557.56301455
0.09500000 1099836.21748891 22172.69918675
0.09600000 1089957.81438304 20616.55302819
0.09700000 1080089.49896452 17465.04801934
0.09800000 1070230.12524691 17482.20991788
0.09900000 1060383.86589463 30220.94159906
0.10000000 1050549.75096070 20690.57831819
0.10100000 1040732.41437751 15923.20668887
0.10200000 1030933.68678691 20706.30407306
0.10300000 1021154.15378833 20709.00721299
0.10400000 1011397.56243649 22301.31730089
0.10500000 1001666.39426790 19111.79570183
0.10600001 991957.82143116 17513.01616142
0.10700001 982279.65565151 15912.93117038
0.10800001 972628.90834186 17492.73173977
0.10900001 963010.60682203 20656.57848855
0.11000001 953425.41515269 22224.34747330
0.11100001 943873.98978913 15857.08377490
0.11200001 934359.54782025 22172.35311359
0.11300001 924881.93334291 18978.57816572
0.11400001 915444.30881241 17370.55657760
0.11500001 906048.34035958 20494.81442399
0.11600001 896694.19641681 18884.38066583
0.11700001 887384.54342781 23560.06073757
0.11800001 878118.90294554 25079.07704931
0.11900001 868899.82151467 15640.19752394
0.12000001 859728.51593733 20285.29528908
0.12100001 850607.62894758 15566.12034303
0.12200001 841536.46820895 18631.61828391
0.12300001 832517.80582384 18581.79830146
0.12400001 823551.03570345 18529.89917641
0.12500001 814637.57418539 18475.98105312
0.12600001 805780.75935759 15350.12418911
0.12700001 796979.52000661 18362.40900631
0.12800001 788234.75563749 18302.81188850
0.12900001 779548.68610888 18241.44011470
0.13000001 770921.53442366 22722.91329818
0.13100001 762353.19514605 18113.51277050
0.13200001 753845.62307629 15039.22088933
0.13300001 745400.68479157 16480.80991770
0.13400001 737016.68490294 20894.42400208
0.13500001 728697.03168028 20811.58820602
0.13600001 720439.47911849 16285.53519335
0.13700001 712247.43766453 20640.93171681
0.13800001 704118.67179999 20553.22499904
0.13900001 696056.95365661 19002.35573094
0.14000001 688060.88254394 18918.23485774
0.14100001 680131.06737342 21730.18862744
0.14200001 672267.78124883 17304.17350550
0.14300001 664473.13345319 15787.88239552
0.14400001 656743.90123395 21426.27078843
0.14500001 649084.56151560 21322.42885161
0.14600001 641492.99425918 19802.88966697
0.14700001 633971.96775292 16889.01401770
0.14800001 626517.10942684 14002.65805632
0.14900001 619132.82983052 18109.63612697
0.15000001 611817.19206233 13857.66005406
0.15100001 604571.59981377 15162.65643878
0.15200001 597395.89530219 17823.30737737
0.15300001 590291.16456590 14999.29919942
0.15400001 583253.35512125 16272.76937581
0.15500001 576287.40068385 18879.17613737
0.15600001 569388.88291680 18772.75235575
0.15700001 562563.73102481 14666.03716001
0.15800001 555804.50259109 13255.93801246
0.15900001 549117.32977773 14496.69819038
0.16000001 542497.44941919 15721.57682626
0.16100001 535949.83308983 14325.93971474
0.16200001 529470.54284392 16829.22199874
0.16300001 523059.63817124 15440.72124774
0.16400001 516718.24793334 15346.53268812
0.16500001 510444.70282097 16523.09581039
0.16600001 504240.83523663 15157.48022284
0.16700001 498103.43073370 12552.20704714
0.16800001 492033.53538618 14967.66085317
0.16900001 486033.15397402 14872.61521386
0.17000001 480098.44810436 13545.97835290
0.17100001 474230.42668234 13458.66014478
0.17200001 468429.21229673 15802.46022307
0.17300001 462694.22415041 13283.95180269
0.17400001 457025.14393395 14396.29271380
0.17500001 451420.74196339 14301.00978080
0.17600001 445879.52047594 15389.53237606
0.17700001 440404.86152685 16462.33450140
0.17800001 434992.14137166 16351.35536647
0.17900001 429643.63143868 12760.41645645
0.18000001 424357.70466828 14977.70589374
0.18100001 419135.91644465 11442.41105944
0.18200001 413973.02450455 14772.62807727
0.18300001 408872.84495902 14670.35837015
0.18400001 403832.53420236 14568.25935957
0.18500001 398854.22051554 14466.44326152
0.18600001 393933.63294567 14364.79060401
0.18700001 389071.93551992 18652.10947004
0.18800001 384268.54397360 11983.41510999
0.18900001 379525.07255981 15143.05111061
0.19000001 374834.42981427 11812.90761374
0.19100001 370205.37986230 15992.87316572
0.19200001 365628.99822962 14818.94399846
0.19300001 361110.19616605 11559.13792547
0.19400001 356644.35091457 12518.21730864
0.19500001 352233.52474087 14497.93256344
0.19600001 347875.86933012 14391.62539428
0.19700001 343571.09792382 13265.28071772
0.19800001 339318.90277613 11141.53669919
0.19900001 335118.63687378 17091.05128829
0.20000001 330968.06157664 15965.90004502
0.20100001 326869.25486770 10894.55277964
0.20200001 322818.76047386 12778.78123733
0.20300001 318818.81630620 10731.44186408
0.20400001 314866.71141924 13555.01256729
0.20500001 310962.21465837 9608.73288712
0.20600001 307105.07204589 11442.73552531
0.20700001 303294.88510589 10409.08094886
0.20800001 299529.06947494 11268.28412630
0.20900001 295811.52257254 10249.86974166
0.21000001 292136.21802486 11095.33408509
0.21100001 288505.87140163 11926.83328757
0.21200001 284918.60332209 10013.46478714
0.21300001 281373.35322000 14451.33610457
0.21400001 277871.45770029 8961.35493450
0.21500001 274412.16669507 9780.05008339
0.21600001 270992.60541522 11467.05264029
0.21700001 267613.77803291 9626.06805096
0.21800001 264275.03328279 13022.15288070
0.21900001 260974.81190213 8612.16919997
0.22000001 257712.84541203 10251.81747522
0.22100001 254490.81034520 9321.99882372
0.22200001 251306.24967465 9246.81389401
0.22300001 248157.47959740 12507.13756311
0.22400001 245044.42634460 10751.32471426
0.22500001 241970.20239775 8202.79024917
0.22600001 238929.03873122 8135.53415351
0.22700001 235925.05040942 9682.36452667
0.22800001 232953.68649903 12002.93926448
0.22900001 230015.79778822 8729.09993887
0.23000001 227112.57692206 11804.17674377
0.23100001 224242.74296101 8584.01260651
0.23200001 221403.43367270 10833.27052195
0.23300001 218597.06242813 11509.13588116
0.23400001 215822.68810459 8368.52512705
0.23500001 213077.29295553 9805.81748559
0.23600001 210364.51828478 9721.99667235
0.23700001 207680.89213008 7414.20819972
0.23800001 205027.29004012 8820.27443471
0.23900001 202402.47797091 13844.33014804
0.24000001 199806.38200486 10112.20147158
0.24100001 197240.02148486 8591.77574228
0.24200001 194700.84507159 8516.21536627
0.24300001 192189.49624117 7034.13589516
0.24400001 189705.08627018 9063.16092528
0.24500001 187247.75164911 8982.27507151
0.24600001 184816.95080360 8216.96202143
0.24700001 182412.43643334 6785.74295633
0.24800001 180033.92090790 8741.54744322
0.24900001 177679.97193088 9994.49889393
0.25000001 175352.17704031 9903.01466685
0.25100001 173047.79495883 8503.56904657
0.25200001 170769.80713470 7128.78593610
0.25300001 168515.71020097 7062.49374865
0.25400001 166284.97544802 7632.48073417
0.25500001 164077.51909506 6930.63473448
0.25600001 161894.02206915 8737.42078446
0.25700001 159733.13576521 6799.83991125
0.25800001 157595.52722336 7347.10382677
0.25900001 155480.38376693 6670.10877920
0.26000001 153387.46015387 7806.65515391
0.26100001 151315.94664003 7730.73207963
0.26200001 149267.12700209 7066.30612663
0.26300001 147238.88407053 8162.92411912
0.26400001 145232.64951536 7504.89751882
0.26500001 143247.77657781 8001.82117827
0.26600001 141282.82855276 6790.05306155
0.26700001 139339.57537043 7842.03167293
0.26800001 137417.19591072 6099.26252912
0.26900001 135513.57959054 6585.96027976
0.27000001 133631.25362151 5975.32178845
0.27100001 131768.36880504 5913.76467183
0.27200001 129926.68291492 5320.49791715
0.27300001 128103.50255764 5791.55962471
0.27400001 126297.94705495 10940.56018139
0.27500001 124514.42995327 5670.38740842
0.27600001 122747.70013942 6630.21733681
0.27700001 121001.73282940 7064.08149690
0.27800001 119273.54755991 5989.91784194
0.27900001 117564.91668558 6419.04475483
0.28000001 115873.38155771 4884.06326381
0.28100001 114201.16588664 7246.06431846
0.28200001 112547.66562134 8599.76753715
0.28300001 110911.78065741 7559.74732741
0.28400001 109293.75609246 5139.53912351
0.28500001 107693.99046594 6930.10861449
0.28600001 106111.76285814 5938.54508944
0.28700001 104547.17094544 5871.36939820
0.28800001 102999.26411456 4911.52014178
0.28900001 101470.92097541 4855.38379850
0.29000001 99958.05617378  5672.12016607
0.29100001 98463.52161150  4743.97269580
0.29200001 96985.66801264  6820.03249748
0.29300001 95525.15201485  4633.92534359
0.29400001 94080.84351846  5412.00077958
0.29500001 92654.47653364  4936.63074340
0.29600001 91244.04762294  4877.90701683
0.29700001 89850.35643264  4417.94223493
0.29800001 88472.94070486  5555.21620983
0.29900001 87113.07686255  5488.12410214
0.30000001 85768.45420396  5808.66883594
0.30100001 84441.40767719  5737.79392329
0.30200001 83129.03818330  4533.85795715
0.30300001 81834.04774000  4477.95930432
0.30400001 80554.78428216  3685.38155538
0.30500001 79291.30880027  3639.47124623
0.30600001 78043.08095782  6109.60288203
0.30700001 76811.69410611  3903.57047928
0.30800001 75595.80180969  4905.41181167
0.30900001 74395.30590156  3805.32007702
0.31000001 73210.89894188  6489.04833494
0.31100001 72040.88798418  6068.72469111
0.31200001 70886.99477899  3993.77347494
0.31300001 69748.09333038  3942.16242168
0.31400001 68625.56231312  3566.81377010
0.31500001 67516.75372774  3520.32370604
0.31600002 66423.64976756  4105.97810479
0.31700002 65345.41447302  4052.06934333
0.31800002 64282.26030372  3691.08756141
0.31900002 63234.12566099  3035.23817544
0.32000002 62200.88689172  2994.97284565
0.32100002 61181.49301889  4137.09275383
0.32200002 60178.06713528  5248.12948337
0.32300002 59187.07962602  3451.79064723
0.32400002 58211.53152641  5675.62459257
0.32500002 57250.32479611  3079.49511660
0.32600002 56303.63089680  3037.86254889
0.32700002 55370.43899778  2724.22572769
0.32800002 54451.95740807  3493.36549294
0.32900002 53546.87331063  3445.74146071
0.33000002 52656.67408322  2875.84439124
0.33100002 51777.97041591  2836.39735370
0.33200002 50915.53518785  3051.87732368
0.33300002 50065.47255900  2508.28029399
0.33400002 49229.48547199  3710.67264317
0.33500002 48405.62651312  3171.53679933
0.33600002 47596.45912521  3127.80145953
0.33700002 46799.23029526  2847.26530600
0.33800002 46016.42354748  3275.90934748
0.33900002 45245.30309619  2307.51056718
0.34000002 44487.82033063  2958.21775298
0.34100002 43742.76912318  2468.40457852
0.34200002 43011.20584960  2876.80463949
0.34300002 42290.75522935  2182.20307318
0.34400002 41584.63482875  2582.40594517
0.34500002 40889.48318932  2546.59713364
0.34600002 40207.73864619  2092.81289565
0.34700002 39536.60041637  2063.81063948
0.34800002 38879.02100143  2442.38021498
0.34900002 38232.46166483  2810.08606546
0.35000002 37598.21802332  3365.22866356
0.35100002 36975.95869347  2538.02992493
0.35200002 36364.19102226  1925.48400583
0.35300002 35764.32546050  2468.81150347
0.35400002 35176.01011442  3558.93299189
0.35500002 34599.33754219  2217.12565472
0.35600002 34032.69324069  3462.65653778
0.35700002 33477.34927361  2516.82723760
0.35800002 32933.66365390  1773.47787176
0.35900002 32400.50462904  2099.55279941
0.36000002 31878.38756585  2071.45772215
0.36100002 31365.73854085  2384.42355682
0.36200002 30864.91923178  1680.59493177
0.36300002 30373.26587396  2819.24667196
0.36400002 29891.84789126  1800.23662452
0.36500002 29420.41006616  1615.18058914
0.36600002 28959.34198771  1594.21185194
0.36700002 28507.46245207  1573.61200189
0.36800002 28066.76340384  2019.54405639
0.36900002 27634.66192530  1993.84095236
0.37000002 27211.53474714  2725.77956474
0.37100002 26797.83035640  1644.85090519
0.37200002 26394.16719384  1476.75372445
0.37300002 25998.85440844  1896.09654183
0.37400002 25612.67414789  1872.92688579
0.37500002 25235.63814264  1850.27707627
0.37600002 24867.44564831  1546.87952983
0.37700002 24507.41205681  1528.52736239
0.37800002 24155.81006076  2059.88680051
0.37900002 23813.27798102  1628.82829106
0.38000002 23478.62737018  1610.16434133
0.38100002 23151.17518726  1591.87488129
0.38200002 22832.82787162  1574.09522804
0.38300002 22521.62976916  1426.97052977
0.38400002 22219.11718545  2181.36193302
0.38500002 21922.89146128  1777.06966604
0.38600002 21635.66990937  1632.73590706
0.38700002 21354.61535523  1988.54187609
0.38800002 21081.41723318  1476.12090460
0.38900002 20814.62475120  1826.48340845
0.39000002 20556.21405812  1326.18421279
0.39100002 20303.47133021  1551.99742201
0.39200002 20058.18495377  1418.91607085
0.39300002 19819.01470219  1405.56458927
0.39400002 19588.02624875  1276.64967125
0.39500002 19362.22526655  1495.15110592
0.39600002 19142.80633764  1367.94500570
0.39700002 18929.62748527  1243.10869585
0.39800002 18722.74055510  1344.66729038
0.39900002 18521.51965178  1444.67860129
0.40000002 18326.29226385  1433.02449147
0.40100002 18137.07560824  1640.49856649
0.40200002 17953.80687279  1410.89997995
0.40300002 17775.31763257  1184.90272953
0.40400002 17602.84907164  1710.99701083
0.40500002 17435.82856158  1168.02621068
0.40600002 17273.77682059  1054.56412486
0.40700002 17117.13206969  1571.35279845
0.40800002 16965.44350809  1144.91300939
0.40900002 16818.62066352  1344.64878576
0.41000002 16677.06829357  1130.95543992
0.41100002 16539.78218732  1431.02202265
0.41200002 16407.00281921  1219.69664737
0.41300002 16279.59267334  1010.96275292
0.41400002 16155.98873612  1005.71034648
0.41500002 16037.01544788  1601.13569818
0.41600002 15921.61718746  1294.66636294
0.41700002 15811.02796922  1784.43270116
0.41800002 15705.17459051  1184.48432374
0.41900002 15601.53561010  1179.47614801
0.42000002 15503.18686864  1566.44207543
0.42100002 15408.60039053  1560.58312150
0.42200002 15317.80130263  1360.68035419
0.42300002 15230.01148286  1259.21740907
0.42400002 15145.92081628  1158.66299735
0.42500002 15065.51638423  1155.22385108
0.42600002 14987.71624739  1151.95592536
0.42700002 14914.35959651  957.50193147
0.42800002 14843.60711910  1337.26062873
0.42900002 14776.80766671  1143.72496760
0.43000002 14712.56916449  1141.40116987
0.43100002 14650.50105221  1044.28776449
0.43200002 14592.32257165  1705.98851269
0.43300002 14536.76047711  1608.78335824
0.43400002 14484.09653865  945.08734393
0.43500002 14433.80505991  1510.35343304
0.43600002 14386.60865875  1414.56336341
0.43700002 14341.31032967  1224.89137330
0.43800002 14298.35071473  1318.16501486
0.43900002 14258.66281578  941.07179044
0.44000002 14220.75884733  1316.98453926
0.44100002 14185.50767538  1128.59904414
0.44200002 14152.19898450  940.41366709
0.44300002 14121.12445160  1410.70039957
0.44400002 14092.50486595  1316.94464213
0.44500002 14064.62374548  1317.29272243
0.44600002 14039.15353131  941.32528889
0.44700002 14016.75816544  1412.88929004
0.44800002 13994.44598284  1696.54676690
0.44900002 13975.67181447  1415.03683828
0.45000002 13957.98560322  1133.10932497
0.45100002 13941.63918089  1039.76749939
0.45200002 13927.27852672  1324.90206904
0.45300002 13913.94689913  1042.29381161
0.45400002 13902.55022939  1233.50382756
0.45500002 13892.69104020  1330.36415706
0.45600002 13884.06141617  951.75245519
0.45700002 13876.93066725  1239.34873663
0.45800002 13870.58977769  1050.48916660
0.45900002 13865.61271850  1243.74551980
0.46000002 13862.66374755  1246.18421665
0.46100002 13859.62504104  1152.56647304
0.46200002 13858.78193112  1251.24018595
0.46300002 13858.88121834  1157.49381422
0.46400002 13859.30655107  1353.36134886
0.46500002 13861.31420999  1162.68709104
0.46600002 13863.96437554  1068.28782559
0.46700002 13867.09223947  1168.16390562
0.46800002 13872.28442010  1561.46440833
0.46900002 13877.16870283  1076.17448391
0.47000002 13883.28014119  1078.93916731
0.47100002 13890.00236554  1081.75343550
0.47200002 13897.80787155  986.04951522
0.47300002 13906.31018049  1285.36031091
0.47400002 13914.64554296  991.41854193
0.47500002 13924.04522032  1093.59456344
0.47600002 13934.62837592  1595.23633209
0.47700002 13944.76582890  1299.79168452
