# SAXS profile: number of points = 501, q_min = 0, q_max = 0.5, delta_q = 0.001
#    q    intensity    error
0.00000000 1682732.95097188 378.61491397
0.00100000 1682645.31971908 504.79360790
0.00200000 1682382.39849664 1287.02257560
0.00300000 1681944.39925469 1311.91667815
0.00400000 1681331.21692106 1387.09830667
0.00500000 1680543.48039107 1663.73811144
0.00600000 1679581.07104067 2292.62825531
0.00700000 1678444.70158286 2618.37384329
0.00800000 1677134.17270580 2943.37059737
0.00900000 1675650.94169287 3770.21477998
0.01000000 1673994.34666286 3866.92710776
0.01100000 1672166.04697376 3611.87881872
0.01200000 1670165.88085666 3908.18833255
0.01300000 1667995.21209835 3502.79009990
0.01400000 1665654.28602313 4497.26677163
0.01500000 1663144.61288164 4390.70197352
0.01600000 1660465.89668837 4657.60704842
0.01700000 1657620.28998878 7608.47747235
0.01800000 1654608.41938325 5187.19762818
0.01900000 1651431.12633617 6936.01104358
0.02000000 1648089.42240367 7787.22287312
0.02100000 1644585.78477138 8683.41333729
0.02200000 1640919.10086372 6227.28827070
0.02300000 1637092.40919321 7661.59282377
0.02400000 1633106.30121530 6736.56379968
0.02500000 1628963.29295294 6352.95713266
0.02600000 1624663.66415675 6579.88814079
0.02700000 1620209.40523342 7485.36779502
0.02800000 1615601.04739192 9839.01082983
0.02900000 1610842.04698297 8698.54745309
0.03000000 1605932.85948260 9707.86458180
0.03100000 1600875.32432128 8452.62210135
0.03200000 1595670.52652048 9478.28336408
0.03300000 1590322.86806330 12165.97050154
0.03400000 1584830.70777610 9152.39775970
0.03500000 1579198.17358675 8527.67053116
0.03600000 1573425.76366602 10479.01607029
0.03700000 1567517.00776671 11615.30156473
0.03800000 1561472.94435412 10961.54057666
0.03900000 1555296.40824755 13997.66832246
0.04000000 1548987.53676536 9526.27379254
0.04100000 1542550.43126484 14577.10225134
0.04200000 1535986.60317376 11888.53686011
0.04300000 1529297.87970891 13121.37641697
0.04400000 1522487.10987179 11304.46731580
0.04500000 1515556.77741785 11503.07647509
0.04600000 1508507.31181771 12761.97245124
0.04700000 1501343.20746228 15133.54023505
0.04800000 1494065.81129527 13177.66106876
0.04900000 1486677.78090169 13380.10065093
0.05000000 1479180.91447074 14710.45487942
0.05100000 1471579.46537139 17217.48054690
0.05200000 1463872.26008593 11637.78501002
0.05300000 1456065.14281670 11794.12820663
0.05400000 1448158.94709412 14336.77424481
0.05500000 1440157.34167621 14516.78668129
0.05600000 1432061.24579530 18366.18633437
0.05700000 1423875.55281492 13626.48967650
0.05800000 1415599.73931321 13780.86410568
0.05900000 1407237.95198944 12665.14215944
0.06000000 1398793.73058912 14078.85955613
0.06100000 1390268.38004014 18101.29515402
0.06200000 1381665.01463788 14362.40849851
0.06300000 1372987.05502446 18452.94688230
0.06400000 1364233.50836210 17291.66052716
0.06500000 1355411.01920856 18785.99760500
0.06600000 1346521.05664131 16239.04470290
0.06700000 1337564.72646153 19100.42518775
0.06800000 1328546.41294485 13750.45601763
0.06900000 1319469.53935137 16625.31697421
0.07000000 1310333.66229674 16746.06498835
0.07100000 1301143.46445654 18268.05509660
0.07200000 1291900.84573483 16975.57790821
0.07300000 1282609.39903157 17084.35799560
0.07400000 1273271.79706219 17189.17006590
0.07500000 1263888.81644457 18730.83313767
0.07600000 1254463.86644481 17386.87000403
0.07700000 1245000.73904059 21849.76399467
0.07800000 1235500.53458628 17568.81842573
0.07900000 1225965.31219976 17653.90132371
0.08000000 1216400.46788391 16257.19301591
0.08100000 1206806.61022862 16328.09420248
0.08200000 1197185.24629669 16395.45271739
0.08300000 1187539.83594328 14963.00263513
0.08400000 1177873.43622385 18021.46442013
0.08500000 1168188.07663336 24111.40303363
0.08600000 1158486.23259087 19653.71985868
0.08700000 1148770.19430901 18196.52073232
0.08800000 1139041.52540764 19768.06660183
0.08900000 1129304.10061187 16770.16668178
0.09000000 1119559.54501566 16810.18735808
0.09100000 1109810.26030439 16846.92054291
0.09200000 1100057.78890936 16880.38756397
0.09300000 1090306.59867111 19985.32089279
0.09400000 1080555.36019498 16937.70606709
0.09500000 1070808.58207899 16961.60873737
0.09600000 1061067.74620396 21613.95100620
0.09700000 1051337.80019355 21636.53294518
0.09800000 1041617.38994358 21655.22655511
0.09900000 1031910.69128427 20122.25942624
0.10000000 1022216.98601242 26327.19971284
0.10100000 1012540.41731926 26336.17749311
0.10200000 1002882.86768135 23241.81155172
0.10300000 993245.61157888 20143.02195036
0.10400000 983631.68784132 23238.29971850
0.10500000 974043.83512465 21682.21679001
0.10600001 964478.68870686 21671.83715498
0.10700001 954944.55836248 23205.15386019
0.10800001 945438.64016722 20095.29924247
0.10900001 935965.49489676 18532.11767118
0.11000001 926525.77385819 20054.65131912
0.11100001 917120.33785226 16948.38464133
0.11200001 907752.20221116 16925.04060701
0.11300001 898421.56663965 23044.51426926
0.11400001 889131.09741180 16871.26336776
0.11500001 879882.41880774 18371.94576980
0.11600001 870676.36926403 16808.40810017
0.11700001 861514.72629810 18298.57364834
0.11800001 852397.65525879 15215.29886298
0.11900001 843327.19296211 19733.85724481
0.12000001 834304.82974395 22713.95005972
0.12100001 825333.35021013 15103.60102035
0.12200001 816411.72980762 16569.07683704
0.12300001 807542.62839617 19526.38167459
0.12400001 798725.90835845 20966.55608230
0.12500001 789962.58269074 17916.35221965
0.12600001 781255.96199003 14882.92677724
0.12700001 772605.04884469 19284.22292796
0.12800001 764010.83963752 17740.33253247
0.12900001 755475.25162194 25044.00577164
0.13000001 746998.78930186 23485.64304264
0.13100001 738581.35692992 16086.30271220
0.13200001 730224.74634611 14567.98437634
0.13300001 721930.70945837 21766.21191629
0.13400001 713697.75248205 20233.33223678
0.13500001 705528.77731629 21589.18160377
0.13600001 697422.49957412 18631.64295462
0.13700001 689381.16391371 17124.22891908
0.13800001 681403.46973154 19890.16821940
0.13900001 673492.49355536 15557.67733480
0.14000001 665647.02110123 19709.80922433
0.14100001 657867.90016407 23821.39778843
0.14200001 650155.20219375 13945.82974482
0.14300001 642511.04372198 13878.23919900
0.14400001 634932.24394499 17952.71004437
0.14500001 627423.09094615 19236.79287585
0.14600001 619981.65093189 17771.77486233
0.14700001 612610.60268915 17679.94282769
0.14800001 605305.30087046 13528.57411271
0.14900001 598070.58479353 18839.22430985
0.15000001 590904.21887339 16060.77742677
0.15100001 583807.89946527 18635.14903023
0.15200001 576780.86917249 14560.83372934
0.15300001 569824.63960531 17111.83473484
0.15400001 562935.26685300 15705.89468638
0.15500001 556117.46181597 16917.09398681
0.15600001 549366.72373008 14231.34564987
0.15700001 542689.01431651 16720.24932023
0.15800001 536076.94548735 12785.43575333
0.15900001 529536.75387441 12708.88269285
0.16000001 523063.28306737 24000.75987644
0.16100001 516661.98672246 15065.86424400
0.16200001 510328.37095055 17468.54096226
0.16300001 504063.09039670 16119.93839187
0.16400001 497866.68204371 14786.64115477
0.16500001 491737.95706538 13468.70327990
0.16600001 485678.26871110 17032.73768787
0.16700001 479684.80721341 13296.86348376
0.16800001 473758.25078023 15612.70389164
0.16900001 467900.99854515 13124.62362891
0.17000001 462108.76909324 14223.70858433
0.17100001 456382.87383699 11774.67870101
0.17200001 450723.52140128 12865.90352596
0.17300001 445129.69282340 13941.46263761
0.17400001 439601.00128481 15001.38487730
0.17500001 434136.98340026 13753.46028366
0.17600001 428735.79540930 14797.81667744
0.17700001 423400.28022075 13565.74561899
0.17800001 418126.25605757 11226.69050541
0.17900001 412916.10157952 13378.48232309
0.18000001 407767.90486269 11070.89913996
0.18100001 402683.21477943 14291.22796759
0.18200001 397656.96229041 14190.38936966
0.18300001 392692.62570881 14089.81207603
0.18400001 387788.00467849 11837.22940201
0.18500001 382944.55633582 11752.56898916
0.18600001 378158.27807261 14850.27628149
0.18700001 373430.40070617 14743.03291641
0.18800001 368760.24493957 11499.78878176
0.18900001 364149.32489980 13491.73312499
0.19000001 359590.79358454 12362.73206756
0.19100001 355093.16011902 13294.68854303
0.19200001 350647.53561816 17257.11928087
0.19300001 346259.03386038 12091.36603375
0.19400001 341922.67768493 14001.73431283
0.19500001 337640.86532820 11911.97029168
0.19600001 333411.66785377 15763.70440106
0.19700001 329234.46206546 15645.22237671
0.19800001 325109.26116856 12615.86547586
0.19900001 321035.43052885 13483.48871944
0.20000001 317010.56449823 9557.86897134
0.20100001 313036.95219221 11382.02411965
0.20200001 309110.85746860 10353.66866026
0.20300001 305234.83717127 11208.22375068
0.20400001 301405.70855734 13902.33896431
0.20500001 297623.78769304 10116.23302185
0.20600001 293888.30641797 10037.75558017
0.20700001 290199.19626929 9959.63688675
0.20800001 286553.96539396 9881.81396373
0.20900001 282956.04554363 13369.67378394
0.21000001 279399.98330842 11495.91285666
0.21100001 275887.92915131 9650.56021793
0.21200001 272418.49151244 10444.52545835
0.21300001 268990.14671334 11224.95935301
0.21400001 265604.69093228 9422.32685628
0.21500001 262260.92656097 9346.97986454
0.21600001 258956.29978123 10114.83354767
0.21700001 255691.84252731 9197.23601055
0.21800001 252466.58143784 9122.88035159
0.21900001 249279.10717067 13984.55857349
0.22000001 246129.48390511 8975.11205497
0.22100001 243018.86862565 8092.52870788
0.22200001 239945.01462489 9631.39334246
0.22300001 236906.27078396 11144.07150463
0.22400001 233902.84343149 9473.06560692
0.22500001 230937.05646583 8611.64324283
0.22600001 228003.73195564 10092.58567228
0.22700001 225106.97251161 9238.39058875
0.22800001 222242.20845116 9160.82426557
0.22900001 219410.15767447 9083.58095729
0.23000001 216611.95253082 11258.40676522
0.23100001 213846.53375936 8930.23167213
0.23200001 211111.04723997 8116.16459498
0.23300001 208407.50740891 8046.61424162
0.23400001 205735.48728086 8702.61152357
0.23500001 203091.80293682 7908.39518040
0.23600001 200479.85993069 9265.17716491
0.23700001 197896.50066302 8477.88648939
0.23800001 195342.31049344 9103.92881115
0.23900001 192816.32801686 6941.38813693
0.24000001 190318.37532278 9632.01343068
0.24100001 187849.28909746 9546.50132349
0.24200001 185406.90660185 7433.89027184
0.24300001 182991.54922510 6697.49101845
0.24400001 180602.36247052 7300.85084823
0.24500001 178239.62028276 11180.97190925
0.24600001 175902.81650950 7168.91962597
0.24700001 173591.53687359 12269.45040664
0.24800001 171305.47893890 7038.08593515
0.24900001 169043.42699244 7606.95457453
0.25000001 166806.78118476 8164.35829133
0.25100001 164592.92973868 7465.93564615
0.25200001 162404.75556200 8012.23899471
0.25300001 160239.82713620 8547.19278382
0.25400001 158097.48777575 9070.84379029
0.25500001 155977.92682868 7187.46320832
0.25600001 153881.58471592 7711.77598290
0.25700001 151806.99742395 7637.41040175
0.25800001 149755.17567253 6399.78773517
0.25900001 147725.11806775 8065.79182813
0.26000001 145716.69163431 8557.21312111
0.26100001 143728.85439705 7343.10751859
0.26200001 141763.27336468 7270.32981852
0.26300001 139817.63809959 6090.45660380
0.26400001 137893.06888936 7673.74964680
0.26500001 135989.36371850 5425.97586912
0.26600001 134104.91687819 9130.53369770
0.26700001 132241.64133931 7974.17135010
0.26800001 130398.47662020 5787.73665867
0.26900001 128573.50617855 5727.94997131
0.27000001 126769.16981081 7214.43379534
0.27100001 124983.62825649 5099.33227418
0.27200001 123218.56704342 6054.96067106
0.27300001 121471.43039307 5990.97123050
0.27400001 119741.34977430 5927.19709433
0.27500001 118032.82313579 5863.87093090
0.27600001 116340.21458035 7250.90421688
0.27700001 114667.92378988 6694.31370767
0.27800001 113012.59130151 6148.45032075
0.27900001 111376.51301869 5145.59514499
0.28000001 109756.83625057 6939.37630037
0.28100001 108155.77736069 5489.98751866
0.28200001 106572.83434944 5428.82043870
0.28300001 105006.95654390 5367.95587259
0.28400001 103458.34278764 4422.84436351
0.28500001 101927.38756709 5684.49067367
0.28600001 100413.40081094 4322.79710952
0.28700001 98916.46540920  5555.14896032
0.28800001 97435.72688451  5068.60675244
0.28900001 95973.76571626  4592.34490690
0.29000001 94526.93309381  4951.32098982
0.29100001 93097.69023743  6116.51853812
0.29200001 91684.70922180  4029.54316104
0.29300001 90288.38000418  5176.23307066
0.29400001 88907.67937416  3934.16499854
0.29500001 87544.44889432  5053.06582938
0.29600001 86196.63157548  4992.07815401
0.29700001 84864.91684753  4552.15435519
0.29800001 83549.18749300  3747.18123645
0.29900001 82250.12088482  4811.63229954
0.30000001 80965.96387353  4752.29747453
0.30100001 79698.71644615  4332.42243111
0.30200001 78445.55671031  5348.02608190
0.30300001 77209.43580579  3520.75043942
0.30400001 75988.57440261  4867.06842090
0.30500001 74782.94125855  4462.29831615
0.30600001 73591.83954321  3727.79480855
0.30700001 72417.25307571  5018.51587574
0.30800001 71257.44627943  3633.06107056
0.30900001 70112.68365249  4564.33592187
0.31000001 68983.54476296  5148.93202488
0.31100001 67868.23629066  3811.48033054
0.31200001 66768.64634082  4388.70333177
0.31300001 65683.33592520  3712.42232226
0.31400001 64613.94358940  5190.11526455
0.31500001 63557.99726028  3012.64921278
0.31600002 62517.14028372  4161.76622574
0.31700002 61490.71754953  2933.10736599
0.31800002 60478.86830124  4051.47957933
0.31900002 59481.45730539  3426.13210301
0.32000002 58498.51929184  2816.70383727
0.32100002 57529.01052266  4445.84214370
0.32200002 56575.01546487  3015.16559197
0.32300002 55633.09297174  2974.14529110
0.32400002 54706.01338233  3200.30193441
0.32500002 53792.74459926  3419.60493610
0.32600002 52893.64302381  3632.20663844
0.32700002 52007.53384001  3326.40202192
0.32800002 51135.85599322  3532.97645787
0.32900002 50277.02292808  2737.58402807
0.33000002 49432.59406560  2699.76125274
0.33100002 48599.06404321  2420.23350396
0.33200002 47781.74698895  2386.69837512
0.33300002 46976.24174287  2824.21178732
0.33400002 46184.18446206  2552.83091703
0.33500002 45404.11766458  3203.71469413
0.33600002 44638.02792941  3610.32386990
0.33700002 43883.67848302  3559.84416713
0.33800002 43143.13457040  2413.21134648
0.33900002 42414.02509535  3460.98461168
0.34000002 41698.05906393  2346.14140434
0.34100002 40994.21369148  3154.50489295
0.34200002 40303.30577343  3110.40777037
0.34300002 39623.34021303  2657.93378737
0.34400002 38956.98982270  2822.43404632
0.34500002 38301.45178768  2186.62998612
0.34600002 37658.92723548  1960.14725544
0.34700002 37026.50684952  2899.17562363
0.34800002 36407.27382544  2287.10505003
0.34900002 35798.71944642  1879.43285995
0.35000002 35202.00888105  1853.38585537
0.35100002 34617.08542909  2193.33863667
0.35200002 34042.03681180  3244.54668220
0.35300002 33478.66491294  2133.26062929
0.35400002 32926.49989653  1928.66982279
0.35500002 32385.46087209  2248.19880022
0.35600002 31854.12594020  2217.52508236
0.35700002 31333.95666156  2019.16026291
0.35800002 30824.86005621  2157.89443044
0.35900002 30325.94542948  1965.12135691
0.36000002 29837.71082616  2100.42575310
0.36100002 29358.68911189  2231.84765200
0.36200002 28890.98630757  2045.04856265
0.36300002 28432.17749958  2018.11605451
0.36400002 27983.35059593  1838.50622124
0.36500002 27544.04543930  1512.16816625
0.36600002 27114.86203139  2089.74251575
0.36700002 26694.48024734  1473.53537945
0.36800002 26284.89577932  1891.32976539
0.36900002 25883.60519020  1580.19417171
0.37000002 25491.02159258  1560.43296071
0.37100002 25107.45966125  2241.59410474
0.37200002 24733.55723152  1660.61111119
0.37300002 24367.81194041  1913.84804046
0.37400002 24010.79621473  1755.78955638
0.37500002 23662.65202584  1601.48836497
0.37600002 23323.04596848  1582.70197440
0.37700002 22991.21394260  1564.32227076
0.37800002 22667.50856845  1804.10709243
0.37900002 22352.47612142  1528.90943913
0.38000002 22045.20275512  1763.83675599
0.38100002 21744.78157047  1370.57364731
0.38200002 21453.09864903  1355.72863335
0.38300002 21168.32435775  1828.94331115
0.38400002 20891.83260967  1568.45440747
0.38500002 20621.50978961  1313.38402072
0.38600002 20359.67983235  1418.25536431
0.38700002 20103.94067647  1638.06916392
0.38800002 19855.62738334  1390.29109525
0.38900002 19613.44657272  1491.60268252
0.39000002 19379.34838785  1818.55813887
0.39100002 19150.70550263  1126.06153690
0.39200002 18929.18157273  1673.81295987
0.39300002 18713.65241223  1437.76998295
0.39400002 18505.77110267  1315.76038774
0.39500002 18302.93524250  1522.07216688
0.39600002 18106.19533608  1617.33597502
0.39700002 17915.44373479  1390.41765413
0.39800002 17730.71731325  1273.42017777
0.39900002 17551.43161087  1474.32032516
0.40000002 17377.73507468  1149.79789569
0.40100002 17209.96267930  1349.08903835
0.40200002 17047.68488450  1442.74564013
0.40300002 16890.06871178  1125.89203367
0.40400002 16738.18619972  1220.21383177
0.40500002 16591.47637434  1414.58934270
0.40600002 16449.61786103  1305.52398340
0.40700002 16312.70888807  1098.17161438
0.40800002 16180.60073662  1489.01985334
0.40900002 16053.07408413  1382.16974413
0.41000002 15930.63761287  1473.18578305
0.41100002 15812.23363569  1465.79412748
0.41200002 15698.06697720  1069.74482485
0.41300002 15589.03842835  1161.69519872
0.41400002 15483.52665608  1060.23453801
0.41500002 15382.44739231  1535.78362042
0.41600002 15284.85751506  1242.88824773
0.41700002 15191.61275691  1619.27408049
0.41800002 15103.09475791  1044.15250556
0.41900002 15016.38438342  946.03226098
0.42000002 14934.68875627  1226.06333154
0.42100002 14856.70802166  940.42966233
0.42200002 14782.27545812  1313.10959117
0.42300002 14710.65027165  1029.15714177
0.42400002 14642.37975117  1213.48727938
0.42500002 14577.73008078  1210.97209519
0.42600002 14515.41753025  1208.62629793
0.42700002 14457.41979604  1020.98303438
0.42800002 14401.55792459  1019.41432600
0.42900002 14349.71693696  925.55678629
0.43000002 14300.14968764  1016.95519323
0.43100002 14252.48204410  1385.34132033
0.43200002 14208.56056375  1199.69986805
0.43300002 14167.10406675  1291.18992583
0.43400002 14128.23728617  1198.42778459
0.43500002 14091.56693774  1198.06507782
0.43600002 14057.82876310  1105.78886291
0.43700002 14025.79897416  1013.64453990
0.43800002 13996.02346770  1105.96582683
0.43900002 13969.18016365  1198.55571484
0.44000002 13943.97067996  1199.11181545
0.44100002 13921.20666295  1569.05927734
0.44200002 13900.26346862  1016.03980639
0.44300002 13881.37769356  1109.39975784
0.44400002 13864.78419343  1203.11670540
0.44500002 13848.65996458  1111.77047464
0.44600002 13834.93731114  1113.15910881
0.44700002 13823.89430900  1021.86231575
0.44800002 13812.98519208  930.30459678
0.44900002 13805.29996634  931.85779189
0.45000002 13798.51279429  1026.81637825
0.45100002 13792.96140437  1028.67911029
0.45200002 13789.12856904  1311.75986294
0.45300002 13786.33501049  1126.61935045
0.45400002 13785.27894852  1129.01439939
0.45500002 13785.52992521  1037.22332073
0.45600002 13786.86784897  1228.61678659
0.45700002 13789.46130127  1231.53684718
0.45800002 13792.79081606  1044.59706196
0.45900002 13797.39786076  1047.22254726
0.46000002 13803.75140187  1527.24712749
0.46100002 13810.02604346  1052.73833519
0.46200002 13818.13943231  1055.63681196
0.46300002 13827.16370376  1347.31889515
0.46400002 13836.30847655  1158.09907438
0.46500002 13846.93362825  1161.48084779
0.46600002 13858.03127711  970.75513697
0.46700002 13869.61326877  1168.37627714
0.46800002 13882.93157844  1074.33071112
0.46900002 13895.84039783  1077.62247393
0.47000002 13909.84248729  1179.27650197
0.47100002 13924.38627432  1183.01591394
0.47200002 13939.80818718  1087.93238153
0.47300002 13955.81330158  1091.48421005
0.47400002 13971.49546418  1095.01600891
0.47500002 13988.19574822  1897.63872515
0.47600002 14005.78794160  1302.74842714
0.47700002 14022.91858451  1608.70929627
