# SAXS profile: number of points = 501, q_min = 0, q_max = 0.5, delta_q = 0.001
#    q    intensity    error
0.00000000 1682732.95097188 302.89193117
0.00100000 1682645.33870656 555.27297496
0.00200000 1682382.46833705 1059.90098861
0.00300000 1681944.56142104 1412.83348192
0.00400000 1681331.50131822 1765.39814347
0.00500000 1680543.92337960 1663.73855000
0.00600000 1679581.71119299 2116.27304226
0.00700000 1678445.58045520 3021.20217038
0.00800000 1677135.30038503 2943.37257644
0.00900000 1675652.36278134 3016.17438194
0.01000000 1673996.11695943 2762.09371225
0.01100000 1672168.19813107 3611.88346522
0.01200000 1670168.41041763 3582.51139742
0.01300000 1667998.19063332 4903.91489675
0.01400000 1665657.71912694 4122.50303759
0.01500000 1663148.57847179 4390.71244268
0.01600000 1660470.38820126 4234.19967920
0.01700000 1657625.37317050 7160.94193333
0.01800000 1654614.11587085 4715.65044242
0.01900000 1651437.46953444 6440.60642180
0.02000000 1648096.44969214 9344.70729247
0.02100000 1644593.52398850 7055.30653779
0.02200000 1640927.56889934 5661.20036990
0.02300000 1637101.68700594 7661.63624393
0.02400000 1633116.38315135 6736.60538767
0.02500000 1628974.17337183 6352.99956630
0.02600000 1624675.45623042 7237.92948856
0.02700000 1620222.08683941 8846.41299932
0.02800000 1615614.72237304 8433.50923754
0.02900000 1610856.67332462 7973.74089906
0.03000000 1605948.48777546 7467.66081141
0.03100000 1600892.00767521 9989.56658754
0.03200000 1595688.28209463 9478.38883220
0.03300000 1590341.74094232 12166.11487907
0.03400000 1584850.71218422 9152.51328516
0.03500000 1579219.34522545 11938.89880122
0.03600000 1573448.11964705 13098.95620141
0.03700000 1567540.50314866 9828.47940928
0.03800000 1561497.76748811 14615.61978009
0.03900000 1555322.49385514 10265.12893482
0.04000000 1549014.91526582 12384.37482143
0.04100000 1542579.17120997 12633.72399799
0.04200000 1536016.73468935 14860.96259756
0.04300000 1529329.39427276 12112.28936487
0.04400000 1522519.96439840 14387.81433176
0.04500000 1515591.15229485 13594.85326777
0.04600000 1508543.24058662 15952.84551080
0.04700000 1501380.68522135 11890.93557998
0.04800000 1494104.73209427 17570.67246696
0.04900000 1486718.22730373 11150.38722380
0.05000000 1479222.99590114 12447.66209015
0.05100000 1471623.22836086 19513.72491709
0.05200000 1463917.58407032 12801.95986928
0.05300000 1456112.19237361 12973.96023887
0.05400000 1448207.65829836 14337.25648576
0.05500000 1440207.73285303 13307.52007235
0.05600000 1432113.33931238 15917.94050925
0.05700000 1423929.41105119 14865.82374529
0.05800000 1415655.45880041 18792.82709306
0.05900000 1407295.48498722 17731.92393902
0.06000000 1398853.06557616 19199.25922200
0.06100000 1390329.52027632 15516.07817137
0.06200000 1381728.01680047 15668.79644293
0.06300000 1373051.92469214 15817.55891201
0.06400000 1364300.21333731 14632.12047234
0.06500000 1355479.78163551 14761.17551251
0.06600000 1346591.76782086 14886.57268978
0.06700000 1337637.43746976 16372.68300085
0.06800000 1328620.97852795 15126.35054859
0.06900000 1319546.15190237 23553.89991423
0.07000000 1310412.28379709 18142.65891876
0.07100000 1301224.21039134 19674.51098263
0.07200000 1291983.62580126 16976.66563833
0.07300000 1282694.25501519 14237.90689779
0.07400000 1273358.76977423 18622.87288069
0.07500000 1263977.88117238 15850.28337284
0.07600000 1254554.94610084 14490.11030677
0.07700000 1245093.94041894 17481.11974315
0.07800000 1235595.91162144 19034.35591117
0.07900000 1226062.87404253 19126.58173217
0.08000000 1216500.20122199 16258.52595204
0.08100000 1206908.38809568 19298.46603110
0.08200000 1197289.42964821 19378.13032818
0.08300000 1187646.03410411 16460.77480522
0.08400000 1177982.01671043 25532.76141067
0.08500000 1168298.91300467 21099.47935938
0.08600000 1158599.42654807 22679.58483952
0.08700000 1148885.44877643 16681.81749957
0.08800000 1139159.09561952 16728.55210481
0.08900000 1129423.85337052 19821.38955766
0.09000000 1119681.71001026 19868.75287748
0.09100000 1109934.61125851 19912.22786148
0.09200000 1100184.48795744 19951.84662658
0.09300000 1090435.55092309 18450.17038863
0.09400000 1080686.57359846 16939.76283728
0.09500000 1070942.13812775 18505.88101667
0.09600000 1061203.78244092 16984.56733637
0.09700000 1051475.85678306 17002.36540351
0.09800000 1041757.98945544 23205.16030617
0.09900000 1032053.43610178 20125.04295031
0.10000000 1022362.19396566 18586.54556037
0.10100000 1012687.94989518 20142.36427075
0.10200000 1003032.66510440 21695.59756669
0.10300000 993397.85378984 15497.00724811
0.10400000 983786.25478980 20143.02451445
0.10500000 974200.60073598 18587.74833658
0.10600001 964637.84902411 24771.90112854
0.10700001 955106.16957475 18567.26481027
0.10800001 945602.52949613 17006.66229335
0.10900001 936131.63694409 15446.17273656
0.11000001 926694.26825778 16972.40632202
0.11100001 917291.09369006 16951.54020936
0.11200001 907925.35674991 18467.20262568
0.11300001 898597.01763899 15366.00972507
0.11400001 889308.89976488 19942.75301622
0.11500001 880062.57940849 21438.32544388
0.11600001 870858.80816522 18340.28736363
0.11700001 861699.51636250 16777.29037370
0.11800001 852584.76567241 22827.95817604
0.11900001 843516.61891954 21256.61979799
0.12000001 834496.49377611 15146.11207549
0.12100001 825527.24582172 18128.57917225
0.12200001 816608.00419186 16573.06022585
0.12300001 807741.09103979 16526.38350130
0.12400001 798926.55518637 22469.81042334
0.12500001 790165.51040371 20907.78039047
0.12600001 781461.20271564 22330.25491988
0.12700001 772812.60168505 17805.60318194
0.12800001 764220.65654666 22181.50560166
0.12900001 755687.20206521 16209.49124829
0.13000001 747212.94229468 17619.28200979
0.13100001 738797.63575196 21942.29081614
0.13200001 730443.19674300 17486.81095436
0.13300001 722151.32617325 15966.76657441
0.13400001 713920.45683660 15902.57892577
0.13500001 705753.72331402 17276.85196130
0.13600001 697649.45068881 15770.36657641
0.13700001 689610.36469085 17129.92226665
0.13800001 681634.81382993 15633.29519239
0.13900001 673725.79600365 18392.71509827
0.14000001 665882.43639254 19716.77987144
0.14100001 658105.38333105 16821.17439128
0.14200001 650394.68326111 13950.96661395
0.14300001 642752.63714193 18048.49490225
0.14400001 635175.71293302 13815.07240795
0.14500001 627668.53053567 16495.12976059
0.14600001 620229.06123018 13676.05144528
0.14700001 612860.03710946 14966.04281226
0.14800001 605556.65229180 16241.03018070
0.14900001 598323.68268036 14808.51184502
0.15000001 591159.44660661 17406.69072663
0.15100001 584064.92045944 13316.68081482
0.15200001 577039.76995206 13243.06334530
0.15300001 570085.47183094 15802.77002487
0.15400001 563197.92883395 18332.09344866
0.15500001 556381.84310700 13019.33574313
0.15600001 549632.86380177 15532.62546410
0.15700001 542956.84506614 14154.88561894
0.15800001 536346.51410532 15350.23795821
0.15900001 529808.02209235 20344.62900862
0.16000001 523336.33919252 13902.43050688
0.16100001 516936.82444927 15073.87851249
0.16200001 510604.76989767 14981.14465600
0.16300001 504341.09711757 14888.14988975
0.16400001 498146.26839871 18493.68108738
0.16500001 492019.18045898 17151.78944056
0.16600001 485961.03080439 17042.65415495
0.16700001 479969.08224168 16933.31002099
0.16800001 474044.10154440 13218.72039571
0.16900001 468188.28095497 15520.44224650
0.17000001 462397.43467091 11860.49475936
0.17100001 456673.05464519 14138.59843946
0.17200001 451015.00086584 16385.37575522
0.17300001 445422.73576478 13950.64074296
0.17400001 439895.40047854 13856.70576947
0.17500001 434432.69518462 11469.02369453
0.17600001 429032.83996906 20503.48039048
0.17700001 423698.64410952 11312.75433203
0.17800001 418425.79235052 13481.67966630
0.17900001 413216.85377639 12272.54113683
0.18000001 408069.86220318 14402.82646678
0.18100001 402986.41933782 11001.52976760
0.18200001 397961.27075762 14201.24861782
0.18300001 392998.16746120 11931.42492775
0.18400001 388094.62588904 12923.55165262
0.18500001 383252.20729292 13900.55821521
0.18600001 378466.95708373 15923.99797160
0.18700001 373740.21233925 12647.36938308
0.18800001 369071.07465560 11509.48200691
0.18900001 364461.07182182 12464.56924523
0.19000001 359903.55231776 12373.48471332
0.19100001 355406.74361835 12282.85763982
0.19200001 350961.88001776 10160.34690660
0.19300001 346574.42207009 13110.91100644
0.19400001 342238.77466074 16016.77541098
0.19500001 337957.88861384 12916.75111320
0.19600001 333729.42130281 14792.55729829
0.19700001 329553.01015105 10766.49735043
0.19800001 325428.58174070 13599.66107365
0.19900001 321355.28835264 11568.79092744
0.20000001 317331.22672585 11481.04432555
0.20100001 313358.14205624 11393.70258366
0.20200001 309432.72459474 14133.34036386
0.20300001 305557.18855885 11220.06049419
0.20400001 301728.66279207 10205.97250133
0.20500001 297947.25834446 10127.22778981
0.20600001 294212.32688020 10048.82249958
0.20700001 290523.65294988 10877.20608060
0.20800001 286879.00728056 13490.48595507
0.20900001 283281.44352936 12492.71225019
0.21000001 279725.71285274 10623.98307637
0.21100001 276214.07604387 10540.32964011
0.21200001 272744.96713870 12199.88295686
0.21300001 269316.89494988 9509.58001025
0.21400001 265931.74853221 9433.92922518
0.21500001 262588.18294127 8507.85752953
0.21600001 259283.83956580 10127.62725226
0.21700001 256019.63557889 17580.86920642
0.21800001 252794.53360109 12456.45123214
0.21900001 249607.12198796 9060.73895657
0.22000001 246457.65596373 8170.07168150
0.22100001 243347.06786751 10534.49506609
0.22200001 240273.42032160 10448.29017673
0.22300001 237234.56909808 8768.19008847
0.22400001 234231.21264153 8695.83418051
0.22500001 231265.34046461 10191.86403622
0.22600001 228332.04268584 12439.53027377
0.22700001 225435.15112861 7709.88253319
0.22800001 222570.33668175 13761.52456782
0.22900001 219738.15749699 8339.06347137
0.23000001 216939.77590699 9772.05266787
0.23100001 214174.11004104 7453.25938191
0.23200001 211438.38784801 8867.72640573
0.23300001 208734.64353759 8059.24496814
0.23400001 206062.42985845 10169.18139447
0.23500001 203418.43919260 8641.21570560
0.23600001 200806.13589580 8566.39016248
0.23700001 198222.49956493 7076.54356917
0.23800001 195667.84828532 9820.56976994
0.23900001 193141.51982079 9039.02355515
0.24000001 190643.10297144 8959.27304792
0.24100001 188173.63255917 10246.05477750
0.24200001 185730.69621469 7446.87261698
0.24300001 183315.02381458 8051.19622678
0.24400001 180925.29109734 7978.80571482
0.24500001 178561.97119887 7247.83075382
0.24600001 176224.73148910 6529.12661053
0.24700001 173912.84158357 7763.46961555
0.24800001 171626.11364270 7692.28277736
0.24900001 169363.42792109 7621.35461700
0.25000001 167126.06293885 6921.52622406
0.25100001 164911.47938321 6857.01963715
0.25200001 162722.75763568 8027.92762776
0.25300001 160556.99840661 9787.55508592
0.25400001 158413.99995477 6059.33578494
0.25500001 156293.69963323 6601.84618485
0.25600001 154196.49987629 8321.98549206
0.25700001 152121.11146415 7064.50475064
0.25800001 150068.47920174 6413.17676212
0.25900001 148037.55319705 6928.15781743
0.26000001 146028.13907848 6860.40229851
0.26100001 144039.53500242 6792.90479213
0.26200001 142072.98871930 8967.64747228
0.26300001 140126.43685280 7213.70931052
0.26400001 138200.95002332 5493.48802337
0.26500001 136296.24618425 6525.86457610
0.26600001 134410.76656455 5921.46660120
0.26700001 132546.45646325 7459.71492275
0.26800001 130702.21817172 7383.36865391
0.26900001 128876.29651538 5219.49025587
0.27000001 127070.79209992 6198.51353196
0.27100001 125284.21337491 5111.59614759
0.27200001 123518.05917995 5563.87123906
0.27300001 121769.72462192 6005.68310257
0.27400001 120038.51914353 5941.90697880
0.27500001 118328.73084357 5878.57162651
0.27600001 116634.96834953 6300.03811356
0.27700001 114961.47056000 6232.06161400
0.27800001 113304.98831142 5215.99538377
0.27900001 111667.58889093 6566.05453754
0.28000001 110046.67599611 6030.00789660
0.28100001 108444.29874083 4587.19405384
0.28200001 106860.10790801 4989.83297493
0.28300001 105292.86686199 6279.66687687
0.28400001 103742.99748982 5765.51735838
0.28500001 102210.59592696 5261.80172737
0.28600001 100695.32095055 4334.93377210
0.28700001 99196.98677744  6856.49605059
0.28800001 97714.92570600  5930.31912180
0.28900001 96251.49411436  5443.02224981
0.29000001 94803.24742358  4965.79433510
0.29100001 93372.59538354  4498.69185852
0.29200001 91958.12631125  4445.71582696
0.29300001 90560.38196823  4792.45564061
0.29400001 89178.24293257  3946.13743656
0.29500001 87813.49299888  4288.81120108
0.29600001 86464.10588794  4237.17370962
0.29700001 85130.98862596  5327.49752041
0.29800001 83813.70232162  4134.94919978
0.29900001 82513.07344715  3713.08848090
0.30000001 81227.42493635  3667.41840949
0.30100001 79958.56499363  3622.12316568
0.30200001 78703.87475355  4292.50953227
0.30300001 77466.09492299  3885.69950529
0.30400001 76243.68964922  5232.22344988
0.30500001 75036.49869607  3788.59299852
0.30600001 73843.76349184  5100.75820468
0.30700001 72667.52207832  3692.96364686
0.30800001 71506.13939938  3977.17166169
0.30900001 70359.67889585  3926.07026827
0.31000001 69228.74860743  3552.47340298
0.31100001 68111.84815345  3506.39810895
0.31200001 67010.57228634  5033.83442848
0.31300001 65923.53818480  3415.49867507
0.31400001 64852.59595296  3370.71383425
0.31500001 63794.83023581  4535.81264452
0.31600002 62752.30311953  5072.58266284
0.31700002 61724.11246843  3238.66433456
0.31800002 60710.56247979  3195.50060743
0.31900002 59711.32572593  3152.75814761
0.32000002 58726.74534788  3110.46221463
0.32100002 57755.40721804  4463.33808115
0.32200002 56799.68626664  5228.69536686
0.32300002 55855.93578620  3800.43805085
0.32400002 54927.15716401  2945.46894239
0.32500002 54012.10726612  3433.54982149
0.32600002 53111.17625198  3126.12398222
0.32700002 52223.32462840  2826.32646272
0.32800002 51349.79320016  3040.93489731
0.32900002 50489.10798945  2999.05315659
0.33000002 49642.96383015  2711.25059797
0.33100002 48807.55879063  2916.73985145
0.33200002 47988.41249509  2397.02131764
0.33300002 47181.05057981  3072.90196978
0.33400002 46387.24311069  2797.15089204
0.33500002 45605.18934096  2528.35181680
0.33600002 44837.35310138  2266.52830661
0.33700002 44081.15493501  3128.88052546
0.33800002 43338.70839319  3085.28279662
0.33900002 42607.74370622  2607.59403831
0.34000002 41889.87384332  2142.66714856
0.34100002 41184.17178401  2957.84735761
0.34200002 40491.42492291  2916.59747532
0.34300002 39809.55578217  2465.00781077
0.34400002 39141.36035964  2025.56549454
0.34500002 38483.90240557  2995.97194416
0.34600002 37839.50595535  2363.45565391
0.34700002 37205.14962830  2330.53068309
0.34800002 36584.10105991  2489.73111555
0.34900002 35973.65343111  2832.92534187
0.35000002 35375.00580428  2048.74355819
0.35100002 34788.11586381  3673.62520921
0.35200002 34211.23289703  1992.63335446
0.35300002 33645.95702918  2143.92048344
0.35400002 33091.91237716  2643.21662632
0.35500002 32548.92864623  2607.16930805
0.35600002 32015.73142991  1885.88674920
0.35700002 31493.56161460  1860.32477269
0.35800002 30982.66063947  1835.25798991
0.35900002 30481.74115061  1975.21692012
0.36000002 29991.56395659  1948.85191821
0.36100002 29510.61835287  2083.15464820
0.36200002 29041.06985934  2213.80086024
0.36300002 28580.33843023  1872.58386265
0.36400002 28129.54652428  2156.12984322
0.36500002 27688.28816128  1520.08709206
0.36600002 27257.17272821  2100.71040167
0.36700002 26834.87461459  1777.54217867
0.36800002 26423.42056493  1608.79003730
0.36900002 26020.10970034  1588.52777245
0.37000002 25625.62386080  1568.67263895
0.37100002 25240.17015060  1971.76218557
0.37200002 24864.38466729  1947.62734325
0.37300002 24496.71532530  1786.54553330
0.37400002 24137.74082878  1629.29758312
0.37500002 23787.73537010  1609.95400611
0.37600002 23446.11345908  1723.64111260
0.37700002 23112.35778838  1965.70612302
0.37800002 22786.82679697  1684.06051421
0.37900002 22469.84520537  1408.85936112
0.38000002 22160.65506294  1393.12964653
0.38100002 21858.28761702  1502.97592775
0.38200002 21564.71403047  1610.56074366
0.38300002 21278.00574135  1348.17450764
0.38400002 20999.66315302  1455.27672545
0.38500002 20727.31917263  1560.14538803
0.38600002 20463.66749231  1425.49914505
0.38700002 20206.04927520  1293.59133588
0.38800002 19955.75046674  1397.30171388
0.38900002 19711.74805000  1729.70597333
0.39000002 19475.73394941  1484.92740532
0.39100002 19245.09525069  1244.77281979
0.39200002 19021.71789544  1233.46335537
0.39300002 18804.26197801  1444.73151622
0.39400002 18594.56506641  1211.90083562
0.39500002 18389.76715388  1201.58744276
0.39600002 18191.13708379  1299.93871760
0.39700002 17998.51386165  1396.86472698
0.39800002 17811.81984313  1492.45245537
0.39900002 17630.67969082  1480.97716420
0.40000002 17455.14842038  1154.91994995
0.40100002 17285.46328530  1146.54483404
0.40200002 17121.33471954  1241.98167940
0.40300002 16961.84001421  1130.67630892
0.40400002 16808.14798912  1123.20454259
0.40500002 16659.51328218  1318.93372904
0.40600002 16515.83053958  1109.12065244
0.40700002 16377.00333671  1102.49991687
0.40800002 16243.12680588  1195.81905211
0.40900002 16113.70617840  1486.48946539
0.41000002 15989.36736407  1182.89345364
0.41100002 15869.14907515  1372.99884304
0.41200002 15753.13148820  1463.85981290
0.41300002 15642.17071361  1165.65461681
0.41400002 15534.91555378  1160.45824685
0.41500002 15432.00092127  1348.13966436
0.41600002 15332.55853520  1054.95674000
0.41700002 15237.47074405  1337.54524529
0.41800002 15147.11346332  951.99612628
0.41900002 15058.59944236  1233.29935277
0.42000002 14975.17144488  1323.95497018
0.42100002 14895.28895710  1225.73338636
0.42200002 14819.07204471  1598.45928185
0.42300002 14745.68016176  937.82530273
0.42400002 14675.53161132  1496.90429529
0.42500002 14609.10987606  1026.87438185
0.42600002 14544.99038078  1024.76734584
0.42700002 14485.22542922  1115.94181995
0.42800002 14427.51177786  928.41042690
0.42900002 14373.88145783  1205.25001735
0.43000002 14322.56212617  1018.54905387
0.43100002 14273.12940001  1017.38871184
0.43200002 14227.45493468  1293.70253852
0.43300002 14184.17749588  1108.06799849
0.43400002 14143.58484966  1015.15585069
0.43500002 14105.10229580  1014.72110725
0.43600002 14069.63114382  1291.17011126
0.43700002 14035.85035568  922.15541207
0.43800002 14004.33213113  1106.62237744
0.43900002 13975.76149649  1106.88036298
0.44000002 13948.79874034  1384.06962060
0.44100002 13924.31870659  1200.13708620
0.44200002 13901.67175846  1016.14274534
0.44300002 13881.02542838  1016.92397108
0.44400002 13862.73657480  1295.47279431
0.44500002 13844.96649978  926.22830273
0.44600002 13829.43672522  1112.71653164
0.44700002 13816.75603471  1114.18325944
0.44800002 13804.11378122  1022.67781795
0.44900002 13794.66332559  1024.25380047
0.45000002 13786.25967307  1119.16861330
0.45100002 13779.01912937  1307.90455774
0.45200002 13773.47961140  1310.27117753
0.45300002 13769.02350416  937.67054507
0.45400002 13766.25939783  1315.36614780
0.45500002 13764.86709875  941.51695418
0.45600002 13764.50983131  1132.26863239
0.45700002 13765.45807008  1229.39311850
0.45800002 13767.11138349  1042.65223004
0.45900002 13770.09775206  1330.19150589
0.46000002 13774.80876626  1524.04491413
0.46100002 13779.38397655  1050.40249032
0.46200002 13785.97207351  1053.17938647
0.46300002 13793.31489623  1248.01919096
0.46400002 13800.86365107  1347.65439940
0.46500002 13809.81628418  1158.36744482
0.46600002 13819.36173961  1161.65560289
0.46700002 13829.35200981  1164.98466852
0.46800002 13841.07428771  1071.09158452
0.46900002 13852.37517235  976.59249594
0.47000002 13864.80825822  1175.45849984
0.47100002 13877.75767759  1080.79981916
0.47200002 13891.60968688  1084.17072940
0.47300002 13906.03952597  1384.20724002
0.47400002 13920.17185647  1487.71843767
0.47500002 13935.26875433  1392.96953071
0.47600002 13951.38377883  1597.15449070
0.47700002 13966.90126172  1201.71224152
