# SAXS profile: number of points = 501, q_min = 0, q_max = 0.5, delta_q = 0.001
#    q    intensity    error
0.00000000 1682732.95097188 328.13292544
0.00100000 1682645.19021434 656.23163977
0.00200000 1682381.87875580 1059.90061718
0.00300000 1681943.22559208 1614.66555409
0.00400000 1681329.12077014 2395.89408814
0.00500000 1680540.20883555 1663.73487260
0.00600000 1679576.37575259 2468.97737287
0.00700000 1678438.31351910 3222.60169589
0.00800000 1677125.82001325 2490.53194787
0.00900000 1675640.39794247 2764.80677479
0.01000000 1673981.36312183 4419.31098947
0.01100000 1672150.28615006 3009.87064612
0.01200000 1670147.15572643 3582.46580610
0.01300000 1667973.25785166 4203.29279517
0.01400000 1665628.87638447 5246.73119320
0.01500000 1663115.37107830 5987.21560249
0.01600000 1660432.71735221 5080.92434223
0.01700000 1657582.88201351 5370.56877864
0.01800000 1654566.47120422 6130.16905165
0.01900000 1651384.52620584 6935.81532303
0.02000000 1648037.76954084 5710.45112978
0.02100000 1644529.01766638 7055.02980565
0.02200000 1640856.75052507 6793.14725580
0.02300000 1637024.43253601 7071.94587046
0.02400000 1633032.39348373 8573.42045672
0.02500000 1628883.14729085 6352.64456456
0.02600000 1624577.08392293 11843.16748348
0.02700000 1620116.22744314 7484.93731361
0.02800000 1615500.96038979 9135.65834996
0.02900000 1610734.89139282 8697.96881288
0.03000000 1605818.53490650 7467.05653054
0.03100000 1600753.42180090 7683.61677819
0.03200000 1595540.89355810 7897.92778688
0.03300000 1590185.24914172 8920.93965894
0.03400000 1584684.83014128 10815.47446474
0.03500000 1579043.89962632 8526.83745174
0.03600000 1573263.01385727 13097.41519564
0.03700000 1567345.43061751 9827.25630446
0.03800000 1561292.35548739 9133.56070230
0.03900000 1555106.63376247 10263.70425814
0.04000000 1548788.28431643 13335.06774590
0.04100000 1542341.68626668 13603.45430362
0.04200000 1535768.06694970 10896.27494052
0.04300000 1529069.40750627 11101.04441378
0.04400000 1522248.63353568 10275.17875357
0.04500000 1515307.93722067 12546.75030317
0.04600000 1508248.00895481 13823.09364466
0.04700000 1501073.25373017 14050.04630835
0.04800000 1493785.00236938 14273.11636174
0.04900000 1486386.05033156 13377.47507567
0.05000000 1478878.05109689 11313.41761771
0.05100000 1471265.26332759 14918.63046511
0.05200000 1463546.84193643 12798.71772917
0.05300000 1455727.95699503 14149.67640162
0.05400000 1447810.02453719 13138.87658539
0.05500000 1439796.62406759 15722.57986827
0.05600000 1431688.48530226 15913.21825671
0.05700000 1423490.74470633 19814.99209125
0.05800000 1415202.58389105 15029.45214268
0.05900000 1406828.42917998 15193.74774478
0.06000000 1398371.76639542 14074.61248632
0.06100000 1389833.90900652 14218.00155356
0.06200000 1381217.81605858 18273.51256062
0.06300000 1372526.95555592 15811.51126728
0.06400000 1363760.48904331 15955.99846802
0.06500000 1354925.14819198 14755.13555402
0.06600000 1346021.91801379 14880.27299987
0.06700000 1337052.57316329 13637.93688451
0.06800000 1328020.99783019 16494.02156512
0.06900000 1318930.75300065 18003.40562136
0.07000000 1309781.47510519 23713.59471725
0.07100000 1300577.80054933 18260.11317498
0.07200000 1291321.52595057 18381.96278304
0.07300000 1282016.37916134 22768.61196074
0.07400000 1272665.16360541 17180.98051385
0.07500000 1263268.32285920 18721.63742230
0.07600000 1253829.66585272 15929.90665146
0.07700000 1244352.76217520 14558.92800010
0.07800000 1234838.74475806 16096.12379277
0.07900000 1225289.73645599 17644.17303254
0.08000000 1215710.92113230 14770.88838468
0.08100000 1206103.17256323 16318.57669042
0.08200000 1196467.79729838 14896.02477536
0.08300000 1186808.49040968 25421.43905765
0.08400000 1177127.95388828 24013.41138648
0.08500000 1167428.62349160 16565.81294503
0.08600000 1157712.80314869 21151.41390662
0.08700000 1147982.74149722 19699.38476913
0.08800000 1138240.17244318 15195.50701575
0.08900000 1128488.80267312 19804.97941715
0.09000000 1118730.21417332 15270.66814081
0.09100000 1108967.12371685 19894.87113416
0.09200000 1099200.59156288 16867.23387007
0.09300000 1089435.60726247 23041.56417637
0.09400000 1079670.42124020 24616.48676119
0.09500000 1069909.84172328 20028.71317846
0.09600000 1060155.20618585 18510.31077013
0.09700000 1050411.61870444 16985.15667297
0.09800000 1040677.21979742 24726.49190497
0.09900000 1030956.99446987 24742.96903075
0.10000000 1021249.86099238 18566.32334596
0.10100000 1011559.65151701 15476.86339611
0.10200000 1001888.67716663 20122.93502740
0.10300000 992238.08509984 18574.69782684
0.10400000 982610.56096288 21666.56388854
0.10500000 973009.62351146 17017.93911590
0.10600001 963431.38324603 17009.38187156
0.10700001 953884.05794257 21634.09145219
0.10800001 944365.25466956 18528.44716860
0.10900001 934879.30842648 29308.46769859
0.11000001 925426.56336592 24653.36480849
0.11100001 916008.43127547 18466.73084380
0.11200001 906627.83879579 18440.81110925
0.11300001 897284.44681401 23015.34714436
0.11400001 887981.70290384 16849.45360595
0.11500001 878720.59338779 16818.71294940
0.11600001 869502.30451504 21363.67262798
0.11700001 860328.70525802 16750.60068024
0.11800001 851199.75764528 16713.30802853
0.11900001 842117.42590303 22737.17157034
0.12000001 833083.37210986 22680.69587406
0.12100001 824100.02993522 15081.03125825
0.12200001 815166.94580899 25567.71245983
0.12300001 806286.63357880 17996.31850936
0.12400001 797458.74686753 19438.05787077
0.12500001 788684.38049221 19377.97614179
0.12600001 779966.89457676 26745.06607536
0.12700001 771305.14807380 17770.87144910
0.12800001 762700.28902628 20661.55180349
0.12900001 754154.37057568 14706.01091935
0.13000001 745667.62489244 14652.36951977
0.13100001 737240.06360426 16057.08934219
0.13200001 728873.24484091 18903.32849606
0.13300001 720569.37631940 17380.13417618
0.13400001 712326.70360449 20194.46299927
0.13500001 704148.33100047 14364.62662968
0.13600001 696032.54989559 14303.46957477
0.13700001 687981.97225864 19937.71849618
0.13800001 679995.11283901 14177.89877126
0.13900001 672075.53263181 15524.94553592
0.14000001 664221.20002887 16857.93485176
0.14100001 656433.68836454 15380.24204376
0.14200001 648712.58456075 15306.37415464
0.14300001 641060.17771417 13846.90049175
0.14400001 633473.19462462 15155.84689629
0.14500001 625956.25687122 15079.28693935
0.14600001 618507.14466317 15001.89150151
0.14700001 611128.44137531 17637.16765015
0.14800001 603815.88309346 17543.87131098
0.14900001 596574.15501848 14765.21103334
0.15000001 589400.78558306 14684.92126568
0.15100001 582297.61603943 14604.02489936
0.15200001 575263.96749189 13202.30867692
0.15300001 568301.27123494 18378.86397902
0.15400001 561405.66406578 14357.95053605
0.15500001 554581.86080936 20763.54584860
0.15600001 547825.21150942 16771.66964190
0.15700001 541141.66719721 17955.08136503
0.15800001 534524.19215643 17847.76361849
0.15900001 527978.81518000 15205.79059491
0.16000001 521500.06425222 15113.07257540
0.16100001 515093.55000525 16271.80601276
0.16200001 508755.11988318 14926.87592201
0.16300001 502485.23266023 16069.47849908
0.16400001 496284.44453340 12283.04058208
0.16500001 490151.51517780 15866.20529537
0.16600001 484087.58733950 13339.03409892
0.16700001 478090.37644079 14457.45366617
0.16800001 472159.93692922 13166.18046293
0.16900001 466298.91443443 21403.12118315
0.17000001 460503.64554014 15355.49478562
0.17100001 454774.45694586 12906.49969759
0.17200001 449112.05100565 13985.34992874
0.17300001 443515.39127339 15048.47793656
0.17400001 437984.04548963 16095.91443189
0.17500001 432517.57797623 13702.15751741
0.17600001 427113.83844488 14741.83483017
0.17700001 421776.15707426 12387.56631834
0.17800001 416500.44214875 11183.03739989
0.17900001 411288.29132851 16657.17658558
0.18000001 406138.60634205 15437.32915624
0.18100001 401052.19249616 12043.59790956
0.18200001 396024.74668732 13045.05577210
0.18300001 391059.19306185 12951.88108605
0.18400001 386153.57734398 11787.33850527
0.18500001 381309.18535042 14893.93748341
0.18600001 376522.37487935 11617.59842576
0.18700001 371793.85613172 10484.58723826
0.18800001 367123.42223727 13530.33436581
0.18900001 362512.27132503 16530.56035345
0.19000001 357953.70722105 15383.06129466
0.19100001 353456.03575237 11197.48774172
0.19200001 349010.55434356 14145.39843593
0.19300001 344622.63742750 10028.51922301
0.19400001 340286.83291016 9953.39033296
0.19500001 336005.49849638 10866.41833487
0.19600001 331777.23301436 15686.42831820
0.19700001 327601.04272032 16540.57742862
0.19800001 323476.85384066 13518.09836085
0.19900001 319404.30784269 10540.34265695
0.20000001 315380.66550342 10459.60026575
0.20100001 311408.60834124 11322.81753443
0.20200001 307484.16216205 12171.76113446
0.20300001 303609.91875884 10219.51034844
0.20400001 299782.80238829 10140.15377007
0.20500001 296002.59936953 10061.12882813
0.20600001 292269.21074106 11797.44724920
0.20700001 288582.38978096 10804.52518412
0.20800001 284939.51741341 9826.13972248
0.20900001 281343.95375550 12407.26894712
0.21000001 277790.53197969 8792.07075278
0.21100001 274281.33175203 11338.79079065
0.21200001 270814.43483397 8652.52160199
0.21300001 267389.21661782 12016.47196289
0.21400001 264006.76367242 11068.48409025
0.21500001 260666.12767642 10134.69952320
0.21600001 257364.58613259 11728.10474455
0.21700001 254103.29942001 10801.93176906
0.21800001 250881.58032423 14010.48251563
0.21900001 247697.63089306 12261.03330893
0.22000001 244551.60067822 11349.64032412
0.22100001 241444.63517841 9648.12807793
0.22200001 238374.51538910 7973.62791679
0.22300001 235339.64633765 11861.11873628
0.22400001 232339.97884487 8625.62212249
0.22500001 229378.29925715 8553.51718377
0.22600001 226449.13000814 8481.65256554
0.22700001 223556.34984953 9939.31578433
0.22800001 220695.93484573 9855.17743659
0.22900001 217868.12165155 11274.67582866
0.23000001 215074.23078409 7452.32244910
0.23100001 212313.24640557 7388.50132434
0.23200001 209582.33781149 8057.39335823
0.23300001 206883.35044056 8713.92713268
0.23400001 204215.92091878 8638.33386342
0.23500001 201577.04040645 7849.41032467
0.23600001 198969.76708851 10610.06333182
0.23700001 196391.10493018 7712.27905538
0.23800001 193841.76403195 9033.99584001
0.23900001 191320.62665968 7576.29717408
0.24000001 188827.64201575 8191.34349810
0.24100001 186363.55669657 8117.99691369
0.24200001 183926.16900024 9385.75284805
0.24300001 181515.90638266 6643.48248786
0.24400001 179131.91359102 7241.40794946
0.24500001 176774.28520063 9784.45714870
0.24600001 174442.57716925 6463.09778986
0.24700001 172136.55483539 8324.52418564
0.24800001 169855.71215292 8881.75560864
0.24900001 167598.88464900 9427.43770749
0.25000001 165367.59241265 7471.30817866
0.25100001 163159.22947695 9251.12874900
0.25200001 160976.28623740 6719.95538690
0.25300001 158816.81766949 7261.10524738
0.25400001 156679.85884246 6592.30537269
0.25500001 154565.75960078 6528.85799443
0.25600001 152474.98216651 8229.07517687
0.25700001 150405.82224700 8148.98783490
0.25800001 148359.51147962 6916.52075243
0.25900001 146334.96808681 7419.18323304
0.26000001 144332.19343179 5650.60564022
0.26100001 142349.88187554 5594.35062241
0.26200001 140389.79346281 5538.37761417
0.26300001 138449.82648143 7127.39740451
0.26400001 136530.79189065 6512.51908134
0.26500001 134632.75076372 8057.77051449
0.26600001 132753.89481115 7443.51123428
0.26700001 130896.24415846 7893.04389626
0.26800001 129058.84983011 5728.27732078
0.26900001 127239.35931259 8760.43030323
0.27000001 125440.76417393 7138.83422696
0.27100001 123660.75051809 7063.50240386
0.27200001 121901.36641441 5990.23342908
0.27300001 120159.91032472 6420.14431248
0.27400001 118435.56946564 6839.65446033
0.27500001 116732.70266639 5316.00753101
0.27600001 115045.97410772 5258.17649544
0.27700001 113379.12174506 8037.44632089
0.27800001 111729.38323691 5611.04989171
0.27900001 110099.15414197 7398.66350850
0.28000001 108485.14475146 6401.70869477
0.28100001 106889.81004619 5877.87093263
0.28200001 105312.61202561 5811.67676970
0.28300001 103752.46242614 4419.85510855
0.28400001 102209.35429365 5243.34012344
0.28500001 100684.17837295 4751.28660230
0.28600001 99175.79514322  5550.37363790
0.28700001 97684.61302971  5063.97057915
0.28800001 96209.43769246  5004.81518565
0.28900001 94753.23869822  6182.64911771
0.29000001 93312.09769850  4073.07325734
0.29100001 91888.35755579  4829.65230174
0.29200001 90481.15378838  5169.64096641
0.29300001 89090.41461420  3928.88747046
0.29400001 87715.44818923  5433.97227255
0.29500001 86357.82233480  5368.00249044
0.29600001 85015.77502562  4923.68884368
0.29700001 83689.60793405  4115.01821691
0.29800001 82379.55237493  5172.61233849
0.29900001 81086.00002727  4378.64420875
0.30000001 79807.48197588  3603.30798179
0.30100001 78546.03349979  3558.13548598
0.30200001 77298.40224552  3864.53380321
0.30300001 76067.90290040  4509.30549741
0.30400001 74852.86535485  4794.32625295
0.30500001 73652.75715040  3718.72788458
0.30600001 72467.28814213  3337.11877693
0.30700001 71298.34430329  3623.38202904
0.30800001 70144.11418649  5201.88775435
0.30900001 69005.06019844  3850.48254137
0.31000001 67881.50221642  4433.34111965
0.31100001 66771.91054215  4062.40322972
0.31200001 65677.95968484  3700.29642384
0.31300001 64598.24089195  4259.60820609
0.31400001 63534.31810917  4202.79534191
0.31500001 62484.16150093  4442.62409306
0.31600002 61449.04566988  4382.85338992
0.31700002 60428.32239307  3170.67422609
0.31800002 59422.06595208  4549.35358470
0.31900002 58430.25456068  3365.58282205
0.32000002 57453.00065912  3596.27074654
0.32100002 56489.23201102  3001.27303886
0.32200002 55540.84353365  4036.43099493
0.32300002 54604.82037385  4511.45047291
0.32400002 53683.28953054  3140.47258624
0.32500002 52775.74354756  3096.88077801
0.32600002 51882.36988646  3053.79643612
0.32700002 51002.00685028  3011.15862703
0.32800002 50136.08231334  2969.05893519
0.32900002 49282.99021308  3415.31138349
0.33000002 48444.34880796  2405.26203221
0.33100002 47616.59154390  3082.69828253
0.33200002 46805.16930054  3039.29381246
0.33300002 46005.44922792  2765.84773856
0.33400002 45219.17016570  3862.84779433
0.33500002 44445.02305524  2688.03512168
0.33600002 43684.82393962  3312.40193209
0.33700002 42936.25310839  2394.55494925
0.33800002 42201.59238878  3218.92661189
0.33900002 41478.49154740  2326.94348601
0.34000002 40768.38535682  2710.89391268
0.34100002 40070.53030685  2672.30379272
0.34200002 39385.52891544  3242.21689387
0.34300002 38711.57423541  2796.52425521
0.34400002 38051.20365559  2953.72482365
0.34500002 37401.73842662  2911.72547441
0.34600002 36765.31800902  2870.45233950
0.34700002 36138.97061748  2075.09979113
0.34800002 35525.80014010  2045.75329796
0.34900002 34923.41164672  2933.56671726
0.35000002 34332.77776863  3072.95541972
0.35100002 33754.06705982  1960.43630769
0.35200002 33185.19851471  1932.87197904
0.35300002 32628.05952524  2079.06005142
0.35400002 32082.16985627  1879.21318834
0.35500002 31547.33694465  2358.47902169
0.35600002 31022.24920712  2159.61398084
0.35700002 30508.41942354  2457.45330096
0.35800002 30005.67529894  1938.96682966
0.35900002 29513.10801125  2709.30344376
0.36000002 29031.23303051  1886.44961168
0.36100002 28558.74830119  2481.18416993
0.36200002 28097.41850001  1682.89496077
0.36300002 27645.17580762  1811.31200471
0.36400002 27202.76707546  1787.22188151
0.36500002 26770.07621466  1469.67725380
0.36600002 26347.37277047  1595.46523369
0.36700002 25933.51685913  1860.98925796
0.36800002 25530.65120464  1837.05809445
0.36900002 25135.96502637  1813.55996256
0.37000002 24750.09350274  1790.54559927
0.37100002 24373.13257259  1496.02294817
0.37200002 24006.03880015  1746.07931484
0.37300002 23647.06818018  1724.58076407
0.37400002 23296.80259440  1441.48972881
0.37500002 22955.43127741  1424.15502391
0.37600002 22622.74882671  1791.04310945
0.37700002 22297.79975897  1390.71383685
0.37800002 21980.85909894  1999.37903835
0.37900002 21672.80943073  1235.35019607
0.38000002 21372.44069543  1343.57854797
0.38100002 21078.99682190  1690.95720516
0.38200002 20794.37089724  1433.56399757
0.38300002 20516.64129089  1536.28617264
0.38400002 20247.10283455  1403.12429291
0.38500002 19983.86812503  1388.47922311
0.38600002 19728.97385674  1717.90047996
0.38700002 19480.47090361  1247.13980633
0.38800002 19239.24021279  1234.87069156
0.38900002 19004.32441897  1222.92833430
0.39000002 18777.34457242  1101.29131135
0.39100002 18555.95643108  1200.19931882
0.39200002 18341.62645427  1405.61060992
0.39300002 18133.39538022  1500.35720484
0.39400002 17932.77056133  1168.76837671
0.39500002 17737.14215681  1264.30355284
0.39600002 17547.69188403  1462.95114168
0.39700002 17364.18595735  1243.97034092
0.39800002 17186.85736152  1028.63346182
0.39900002 17014.95569634  1122.98712916
0.40000002 16848.55465336  1216.12873250
0.40100002 16688.16888349  1106.92629449
0.40200002 16533.26464149  999.43589493
0.40300002 16383.05647032  1389.93857680
0.40400002 16238.55483907  1381.08915450
0.40500002 16099.29358850  1078.49172859
0.40600002 15964.82482329  1169.58312197
0.40700002 15835.37828756  1066.03771683
0.40800002 15710.75827374  1156.62607892
0.40900002 15590.64642966  1438.23720128
0.41000002 15475.61308694  1049.47875122
0.41100002 15364.76281849  1424.31358076
0.41200002 15258.00160070  1323.32654153
0.41300002 15156.38059755  1223.57466362
0.41400002 15058.33978370  1312.33437433
0.41500002 14964.69799686  1120.55663910
0.41600002 14874.56171377  1581.68659478
0.41700002 14788.71745384  927.25262829
0.41800002 14707.70606461  1016.81730696
0.41900002 14628.45777678  1198.07074869
0.42000002 14554.10926100  919.09204338
0.42100002 14483.70046648  916.81828297
0.42200002 14416.65053658  1189.15747586
0.42300002 14352.39948020  1186.65644525
0.42400002 14291.53766871  1184.41124042
0.42500002 14234.32122858  909.57316961
0.42600002 14179.30037306  1362.27634790
0.42700002 14128.75724466  907.06625809
0.42800002 14080.21292890  1087.27409389
0.42900002 14035.67772789  995.83138198
0.43000002 13993.43433138  904.67557239
0.43100002 13952.99051582  994.56921110
0.43200002 13916.31502100  1175.02411448
0.43300002 13882.15950499  1084.47435192
0.43400002 13850.39120404  994.11187578
0.43500002 13821.04067111  1355.84415409
0.43600002 13794.41430363  1175.49107059
0.43700002 13769.57201815  995.12701691
0.43800002 13746.85693034  995.75362894
0.43900002 13727.06908243  996.58526261
0.44000002 13708.95388996  997.53207708
0.44100002 13693.17868604  907.85778991
0.44200002 13679.19657338  1181.67745199
0.44300002 13667.29559434  1183.31450864
0.44400002 13657.49181029  1367.45643231
0.44500002 13648.31996207  1004.37991361
0.44600002 13641.44037418  1097.59034452
0.44700002 13637.15402214  1374.62519058
0.44800002 13632.90902112  1009.99411270
0.44900002 13632.05818497  920.16397109
0.45000002 13631.82555156  922.19304227
0.45100002 13632.89659360  1201.60356271
0.45200002 13635.65115979  926.54254022
0.45300002 13639.33021071  928.83843137
0.45400002 13644.79469749  1117.50873869
0.45500002 13651.42938984  1307.26094033
0.45600002 13659.13684051  1029.96726227
0.45700002 13668.04047865  1032.89386792
0.45800002 13677.67505956  1130.04956698
0.45900002 13688.40455962  1511.19993500
0.46000002 13700.97842273  1042.16497312
0.46100002 13713.40530577  1140.40683928
0.46200002 13727.52422225  1239.38958315
0.46300002 13742.55290800  1052.12990050
0.46400002 13757.64406337  1631.31272213
0.46500002 13774.06942715  1155.36899831
0.46600002 13790.94935499  1062.66165291
0.46700002 13808.27337916  1260.14308831
0.46800002 13827.34305010  1361.85508155
0.46900002 13845.91633075  1268.97829186
0.47000002 13865.38816809  1371.42560871
0.47100002 13885.46050949  1179.70878080
0.47200002 13906.19846219  1183.97379319
0.47300002 13927.54246915  990.24831649
0.47400002 13948.55017564  1093.21767183
0.47500002 13970.42831402  1296.73521757
0.47600002 13993.16472747  1101.33208208
0.47700002 14015.36073563  1205.88169485
