# SAXS profile: number of points = 501, q_min = 0, q_max = 0.5, delta_q = 0.001
#    q    intensity    error
0.00000000 1719190.39626458 386.81783916
0.00100000 1719101.72620135 618.87663613
0.00200000 1718835.68098057 1314.90933759
0.00300000 1718392.47714966 1443.44973223
0.00400000 1717772.00755866 1545.99486555
0.00500000 1716974.91685561 2317.91622950
0.00600000 1716001.07318683 2702.70180030
0.00700000 1714851.20809001 2057.82153523
0.00800000 1713525.07026600 3007.23662528
0.00900000 1712024.20870997 2824.84006513
0.01000000 1710347.90382916 3668.69641213
0.01100000 1708497.81700084 3382.82582495
0.01200000 1706473.80383276 3993.14887604
0.01300000 1704277.27029097 5010.57539565
0.01400000 1701908.38267713 5361.01164309
0.01500000 1699368.69416907 4894.18205714
0.01600000 1696657.98333309 4759.12585600
0.01700000 1693778.34008108 5945.16224038
0.01800000 1690730.38821006 4818.58182322
0.01900000 1687515.05555156 6075.05447411
0.02000000 1684133.14464914 5835.52161018
0.02100000 1680587.53407039 5545.93911388
0.02200000 1676876.67061738 5785.22477647
0.02300000 1673003.95561017 7227.37741721
0.02400000 1668969.75736494 6884.50056305
0.02500000 1664776.67738842 7141.89227217
0.02600000 1660425.04911277 7397.19393213
0.02700000 1655916.81708070 9041.30623536
0.02800000 1651252.58650572 7901.24398878
0.02900000 1646435.78670077 9631.64979443
0.03000000 1641466.93752307 11449.23241549
0.03100000 1636347.74069772 7854.46951676
0.03200000 1631079.40114041 10495.99642976
0.03300000 1625666.34258841 8290.89872942
0.03400000 1620106.99090397 8505.56209470
0.03500000 1614405.12980439 11333.12453457
0.03600000 1608561.79832703 13391.27758993
0.03700000 1602580.08286172 12788.58965268
0.03800000 1596461.47634728 13075.02009639
0.03900000 1590208.53590330 12403.62715446
0.04000000 1583821.35556861 10714.55196692
0.04100000 1577304.13988906 13911.82315886
0.04200000 1570658.62646077 12156.89833280
0.04300000 1563886.40070639 11353.81579615
0.04400000 1556990.25688297 15764.52708308
0.04500000 1549972.97789964 12833.77685333
0.04600000 1542834.95463133 15227.78171010
0.04700000 1535580.40106102 11056.17940184
0.04800000 1528210.87080233 11232.35042302
0.04900000 1520729.14840122 15967.65680147
0.05000000 1513136.89662854 16205.69691753
0.05100000 1505438.55890549 11742.42130647
0.05200000 1497632.86217428 14287.41817095
0.05300000 1489725.60137388 21720.20028058
0.05400000 1481717.64068872 14669.00532689
0.05500000 1473612.87356168 16091.85332997
0.05600000 1465411.85793505 17540.98075802
0.05700000 1457120.06043305 16480.02865276
0.05800000 1448736.41292979 19231.97677963
0.05900000 1440265.28138544 18147.34339304
0.06000000 1431710.20473094 14410.16388384
0.06100000 1423072.94851088 17204.95275151
0.06200000 1414355.98715158 14702.23117367
0.06300000 1405563.00913840 14842.74607048
0.06400000 1396693.21544974 14979.53543624
0.06500000 1387753.02177285 16486.50666986
0.06600000 1378743.88425462 20784.56502762
0.06700000 1369667.40923902 20955.91234207
0.06800000 1360527.37868725 16897.75083426
0.06900000 1351327.90528332 17026.73240374
0.07000000 1342067.67814547 18580.92787404
0.07100000 1332751.93283379 21590.58232316
0.07200000 1323382.79755158 17389.25077446
0.07300000 1313963.48262315 18960.49394266
0.07400000 1304497.03713453 17610.71082663
0.07500000 1294983.81037688 14762.81613027
0.07600000 1285427.61213105 17816.02753936
0.07700000 1275832.10282641 19405.40719388
0.07800000 1266198.53930242 16504.89873382
0.07900000 1256528.99175547 16586.18346913
0.08000000 1246828.41185663 22723.44887207
0.08100000 1237098.17303094 19781.20071486
0.08200000 1227339.33344661 19864.48804398
0.08300000 1217555.34767426 19943.55753090
0.08400000 1207749.36825558 16938.68568486
0.08500000 1197923.76149687 18543.86069852
0.08600000 1188080.69547635 18605.34456471
0.08700000 1178222.44883541 20218.29817142
0.08800000 1168350.78959368 18716.98052831
0.08900000 1158469.37941197 23459.00603495
0.09000000 1148580.10470821 18813.74299891
0.09100000 1138685.67742029 17285.24939532
0.09200000 1128786.74518173 23619.86375275
0.09300000 1118888.69429837 17353.96446407
0.09400000 1108989.53427842 15803.10160617
0.09500000 1099094.40604660 18992.35222918
0.09600000 1089204.52899667 19017.51197025
0.09700000 1079324.76585327 17452.68228435
0.09800000 1069453.74464256 22233.94439651
0.09900000 1059596.19859058 23840.91558935
0.10000000 1049750.84319690 17494.09862457
0.10100000 1039922.02118331 22275.13074139
0.10200000 1030112.05318771 19098.27836441
0.10300000 1020321.38780966 19100.41727829
0.10400000 1010553.45283478 19099.46115711
0.10500000 1000811.34166148 20686.77140544
0.10600001 991091.66380976 19088.42634315
0.10700001 981402.56966633 23848.08356513
0.10800001 971740.90382193 20654.35388276
0.10900001 962111.79441555 17462.32989052
0.11000001 952515.76206964 17445.32700345
0.11100001 942953.52926913 19009.94404493
0.11200001 933428.63957708 18985.93942280
0.11300001 923940.29444372 18959.25573460
0.11400001 914492.33522053 17352.49287784
0.11500001 905085.89672126 18898.19441342
0.11600001 895721.50839502 18863.89585513
0.11700001 886401.75327808 28240.76118944
0.11800001 877126.02663806 18788.04037547
0.11900001 867896.91537113 20308.78877626
0.12000001 858715.63321834 17144.25842478
0.12100001 849584.75320768 20211.62223094
0.12200001 840503.90115680 15507.29770691
0.12300001 831475.70234471 20105.08342993
0.12400001 822499.29069233 18506.23491254
0.12500001 813576.63661208 19989.57890348
0.12600001 804710.57755829 18395.68466985
0.12700001 795900.07667882 15281.28219238
0.12800001 787146.22740667 19800.66428361
0.12900001 778451.32599989 16697.78172970
0.13000001 769815.34780029 19664.93398646
0.13100001 761238.37849931 18087.02472572
0.13200001 752722.09331800 19521.84841047
0.13300001 744268.76303254 17951.76341064
0.13400001 735876.39124235 20862.09667528
0.13500001 727548.68478813 14841.99386945
0.13600001 719282.96807942 16259.39226008
0.13700001 711083.02103795 19135.24499842
0.13800001 702946.37166517 21984.64881053
0.13900001 694877.13699991 17510.90467818
0.14000001 686873.41686755 17432.84814224
0.14100001 678936.24943113 14461.34279492
0.14200001 671065.72161881 17273.23248917
0.14300001 663263.93552395 15759.15185137
0.14400001 655527.60261168 19960.81644107
0.14500001 647861.43469173 15606.98269794
0.14600001 640263.21366275 18353.14588544
0.14700001 632735.67849157 14046.73272519
0.14800001 625274.34648363 15372.37053355
0.14900001 617883.77703377 13902.38563919
0.15000001 610561.94278248 20743.84298479
0.15100001 603310.43915465 15131.02652796
0.15200001 596128.94694822 16417.39197364
0.15300001 589018.48200988 17688.22584945
0.15400001 581975.17329147 17590.20044283
0.15500001 575003.93832660 17491.62062938
0.15600001 568099.95827000 14716.63011353
0.15700001 561269.77586464 18622.93204213
0.15800001 554505.65868219 14547.45664215
0.15900001 547813.68415451 15777.03484834
0.16000001 541189.14138344 18297.60573387
0.16100001 534636.98362802 15590.01517851
0.16200001 528153.26485212 12913.34793522
0.16300001 521738.11986622 15401.71002553
0.16400001 515392.63841670 14031.56524332
0.16500001 509115.18520490 12676.96871010
0.16600001 502907.51711437 17636.96745790
0.16700001 496766.49436357 16274.07112373
0.16800001 490693.10552779 13682.97789370
0.16900001 484689.26765474 18539.36536319
0.17000001 478751.46385322 14735.97075323
0.17100001 472880.39145726 13420.34614328
0.17200001 467076.16056824 15756.81502085
0.17300001 461338.47837677 13245.02833969
0.17400001 455666.73394573 11961.25233096
0.17500001 450059.92378060 14257.89905874
0.17600001 444516.29474313 20063.24391080
0.17700001 439039.50882170 14066.82652703
0.17800001 433624.75615253 16299.95535365
0.17900001 428274.33757201 15032.42995881
0.18000001 422986.66926409 14929.31519686
0.18100001 417763.13360883 17107.40112938
0.18200001 412598.74945553 12458.41982832
0.18300001 407497.23853985 12371.61674650
0.18400001 402455.67028670 15635.40352927
0.18500001 397476.13791911 12198.54324902
0.18600001 392554.68299915 11011.15937833
0.18700001 387692.14902634 16399.37867860
0.18800001 382888.17107313 13025.85619533
0.18900001 378143.97512360 17243.36608034
0.19000001 373452.95119676 13909.25582452
0.19100001 368823.52633790 15933.17709064
0.19200001 364246.82608753 12653.93533620
0.19300001 359728.21965614 10468.09168664
0.19400001 355262.26144782 11430.56380222
0.19500001 350851.57648705 15472.55525424
0.19600001 346494.29614740 16382.25109601
0.19700001 342189.92641297 11179.34542422
0.19800001 337938.20144071 12104.94694767
0.19900001 333738.62448495 15018.23881158
0.20000001 329588.64411094 11924.51770750
0.20100001 325490.82414225 9862.37243763
0.20200001 321441.17179795 15660.61463017
0.20300001 317442.40944302 12627.85964449
0.20400001 313491.38003613 17351.74870514
0.20500001 309588.24479024 12436.16038104
0.20600001 305732.50094456 9492.99460304
0.20700001 301923.78353643 9420.02249161
0.20800001 298159.51901680 12151.49177193
0.20900001 294443.46634734 12057.46051690
0.21000001 290770.05450475 16565.17078821
0.21100001 287141.71843031 10044.21778552
0.21200001 283556.21338083 9965.58359039
0.21300001 280013.16718869 11684.95001920
0.21400001 276513.50026033 13376.34120748
0.21500001 273056.35898181 10616.43173913
0.21600001 269639.09225175 15798.15516194
0.21700001 266262.58467290 11318.82300959
0.21800001 262926.48211549 9500.84888045
0.21900001 259628.73006148 9424.52334684
0.22000001 256369.44502826 10198.37700543
0.22100001 253150.10931300 10115.87884646
0.22200001 249968.38757004 13378.30873533
0.22300001 246822.41746023 9951.88034258
0.22400001 243712.21395416 13160.46017583
0.22500001 240641.10091007 11420.82718925
0.22600001 237603.09905476 8899.42449593
0.22700001 234602.19738697 9628.07463606
0.22800001 231633.99718871 12730.60508752
0.22900001 228699.32818875 11046.17807390
0.23000001 225799.41799699 10953.53028505
0.23100001 222932.95652608 10085.48743021
0.23200001 220097.06757119 9230.87145050
0.23300001 217294.30065590 9915.13940786
0.23400001 214523.58165515 7561.95661099
0.23500001 211781.78997916 8996.49086381
0.23600001 209072.66582481 11892.05379457
0.23700001 206392.69842161 11789.15149144
0.23800001 203742.86189068 7304.18194426
0.23900001 201121.82258275 7964.42455099
0.24000001 198529.62523989 7894.53092108
0.24100001 195967.15522865 10670.41210692
0.24200001 193431.77625726 9870.82400932
0.24300001 190924.50633645 6987.83726246
0.24400001 188444.22695324 6925.32566812
0.24500001 185990.78540561 10980.89648979
0.24600001 183564.23382002 9521.47725866
0.24700001 181163.83373541 7413.22442714
0.24800001 178789.34858458 9348.89547975
0.24900001 176439.51966202 7278.13053037
0.25000001 174116.05212805 10488.75147640
0.25100001 171815.97547775 9741.96627047
0.25200001 169542.15744522 7720.95021533
0.25300001 167292.42465108 7011.22584883
0.25400001 165066.01992488 7576.53067301
0.25500001 162862.92827338 8755.51143822
0.25600001 160683.85717239 6194.36298707
0.25700001 158527.24597228 7975.50612221
0.25800001 156394.14609822 6683.50414973
0.25900001 154283.40957024 6618.75858373
0.26000001 152194.92460477 5958.43158020
0.26100001 150127.97866484 7670.03879290
0.26200001 148083.56982864 9347.03536986
0.26300001 146059.93871247 6362.37123137
0.26400001 144058.24712345 9162.10495059
0.26500001 142077.88281192 6802.68935093
0.26600001 140117.46641676 6734.04575464
0.26700001 138178.80696301 5554.78830277
0.26800001 136261.07910910 6047.94828245
0.26900001 134361.97329113 10883.32035160
0.27000001 132484.25868566 8078.22805564
0.27100001 130625.94028316 5862.49247734
0.27200001 128788.85837782 6328.68480018
0.27300001 126970.30204545 5740.32762713
0.27400001 125169.36638054 7228.53125056
0.27500001 123390.54580643 6130.04260577
0.27600001 121628.57037473 5559.03407206
0.27700001 119887.16710409 4999.29510484
0.27800001 118163.51939535 5439.65787281
0.27900001 116459.73306194 8315.22533416
0.28000001 114772.86806520 5321.44427970
0.28100001 113105.35462888 6219.66374541
0.28200001 111456.53568569 5677.59619655
0.28300001 109825.38047006 6549.98600125
0.28400001 108212.02520999 5551.27715602
0.28500001 106616.91054955 5031.25224697
0.28600001 105039.38989153 6782.91892329
0.28700001 103479.60081635 7599.54224366
0.28800001 101936.38347276 4860.83667598
0.28900001 100412.70923177 6115.13428167
0.29000001 98904.61560449  6907.49868078
0.29100001 97414.72936546  5120.11841781
0.29200001 95941.66323369  4638.29992859
0.29300001 94485.75176636  4583.50403515
0.29400001 93046.21160842  4529.02456443
0.29500001 91624.56614251  5695.38330102
0.29600001 90218.97738115  4019.25563259
0.29700001 88829.92325875  4367.76753339
0.29800001 87457.27754975  4706.95090055
0.29900001 86102.07492387  5036.97162149
0.30000001 84762.33068400  5740.52911733
0.30100001 83439.97360852  4535.79718008
0.30200001 82132.37184762  4106.20812491
0.30300001 80842.07603262  4055.03872577
0.30400001 79567.68284467  4368.26599497
0.30500001 78308.93841474  3594.38044340
0.30600001 77065.50079805  4613.52642369
0.30700001 75838.88238540  5255.63479813
0.30800001 74627.75836556  4150.79611681
0.30900001 73432.04922720  3756.04949580
0.31000001 72252.41057848  5055.86266960
0.31100001 71087.20136374  3326.88118133
0.31200001 69938.11816797  4268.67324449
0.31300001 68803.94667622  3240.66604188
0.31400001 67686.21584176  3517.99123494
0.31500001 66582.32743781  3787.20296398
0.31600002 65494.08196159  3737.09249367
0.31700002 64420.67554241  3380.15300575
0.31800002 63362.37246175  4244.64553219
0.31900002 62318.92848773  3888.70132176
0.32000002 61290.63466903  3246.25861895
0.32100002 60276.16664741  4949.27627777
0.32200002 59277.57406223  3159.19845924
0.32300002 58291.58912273  3399.56563861
0.32400002 57320.87856436  4191.58944350
0.32500002 56364.45956708  3307.46664401
0.32600002 55422.81399544  3534.03590176
0.32700002 54494.55506261  3485.47190685
0.32800002 53581.00658778  3437.48964041
0.32900002 52680.87802507  3390.01466144
0.33000002 51795.72640374  4114.65270036
0.33100002 50921.92444835  3043.09434914
0.33200002 50064.62028435  2750.80069179
0.33300002 49219.50167958  3452.25601129
0.33400002 48388.61156395  4133.59733860
0.33500002 47569.84826880  2877.02455954
0.33600002 46765.75482155  2364.00901818
0.33700002 45973.52197542  2330.85767454
0.33800002 45195.88216999  3677.13714749
0.33900002 44429.84283972  2719.10651056
0.34000002 43677.49754419  2457.51451571
0.34100002 42937.65357206  2422.97190582
0.34200002 42211.20927889  3692.00359443
0.34300002 41495.97300790  3640.02692464
0.34400002 40794.99540893  2533.36933487
0.34500002 40105.13287523  3538.47604116
0.34600002 39428.76033016  2257.49377962
0.34700002 38762.82632796  2428.10355618
0.34800002 38110.56787651  2394.10598739
0.34900002 37469.34707560  2557.28305903
0.35000002 36840.33223395  2133.60794238
0.35100002 36223.51200277  2677.64213406
0.35200002 35617.06701298  2451.70092396
0.35300002 35022.60619311  2417.61062002
0.35400002 34439.81218014  2200.70410254
0.35500002 33868.56801702  2532.01426488
0.35600002 33307.32078368  2318.68924618
0.35700002 32757.47223846  2462.70687953
0.35800002 32219.38547414  2255.51818695
0.35900002 31691.72941923  1882.48881667
0.36000002 31175.06223631  1856.94267006
0.36100002 30668.07169702  2164.85928363
0.36200002 30172.86597764  2300.07768242
0.36300002 29686.79036188  2107.16847970
0.36400002 29211.05904175  2239.02778161
0.36500002 28745.26231080  2051.54946830
0.36600002 28289.92011768  2024.56822912
0.36700002 27843.66304930  1690.66730044
0.36800002 27408.82610543  1668.78645648
0.36900002 26982.38229009  1647.27451684
0.37000002 26565.13705605  2513.19491024
0.37100002 26157.08859017  1459.56561247
0.37200002 25759.36615857  1585.36026533
0.37300002 25369.87068992  2419.52468231
0.37400002 24989.56554674  1546.22944145
0.37500002 24618.41471994  1805.02225277
0.37600002 24256.17336755  2057.53000337
0.37700002 23902.01655407  1897.34216394
0.37800002 23556.29720044  1473.09311521
0.37900002 23219.74788731  1985.28853841
0.38000002 22891.10962216  1700.69506995
0.38100002 22569.64125111  1681.21265644
0.38200002 22257.42451959  1534.42691907
0.38300002 21952.19000189  1390.89082441
0.38400002 21655.72390014  1250.61811448
0.38500002 21365.52621242  1608.18323420
0.38600002 21084.38718110  1346.34360723
0.38700002 20809.47661746  1332.22275616
0.38800002 20542.38887591  1438.37813723
0.38900002 20281.75553055  1423.77930570
0.39000002 20029.49532069  1409.67594745
0.39100002 19782.88333742  2442.79055024
0.39200002 19543.76018511  1152.10471750
0.39300002 19310.81281910  1483.64981918
0.39400002 19086.00351311  1470.09949025
0.39500002 18866.37113728  1232.72874851
0.39600002 18653.15335596  1666.19300246
0.39700002 18446.20712673  1321.48634117
0.39800002 18245.52917735  1419.59346490
0.39900002 18050.59467603  1516.25002462
0.40000002 17861.51926689  1074.37043481
0.40100002 17678.54735084  1172.61810134
0.40200002 17501.57334051  1481.15822198
0.40300002 17329.31081698  1050.15628526
0.40400002 17163.09712605  1146.92401979
0.40500002 17002.33007983  1242.53034111
0.40600002 16846.51730799  1337.02390950
0.40700002 16696.08798851  1430.52088663
0.40800002 16550.73683606  1523.08162950
0.40900002 16410.12004606  1211.06691678
0.41000002 16274.78094809  1204.00835159
0.41100002 16143.78498599  1396.76034317
0.41200002 16017.21570633  1686.85315204
0.41300002 15895.94395152  987.13816616
0.41400002 15778.57577732  1276.88130528
0.41500002 15665.83459624  1270.81256266
0.41600002 15556.62028081  1167.67997361
0.41700002 15452.16606720  1162.62102999
0.41800002 15352.52644922  964.90633305
0.41900002 15255.01402399  1537.70548648
0.42000002 15162.76005898  1053.28117741
0.42100002 15074.33181934  1240.46682419
0.42200002 14989.72460860  1141.31768578
0.42300002 14907.96297108  948.14648989
0.42400002 14829.94652846  1229.03187678
0.42500002 14755.57672740  1037.16953732
0.42600002 14683.79554444  940.49714919
0.42700002 14616.46879282  1126.05280916
0.42800002 14551.58624819  1217.31300528
0.42900002 14490.78646283  1028.12134826
0.43000002 14432.43481395  1026.36265043
0.43100002 14376.20003598  1024.73558712
0.43200002 14323.90042596  1116.40485210
0.43300002 14274.23104795  1579.72922494
0.43400002 14227.30200030  928.33149951
0.43500002 14182.82928170  1113.06849477
0.43600002 14141.28209309  1112.35330216
0.43700002 14101.70715882  1297.07508593
0.43800002 14064.40437417  1111.36928631
0.43900002 14030.34169919  1759.40493246
0.44000002 13998.01959304  1111.16284795
0.44100002 13968.26356430  1203.92469366
0.44200002 13940.50473541  1574.78919207
0.44300002 13914.86801760  1297.42235545
0.44400002 13891.63894325  1112.72033209
0.44500002 13869.16480109  1113.41660300
0.44600002 13849.03741164  1392.86700369
0.44700002 13831.86864726  1208.35210229
0.44800002 13814.73163041  1209.54888522
0.44900002 13801.19644483  1024.73888459
0.45000002 13788.60568061  1026.07914035
0.45100002 13777.34421566  1027.51438030
0.45200002 13767.95776893  1403.29916210
0.45300002 13759.56765076  1405.53990214
0.45400002 13753.09680129  1032.51379129
0.45500002 13748.09813476  1034.40695268
0.45600002 13744.23178334  1036.38384674
0.45700002 13741.83611175  1227.28344131
0.45800002 13740.19592925  1135.21504148
0.45900002 13739.82113498  948.04770325
0.46000002 13741.50212575  1045.24740873
0.46100002 13742.96757714  1047.62646806
0.46200002 13746.58674402  1145.64059354
0.46300002 13751.03700793  1435.60833167
0.46400002 13755.81018308  1055.41458632
0.46500002 13761.99562616  1058.15989385
0.46600002 13768.84238723  1350.31043691
0.46700002 13776.13041032  1160.50128077
0.46800002 13785.41362984  1454.70584224
0.46900002 13794.30571281  1264.24817850
0.47000002 13804.26375633  1170.32553673
0.47100002 13814.91931007  1271.52523357
0.47200002 13826.45247278  980.98684944
0.47300002 13838.65150339  1082.32098538
0.47400002 13850.64056700  1677.65891819
0.47500002 13863.60474239  989.86142552
0.47600002 13877.69528251  1191.53897343
0.47700002 13891.24282607  1294.80280519
