# SAXS profile: number of points = 501, q_min = 0, q_max = 0.5, delta_q = 0.001
#    q    intensity    error
0.00000000 1700912.83420644 280.65061764
0.00100000 1700824.67339537 612.29689696
0.00200000 1700560.15669223 918.30251369
0.00300000 1700119.50023285 1224.08608377
0.00400000 1699502.59856280 2294.32859524
0.00500000 1698710.08012674 1834.60695915
0.00600000 1697741.84304843 1782.62900778
0.00700000 1696598.58419077 2443.10206277
0.00800000 1695280.07364085 2746.35383525
0.00900000 1693787.84452716 3048.81825048
0.01000000 1692121.20044171 3908.80014180
0.01100000 1690281.77079269 3042.50731990
0.01200000 1688269.41314423 4279.76314996
0.01300000 1686085.55278650 4603.01376212
0.01400000 1683730.35861044 5682.59021222
0.01500000 1681205.33851706 4841.87159053
0.01600000 1678510.28641571 5136.24170604
0.01700000 1675647.32302421 4524.24797512
0.01800000 1672617.00301754 5720.35040772
0.01900000 1669420.35306919 6510.73967075
0.02000000 1666058.09707410 5772.89156750
0.02100000 1662533.07830145 5486.35940714
0.02200000 1658843.78670305 6295.31245655
0.02300000 1654993.62913244 5957.97733607
0.02400000 1650982.99241287 9286.77975578
0.02500000 1646814.39957732 7707.09174201
0.02600000 1642488.22099235 7982.49311913
0.02700000 1638006.44527949 8943.51560085
0.02800000 1633369.56389052 11368.25268602
0.02900000 1628581.07043677 8794.33818414
0.03000000 1623641.52580203 9059.92013042
0.03100000 1618552.49051658 7769.05231196
0.03200000 1613315.31274076 7985.91116588
0.03300000 1607934.31173302 10660.60497825
0.03400000 1602407.82506980 10936.43391071
0.03500000 1596739.96912262 12071.35472400
0.03600000 1590931.41720294 14127.47163765
0.03700000 1584985.40341914 9937.85893904
0.03800000 1578903.39580816 12931.21941012
0.03900000 1572687.91681192 10379.74073164
0.04000000 1566339.02667174 11559.58255250
0.04100000 1559861.18760440 11792.55112507
0.04200000 1553255.68516893 14025.89948778
0.04300000 1546524.40334031 10207.06153584
0.04400000 1539670.13380982 13510.60605164
0.04500000 1532695.61192500 12690.72025641
0.04600000 1525601.01895929 16133.23152548
0.04700000 1518390.88819687 14212.13937450
0.04800000 1511066.47790401 11106.33912935
0.04900000 1503630.69521231 11277.23073902
0.05000000 1496085.33017384 13734.06397054
0.05100000 1488434.57136934 11609.79019751
0.05200000 1480677.29434070 12948.52354243
0.05300000 1472819.14617796 19087.73702430
0.05400000 1464861.15159863 14502.12607712
0.05500000 1456806.96364219 18355.76859818
0.05600000 1448657.60144626 13624.62537738
0.05700000 1440417.91499302 13784.80008994
0.05800000 1432087.30390724 12673.97323136
0.05900000 1423669.86324286 14094.33230439
0.06000000 1415169.32214019 19423.19985380
0.06100000 1406587.04233886 17005.63813657
0.06200000 1397925.97211954 15852.48126484
0.06300000 1389189.58495089 20004.33095860
0.06400000 1380376.87732805 16150.41022004
0.06500000 1371494.78990971 19008.91867734
0.06600000 1362544.21385301 15062.92698892
0.06700000 1353526.90323391 13805.97505909
0.06800000 1344446.76851829 16698.02964662
0.06900000 1335307.63407793 19629.02313996
0.07000000 1326108.60655429 18359.97451751
0.07100000 1316854.86176094 15644.23649046
0.07200000 1307548.04709968 17181.18214377
0.07300000 1298191.73141814 14409.92889393
0.07400000 1288788.75820526 18848.53647207
0.07500000 1279339.72507462 14584.47354946
0.07600000 1269848.11751612 17600.09573388
0.07700000 1260318.00758936 14745.72138020
0.07800000 1250750.18807753 19267.80755092
0.07900000 1241147.10665478 16383.14257627
0.08000000 1231513.54986371 19451.75743260
0.08100000 1221850.45040519 18034.51349413
0.08200000 1212159.68401751 15091.38877418
0.08300000 1202444.01289108 19696.03385553
0.08400000 1192707.05795030 16727.71727293
0.08500000 1182950.88043550 18312.08048880
0.08600000 1173177.70863328 18371.96377979
0.08700000 1163389.62364416 19963.76687919
0.08800000 1153588.69762375 21560.57377115
0.08900000 1143778.57026026 21617.41599328
0.09000000 1133960.91713280 15478.56724598
0.09100000 1124138.40027708 17064.42171791
0.09200000 1114312.07965946 17099.11966581
0.09300000 1104486.74103518 21802.56929258
0.09400000 1094660.80547266 15598.91721110
0.09500000 1084839.33641132 18746.02461430
0.09600000 1075023.48739018 17205.75172448
0.09700000 1065217.80566694 17224.57272741
0.09800000 1055421.63058676 21942.21673157
0.09900000 1045638.89459837 17253.04257215
0.10000000 1035868.93410946 21970.78112569
0.10100000 1026115.65246661 15699.57022112
0.10200000 1016381.36093682 23554.63914763
0.10300000 1006667.05714420 25126.41092828
0.10400000 996975.65079411 17272.60396260
0.10500000 987310.29870156 17268.05793674
0.10600001 977667.55005470 26675.66035843
0.10700001 968055.67238325 18819.00315671
0.10800001 958471.60549891 18805.21378489
0.10900001 948920.20528207 15657.18412407
0.11000001 939402.05734000 15641.04499093
0.11100001 929917.93658741 15622.62207008
0.11200001 920471.30894108 15601.98942105
0.11300001 911061.58533040 17137.06922689
0.11400001 901692.37174242 17109.61355941
0.11500001 892364.75375585 17079.86219114
0.11600001 883079.36594033 23247.06540312
0.11700001 873838.78495373 18560.33666651
0.11800001 864642.49808138 20064.03011296
0.11900001 855492.73510890 15398.86995727
0.12000001 846390.98127599 19970.59614392
0.12100001 837339.86529784 16855.65228248
0.12200001 828338.86048202 16811.13796548
0.12300001 819390.43921976 18288.79546505
0.12400001 810494.08973848 16716.44138849
0.12500001 801651.43147186 16666.33404563
0.12600001 792865.37963236 16614.49481313
0.12700001 784135.24359393 18066.47686381
0.12800001 775461.63067708 19506.73823902
0.12900001 766846.71496918 16448.86281136
0.13000001 758291.09251352 19370.54687129
0.13100001 749794.38923413 17815.11552797
0.13200001 741358.46951589 17748.12259686
0.13300001 732985.43911722 16206.30882290
0.13400001 724673.49293070 17609.56670843
0.13500001 716425.97348825 16076.59960306
0.13600001 708240.59417819 17465.21387593
0.13700001 700120.71527434 18840.24933641
0.13800001 692064.47921783 14429.54507213
0.13900001 684075.31347181 15802.14048640
0.14000001 676151.61177733 15730.66798987
0.14100001 668294.48883729 31316.28122388
0.14200001 660503.95041097 24085.27768773
0.14300001 652782.05146969 16920.11157218
0.14400001 645125.54560051 18240.92566228
0.14500001 637539.07327070 15358.31699958
0.14600001 630020.53085554 18059.53936892
0.14700001 622572.48512824 15203.22080407
0.14800001 615190.53012958 15124.45989679
0.14900001 607879.15184191 15045.00971792
0.15000001 600636.60393862 14964.86169322
0.15100001 593464.11822931 14884.08078750
0.15200001 586361.34063117 17494.09142322
0.15300001 579329.60779228 13382.51457151
0.15400001 572364.90580505 15968.98162555
0.15500001 565471.97394663 18524.86274074
0.15600001 558646.32134924 14471.73363754
0.15700001 551894.03223211 15695.86701748
0.15800001 545207.72981226 14303.52546673
0.15900001 538593.67479915 15511.49856637
0.16000001 532046.51225175 14133.81626512
0.16100001 525571.68783302 16602.81040237
0.16200001 519164.96488134 15232.30078868
0.16300001 512826.76514867 12615.53901821
0.16400001 506557.84768383 20059.69171529
0.16500001 500357.04315187 13704.78005895
0.16600001 494225.46142214 13618.38323245
0.16700001 488160.42092081 17222.30046323
0.16800001 482162.82443786 13445.11099428
0.16900001 476234.55599828 14572.77810165
0.17000001 470371.86678636 14478.04674333
0.17100001 464575.71109337 15581.87008587
0.17200001 458846.41039215 15479.18438555
0.17300001 453183.19200521 14193.69824389
0.17400001 447585.48509516 11749.11953861
0.17500001 442052.68514586 12837.21058291
0.17600001 436582.83615290 12750.40233204
0.17700001 431179.33953519 16117.48447306
0.17800001 425837.75147312 13720.49300051
0.17900001 420560.16922828 11355.12510551
0.18000001 415345.08998263 14659.60564338
0.18100001 410193.80030641 14557.77866053
0.18200001 405101.29505905 12232.03418212
0.18300001 400071.33649814 12146.16634986
0.18400001 395101.05865916 13156.86587489
0.18500001 390192.57245585 11975.01061439
0.18600001 385341.72934183 16213.25402803
0.18700001 380549.69169056 15024.10253775
0.18800001 375815.76458237 11719.81517222
0.18900001 371141.23180681 12693.03072751
0.19000001 366519.63458710 12600.94563248
0.19100001 361959.27259260 13551.75580619
0.19200001 357451.09398627 14487.49352382
0.19300001 353001.04167131 17462.96235665
0.19400001 348603.14071507 11216.30658252
0.19500001 344260.24647268 10121.25172458
0.19600001 339970.36899283 11050.73736633
0.19700001 335732.98791505 13959.77829721
0.19800001 331547.86164822 9896.70413791
0.19900001 327414.50954874 11786.92290080
0.20000001 323330.64418197 10723.26132109
0.20100001 319298.30180543 12577.16070254
0.20200001 315314.06537655 12481.70786786
0.20300001 311380.07437643 10481.05379889
0.20400001 307493.65458549 14183.14548813
0.20500001 303654.57605645 9382.92684365
0.20600001 299862.59407149 13035.02758043
0.20700001 296117.30657730 10162.74644212
0.20800001 292416.28422286 13750.87641559
0.20900001 288762.83800657 10915.23579263
0.21000001 285151.73993577 9927.55829516
0.21100001 281585.22274941 11640.73365876
0.21200001 278061.45880411 12437.68964029
0.21300001 274579.38118591 9695.39840803
0.21400001 271140.57034707 10493.14056851
0.21500001 267743.76497845 10409.87807452
0.21600001 264386.58868427 14629.83257652
0.21700001 261069.84936189 16220.27050774
0.21800001 257792.91484197 12702.74647943
0.21900001 254554.02060035 8400.28307699
0.22000001 251353.30126256 9165.59856391
0.22100001 248191.98035171 9917.75200380
0.22200001 245068.02841619 9017.27853195
0.22300001 241979.31100516 9756.60628107
0.22400001 238926.28093668 9676.51483550
0.22500001 235911.52878908 9596.88144495
0.22600001 232929.68634008 11103.75867291
0.22700001 229984.48896350 8652.01688395
0.22800001 227071.76907742 7799.91563667
0.22900001 224192.08830567 8508.09015356
0.23000001 221346.71402537 11504.49600554
0.23100001 218534.43763734 8365.49866838
0.23200001 215752.43819259 9048.65768574
0.23300001 213002.98279800 10466.96706972
0.23400001 210285.25033593 10377.57759489
0.23500001 207596.05379892 8818.68078247
0.23600001 204939.21810000 10199.82536726
0.23700001 202311.15963980 7222.50874075
0.23800001 199712.62473474 8591.63752246
0.23900001 197142.66138687 9226.27698930
0.24000001 194601.16421572 11255.73187064
0.24100001 192088.82681468 6972.82474320
0.24200001 189603.32824520 7602.14580559
0.24300001 187145.60354290 10274.29412051
0.24400001 184714.30306386 6788.25095871
0.24500001 182309.53629492 7399.94442826
0.24600001 179931.32830223 7999.74723475
0.24700001 177578.76447206 9908.89552629
0.24800001 175251.78845871 12436.74375631
0.24900001 172949.04474269 9079.82527853
0.25000001 170672.15414519 6425.80690756
0.25100001 168418.38086773 7002.83660778
0.25200001 166190.55373122 6937.62499373
0.25300001 163986.31424599 7497.45464203
0.25400001 161805.04744732 9902.46937227
0.25500001 159646.78159266 7356.52404384
0.25600001 157512.07834311 8500.92727038
0.25700001 155399.34170682 7216.74577031
0.25800001 153309.80316279 7742.91197509
0.25900001 151242.26489552 7667.98319301
0.26000001 149196.58638284 7009.25595991
0.26100001 147172.00905883 6362.24625265
0.26200001 145169.66237756 6872.33214213
0.26300001 143187.66181316 6237.25484371
0.26400001 141227.17791110 6736.53670512
0.26500001 139287.67970190 5557.57868308
0.26600001 137367.72840179 5501.57778282
0.26700001 135469.18939701 7624.20634004
0.26800001 133591.08423555 7546.56070558
0.26900001 131731.43425073 6402.14800755
0.27000001 129892.64435514 5280.13624290
0.27100001 128072.89877231 5747.91196891
0.27200001 126274.04952174 5688.01482988
0.27300001 124493.25892006 6651.67513888
0.27400001 122729.86527041 8100.17149119
0.27500001 120988.06336849 7012.46848471
0.27600001 119262.65267852 5946.43614397
0.27700001 117557.69834354 5392.37187822
0.27800001 115869.95912605 7273.73702838
0.27900001 114201.71847466 5755.76688353
0.28000001 112550.12729780 5218.38689914
0.28100001 110917.42280586 7976.07225147
0.28200001 109302.99499143 5567.89482839
0.28300001 107705.97778295 5047.10235779
0.28400001 106126.34960796 4536.90166048
0.28500001 104564.55942189 6280.14773613
0.28600001 103020.08621076 4878.51641342
0.28700001 101492.91695742 4384.49422009
0.28800001 99982.01148279  5201.06448352
0.28900001 98490.20957178  4712.75675108
0.29000001 97013.66177077  5081.57584409
0.29100001 95555.02054283  5859.43413704
0.29200001 94112.74078640  4963.50618402
0.29300001 92687.36763870  4905.01572762
0.29400001 91277.91708872  4039.04802237
0.29500001 89886.01804040  4390.03332890
0.29600001 88509.81400950  3943.11240078
0.29700001 87149.89162941  4674.72040829
0.29800001 85806.13129872  4618.08620511
0.29900001 84479.17714188  5322.18841189
0.30000001 83167.46577986  4130.51238349
0.30100001 81872.83975058  4079.72379791
0.30200001 80592.53831986  4761.81035206
0.30300001 79329.15041532  5787.85508831
0.30400001 78081.54080895  4286.67679335
0.30500001 76849.25149268  3527.38081051
0.30600001 75631.65977620  3831.12190734
0.30700001 74430.75855580  5501.92193292
0.30800001 73244.91613568  4752.86283306
0.30900001 72074.15914824  3686.59341497
0.31000001 70919.17401474  3308.37962442
0.31100001 69778.30436261  4571.87471829
0.31200001 68653.31232088  4512.58243250
0.31300001 67542.84431158  4453.77536477
0.31400001 66448.42415835  4395.56346619
0.31500001 65367.57338251  3098.42312503
0.31600002 64302.02142811  3057.56126367
0.31700002 63250.99640299  3620.48720553
0.31800002 62214.75487629  3572.37139414
0.31900002 61193.14471086  3230.99819372
0.32000002 60186.32366583  5795.94324345
0.32100002 59192.89487281  2859.01695773
0.32200002 58215.22551158  4230.79171438
0.32300002 57249.75432585  3338.80583038
0.32400002 56299.32135491  4116.88806902
0.32500002 55362.83976719  3519.41589065
0.32600002 54440.74554058  3738.44617330
0.32700002 53531.82166704  3423.89547595
0.32800002 52637.26085538  3117.17873546
0.32900002 51755.86998745  2818.10725426
0.33000002 50889.14606701  3284.64008844
0.33100002 50033.45333186  2989.99931270
0.33200002 49193.94482989  2702.96142668
0.33300002 48366.52265492  2907.79547971
0.33400002 47552.81184970  2628.48179947
0.33500002 46751.00555043  2591.87587046
0.33600002 45963.67724384  2323.46399471
0.33700002 45187.88955898  2291.02610914
0.33800002 44426.27266401  2484.98367914
0.33900002 43676.16943107  2672.98169577
0.34000002 42939.30682578  2635.61477778
0.34100002 42214.82270514  2382.18255807
0.34200002 41503.50245238  2775.96189299
0.34300002 40803.03132277  2737.06747076
0.34400002 40116.57637917  2698.84280373
0.34500002 39440.90898358  2251.68160051
0.34600002 38778.52484274  2422.10677639
0.34700002 38126.32533765  2189.21370457
0.34800002 37487.62857089  2158.72519349
0.34900002 36859.61255807  2709.18165133
0.35000002 36243.61220310  2289.87152745
0.35100002 35639.46885110  2822.64606669
0.35200002 35045.52859633  2226.79299248
0.35300002 34463.31106949  2379.00247580
0.35400002 33892.53278739  1985.25520205
0.35500002 33332.94310355  2669.96886905
0.35600002 32783.25290182  1931.09760365
0.35700002 32244.75259396  1904.69762594
0.35800002 31717.66066751  1707.99610785
0.35900002 31200.75871263  2021.80926034
0.36000002 30694.81047939  1662.12406619
0.36100002 30198.12309170  2295.66142617
0.36200002 29713.11229200  1941.45484912
0.36300002 29236.95069251  1915.60510011
0.36400002 28770.88510540  2520.32965461
0.36500002 28314.59056590  2020.81242441
0.36600002 27868.52755911  2301.24377220
0.36700002 27431.35512068  1514.21087439
0.36800002 27005.31951779  1793.69340734
0.36900002 26587.58114063  2065.85515248
0.37000002 26178.69075184  1893.89747215
0.37100002 25779.04877106  1438.47098957
0.37200002 25389.31645963  1420.53232321
0.37300002 25007.72454502  1543.22675478
0.37400002 24635.05391025  2355.72714176
0.37500002 24271.44064842  1916.47304438
0.37600002 23916.38726634  1758.21329317
0.37700002 23569.40511456  1603.66239996
0.37800002 23230.68022222  1452.73065652
0.37900002 22900.83650913  1696.95206572
0.38000002 22578.69398387  1677.48414900
0.38100002 22263.66687443  1275.70817234
0.38200002 21957.62069275  1513.75844227
0.38300002 21658.56116512  1996.05309154
0.38400002 21367.97724477  1234.00074435
0.38500002 21083.51115298  1831.10303038
0.38600002 20807.86183354  1570.26536766
0.38700002 20538.43560165  1314.87070951
0.38800002 20276.56626224  1183.13769745
0.38900002 20021.13267906  1522.60721238
0.39000002 19773.75065242  1275.70358378
0.39100002 19531.94466759  1378.17408104
0.39200002 19297.48035290  1365.10382484
0.39300002 19069.05290620  1239.67918816
0.39400002 18848.62867273  1563.49382248
0.39500002 18633.31313058  1881.59204907
0.39600002 18424.15916676  1316.59047643
0.39700002 18221.21017977  1305.36755912
0.39800002 18024.36168611  1510.26133723
0.39900002 17833.17884920  1390.98801614
0.40000002 17647.71737127  1273.81230021
0.40100002 17468.27865632  1158.67097817
0.40200002 17294.64382877  1254.55352278
0.40300002 17125.68895726  1037.81679998
0.40400002 16962.62440928  1030.47948169
0.40500002 16804.81305596  1125.75447996
0.40600002 16652.04581759  1016.60744533
0.40700002 16504.38276364  1212.08192759
0.40800002 16361.78767824  1204.55486595
0.40900002 16223.74996407  997.76067007
0.41000002 16090.90985062  992.00463929
0.41100002 15962.38012118  1085.12265205
0.41200002 15838.11988631  1471.75736017
0.41300002 15719.16426809  1073.77616203
0.41400002 15603.94459267  971.34559692
0.41500002 15493.25561432  1256.81295499
0.41600002 15386.08279014  1251.11938136
0.41700002 15283.51993645  958.27674542
0.41800002 15185.74587051  1240.75142514
0.41900002 15090.03172941  1045.73924840
0.42000002 14999.46351732  1231.38101580
0.42100002 14912.62346116  1038.36602080
0.42200002 14829.58495621  1505.49953609
0.42300002 14749.34452286  1125.67002732
0.42400002 14672.75134589  1216.00432541
0.42500002 14599.80450089  1212.80581736
0.42600002 14529.32402564  1023.66357273
0.42700002 14463.30046669  1021.39832736
0.42800002 14399.57620843  1204.59660480
0.42900002 14339.91587240  924.92461760
0.43000002 14282.74930481  1200.39372221
0.43100002 14227.56162078  1198.52984773
0.43200002 14176.27639506  1104.89903459
0.43300002 14127.57590539  1287.58732903
0.43400002 14081.57898319  918.82307219
0.43500002 14037.95671198  1377.12361871
0.43600002 13997.31143504  1009.27618885
0.43700002 13958.53670440  1650.73662889
0.43800002 13922.09516779  1008.44701127
0.43900002 13888.75652739  1466.65275880
0.44000002 13857.19393959  1283.31479156
0.44100002 13828.16029947  1100.16848556
0.44200002 13801.02345684  1100.49366260
0.44300002 13776.08127711  1009.23576219
0.44400002 13753.57104201  1009.85600162
0.44500002 13731.73682037  918.65323682
0.44600002 13712.21821822  1103.28513012
0.44700002 13695.63942116  1196.45111653
0.44800002 13679.12408173  921.28905057
0.44900002 13666.07200580  922.45990411
0.45000002 13654.07539122  1200.80771719
0.45100002 13643.36764082  1017.52240687
0.45200002 13634.52977065  1019.11297601
0.45300002 13626.72580361  1113.57608545
0.45400002 13620.78305768  1115.54218529
0.45500002 13616.30737253  1117.62656211
0.45600002 13612.96601878  1026.48575130
0.45700002 13611.11796394  1122.10061813
0.45800002 13609.98592535  1124.45709045
0.45900002 13610.21842873  1033.01562770
0.46000002 13612.38933806  1223.68579754
0.46100002 13614.47423525  1226.52804198
0.46200002 13618.58570585  1324.13515094
0.46300002 13623.63547000  1517.12811784
0.46400002 13628.96429793  1140.74436580
0.46500002 13635.73584719  1143.76557707
0.46600002 13643.20781908  1051.27742832
0.46700002 13651.16139958  1149.97389080
0.46800002 13661.05709799  1057.16095363
0.46900002 13670.55747346  1060.15178231
0.47000002 13681.22309983  966.57845782
0.47100002 13692.53727505  1551.09069603
0.47200002 13704.76967679  1069.58880012
0.47300002 13717.65621455  1267.92302401
0.47400002 13730.36742031  1565.26196010
0.47500002 13744.09863730  981.32868922
0.47600002 13758.99522666  1082.90177064
0.47700002 13773.30674393  1283.80998245
