# SAXS profile: number of points = 501, q_min = 0, q_max = 0.5, delta_q = 0.001
#    q    intensity    error
0.00000000 1700912.83420644 331.67800267
0.00100000 1700824.62021480 561.27213800
0.00200000 1700559.94303428 1147.87799790
0.00300000 1700119.02105392 1326.09288366
0.00400000 1699501.74049125 1911.93953070
0.00500000 1698708.74080921 2599.02447631
0.00600000 1697739.90942072 3030.46586169
0.00700000 1696595.95661115 2443.09827906
0.00800000 1695276.64828837 2517.48592900
0.00900000 1693783.47345497 2794.74285067
0.01000000 1692115.83128369 3629.58861483
0.01100000 1690275.29171059 3650.99478906
0.01200000 1688261.69793799 3621.32150085
0.01300000 1686076.50750369 3540.76082192
0.01400000 1683719.87113457 4546.04385359
0.01500000 1681193.28199735 5245.32327340
0.01600000 1678496.59258087 4280.16650242
0.01700000 1675631.87721844 6333.88878002
0.01800000 1672599.71404799 5243.60033949
0.01900000 1669401.04378481 7011.48470027
0.02000000 1666036.73035145 9971.23028221
0.02100000 1662509.52389339 7132.16618086
0.02200000 1658817.95907041 5722.92221880
0.02300000 1654965.39395073 6553.66325836
0.02400000 1650952.32574491 7429.28580461
0.02500000 1646781.03986382 7706.93561854
0.02600000 1642452.27827681 7982.31843752
0.02700000 1637967.57857995 7567.41055964
0.02800000 1633327.88874126 7104.97664186
0.02900000 1628536.40642822 10259.77983157
0.03000000 1623593.70637063 9059.65329798
0.03100000 1618501.50896853 9322.56912062
0.03200000 1613260.95773247 9582.77053030
0.03300000 1607876.47647356 8200.17040805
0.03400000 1602346.47904502 8412.31940313
0.03500000 1596675.04180243 12070.86387344
0.03600000 1590862.81907422 10595.14686468
0.03700000 1584912.95839366 9034.00428064
0.03800000 1578827.01415622 12006.97999834
0.03900000 1572607.50746692 10379.21002994
0.04000000 1566254.60386340 13485.45276417
0.04100000 1559772.49614983 16705.16420833
0.04200000 1553162.76669416 13023.27040292
0.04300000 1546427.10860875 17350.91296398
0.04400000 1539568.23851938 12470.50331116
0.04500000 1532589.04741093 15862.29737774
0.04600000 1525489.84152488 10754.70388270
0.04700000 1518275.03099822 16397.37109739
0.04800000 1510945.64977364 13326.54125106
0.04900000 1503505.00414139 14659.17447273
0.05000000 1495954.47275836 19454.88882416
0.05100000 1488298.62898892 23217.45969379
0.05200000 1480536.06431101 14124.31471174
0.05300000 1472672.70363360 16700.10923773
0.05400000 1464709.16419692 19334.16186903
0.05500000 1456649.58257984 14683.02847736
0.05600000 1448494.49480314 14861.55421018
0.05700000 1440249.18860345 16289.21908346
0.05800000 1431912.75705552 21543.12843580
0.05900000 1423489.49651879 16654.82788715
0.06000000 1414983.02239326 12947.09525977
0.06100000 1406394.70684291 15695.36566183
0.06200000 1397727.48750750 17171.08298667
0.06300000 1388984.86253208 18667.95742526
0.06400000 1380165.90578016 17493.60367388
0.06500000 1371277.40351599 17648.34100880
0.06600000 1362320.41835864 16429.58501412
0.06700000 1353296.56455594 15183.98816491
0.06800000 1344209.79774428 15303.82926368
0.06900000 1335063.96425481 16821.80673719
0.07000000 1325858.29406370 16944.46979162
0.07100000 1316597.65794456 17063.10644616
0.07200000 1307283.97095932 14314.76015261
0.07300000 1297920.55526389 20169.68637386
0.07400000 1288510.64230857 14495.74540530
0.07500000 1279054.31296526 14581.21985126
0.07600000 1269555.73655681 17596.04333359
0.07700000 1260018.17753890 22113.32005267
0.07800000 1250443.13992271 16299.52709328
0.07900000 1240832.45189721 20845.98616963
0.08000000 1231191.37193513 14958.97587075
0.08100000 1221520.74280065 18029.64700966
0.08200000 1211822.28943387 15087.18821142
0.08300000 1202099.02305510 19690.38292175
0.08400000 1192354.24360293 15202.51731952
0.08500000 1182590.29160168 16780.95702561
0.08600000 1172809.08369966 19896.70703914
0.08700000 1163013.19842258 23027.66241009
0.08800000 1153204.11354974 15395.27563891
0.08900000 1143385.94907638 15435.71103754
0.09000000 1133560.21761176 24756.95631561
0.09100000 1123729.46754840 20159.70759495
0.09200000 1113894.85715899 17092.71738624
0.09300000 1104061.24958056 18680.71722075
0.09400000 1094226.87792641 21829.82724058
0.09500000 1084396.98582706 20299.91252883
0.09600000 1074572.60916540 17198.53541816
0.09700000 1064758.53688790 20347.53659652
0.09800000 1054953.63425304 15666.06220524
0.09900000 1045162.37387516 20380.66724892
0.10000000 1035383.84524253 18823.27919171
0.10100000 1025621.74217040 20399.61741120
0.10200000 1015878.58801156 17264.85741533
0.10300000 1006155.63967318 17265.63158898
0.10400000 996455.17576298 20402.42068358
0.10500000 986781.03496780 18827.78303302
0.10600001 977129.34024238 20387.80464348
0.10700001 967508.55796878 20375.73118966
0.10800001 957915.41791389 17228.10960197
0.10900001 948354.85439814 17212.64141745
0.11000001 938827.56369123 17194.62763835
0.11100001 929334.34065581 15612.81765797
0.11200001 919878.66922256 21828.72184828
0.11300001 910459.72662524 24910.17929326
0.11400001 901081.31085756 21761.11468182
0.11500001 891744.18352775 15516.34952402
0.11600001 882449.77028498 23230.49129671
0.11700001 873199.79596577 26274.58309801
0.11800001 863994.16501317 18506.75588622
0.11900001 854835.08619681 21541.84518682
0.12000001 845723.87148696 29164.78908203
0.12100001 836663.24489807 16842.03191319
0.12200001 827652.92924808 16797.21699043
0.12300001 818695.04718105 19796.04717352
0.12400001 809789.11641976 18220.25597794
0.12500001 800937.02226959 16651.48147761
0.12600001 792141.59036875 15090.29800763
0.12700001 783401.71423261 16545.44498432
0.12800001 774718.56047271 17988.96582198
0.12900001 766094.36013856 16432.72479948
0.13000001 757529.04393674 14885.44641498
0.13100001 749022.80288263 16313.71741577
0.13200001 740577.28296327 17729.42098991
0.13300001 732194.66517842 16188.82481028
0.13400001 723873.01893198 14658.42932445
0.13500001 715615.86742778 20437.99013735
0.13600001 707421.10312726 18898.75566114
0.13700001 699291.71905829 18817.94104719
0.13800001 691225.70757546 20176.87935558
0.13900001 683227.05483934 15782.54571106
0.14000001 675293.71320245 14282.46270780
0.14100001 667426.99586891 17059.43481898
0.14200001 659626.82771611 14148.99612185
0.14300001 651895.47266146 14080.94287365
0.14400001 644229.19409583 18215.58132229
0.14500001 636633.35324498 19519.17953125
0.14600001 629105.26703891 23582.01204742
0.14700001 621647.80971523 16560.69843209
0.14800001 614256.21926682 21965.80343730
0.14900001 606935.52440614 19118.46992082
0.15000001 599683.48586004 16299.39791473
0.15100001 592501.47873286 21614.45496405
0.15200001 585389.43399574 16121.62577297
0.15300001 578348.28166744 18703.78431174
0.15400001 571374.34472022 14612.89955582
0.15500001 564471.98696495 17171.23865384
0.15600001 557636.98197928 13132.35154539
0.15700001 550875.57597990 16972.47729699
0.15800001 544180.13340223 18170.17551191
0.15900001 537556.61588745 15481.63126830
0.16000001 531000.36020796 15388.39116520
0.16100001 524516.55784777 14020.32825309
0.16200001 518100.63534516 13934.31724539
0.16300001 511753.40922321 17624.78824568
0.16400001 505475.52287047 13761.57175983
0.16500001 499265.69958514 13674.88815725
0.16600001 493125.23478744 12352.78771464
0.16700001 487051.31824498 14728.43255913
0.16800001 481044.81357851 13413.93525999
0.16900001 475107.66545712 13326.77064534
0.17000001 469236.35853750 13239.50448130
0.17100001 463431.60343363 14347.84311983
0.17200001 457693.68917802 15440.29733356
0.17300001 452021.90382143 17696.65837032
0.17400001 446415.68450837 15233.93595329
0.17500001 440874.46035442 16294.72082426
0.17600001 435396.24070992 15027.70195785
0.17700001 429984.54903334 12628.64680157
0.17800001 424634.59635176 18242.30312089
0.17900001 419348.83853344 12454.66109272
0.18000001 414125.68659925 13492.21550671
0.18100001 408966.26923615 13397.73561304
0.18200001 403865.91744695 13303.34394912
0.18300001 398828.02860726 17612.24657529
0.18400001 393849.99403501 17486.94056125
0.18500001 388933.58329324 14106.62173247
0.18600001 384075.16081419 12927.97052377
0.18700001 379275.51870934 12834.68415950
0.18800001 374534.19205890 12741.65381584
0.18900001 369852.12713563 12648.94334567
0.19000001 365223.17911250 13602.73794876
0.19100001 360655.59105191 10386.88151308
0.19200001 356140.33941661 12372.31597594
0.19300001 351683.24960617 12280.77965655
0.19400001 347278.23871066 10157.88896229
0.19500001 342928.43336715 11090.30605917
0.19600001 338631.76506947 12007.88295681
0.19700001 334387.66229345 11917.57684733
0.19800001 330196.00118717 10841.98621136
0.19900001 326056.20914367 10759.85541025
0.20000001 321965.82259778 15531.63201616
0.20100001 317927.23126656 9633.19556266
0.20200001 313936.66804682 10515.30919322
0.20300001 309996.70248218 11383.07945316
0.20400001 306104.14846957 10353.97331137
0.20500001 302259.20868018 11207.77198762
0.20600001 298461.54343375 11120.67763399
0.20700001 294710.51759938 11033.96230049
0.20800001 291003.95381342 10947.56925995
0.20900001 287344.85511961 18102.72672827
0.21000001 283728.52419748 10776.00985843
0.21100001 280156.84696777 15145.27986305
0.21200001 276627.89706442 12373.56642065
0.21300001 273140.90953449 10521.38833267
0.21400001 269697.20936862 9567.50895467
0.21500001 266295.67515256 8627.98028285
0.21600001 262933.85617468 9414.34716543
0.21700001 259612.54037676 10187.19656603
0.21800001 256331.28986088 9262.53159706
0.21900001 253088.08986315 8351.90736037
0.22000001 249883.22494465 13253.80687774
0.22100001 246717.94443123 11501.99111324
0.22200001 243590.08867247 8148.08885137
0.22300001 240497.64366965 8888.79333034
0.22400001 237440.80346700 11219.07849433
0.22500001 234422.73274588 9536.31721905
0.22600001 231437.65395892 9456.54298794
0.22700001 228489.16608711 9377.19581965
0.22800001 225573.23890862 8523.28523523
0.22900001 222690.64677416 9987.67598015
0.23000001 219842.46435173 9902.80427505
0.23100001 217027.44013856 7552.55527400
0.23200001 214242.91897846 8985.34844691
0.23300001 211491.13717789 9650.34104583
0.23400001 208771.22508470 8095.10463552
0.23500001 206079.89559070 10213.32010853
0.23600001 203421.01658060 8677.94097777
0.23700001 200791.16504325 8601.89391730
0.23800001 198191.00398836 8526.17739486
0.23900001 195619.48196012 8450.76202039
0.24000001 193076.58721396 9073.63464531
0.24100001 190563.04629046 6917.43890755
0.24200001 188076.36288898 10283.07562736
0.24300001 185617.74309623 8152.33166241
0.24400001 183185.65289238 8078.48767470
0.24500001 180780.16745160 8672.02504288
0.24600001 178401.65580585 7931.73799234
0.24700001 176048.75934935 8513.71840488
0.24800001 173721.43876059 7786.19525359
0.24900001 171418.65813558 7071.01998260
0.25000001 169141.87523481 10189.10704617
0.25100001 166888.41857922 7570.05902489
0.25200001 164660.91118925 8123.54643784
0.25300001 162457.24357926 6808.58340052
0.25400001 160276.71759103 11035.05252822
0.25500001 158119.34630751 7893.31814112
0.25600001 155985.70916778 10222.52393397
0.25700001 153874.04095963 5954.92566689
0.25800001 151785.90495939 7665.94749268
0.25900001 149719.85385272 6422.98203418
0.26000001 147675.77283837 6359.65745819
0.26100001 145653.04422672 7441.41438164
0.26200001 143652.57954574 5667.09453123
0.26300001 141672.74113971 7293.31305897
0.26400001 139714.55329569 6664.38450755
0.26500001 137777.41490064 7146.51484906
0.26600001 135859.98916566 6529.43138827
0.26700001 133964.24923463 7000.97199629
0.26800001 132089.06800304 7994.69121920
0.26900001 130232.45467849 6329.29759689
0.27000001 128396.75017103 6263.19376973
0.27100001 126580.34810033 7230.26982565
0.27200001 124784.96139398 6131.93329308
0.27300001 123007.76557879 5561.18134499
0.27400001 121248.09349469 6501.92932135
0.27500001 119510.32586807 5937.27327011
0.27600001 117789.11216814 5383.55162643
0.27700001 116088.25693681 5809.05665204
0.27800001 114404.88912676 6224.19828752
0.27900001 112741.32024558 6629.18994419
0.28000001 111094.39995297 6555.68085149
0.28100001 109466.48744546 6482.60569334
0.28200001 107857.08205323 5036.38668485
0.28300001 106265.24758731 7243.03961837
0.28400001 104690.93531046 4923.09146599
0.28500001 103134.54364725 4424.47213188
0.28600001 101595.60638308 5248.42927417
0.28700001 100074.22764148 4323.20683874
0.28800001 98569.20860020  5127.57047409
0.28900001 97083.33466560  5912.37536099
0.29000001 95612.99458783  5008.20889357
0.29100001 94160.61438545  4124.23510530
0.29200001 92724.77824757  4075.25419688
0.29300001 91305.95900892  6039.88947434
0.29400001 89903.25047696  4773.86282630
0.29500001 88518.19823971  4716.24982546
0.29600001 87148.99094836  4270.73650359
0.29700001 85796.11907179  5369.12138568
0.29800001 84459.56606210  6060.81874753
0.29900001 83139.98395634  4863.68929169
0.30000001 81835.86672270  3694.88955744
0.30100001 80548.83035994  5108.40706326
0.30200001 79276.33602476  4323.73157148
0.30300001 78020.85638203  5336.62682917
0.30400001 76781.26694725  3864.01744205
0.30500001 75557.06854510  3814.87657145
0.30600001 74347.82961498  4108.46125903
0.30700001 73155.24746639  3717.74985225
0.30800001 71977.87817681  4003.40977373
0.30900001 70815.81079887  3622.22889385
0.31000001 69669.51030087  4225.10765223
0.31100001 68537.50570222  3528.31096060
0.31200001 67421.48592233  5381.24615367
0.31300001 66319.96908962  4997.87310722
0.31400001 65234.75770783  3390.57669240
0.31500001 64163.29924368  3041.34052815
0.31600002 63107.09612366  4801.18810041
0.31700002 62065.61241539  3256.58283763
0.31800002 61038.97332146  3212.78651290
0.31900002 60026.91177339  3457.55028186
0.32000002 59029.93119300  3694.97871798
0.32100002 58046.48360746  3364.37434919
0.32200002 57078.71043873  3042.01001687
0.32300002 56123.45696767  3545.88017912
0.32400002 55183.02269274  3497.22422875
0.32500002 54256.71404164  3183.78413072
0.32600002 53345.05478042  4186.52009741
0.32700002 52446.54507677  3096.44416796
0.32800002 51562.46320074  3053.52921534
0.32900002 50691.67969896  2509.23826392
0.33000002 49835.69168788  3216.64487232
0.33100002 48990.63520795  3903.57399822
0.33200002 48162.01429616  3608.53909202
0.33300002 47345.49309998  2372.00931664
0.33400002 46542.72754118  2572.64938667
0.33500002 45751.92735188  3689.43559637
0.33600002 44975.68230521  2955.57710265
0.33700002 44210.99874889  3362.24661408
0.33800002 43460.56307172  3093.95763160
0.33900002 42721.71751409  2396.68846604
0.34000002 41996.17087062  2792.53551429
0.34100002 41283.10611228  2541.38813263
0.34200002 40583.16496613  2296.80433003
0.34300002 39894.15111015  2470.24595373
0.34400002 39219.12347005  3653.26152425
0.34500002 38555.11460038  2001.01054253
0.34600002 37904.38060564  2170.21541436
0.34700002 37263.77339047  2528.71978204
0.34800002 36636.70427443  2493.31102748
0.34900002 36020.46460154  2458.39682549
0.35000002 35416.04749008  2051.12048753
0.35100002 34823.77547420  2022.56497534
0.35200002 34241.56657525  2538.32745045
0.35300002 33671.13623920  2503.11238658
0.35400002 33112.24583497  2115.87260907
0.35500002 32564.55922132  2434.52656270
0.35600002 32026.68008819  2744.04607993
0.35700002 31500.05644856  1860.70842255
0.35800002 30985.00455158  1835.39683155
0.35900002 30479.95848892  2139.69318727
0.36000002 29985.80827196  1786.10475432
0.36100002 29501.11974676  3043.63066844
0.36200002 29027.98233540  1896.68845563
0.36300002 28563.70617118  1871.49411698
0.36400002 28109.59928863  2154.60088753
0.36500002 27665.20657080  2126.34787775
0.36600002 27231.08302043  2098.69966780
0.36700002 26805.73506542  1627.64431027
0.36800002 26391.66405649  1752.93440967
0.36900002 25985.74245825  1586.42965222
0.37000002 25588.79162571  1424.01632143
0.37100002 25200.82993876  1828.06829035
0.37200002 24822.98646438  1527.73077432
0.37300002 24453.16852488  1371.82281923
0.37400002 24092.23669239  1897.26372940
0.37500002 23740.34268151  2008.43308600
0.37600002 23397.07735582  1323.10478715
0.37700002 23061.68773452  1961.39663474
0.37800002 22734.53007112  2067.93295323
0.37900002 22416.28934790  1916.59283004
0.38000002 22105.72103358  2147.68142876
0.38100002 21802.23543026  1748.97540907
0.38200002 21507.67134269  1235.61577717
0.38300002 21219.95178679  1711.17699315
0.38400002 20940.77587885  1813.99479644
0.38500002 20667.54949950  1316.31628998
0.38600002 20403.21742128  1302.84751016
0.38700002 20145.04566596  1289.68588463
0.38800002 19894.24040603  1276.91188096
0.38900002 19649.91388363  1379.42401998
0.39000002 19413.56201598  1594.04765265
0.39100002 19182.69687625  1804.70820762
0.39200002 18959.11306956  1117.63976840
0.39300002 18741.61424001  1329.15534487
0.39400002 18531.88843504  1537.22021852
0.39500002 18327.21051177  1197.49999157
0.39600002 18128.63558643  1403.42839042
0.39700002 17936.25546522  1284.95340241
0.39800002 17749.87695952  1274.79622363
0.39900002 17569.08434154  1581.21766565
0.40000002 17393.84568593  1150.86385434
0.40100002 17224.57693036  1142.50624192
0.40200002 17061.09366370  1340.74610909
0.40300002 16902.14886640  2048.54053967
0.40400002 16749.02525798  1221.00399916
0.40500002 16601.13524128  1213.21102092
0.40600002 16458.07596189  1708.10149464
0.40700002 16320.01965996  1498.17787577
0.40800002 16187.10141229  1092.38659057
0.40900002 16058.54741591  1283.88092673
0.41000002 15935.05644538  1080.63590405
0.41100002 15815.82342129  1075.15972712
0.41200002 15700.75365891  1069.92790878
0.41300002 15590.72690106  968.18418643
0.41400002 15484.51893837  1445.86702438
0.41500002 15382.73713919  1247.84769586
0.41600002 15284.34790562  1147.24320816
0.41700002 15190.39152385  1142.92511241
0.41800002 15101.22301600  1138.93429383
0.41900002 15013.82262833  1607.98047969
0.42000002 14931.60477539  1131.51706350
0.42100002 14852.96009902  1222.25014446
0.42200002 14778.05342940  1406.50130179
0.42300002 14705.82871795  1122.34890094
0.42400002 14637.03020138  1213.04393542
0.42500002 14571.80513311  1024.25223134
0.42600002 14508.94966046  929.29826979
0.42700002 14450.44255453  1113.26214715
0.42800002 14394.01363634  926.25482139
0.42900002 14341.68967517  1295.05463904
0.43000002 14291.61365165  1201.13872627
0.43100002 14243.44112838  922.97502886
0.43200002 14199.06709625  1198.89828709
0.43300002 14157.15570133  1105.95705580
0.43400002 14117.80865510  1013.30576424
0.43500002 14080.70022477  1105.05340601
0.43600002 14046.39407115  1657.33411499
0.43700002 14013.95106748  1473.14660602
0.43800002 13983.62063639  1197.06790131
0.43900002 13956.31656263  921.11693678
0.44000002 13930.60344312  1105.81135372
0.44100002 13907.32759461  1198.67262218
0.44200002 13885.89847626  1199.53339672
0.44300002 13866.41437411  1015.85356519
0.44400002 13849.27358589  1386.65858350
0.44500002 13832.66814857  1295.56776019
0.44600002 13818.25922673  1019.16575757
0.44700002 13806.69561718  1020.59098839
0.44800002 13795.01683517  1300.73219903
0.44900002 13786.71002457  1116.72356491
0.45000002 13779.27774498  1025.38500199
0.45100002 13772.97352446  1213.94994398
0.45200002 13768.47760119  1122.68171681
0.45300002 13764.89729109  1031.12850494
0.45400002 13763.01387066  1127.19088943
0.45500002 13762.52080091  941.35646740
0.45600002 13762.95990852  1886.90189289
0.45700002 13764.72242246  1607.58200791
0.45800002 13767.19372389  1137.44559938
0.45900002 13770.85990162  950.18937825
0.46000002 13776.38801226  1619.48336954
0.46100002 13781.59547941  1241.58399558
0.46200002 13788.81525164  1340.68657046
0.46300002 13796.68350215  1248.32398244
0.46400002 13804.80658210  1251.75089616
0.46500002 13814.24010752  1062.17697221
0.46600002 13824.30049522  1065.23152515
0.46700002 13834.62461633  1068.30976351
0.46800002 13846.83751043  1071.53757153
0.46900002 13858.48254927  1074.72537263
0.47000002 13871.10494315  1469.99041602
0.47100002 13884.38609825  1277.91895705
0.47200002 13898.40564433  1479.13789080
0.47300002 13912.94345988  1088.13135957
0.47400002 13927.16706434  1587.69712059
0.47500002 13942.35298640  1095.03245545
0.47600002 13958.54007233  1098.60694846
0.47700002 13974.02620996  1202.32527209
