# SAXS profile: number of points = 501, q_min = 0, q_max = 0.5, delta_q = 0.001
#    q    intensity    error
0.00000000 1682732.95097188 302.89193117
0.00100000 1682645.21674369 706.71100782
0.00200000 1682381.98359933 1059.90068323
0.00300000 1681943.46610334 1210.99933873
0.00400000 1681329.55015792 1387.09693159
0.00500000 1680540.88012433 1663.73553718
0.00600000 1679577.33355104 2116.26752643
0.00700000 1678439.61711955 2215.54038668
0.00800000 1677127.52757391 2490.53448360
0.00900000 1675642.52729178 3016.15667806
0.01000000 1673983.98673062 3314.48843684
0.01100000 1672153.51220644 3310.86409832
0.01200000 1670150.96972441 3582.47398713
0.01300000 1667977.73304935 4553.57941206
0.01400000 1665634.03793290 4497.21210178
0.01500000 1663121.32743594 5188.93877266
0.01600000 1660439.46781156 5504.35708186
0.01700000 1657590.49023092 7160.79123902
0.01800000 1654575.04270983 5658.64690069
0.01900000 1651394.00768429 6440.43692058
0.02000000 1648048.29144368 6748.75805875
0.02100000 1644540.56882946 5969.68253551
0.02200000 1640869.45555653 6227.09986675
0.02300000 1637038.25193891 6482.67177276
0.02400000 1633047.43627446 9185.89224790
0.02500000 1628899.46109545 6352.70818840
0.02600000 1624594.73278733 6579.60896873
0.02700000 1620135.15835019 8845.93836975
0.02800000 1615521.33739601 8433.02176794
0.02900000 1610756.68995796 7973.24598138
0.03000000 1605841.75771779 7467.16451662
0.03100000 1600778.19241496 9988.85638029
0.03200000 1595567.22163503 9477.66973304
0.03300000 1590213.20008611 8921.09646375
0.03400000 1584714.47531006 9151.72651718
0.03500000 1579075.25071549 9379.70742239
0.03600000 1573296.04817451 13970.86955344
0.03700000 1567380.23157812 8934.06773317
0.03800000 1561329.00069808 10047.15258447
0.03900000 1555145.16234272 9330.87140617
0.04000000 1548828.72765969 12382.88625145
0.04100000 1542384.04379715 13603.82789705
0.04200000 1535812.42352182 12877.78776867
0.04300000 1529115.81281297 12110.59779963
0.04400000 1522296.89987867 11303.05500654
0.04500000 1515358.39428946 14638.36276901
0.04600000 1508300.58769230 14886.92749257
0.04700000 1501128.05071000 15131.37145489
0.04800000 1493841.93036076 14273.66030872
0.04900000 1486445.14696547 15607.67476964
0.05000000 1478939.33092059 13576.66369006
0.05100000 1471328.94202949 17214.54942367
0.05200000 1463612.71589848 13962.86596036
0.05300000 1455796.34890605 12971.14607344
0.05400000 1447880.64897147 20306.52704880
0.05500000 1439869.64480345 22980.32060308
0.05600000 1431763.88610298 18362.37269614
0.05700000 1423568.59428750 16100.56155294
0.05800000 1415282.97461478 12525.25491018
0.05900000 1406911.25501627 15194.64226385
0.06000000 1398457.08732084 14075.47124147
0.06100000 1389921.70968495 12926.27250413
0.06200000 1381308.13275853 18274.70745062
0.06300000 1372619.93018410 17130.29752963
0.06400000 1363856.01318608 18616.63545063
0.06500000 1355023.26159296 13414.73091728
0.06600000 1346122.72623736 13528.53403167
0.06700000 1337155.90631340 15002.88997096
0.06800000 1328126.93627980 17869.94876412
0.06900000 1319039.38878220 15234.90565372
0.07000000 1309892.84065796 20925.53910942
0.07100000 1300691.86099644 19666.46185940
0.07200000 1291438.33723227 21211.87568275
0.07300000 1282135.91418428 25617.07676571
0.07400000 1272787.40784748 15750.74491026
0.07500000 1263393.35816359 15842.95345397
0.07600000 1253957.38226337 21724.81266619
0.07700000 1244483.21306067 16016.49970308
0.07800000 1234971.95011042 20488.18561315
0.07900000 1225425.62276376 16175.61897918
0.08000000 1215849.59589957 17727.08793981
0.08100000 1206244.50332091 20771.53132175
0.08200000 1196612.02278729 16387.60242106
0.08300000 1186955.40008629 17946.76649158
0.08400000 1177277.67381347 18012.34925482
0.08500000 1167581.13754259 15061.79738138
0.08600000 1157868.06754726 19643.23268822
0.08700000 1148140.79250576 21217.64284184
0.08800000 1138400.84920324 21276.71287084
0.08900000 1128652.25485628 31997.29292808
0.09000000 1118896.40230999 18327.52393078
0.09100000 1109136.06261597 21428.50973648
0.09200000 1099372.30450975 16869.86880536
0.09300000 1089610.01108333 16899.85206606
0.09400000 1079847.49723346 20004.17582640
0.09500000 1070089.73695410 15409.29293642
0.09600000 1060337.77577692 18513.49843534
0.09700000 1050596.78608593 15443.77348152
0.09800000 1040865.15137956 20093.90269215
0.09900000 1031147.62385795 17013.93659369
0.10000000 1021443.06685737 17022.34950969
0.10100000 1011755.42578533 17027.84461682
0.10200000 1002087.05717337 15482.24576156
0.10300000 992439.09732569 17030.25571122
0.10400000 982814.21507618 20123.12200038
0.10500000 973215.86865775 20116.37295162
0.10600001 963640.06347053 18559.70849574
0.10700001 954095.46513438 17001.98198877
0.10800001 944579.02713944 16988.25460260
0.10900001 935095.48837885 15429.07628443
0.11000001 925645.32738816 24659.19268232
0.11100001 916229.49330384 16931.92183330
0.11200001 906851.41048879 16908.24534455
0.11300001 897510.46895567 18416.91569005
0.11400001 888210.06533341 16853.78678325
0.11500001 878951.34160602 18352.50487692
0.11600001 869735.46465902 16790.24393592
0.11700001 860564.12262521 16755.18425660
0.11800001 851437.45061943 15198.15920936
0.11900001 842357.38496993 16678.67700800
0.12000001 833325.50709737 18149.83039953
0.12100001 824344.44375932 16594.05443459
0.12200001 815413.58807383 21062.13397221
0.12300001 806535.32051551 18001.86920205
0.12400001 797709.50388422 23931.28624411
0.12500001 788937.31671170 20875.28238385
0.12600001 780221.81739024 17835.87158603
0.12700001 771562.12486291 19258.19154415
0.12800001 762959.23457814 19192.24045033
0.12900001 754415.27676640 16182.20844934
0.13000001 745930.46662796 17589.04123214
0.13100001 737504.73042961 16062.85378592
0.13200001 729139.88276882 21819.51202044
0.13300001 720837.83759368 17386.60946242
0.13400001 712596.95345779 17316.10678540
0.13500001 704420.32386866 27303.33304045
0.13600001 696306.28499745 15740.00431452
0.13700001 688257.50896759 22795.08977187
0.13800001 680272.32499273 19857.15010292
0.13900001 672354.19929269 15531.38273609
0.14000001 664501.56359670 18270.47135274
0.14100001 656715.53719753 18184.45408263
0.14200001 648995.97261708 18097.25354999
0.14300001 641345.07683645 18008.97060701
0.14400001 633759.52094954 17919.55130011
0.14500001 626243.97712273 15086.21812054
0.14600001 618796.25060641 15008.90376649
0.14700001 611419.10675820 16288.20577246
0.14800001 604107.67953765 17552.34945706
0.14900001 596867.14562889 20144.26711540
0.15000001 589695.04148537 14692.25265183
0.15100001 582593.06949298 14611.43487232
0.15200001 575560.66054246 17171.85311757
0.15300001 568599.10483139 14448.10393556
0.15400001 561704.64406227 13059.63359075
0.15500001 554881.81086913 12984.23498710
0.15600001 548126.12144599 14199.20784619
0.15700001 541443.65941149 16681.87993380
0.15800001 534827.05072568 15306.75091423
0.15900001 528282.54593597 15214.53804109
0.16000001 521804.74585440 12601.58520721
0.16100001 515399.22917422 15029.04223216
0.16200001 509061.55199748 18669.83330084
0.16300001 502792.40418656 17316.17121764
0.16400001 496592.20869093 17206.92084347
0.16500001 490460.01809094 18318.68254055
0.16600001 484396.78286848 12134.13998374
0.16700001 478400.12272837 12055.68366196
0.16800001 472470.32489087 14372.54796180
0.16900001 466609.96297116 13088.41007935
0.17000001 460815.00234458 15365.87697875
0.17100001 455086.37089154 11741.22892344
0.17200001 449424.42030978 12828.82068356
0.17300001 443828.16671538 12742.30726815
0.17400001 438297.17423565 17257.95205055
0.17500001 432831.04297196 14854.76209635
0.17600001 427427.70649714 13617.84737216
0.17700001 422090.38013992 15777.73915482
0.17800001 416814.66775938 15668.06410111
0.17900001 411602.86903639 13335.93358668
0.18000001 406453.25065322 12138.72690413
0.18100001 401367.12249676 14244.51985027
0.18200001 396339.67275482 11967.47698415
0.18300001 391374.22144239 14042.50772871
0.18400001 386468.66962951 10724.50608885
0.18500001 381624.27883162 10647.31788240
0.18600001 376837.41887285 12684.34811851
0.18700001 372108.97869263 10493.47369489
0.18800001 367438.50372331 13541.94669453
0.18900001 362827.14147878 12408.68882485
0.19000001 358268.41846185 13343.70787609
0.19100001 353770.71727816 12226.31656683
0.19200001 349324.95877298 12135.54964119
0.19300001 344936.89820383 15056.49631806
0.19400001 340600.71249908 11955.08557364
0.19500001 336319.27873838 9887.78726216
0.19600001 332090.64454043 12757.26271288
0.19700001 327914.08473017 11686.85853208
0.19800001 323789.57780484 13531.16709593
0.19900001 319716.65807048 13428.10027357
0.20000001 315692.61643908 11421.75940257
0.20100001 311720.16080236 9445.12131871
0.20200001 307795.19851110 12184.07350892
0.20300001 303920.43197391 12089.95535535
0.20400001 300092.76441757 14764.56470720
0.20500001 296312.18208951 11902.86091715
0.20600001 292578.33440716 9084.55771275
0.20700001 288890.86122909 10816.07435568
0.20800001 285247.45838190 8942.50824299
0.20900001 281651.19137488 10646.41553724
0.21000001 278097.17983717 15843.19708427
0.21100001 274587.25055290 10478.24997644
0.21200001 271119.76117149 11260.95981261
0.21300001 267693.80444277 12889.45729327
0.21400001 264310.66137737 9376.42115565
0.21500001 260969.22813004 16065.26644321
0.21600001 257667.04374692 10064.47520459
0.21700001 254405.05415448 9982.85479701
0.21800001 251182.52927982 9076.48112467
0.21900001 247997.70568260 8183.92467447
0.22000001 244850.88172670 11363.52995823
0.22100001 241743.05528156 10465.05735796
0.22200001 238672.13059990 7983.58314607
0.22300001 235636.34196556 11084.33405019
0.22400001 232635.85520507 8636.60653288
0.22500001 229673.25106812 10121.70065320
0.22600001 226743.21553393 11580.91028104
0.22700001 223849.59467030 9952.35344968
0.22800001 220988.15297384 9868.22643772
0.22900001 218159.38728473 9784.44898244
0.23000001 215364.54512494 10447.33457808
0.23100001 212602.55697224 7398.56933253
0.23200001 209870.58258212 9535.47037059
0.23300001 207170.68521648 10180.36795301
0.23400001 204502.34606877 10092.19125581
0.23500001 201862.31200465 10004.29665612
0.23600001 199254.05482876 8500.17838103
0.23700001 196674.43615679 9829.78878404
0.23800001 194124.00110791 6959.34576889
0.23900001 191601.86227310 7587.43410490
0.24000001 189107.81920962 7519.87278656
0.24100001 186642.62156360 6775.12748323
0.24200001 184204.08841757 7385.66327446
0.24300001 181792.86491583 10645.79067305
0.24400001 179407.75429402 8571.20586685
0.24500001 177048.98289550 7186.41855568
0.24600001 174716.34978523 7120.56517234
0.24700001 172409.21039954 7054.98522329
0.24800001 170127.19068682 6354.25087275
0.24900001 167869.25137806 7554.11666938
0.25000001 165636.83953068 6236.22730336
0.25100001 163427.26743333 8648.57140173
0.25200001 161243.30525085 6731.10209614
0.25300001 159082.66001382 6667.15459661
0.25400001 156944.63666882 6603.44590026
0.25500001 154829.41292404 8918.17460636
0.25600001 152737.47854530 7654.43909945
0.25700001 150667.05350635 6413.89677123
0.25800001 148619.72843233 6351.26439506
0.25900001 146594.03175080 7432.31776142
0.26000001 144590.02061944 7924.97940513
0.26100001 142606.68372522 6164.88722914
0.26200001 140645.36569239 7767.84391474
0.26300001 138704.26929873 6591.22718896
0.26400001 136784.16244935 5980.88778610
0.26500001 134884.93718418 6996.48202281
0.26600001 133004.88054146 9055.63772017
0.26700001 131146.11141193 6326.48871388
0.26800001 129307.48921726 6782.82466786
0.26900001 127486.99350679 9293.80226644
0.27000001 125687.13177676 6131.01857820
0.27100001 123906.05041029 6066.44051517
0.27200001 122145.53057439 5001.85971373
0.27300001 120402.85537578 5938.26910816
0.27400001 118677.33418362 4895.44026675
0.27500001 116973.33630130 5326.96598726
0.27600001 115285.36407920 6227.13923544
0.27700001 113617.47400394 4737.84889019
0.27800001 111966.65656237 7497.28767824
0.27900001 110335.19205812 5560.89394291
0.28000001 108720.06703604 5040.80614670
0.28100001 107123.57096951 4984.45999312
0.28200001 105545.18463082 4480.39329963
0.28300001 103983.87223123 5758.62711672
0.28400001 102439.73918526 6568.94858617
0.28500001 100913.35914970 4762.10164367
0.28600001 99403.85043022  5563.13675264
0.28700001 97911.55630990  4229.77943279
0.28800001 96435.33090414  6688.75486811
0.28900001 94977.88874753  4544.69219169
0.29000001 93535.64737096  4491.11432110
0.29100001 92110.89370308  4034.45733517
0.29200001 90702.50173823  4783.65016811
0.29300001 89310.64942019  6301.75972139
0.29400001 87934.51321886  3891.10239413
0.29500001 86575.82972020  4228.36372369
0.29600001 85232.61749610  4936.24727596
0.29700001 83905.38962095  4500.68531232
0.29800001 82594.19050400  5556.52442919
0.29900001 81299.56979970  6219.41738410
0.30000001 80020.03582235  5058.06670378
0.30100001 78757.36199523  4281.25040074
0.30200001 77508.77164674  3875.05122193
0.30300001 76277.11463750  3478.23659213
0.30400001 75060.92845816  3777.44140349
0.30500001 73859.81577277  3729.18227491
0.30600001 72673.26377477  4015.92474632
0.30700001 71503.22008999  3964.13870946
0.30800001 70347.96298283  3912.75388635
0.30900001 69207.78953043  6114.50849450
0.31000001 68083.18536572  3176.08074768
0.31100001 66972.42378214  3447.74053954
0.31200001 65877.41176832  3402.23909186
0.31300001 64796.61434384  3662.30481611
0.31400001 63731.77954177  3613.59207111
0.31500001 62680.51329853  3268.16211812
0.31600002 61644.25634708  3224.30298090
0.31700002 60622.45128550  4048.36748853
0.31800002 59615.15203745  2852.58516006
0.31900002 58622.27840015  2813.86949644
0.32000002 57644.02076705  3053.11570449
0.32100002 56679.18417899  3832.64661566
0.32200002 55729.72963938  3240.12663465
0.32300002 54792.58958359  3994.37996978
0.32400002 53870.06912813  2626.16599435
0.32500002 52961.39372244  3107.77473079
0.32600002 52067.02681563  2809.27656486
0.32700002 51185.63521507  2770.16670901
0.32800002 50318.58628471  3228.18905596
0.32900002 49464.41488182  4162.43070941
0.33000002 48624.81937033  2655.64463567
0.33100002 47795.97004648  2380.23942103
0.33200002 46983.43305025  3050.86936959
0.33300002 46182.68550678  2545.12791880
0.33400002 45395.40480380  2509.23111936
0.33500002 44620.10743664  3598.16563409
0.33600002 43858.91519955  2660.48192200
0.33700002 43109.28308345  2622.76890700
0.33800002 42373.58201251  2370.16642211
0.33900002 41649.33512305  2973.76266862
0.34000002 40938.19619969  3140.98325217
0.34100002 40239.25352799  2889.98332525
0.34200002 39553.26387309  2035.01552265
0.34300002 38878.15751722  2206.72432519
0.34400002 38216.72359569  2175.48709372
0.34500002 37566.20626969  2339.62343728
0.34600002 36928.72215179  2498.78210274
0.34700002 36301.25074246  2463.40299205
0.34800002 35687.07202022  2241.86197049
0.34900002 35083.58628198  2210.26604045
0.35000002 34491.81833146  2542.39204963
0.35100002 33912.02904046  1969.61073996
0.35200002 33342.03073782  1942.00667230
0.35300002 32783.79110398  2088.98326809
0.35400002 32236.85614581  2231.59647239
0.35500002 31700.95383562  2539.24652250
0.35600002 31174.74999296  1836.34873531
0.35700002 30659.75858946  1975.71493708
0.35800002 30155.99557567  2111.07057027
0.35900002 29662.26536124  2082.29112699
0.36000002 29179.25084520  2054.07346054
0.36100002 28705.59604392  2182.19951462
0.36200002 28243.21270425  1845.41160551
0.36300002 27789.71568495  1972.51411275
0.36400002 27346.20819375  1796.64596343
0.36500002 26912.35833081  1625.23739658
0.36600002 26488.55251508  1604.01437353
0.36700002 26073.53094942  2158.88846487
0.36800002 25669.48697883  1847.04802305
0.36900002 25273.61572205  1823.49146072
0.37000002 24886.56372305  1800.41853783
0.37100002 24508.45722260  1777.84357114
0.37200002 24140.16433654  2025.96338791
0.37300002 23779.98743724  2401.30324516
0.37400002 23428.53018422  1581.42586235
0.37500002 23085.99798372  1822.87048715
0.37600002 22752.05291741  1672.61724946
0.37700002 22425.86820364  1398.70146612
0.37800002 22107.74255855  1382.50774639
0.37900002 21798.43736429  1242.51098863
0.38000002 21496.83868025  1597.10770541
0.38100002 21202.13677224  2065.30024082
0.38200002 20916.27512008  1321.80406883
0.38300002 20637.23542129  1307.57529824
0.38400002 20366.53840107  1411.40117806
0.38500002 20101.94154554  1396.68296475
0.38600002 19845.85324672  1267.25701911
0.38700002 19596.01885524  1368.58602169
0.38800002 19353.53235103  1242.20653280
0.38900002 19117.27083354  1118.36039674
0.39000002 18889.04185201  1329.41082853
0.39100002 18666.25536813  1317.09104117
0.39200002 18450.59053452  1305.19483625
0.39300002 18241.02074428  1078.04437706
0.39400002 18039.06358435  1175.69602481
0.39500002 17842.14417871  1271.78809731
0.39600002 17651.33248425  1156.25058916
0.39700002 17466.53704942  1668.40369801
0.39800002 17287.73464327  1655.47354787
0.39900002 17114.47782665  1026.86871825
0.40000002 16946.68875342  1121.27771450
0.40100002 16784.88967786  1416.98045374
0.40200002 16628.62907558  1306.76087782
0.40300002 16476.97546636  1098.35523663
0.40400002 16331.08344560  992.11336633
0.40500002 16190.38120491  1084.59368831
0.40600002 16054.51727036  1078.14115837
0.40700002 15923.54064853  974.52073386
0.40800002 15797.54655172  1259.93338493
0.40900002 15675.96434913  1253.29340910
0.41000002 15559.45567058  1247.01263380
0.41100002 15447.10016502  1145.55700252
0.41200002 15338.88864502  1235.31745556
0.41300002 15235.75740165  1229.98275332
0.41400002 15136.21026448  1413.34370041
0.41500002 15041.10423511  1407.84742311
0.41600002 14949.46521085  935.08909325
0.41700002 14862.12546445  1118.22637293
0.41800002 14779.56032671  1021.78495160
0.41900002 14698.75521316  1203.82810900
0.42000002 14622.93982133  1015.78256282
0.42100002 14550.86944503  1105.28409542
0.42200002 14482.36180944  1010.79649039
0.42300002 14416.52534567  1008.58016098
0.42400002 14354.10102512  1555.62577231
0.42500002 14295.25362499  1004.81342491
0.42600002 14238.70099281  1003.18772599
0.42700002 14186.50163812  1092.92813799
0.42800002 14136.30871055  909.67150863
0.42900002 14090.20255179  1090.58172919
0.43000002 14046.29646231  1180.52104212
0.43100002 14004.24139938  998.22237425
0.43200002 13965.98025777  1088.50855287
0.43300002 13930.17251058  1178.91055544
0.43400002 13896.79474113  1088.11907979
0.43500002 13865.77796598  1269.55069073
0.43600002 13837.44607553  1451.27141318
0.43700002 13810.91883530  1088.85289257
0.43800002 13786.56009795  1089.41403057
0.43900002 13765.14039825  908.49930934
0.44000002 13745.29162737  1000.17619266
0.44100002 13727.85238264  910.15665610
0.44200002 13712.15519544  1002.29003151
0.44300002 13698.53797717  1003.55493977
0.44400002 13687.12445914  1096.33872113
0.44500002 13676.21495761  1006.43270643
0.44600002 13667.60161934  916.41273201
0.44700002 13661.62002547  1101.67309106
0.44800002 13655.65017759  1011.67889135
0.44900002 13652.99470032  1013.73490454
0.45000002 13651.09712853  1385.24514677
0.45100002 13650.40936574  1110.59735863
0.45200002 13651.37216826  1020.37186107
0.45300002 13653.32790521  1022.77084185
0.45400002 13656.98808264  1491.34316930
0.45500002 13661.88197787  934.47277157
0.45600002 13667.79859791  1405.39145744
0.45700002 13674.95252321  1033.41621116
0.45800002 13682.78395881  1695.70749638
0.45900002 13691.79832695  1228.15436813
0.46000002 13702.58775798  1137.04078605
0.46100002 13713.17452190  950.32303941
0.46200002 13725.54223347  1334.53453461
0.46300002 13738.72941073  1147.45873477
0.46400002 13752.04097954  1822.48931719
0.46500002 13766.65172204  962.28900098
0.46600002 13781.82031072  1544.66649364
0.46700002 13797.33650687  1452.85960303
0.46800002 13814.58451233  1943.71213301
0.46900002 13831.30644890  1560.17144138
0.47000002 13848.99893139  1174.11818505
0.47100002 13867.31113785  981.80567509
0.47200002 13886.25762435  1280.79903269
0.47300002 13905.76546851  1285.30996317
0.47400002 13924.93390463  1289.79706405
0.47500002 13945.02359722  1593.07957125
0.47600002 13965.98268932  1199.11933054
0.47700002 13986.35016961  1002.82135469
