# SAXS profile: number of points = 501, q_min = 0, q_max = 0.5, delta_q = 0.001
#    q    intensity    error
0.00000000 1682732.95097188 429.09690250
0.00100000 1682645.44885739 656.23174064
0.00200000 1682382.91743352 1059.90127154
0.00300000 1681945.56088381 1009.16737248
0.00400000 1681333.27393879 1261.00000337
0.00500000 1680546.69483394 2117.48891930
0.00600000 1679585.70334786 1939.92156635
0.00700000 1678451.01756214 2819.79782670
0.00800000 1677142.40017913 2943.38503658
0.00900000 1675661.36650395 3016.19058864
0.01000000 1674007.22402289 3038.32324279
0.01100000 1672181.55568758 4213.89770380
0.01200000 1670184.33111887 3582.54554732
0.01300000 1668016.83987747 3853.11907006
0.01400000 1665679.35110049 3747.77870612
0.01500000 1663173.25039381 4789.93917442
0.01600000 1660498.48664299 5081.12559627
0.01700000 1657657.00927427 5818.37636356
0.01800000 1654649.45588574 7073.62674221
0.01900000 1651476.82737331 5449.87377624
0.02000000 1648139.85825594 5710.80486719
0.02100000 1644641.36378928 6512.78009589
0.02200000 1640979.87659602 7925.93316405
0.02300000 1637158.68226693 10019.41159154
0.02400000 1633178.29757363 9186.62834274
0.02500000 1629041.07739249 7623.91259039
0.02600000 1624747.56866804 7896.27354489
0.02700000 1620299.60132328 6805.25863725
0.02800000 1615697.72075611 7731.11394836
0.02900000 1610945.45414717 10873.88231476
0.03000000 1606043.22277475 8961.72159501
0.03100000 1600992.70775169 10758.67149113
0.03200000 1595795.20145657 8689.10527213
0.03300000 1590454.88788889 8111.32030217
0.03400000 1584970.19564562 11649.53147551
0.03500000 1579345.41080218 11939.85185702
0.03600000 1573581.00327071 9606.71246893
0.03700000 1567680.15871959 13403.66597694
0.03800000 1561644.33917159 9135.61980695
0.03900000 1555476.10636782 15865.85701970
0.04000000 1549175.62750942 12385.65971588
0.04100000 1542747.09194893 13607.02998190
0.04200000 1536191.92762053 13871.81374997
0.04300000 1529511.99282975 12113.73554551
0.04400000 1522710.25583657 11306.12417466
0.04500000 1515788.85562052 13596.62666668
0.04600000 1508748.63193673 11700.34618458
0.04700000 1501593.65356115 16217.21221269
0.04800000 1494325.41757478 13179.95079625
0.04900000 1486946.86702028 11152.10202175
0.05000000 1479459.40021691 14713.22442030
0.05100000 1471867.31654085 13776.67872460
0.05200000 1464169.81487742 12804.16562779
0.05300000 1456372.14686421 15335.59942139
0.05400000 1448475.54620568 19119.87810155
0.05500000 1440483.64795628 13310.06952802
0.05600000 1432397.15700414 14696.39551666
0.05700000 1424221.14327425 14868.86942984
0.05800000 1415954.99825702 16290.56301559
0.05900000 1407602.87416963 16468.95439698
0.06000000 1399168.33129541 16643.10807831
0.06100000 1390652.69488188 16812.99186682
0.06200000 1382059.10589082 13060.45916116
0.06300000 1373390.59532763 17139.91543107
0.06400000 1364646.72089821 15966.36738120
0.06500000 1355833.83849800 17449.58231772
0.06600000 1346953.35463249 20305.32277114
0.06700000 1338006.48573754 15012.43347254
0.06800000 1328997.68480977 15130.63934981
0.06900000 1319930.06784574 13859.26636126
0.07000000 1310803.41109791 15356.06268011
0.07100000 1301622.38491699 16869.02689863
0.07200000 1292388.78115477 14151.65781660
0.07300000 1283106.15616136 14242.47900073
0.07400000 1273777.59234167 14329.99858541
0.07500000 1264403.04161147 18738.45395500
0.07600000 1254986.85040008 20293.13832232
0.07700000 1245532.10502875 17487.27157456
0.07800000 1236040.28056824 16111.78581279
0.07900000 1226513.41482003 22077.24250227
0.08000000 1216956.54938522 19221.82959926
0.08100000 1207370.61699082 19305.85707148
0.08200000 1197756.79748973 19385.69467705
0.08300000 1188119.07884799 20958.42153450
0.08400000 1178460.01303618 21035.51222007
0.08500000 1168781.77905649 16585.01422340
0.08600000 1159087.01705677 19663.91216762
0.08700000 1149377.67124355 19723.32176470
0.08800000 1139655.67550733 15214.40398255
0.08900000 1129924.53232067 25931.76923477
0.09000000 1120186.18923933 21406.75908196
0.09100000 1110442.93848603 22986.16990658
0.09200000 1100695.96305939 23032.06410922
0.09300000 1090950.24611572 21535.35887032
0.09400000 1081204.24840335 20029.30964300
0.09500000 1071462.46265416 16971.96620617
0.09600000 1061726.29276397 26261.80108603
0.09700000 1052000.74409432 17010.85283173
0.09800000 1042284.30214787 18573.50713756
0.09900000 1032581.62395335 15488.72508762
0.10000000 1022891.70026967 20145.85298421
0.10100000 1013218.46480284 18602.69188870
0.10200000 1003563.76740371 17055.56702926
0.10300000 993929.44595772 20156.89011222
0.10400000 984317.74161212 18603.60619168
0.10500000 974732.15216821 15498.24194866
0.10600001 965169.10225212 15490.96482005
0.10700001 955636.36752984 21673.83383550
0.10800001 946131.79495460 15469.25557552
0.10900001 936659.42321387 18545.85745251
0.11000001 927220.18704512 20069.68189326
0.11100001 917815.06886940 15419.29388284
0.11200001 908447.03557016 18477.81357338
0.11300001 899115.94294730 19987.34835274
0.11400001 889824.77306458 19954.32147551
0.11500001 880574.82683790 18386.40325015
0.11600001 871367.40180968 16821.74848410
0.11700001 862204.06358883 18313.21517309
0.11800001 853085.02622622 19795.83896593
0.11900001 844012.14037423 16711.44116655
0.12000001 834986.94818227 21217.01935274
0.12100001 826011.91682526 22674.02818498
0.12200001 817086.90835126 27135.45750473
0.12300001 808213.99572478 18039.33723449
0.12400001 799392.98565562 16487.48110600
0.12500001 790624.98428120 22414.21936054
0.12600001 781913.65703578 17874.54704215
0.12700001 773257.24755379 16331.19383797
0.12800001 764657.40519282 19234.95793415
0.12900001 756115.81935700 14744.25917239
0.13000001 747632.97318846 17629.18633873
0.13100001 739208.75688255 19027.23429906
0.13200001 730844.88375848 17496.42734197
0.13300001 722543.21380581 18880.05506681
0.13400001 714302.41453212 18804.01194908
0.13500001 706125.25392663 18726.44261705
0.13600001 698010.30507961 18647.34617944
0.13700001 689959.95511721 15710.38891882
0.13800001 681972.88274553 19906.78938606
0.13900001 674052.41088384 16986.12155531
0.14000001 666196.72961888 21135.09224390
0.14100001 658407.27472570 16828.89073569
0.14200001 650683.79753384 18144.31855001
0.14300001 643028.51112397 16667.29979449
0.14400001 635437.90430696 13820.77507060
0.14500001 627917.11359500 15126.52398005
0.14600001 620463.48868622 20521.83085640
0.14700001 613079.69586081 14971.40687922
0.14800001 605761.73801154 24369.79586994
0.14900001 598513.77990733 22893.15316157
0.15000001 591334.04390145 17411.83174422
0.15100001 584223.57743612 13320.29819406
0.15200001 577182.34309123 14570.96893890
0.15300001 570211.56005195 14489.07642465
0.15400001 563307.36026848 15716.27609316
0.15500001 556474.28546927 15625.79867341
0.15600001 549708.04640159 14240.18761410
0.15700001 543014.47656193 14156.38807211
0.15800001 536386.38014822 12792.81577034
0.15900001 529829.70232201 15259.09614711
0.16000001 523339.39383545 12638.64695770
0.16100001 516920.94122004 15073.41535751
0.16200001 510569.86989203 16228.46408060
0.16300001 504286.98481595 14886.55249453
0.16400001 498072.79330236 18490.95332430
0.16500001 491925.91031968 15923.64246882
0.16600001 485847.61640275 14604.58003859
0.16700001 479835.63862218 15719.41626345
0.16800001 473889.95298360 18019.66631303
0.16900001 468013.18510297 17901.50517546
0.17000001 462201.82966265 20154.31173412
0.17100001 456455.97999691 12954.22132403
0.17200001 450776.73074513 14037.18805828
0.17300001 445162.75301500 13942.49808286
0.17400001 439613.63789899 15001.81610178
0.17500001 434128.94720668 13753.20569704
0.17600001 428706.69335586 20487.89384310
0.17700001 423350.10755307 12433.79324609
0.17800001 418055.15907329 12347.25970642
0.17900001 412823.37923922 13375.47811912
0.18000001 407653.68640009 16601.69716283
0.18100001 402546.97327314 14286.39275630
0.18200001 397498.87516730 13093.61356653
0.18300001 392512.39425406 11916.67685249
0.18400001 387585.40329017 11831.04499434
0.18500001 382719.38622046 12813.44565599
0.18600001 377910.78419381 12720.47759692
0.18700001 373159.95428798 14732.35569132
0.18800001 368467.03554720 12535.24914156
0.18900001 363833.10157560 11406.16827331
0.19000001 359251.52204785 18526.60186737
0.19100001 354730.59229425 13281.11400303
0.19200001 350261.70966413 10140.07697391
0.19300001 345849.91197703 10064.23291409
0.19400001 341490.03747368 11986.30088173
0.19500001 337184.58549053 12887.19546643
0.19600001 332931.91759039 14757.20794457
0.19700001 328731.05662575 10739.64412749
0.19800001 324582.00077419 10657.65049909
0.19900001 320484.67895765 10575.99490542
0.20000001 316435.86285755 11448.65005926
0.20100001 312438.46655194 10413.57458235
0.20200001 308488.53767453 11272.17169939
0.20300001 304588.72480563 12116.54004545
0.20400001 300735.88548363 17570.49493986
0.20500001 296929.89263045 10092.64752756
0.20600001 293170.53755415 9102.94562133
0.20700001 289457.70821988 11740.40520036
0.20800001 285788.78171597 16127.06171456
0.20900001 282166.94536769 9777.08511917
0.21000001 278587.20167113 9699.01388468
0.21100001 275051.51669344 10495.96637320
0.21200001 271558.41059791 12146.80828028
0.21300001 268106.75587256 11188.09545148
0.21400001 264697.87028676 10243.80806439
0.21500001 261330.72276241 9313.82739959
0.21600001 258002.77498755 9237.78979518
0.21700001 254714.99687667 10827.93502917
0.21800001 251466.87758264 9086.75605108
0.21900001 248256.40486411 13107.93879659
0.22000001 245084.01703597 8124.53554889
0.22100001 241950.63558459 10474.04350971
0.22200001 238854.18906729 11984.50950313
0.22300001 235793.07469143 10299.44198954
0.22400001 232767.20059375 9427.07206982
0.22500001 229779.38572243 14800.09093424
0.22600001 226824.24444121 10040.37565498
0.22700001 223905.47081821 10720.59444974
0.22800001 221019.27417352 8351.21366958
0.22900001 218165.78925113 10537.40811915
0.23000001 215346.27160924 8207.92353055
0.23100001 212559.85713114 8136.79171579
0.23200001 209803.60808622 8799.16373928
0.23300001 207079.46366933 9449.03637412
0.23400001 204386.96341614 8645.56896140
0.23500001 201723.16484305 9997.40052246
0.23600001 199091.22856500 9201.00156331
0.23700001 196488.04175487 9119.01044915
0.23800001 193914.40946655 7647.01509901
0.23900001 191369.15544264 6889.28992180
0.24000001 188852.21790090 7509.70880004
0.24100001 186364.43466107 9471.04101747
0.24200001 183903.66319468 7373.61772458
0.24300001 181470.04653508 9298.52562430
0.24400001 179063.04221545 7238.62382397
0.24500001 176682.62412404 8475.46588016
0.24600001 174328.37158863 10334.18635663
0.24700001 172000.06582952 8957.76385216
0.24800001 169697.23334926 9507.28794815
0.24900001 167418.60930430 7533.83777510
0.25000001 165165.85244007 8084.04303012
0.25100001 162936.25610286 8006.68800368
0.25200001 160732.38318688 6709.77365357
0.25300001 158552.28035121 7853.09481733
0.25400001 156395.02592528 8374.95403453
0.25500001 154260.81979186 7108.33891232
0.25600001 152150.33476392 6451.93525092
0.25700001 150061.80091171 5807.39197005
0.25800001 147996.36468616 6899.59084812
0.25900001 145953.07248168 6261.38710572
0.26000001 143931.83668277 7325.41117457
0.26100001 141931.36740589 6135.69330327
0.26200001 139953.43612290 5521.16331629
0.26300001 137995.94964345 7104.03182379
0.26400001 136059.78692054 7030.88982181
0.26500001 134144.99466198 5887.62409431
0.26600001 132249.73460025 5826.26233351
0.26700001 130375.88870734 5765.22207145
0.26800001 128522.74738713 7260.25034346
0.26900001 126687.95059086 6670.12091425
0.27000001 124874.25756942 5076.13881041
0.27100001 123079.62083499 5523.81364448
0.27200001 121305.91975764 5464.22541407
0.27300001 119550.55019251 6387.58619907
0.27400001 117812.55280627 7775.62885319
0.27500001 116096.54323499 5287.03682913
0.27600001 114396.92338409 6654.46934818
0.27700001 112717.61500450 5170.35724495
0.27800001 111055.87671437 6506.76412464
0.27900001 109413.77747882 5973.99253308
0.28000001 107788.40564477 5906.26596684
0.28100001 106182.07835155 5838.95276490
0.28200001 104594.35958838 5328.03692961
0.28300001 103023.93770136 5705.46593994
0.28400001 101471.05166115 5205.46519660
0.28500001 99936.35872419  4287.26999219
0.28600001 98418.81061179  5508.00899659
0.28700001 96918.92946969  4605.58774639
0.28800001 95435.48566140  5791.97989894
0.28900001 93971.24514053  4905.29922852
0.29000001 92522.40965558  5250.18438442
0.29100001 91091.53856310  5585.73340909
0.29200001 89677.39840453  6306.11495431
0.29300001 88280.19142768  4282.47228887
0.29400001 86899.08079672  4998.86985946
0.29500001 85535.71056941  4177.56430196
0.29600001 84188.16835724  4125.64138564
0.29700001 82857.04832946  4074.08125922
0.29800001 81542.25269152  4388.60424761
0.29900001 80244.35941040  3610.99634441
0.30000001 78961.82398431  3565.12652166
0.30100001 77696.74404867  4927.52774084
0.30200001 76445.88679479  4516.80543510
0.30300001 75212.46372545  3772.65735907
0.30400001 73994.84242446  4739.36988166
0.30500001 72792.41515133  3675.28921499
0.30600001 71605.10795903  3297.41537762
0.30700001 70434.51717636  4230.29730189
0.30800001 69279.02304953  3853.29944444
0.30900001 68139.05176696  3168.46605717
0.31000001 67014.96167836  3751.49773237
0.31100001 65905.04333233  3392.79179138
0.31200001 64811.06366951  3955.74345836
0.31300001 63731.73634045  4802.82387801
0.31400001 62668.47718402  5626.06280557
0.31500001 61619.25158041  2920.75266320
0.31600002 60585.29225663  2880.83078320
0.31700002 59566.11853147  3693.69518503
0.31800002 58561.68453074  3642.82975872
0.31900002 57572.05919549  3316.15076668
0.32000002 56597.13338693  3270.18252194
0.32100002 55636.00322282  2955.94099119
0.32200002 54690.53017520  3179.70757495
0.32300002 53757.70440999  3918.93683705
0.32400002 52839.64814708  3863.89945372
0.32500002 51935.80722566  3555.52553103
0.32600002 51046.38267442  4006.12030199
0.32700002 50170.15231404  2962.04593288
0.32800002 49308.69102180  2676.72241887
0.32900002 48460.24703631  3358.29527864
0.33000002 47626.48676927  2837.58621608
0.33100002 46803.83992632  2330.83133871
0.33200002 45997.79046658  2757.10769113
0.33300002 45203.60994194  2491.17106187
0.33400002 44423.09847545  2455.48688451
0.33500002 43654.84440849  2860.26554110
0.33600002 42900.81590618  3036.09088546
0.33700002 42158.59558239  3206.16134587
0.33800002 41430.45180344  2738.76014617
0.33900002 40714.06188699  2076.41725457
0.34000002 40010.86950552  3069.83410819
0.34100002 39319.96919021  2017.11451499
0.34200002 38642.12704440  3379.83380200
0.34300002 37975.56223676  1959.53910422
0.34400002 37322.65883994  2124.59245508
0.34500002 36680.94033412  1903.74089350
0.34600002 36052.21344460  1876.51779866
0.34700002 35433.81318175  1849.64513569
0.34800002 34828.64948551  2552.59184169
0.34900002 34234.43347557  1977.03862685
0.35000002 33652.06926932  2126.13783713
0.35100002 33081.69684118  2620.07051391
0.35200002 32521.35312238  2238.60744821
0.35300002 31972.77609973  1867.52994044
0.35400002 31435.49063593  1673.93995565
0.35500002 30909.44047015  1815.62061921
0.35600002 30393.21576472  1790.31245942
0.35700002 29888.27286680  2889.00059214
0.35800002 29394.55585169  1741.18659835
0.35900002 28911.08607696  1717.31859431
0.36000002 28438.27184358  1693.92574260
0.36100002 27974.95589954  2582.36830140
0.36200002 27522.89538929  1648.48389742
0.36300002 27079.90545169  2069.98807078
0.36400002 26646.78657316  1458.91163399
0.36500002 26223.42612429  1439.66616242
0.36600002 25810.02011498  1562.92584210
0.36700002 25405.63123856  1682.86909296
0.36800002 25012.16240493  1799.75023110
0.36900002 24626.87341946  1776.82900138
0.37000002 24250.39268511  1484.48785854
0.37100002 23882.86999983  1865.72989277
0.37200002 23525.10782424  1579.47581414
0.37300002 23175.60338534  1560.18169381
0.37400002 22834.77312975  1412.90165433
0.37500002 22502.83947830  1649.90826871
0.37600002 22179.51190593  1505.10174924
0.37700002 21863.84694982  1239.68018078
0.37800002 21556.25771517  1470.56797099
0.37900002 21257.46657460  1575.17834780
0.38000002 20966.42098503  1318.05411766
0.38100002 20682.23391020  1303.60126512
0.38200002 20406.70220519  1875.78415556
0.38300002 20138.10340210  1507.94125419
0.38400002 19877.67992767  1492.31689127
0.38500002 19623.41276723  1136.19565305
0.38600002 19377.52233154  1124.86522464
0.38700002 19137.97985202  1670.74572023
0.38800002 18905.53673573  1434.07955703
0.38900002 18679.40168582  1202.01955543
0.39000002 18461.09980399  1299.29226576
0.39100002 18248.37566536  1716.80726393
0.39200002 18042.57864229  2020.85911657
0.39300002 17842.81984210  1265.41284315
0.39400002 17650.54457852  1464.11274215
0.39500002 17463.20020091  1244.77696930
0.39600002 17281.96313592  1543.71143025
0.39700002 17106.56522266  1327.64058983
0.39800002 16937.30374886  1115.06744514
0.39900002 16773.31062136  1107.03855346
0.40000002 16614.74865169  1099.31489662
0.40100002 16462.04941193  1091.92778923
0.40200002 16314.79866624  1084.85258871
0.40300002 16172.10230566  1078.03239077
0.40400002 16034.98473390  1168.95044249
0.40500002 15903.06942654  1549.59515834
0.40600002 15775.78377640  1059.42280970
0.40700002 15653.39859111  1053.78684308
0.40800002 15535.76777205  1048.43133777
0.40900002 15422.51177636  1138.18142302
0.41000002 15314.23277365  1227.35924380
0.41100002 15209.97685815  1315.96726012
0.41200002 15109.74430974  1216.86331564
0.41300002 15014.51801376  1118.88193540
0.41400002 14922.72128149  928.93944379
0.41500002 14835.26478106  925.72056620
0.41600002 14751.14566292  1014.95262543
0.41700002 14671.20948510  1103.86185396
0.41800002 14595.95918789  1467.76972548
0.41900002 14522.36987001  1189.38214871
0.42000002 14453.53233396  1004.01467115
0.42100002 14388.57323907  1184.03574795
0.42200002 14326.79864525  1363.55312567
0.42300002 14267.72100914  907.42709918
0.42400002 14211.89109397  1359.01215026
0.42500002 14159.57749658  995.27674940
0.42600002 14109.34136113  994.07369270
0.42700002 14063.42630588  1354.30801743
0.42800002 14019.45651675  1353.22810440
0.42900002 13979.36310831  1262.33654850
0.43000002 13941.36616782  1081.57123855
0.43100002 13905.11749008  1171.36715287
0.43200002 13872.51657607  901.01999431
0.43300002 13842.29965553  1081.36050033
0.43400002 13814.34815385  1442.21801561
0.43500002 13788.65190243  1172.31124030
0.43600002 13765.59467716  902.33477385
0.43700002 13744.21273756  1083.59378358
0.43800002 13724.82973764  903.78008105
0.43900002 13708.28161449  995.22129237
0.44000002 13693.22588219  1177.54901554
0.44100002 13680.45851920  1088.41733137
0.44200002 13669.32537444  908.32671418
0.44300002 13660.22082332  1000.74782494
0.44400002 13653.03134901  1093.60786288
0.44500002 13646.41193230  1004.23950169
0.44600002 13641.90507132  1097.62773406
0.44700002 13639.98031824  916.60672083
0.44800002 13637.98479303  1010.37015127
0.44900002 13639.25868578  1288.91000689
0.45000002 13641.06015026  1107.38131548
0.45100002 13644.00298894  1202.58248044
0.45200002 13648.56389762  1020.16195688
0.45300002 13653.95790374  929.83457731
0.45400002 13661.05821871  1305.31417466
0.45500002 13669.22387268  1495.95993152
0.45600002 13678.36775068  1406.47823062
0.45700002 13688.62301017  1410.61266805
0.45800002 13699.53411820  1131.85556249
0.45900002 13711.45121538  1419.13526805
0.46000002 13725.07897148  1138.90710703
0.46100002 13738.53294583  1523.32860523
0.46200002 13753.56668696  1432.77787752
0.46300002 13769.43909840  1533.36481067
0.46400002 13785.27539493  1249.97990568
0.46500002 13802.43820078  1157.74857115
0.46600002 13819.96088324  1452.13245863
0.46700002 13837.79631760  1457.12002130
0.46800002 13857.31834678  1169.83487028
0.46900002 13876.30166483  1173.93517649
0.47000002 13896.12835443  1570.81842364
0.47100002 13916.50171673  985.28836824
0.47200002 13937.49206322  1186.63813051
0.47300002 13958.99206372  1190.98125933
0.47400002 13980.08789631  1394.51383375
0.47500002 14002.03772564  1099.72009510
0.47600002 14024.75691698  1103.81854547
0.47700002 14046.95104901  1007.16643795
