# SAXS profile: number of points = 501, q_min = 0, q_max = 0.5, delta_q = 0.001
#    q    intensity    error
0.00000000 1664650.74656090 274.66737318
0.00100000 1664563.72249586 599.24295433
0.00200000 1664302.63133875 1422.97879485
0.00300000 1663867.67238035 1098.15270289
0.00400000 1663258.73958444 2245.39938376
0.00500000 1662476.47304537 1795.47466196
0.00600000 1661520.75532482 3140.27435541
0.00700000 1660392.28102609 2191.71790204
0.00800000 1659090.86412361 3135.68186558
0.00900000 1657617.97555514 2735.06977658
0.01000000 1655972.91618787 3825.29760157
0.01100000 1654157.27636478 4168.47651793
0.01200000 1652171.05973529 4510.42719083
0.01300000 1650015.49058116 5197.54902457
0.01400000 1647690.90443180 3707.30469932
0.01500000 1645198.64162394 4738.17229886
0.01600000 1642538.65220544 5445.01587547
0.01700000 1639712.88646216 4869.94749125
0.01800000 1636721.98599093 6530.52101796
0.01900000 1633566.93321985 6370.91132703
0.02000000 1630248.50755662 6162.33963732
0.02100000 1626769.43691489 6442.00726225
0.02200000 1623128.33929564 7839.71023497
0.02300000 1619328.44134023 8744.37398127
0.02400000 1615370.25150500 7269.16646323
0.02500000 1611256.23727023 8797.45945728
0.02600000 1606986.71601896 6508.29649756
0.02700000 1602563.78073183 7403.84500609
0.02800000 1597987.70596125 6951.24683971
0.02900000 1593262.18016240 8603.61616791
0.03000000 1588387.64385038 9601.80374843
0.03100000 1583365.65773798 12160.24881096
0.03200000 1578197.63652755 7812.07866062
0.03300000 1572887.67076914 10428.24573795
0.03400000 1567434.20243184 9051.93293670
0.03500000 1561841.49690577 10120.73336731
0.03600000 1556110.01975644 12954.61651315
0.03700000 1550243.13689773 11487.30217567
0.03800000 1544241.89464760 10840.57860212
0.03900000 1538109.23170567 11074.38698114
0.04000000 1531845.10619335 12247.10219153
0.04100000 1525453.89092701 10571.39595428
0.04200000 1518936.70077657 12736.28482688
0.04300000 1512295.70029627 11977.38250231
0.04400000 1505533.76334391 13211.05938689
0.04500000 1498652.94348662 14476.98810675
0.04600000 1491653.97233024 12619.39319255
0.04700000 1484541.13042735 12826.43596342
0.04800000 1477316.02805013 17373.23729821
0.04900000 1469981.19401647 11024.85946830
0.05000000 1462538.31610571 13426.10236705
0.05100000 1454991.56737775 17023.40213134
0.05200000 1447340.26627560 14958.26234903
0.05300000 1439589.37763882 13992.80940296
0.05400000 1431740.51314567 17717.78967643
0.05500000 1423797.00334830 13155.88492465
0.05600000 1415759.80772917 13315.22161304
0.05700000 1407633.59031814 13471.05408815
0.05800000 1399418.09945689 13623.33583432
0.05900000 1391117.32326431 18780.08474121
0.06000000 1382734.92151892 13917.22763528
0.06100000 1374272.08128326 14058.80404851
0.06200000 1365731.93823350 12906.16741959
0.06300000 1357117.69236879 16936.82959265
0.06400000 1348428.69324797 13147.18037402
0.06500000 1339671.39072887 18567.84634406
0.06600000 1330847.16543072 14712.51610221
0.06700000 1321957.12753871 14832.35966512
0.06800000 1313005.93650772 16307.53449477
0.06900000 1303996.45418038 15061.15975093
0.07000000 1294928.73705906 16549.19003459
0.07100000 1285807.20560606 15275.39031807
0.07200000 1276633.58163788 18172.87988596
0.07300000 1267411.74768216 16881.92527014
0.07400000 1258144.34310197 19815.77433251
0.07500000 1248831.86870778 17084.02076469
0.07600000 1239478.10190026 14315.97274809
0.07700000 1230086.55616542 20148.81873474
0.07800000 1220658.28985092 15911.28155439
0.07900000 1211195.57324047 17441.21707272
0.08000000 1201703.53336634 20440.97806147
0.08100000 1192182.89470599 14663.85029289
0.08200000 1182634.94086994 16196.18627522
0.08300000 1173063.55797695 17736.72182903
0.08400000 1163471.32450045 16317.68609205
0.08500000 1153860.39464845 23815.67966357
0.08600000 1144233.49028662 20905.14684906
0.08700000 1134592.51637556 19469.60849525
0.08800000 1124939.44204915 18021.53070799
0.08900000 1115277.68751251 22584.37423291
0.09000000 1105608.92382230 22637.34377866
0.09100000 1095935.86408770 15123.91563495
0.09200000 1086259.60078686 19699.31878588
0.09300000 1076584.92217644 15179.84811602
0.09400000 1066910.58509311 15203.47655210
0.09500000 1057240.60347139 19791.54502724
0.09600000 1047576.63559139 18290.68891723
0.09700000 1037923.97441112 22886.22471171
0.09800000 1028280.60497593 19850.95801241
0.09900000 1018651.32795051 21391.67889285
0.10000000 1009035.15002625 21401.63653852
0.10100000 999436.12324752 18349.64808584
0.10200000 989856.01242436 19881.25894468
0.10300000 980296.43148402 18351.15006063
0.10400000 970760.06271984 21405.26038999
0.10500000 961249.95085551 21397.42491278
0.10600001 951762.61556343 19858.52790815
0.10700001 942305.81588415 18318.42592281
0.10800001 932877.65616416 18303.06047531
0.10900001 923482.04138613 16761.19984004
0.11000001 914119.71021572 16742.10328064
0.11100001 904791.78430838 21280.70376869
0.11200001 895500.99271822 16696.61679526
0.11300001 886247.59930748 22732.25199249
0.11400001 877034.26040242 21180.37838598
0.11500001 867862.40877001 16610.88728603
0.11600001 858733.29040535 15070.76995632
0.11700001 849648.28515715 18046.53042664
0.11800001 840607.99370910 21006.79475217
0.11900001 831613.90764247 14969.05104263
0.12000001 822667.72635674 16424.56193039
0.12100001 813772.01483168 22338.04285943
0.12200001 804926.21628511 14850.88939010
0.12300001 796132.63381978 19250.48799274
0.12400001 787391.40579953 25098.10224242
0.12500001 778702.96354154 17660.98404532
0.12600001 770071.43895110 19070.82008431
0.12700001 761494.91681372 14620.70309184
0.12800001 752975.15382264 16027.07690446
0.12900001 744513.49730358 15969.81526985
0.13000001 736110.86329156 17357.49497456
0.13100001 727766.89212878 18732.72068641
0.13200001 719483.25113578 14353.69153680
0.13300001 711261.96293730 14296.36612901
0.13400001 703101.68242773 14237.80974041
0.13500001 695004.72536334 15595.90677247
0.13600001 686970.14441360 18352.40827334
0.13700001 679000.20824095 15460.83547068
0.13800001 671093.65448409 22387.68536930
0.13900001 663253.51335768 15321.15688108
0.14000001 655478.22921063 15249.70172177
0.14100001 647769.10107796 15177.23075406
0.14200001 640125.92288526 15103.77186285
0.14300001 632550.85998699 16395.71906421
0.14400001 625040.66592835 31267.66078796
0.14500001 617599.98983579 13525.44041543
0.14600001 610226.43608850 14801.04290556
0.14700001 602922.60317626 20077.32363295
0.14800001 595684.54130347 18638.97017675
0.14900001 588516.55441024 15889.94771878
0.15000001 581416.33251688 14485.98860815
0.15100001 574385.69084774 22263.19042775
0.15200001 567423.84426681 14324.61562445
0.15300001 560532.36349947 12948.29820786
0.15400001 553707.35153779 14161.06618385
0.15500001 546953.52474408 12798.71308302
0.15600001 540266.32990172 17812.58173752
0.15700001 533651.42350067 16441.80113406
0.15800001 527101.91469502 13828.51938471
0.15900001 520623.83743201 16243.46449458
0.16000001 514211.72012165 12418.21362711
0.16100001 507871.33981797 14809.52896816
0.16200001 501598.19299338 14716.89167715
0.16300001 495393.11115151 14624.00533156
0.16400001 489256.29042757 16952.73126365
0.16500001 483186.68970440 16843.88879832
0.16600001 477185.49688450 13148.84698745
0.16700001 471250.31625985 17813.26279567
0.16800001 465381.22583761 12977.15609522
0.16900001 459580.86215260 14063.17504591
0.17000001 453845.64390659 12805.25544748
0.17100001 448175.68400307 11562.93319330
0.17200001 442572.07780263 14930.16974972
0.17300001 437033.25397872 11406.56846751
0.17400001 431559.15135810 13594.11390978
0.17500001 426149.28746031 12375.37589231
0.17600001 420801.60913040 14523.96822509
0.17700001 415519.11620593 13313.23311203
0.17800001 410298.09398360 13219.80521255
0.17900001 405139.96346811 12032.65748335
0.18000001 400043.57907385 11947.30205337
0.18100001 395009.84714288 10783.76933639
0.18200001 390034.40089718 12847.73377245
0.18300001 385120.18757398 10629.31767916
0.18400001 380265.28595620 13718.07083892
0.18500001 375471.02275835 14665.89884179
0.18600001 370733.58434271 13518.80079173
0.18700001 366053.81611332 14451.80534293
0.18800001 361431.43112292 12295.89786774
0.18900001 356867.90706923 13221.95658162
0.19000001 352356.34967761 11104.51088476
0.19100001 347904.92644949 13025.56106173
0.19200001 343505.36435751 14916.72115206
0.19300001 339162.28717294 10856.58532541
0.19400001 334870.95436283 10774.47346576
0.19500001 330633.62809546 15553.00660057
0.19600001 326448.70341774 12540.52753441
0.19700001 322315.09903196 10530.03478300
0.19800001 318233.10125662 12349.03607786
0.19900001 314202.11463685 12253.88304996
0.20000001 310219.57236265 13094.36876828
0.20100001 306287.89296374 12064.68067405
0.20200001 302403.44275923 13812.27790084
0.20300001 298568.46511079 12790.67364989
0.20400001 294780.32460464 9970.94495104
0.20500001 291038.33028114 12590.31876307
0.20600001 287342.58790252 10706.38533132
0.20700001 283693.13745209 11506.59419896
0.20800001 280087.05237424 8780.72950700
0.20900001 276527.81351030 11323.81449854
0.21000001 273010.12415872 10368.92500571
0.21100001 269536.01171815 11142.61925118
0.21200001 266104.07782002 11902.83596359
0.21300001 262713.10638632 12649.63667052
0.21400001 259364.52335886 11710.30878328
0.21500001 256057.29319657 9955.50803015
0.21600001 252788.66231859 11519.57988649
0.21700001 249560.05487815 8976.67559838
0.21800001 246370.29433539 12139.89682736
0.21900001 243218.03607609 8828.81512700
0.22000001 240103.31926222 8755.36795087
0.22100001 237027.20047051 10260.90799354
0.22200001 233987.50399453 11740.32356806
0.22300001 230982.72769385 10089.32602275
0.22400001 228012.92423018 7695.43655666
0.22500001 225080.35467316 9919.29169950
0.22600001 222180.14022977 12860.89802537
0.22700001 219315.85728500 9750.78347600
0.22800001 216483.83814710 11154.33028802
0.22900001 213684.00200262 8109.30825950
0.23000001 210917.61913843 10231.61418828
0.23100001 208183.95987595 9418.24279020
0.23200001 205480.07933112 7181.52911226
0.23300001 202807.57308379 7830.40076710
0.23400001 200166.39616283 10583.79869767
0.23500001 197553.66854259 7692.74021689
0.23600001 194972.09356541 11090.01320653
0.23700001 192418.96467837 10304.03604589
0.23800001 189894.88811702 8169.27847319
0.23900001 187398.80611384 9444.90027488
0.24000001 184930.42736231 7353.75879190
0.24100001 182490.84212642 8611.74324729
0.24200001 180077.90353379 7876.60787315
0.24300001 177691.47055670 7153.85894301
0.24400001 175331.27100265 7087.76696556
0.24500001 172997.34069491 6383.60217361
0.24600001 170688.88537777 9486.03525361
0.24700001 168406.05355263 8144.11713507
0.24800001 166148.26632612 7446.76564902
0.24900001 163914.30483861 7376.14406668
0.25000001 161705.61360404 7305.85996826
0.25100001 159519.71717397 6632.83015389
0.25200001 157359.08760992 5971.77765732
0.25300001 155221.82540181 8870.92774140
0.25400001 153106.85474247 7027.60496516
0.25500001 151014.67803054 7538.65308395
0.25600001 148945.61307413 8612.78048350
0.25700001 146898.19036996 6253.45625992
0.25800001 144873.28545184 7879.65836854
0.25900001 142870.16773486 7800.71152741
0.26000001 140888.75541317 6618.95404249
0.26100001 138927.43757993 7097.80312180
0.26200001 136988.55550195 5944.61864729
0.26300001 135069.60769271 5883.63238949
0.26400001 133171.40482932 6352.27631094
0.26500001 131294.21063994 5762.50317766
0.26600001 129436.20105253 5702.31210720
0.26700001 127599.13205403 5642.43388643
0.26800001 125782.36942998 5582.85073134
0.26900001 123983.44445048 6527.72865922
0.27000001 122205.39706740 5961.17955104
0.27100001 120445.85815495 6388.44861886
0.27200001 118706.87629861 6319.36085881
0.27300001 116985.83548822 5769.74167933
0.27400001 115281.78619027 6657.52346755
0.27500001 113599.35252062 5173.31475862
0.27600001 111932.89590709 5115.89324955
0.27700001 110286.29344674 4598.93865438
0.27800001 108656.78269619 5456.74388525
0.27900001 107046.76640770 8542.33236362
0.28000001 105452.97847690 5333.81190380
0.28100001 103877.90187753 5272.84254886
0.28200001 102320.97499496 5212.23071294
0.28300001 100780.98095753 4722.59699119
0.28400001 99258.11201691  5940.59828539
0.28500001 97753.18109051  4193.61166727
0.28600001 96264.97328382  4973.04875523
0.28700001 94793.95214829  4504.60881930
0.28800001 93339.10014558  7687.87534738
0.28900001 91903.13172472  4397.56506118
0.29000001 90482.30252431  5134.41849978
0.29100001 89078.81749334  5072.14810816
0.29200001 87691.97558825  5395.68751335
0.29300001 86321.56870275  4187.45949599
0.29400001 84966.91231840  5263.70046729
0.29500001 83629.64454024  4455.78767203
0.29600001 82307.99419432  5500.23197240
0.29700001 81002.29424166  5793.28435841
0.29800001 79712.72461914  3575.11586841
0.29900001 78439.64206837  4235.74087221
0.30000001 77181.55642758  4530.17166897
0.30100001 75940.66068474  3440.11209187
0.30200001 74713.54807433  4754.02328903
0.30300001 73503.78260143  3686.94990983
0.30400001 72309.31967405  4300.59699121
0.30500001 71129.90730240  3591.34918972
0.30600001 69965.14398140  4188.46354274
0.30700001 68816.93053208  5086.94774576
0.30800001 67683.33587482  4391.97187285
0.30900001 66565.17590032  4023.86507368
0.31000001 65462.48042874  4886.11977053
0.31100001 64373.75312210  5724.11439863
0.31200001 63300.67066966  3269.16329152
0.31300001 62241.89578494  3811.07145935
0.31400001 61198.82990224  3469.97381975
0.31500001 60169.60994571  3422.44757576
0.31600002 59155.54159872  3937.98459068
0.31700002 58155.86004045  3606.24505186
0.31800002 57170.64395531  3829.86161990
0.31900002 56199.94472593  2697.59747457
0.32000002 55243.68621436  4255.97378747
0.32100002 54301.01117029  3671.83454920
0.32200002 53373.74647170  3620.34139460
0.32300002 52458.94960922  3059.40608608
0.32400002 51558.54478089  2764.82709479
0.32500002 50672.19470999  3221.23157025
0.32600002 49799.91754296  3908.29771384
0.32700002 48940.70080953  3371.03563139
0.32800002 48096.07458497  3322.95795043
0.32900002 47264.15425523  2573.53332106
0.33000002 46446.65071480  2767.29158063
0.33100002 45640.07962848  2727.45128775
0.33200002 44849.86844526  2912.32634541
0.33300002 44071.43192168  2207.97884384
0.33400002 43306.23902412  2828.98019822
0.33500002 42553.32575596  2359.15649163
0.33600002 41814.23314802  3170.56437860
0.33700002 41086.91908933  2291.41758613
0.33800002 40373.35784047  2463.58241209
0.33900002 39671.39064052  3034.86152772
0.34000002 38982.44217200  2990.92801729
0.34100002 38305.56115765  2751.10553263
0.34200002 37641.56084702  2711.32175622
0.34300002 36988.76664887  2099.48249442
0.34400002 36349.33875533  2069.18620664
0.34500002 35720.90950537  2780.87293670
0.34600002 35105.31181349  2009.95472307
0.34700002 34499.90448332  2521.25313905
0.34800002 33907.47302168  2307.57318578
0.34900002 33325.92364796  2099.53328926
0.35000002 32756.04849337  2241.98784531
0.35100002 32197.96127992  2210.06816693
0.35200002 31649.74657580  1843.43957662
0.35300002 31113.20283665  1817.32226376
0.35400002 30587.75505059  2117.43744367
0.35500002 30073.36184341  2087.69287805
0.35600002 29568.66191785  2058.42249691
0.35700002 29075.27456029  1717.47654962
0.35800002 28592.66337669  2155.60099407
0.35900002 28120.35220830  1670.34900029
0.36000002 27658.53108834  1797.25143525
0.36100002 27206.09177151  1772.74902380
0.36200002 26764.63175657  1748.80112181
0.36300002 26332.30639536  1581.51839702
0.36400002 25909.65833396  1844.12001927
0.36500002 25496.67629528  2239.62815186
0.36600002 25093.46994626  1657.67470317
0.36700002 24699.23194959  1499.73743502
0.36800002 24315.67117931  1345.87246353
0.36900002 23940.28813002  1860.16047582
0.37000002 23573.56289690  1574.24260483
0.37100002 23215.76726757  1295.43987490
0.37200002 22867.47426218  1791.20934381
0.37300002 22527.40408196  1895.68114330
0.37400002 22195.92926174  1498.22529614
0.37500002 21873.16937637  1357.01149239
0.37600002 21559.01156603  1462.99459418
0.37700002 21252.37181031  1807.51430809
0.37800002 20953.73460401  1667.70781614
0.37900002 20663.80410362  1295.62057867
0.38000002 20381.48082031  1514.24218928
0.38100002 20105.92163893  1267.27630094
0.38200002 19838.96204866  1139.74842369
0.38300002 19578.90772089  1240.51965196
0.38400002 19326.85272400  1116.12579769
0.38500002 19081.06660069  1215.27318937
0.38600002 18843.30528696  1312.62470847
0.38700002 18611.88315923  1083.21165118
0.38800002 18387.57383636  1287.49798102
0.38900002 18169.39420489  1169.20057248
0.39000002 17959.06374253  1474.61879376
0.39100002 17754.28234142  1252.74222136
0.39200002 17556.23093317  1759.39776632
0.39300002 17364.27663555  1231.47455734
0.39400002 17179.60048801  1425.04792799
0.39500002 16999.84770921  1413.70740248
0.39600002 16826.18509993  1402.79911824
0.39700002 16658.21424018  1093.94498098
0.39800002 16496.42002152  987.31078507
0.39900002 16339.79134770  1176.46503277
0.40000002 16188.49584198  973.73807103
0.40100002 16043.09829203  1354.35842198
0.40200002 15902.95711022  1057.46718315
0.40300002 15767.36665852  1051.05271126
0.40400002 15637.30117882  1044.96270079
0.40500002 15512.45005994  944.70825341
0.40600002 15392.17158451  1221.59975569
0.40700002 15276.72451764  1028.42914326
0.40800002 15165.84553266  930.42466751
0.40900002 15059.43994604  1018.77116062
0.41000002 14957.98538800  922.15984286
0.41100002 14860.41890862  1010.21132527
0.41200002 14766.89838716  914.80939843
0.41300002 14678.32219057  1093.82862147
0.41400002 14593.08313359  1271.78725535
0.41500002 14512.12058122  1086.66764061
0.41600002 14434.55136788  993.16935393
0.41700002 14361.05985358  990.48234503
0.41800002 14292.29528778  1257.57912196
0.41900002 14225.08437632  1165.03446563
0.42000002 14162.51664146  1073.23556194
0.42100002 14103.89887380  1160.60989332
0.42200002 14048.33525740  891.36691432
0.42300002 13995.49737280  1068.13641011
0.42400002 13945.88454871  1155.76523674
0.42500002 13899.75369480  977.01373350
0.42600002 13855.59607394  1064.94116471
0.42700002 13815.82602326  1330.46410909
0.42800002 13777.90710252  886.60836406
0.42900002 13743.80581923  1063.77062082
0.43000002 13711.85770952  1329.70746439
0.43100002 13681.57554711  886.56613746
0.43200002 13654.88120031  1241.63840638
0.43300002 13630.55197369  1153.55366820
0.43400002 13608.37909242  1331.92016679
0.43500002 13588.54743766  1066.42925344
0.43600002 13571.30510850  1245.43872883
0.43700002 13555.68976034  1068.73063135
0.43800002 13542.04213255  1070.09222003
0.43900002 13531.18352916  893.05815525
0.44000002 13521.80455807  894.46741390
0.44100002 13514.68024501  985.62567698
0.44200002 13509.15470402  1436.29339620
0.44300002 13505.67286644  1079.37342664
0.44400002 13504.00977961  901.39269551
0.44500002 13502.85925951  1264.67785818
0.44600002 13503.97728678  1177.07423599
0.44700002 13507.44336357  1180.01030816
0.44800002 13510.94897024  909.96245627
0.44900002 13517.63482683  1277.41655167
0.45000002 13524.77721503  1006.44634415
0.45100002 13533.09837731  1101.05293616
0.45200002 13542.96777739  920.24470409
0.45300002 13553.72642400  1199.91145718
0.45400002 13566.12431925  1203.65443727
0.45500002 13579.50956170  1207.49004745
0.45600002 13593.88399537  1025.04687125
0.45700002 13609.27747007  1121.94888781
0.45800002 13625.36791460  1125.72795046
0.45900002 13642.40957486  1129.59156633
0.46000002 13661.15309502  1039.13565942
0.46100002 13679.69016420  1422.00385996
0.46200002 13699.72729750  1236.87993768
0.46300002 13720.65001957  1241.44447261
0.46400002 13741.44388644  1341.85205911
0.46500002 13763.58265918  1058.28192082
0.46600002 13785.98635903  1448.56258533
0.46700002 13808.79583751  1066.31526511
0.46800002 13833.16371599  1362.42835896
0.46900002 13856.96162437  1465.37376123
0.47000002 13881.59071298  1373.02820250
0.47100002 13906.73786580  984.59708757
0.47200002 13932.49948269  1581.61741624
0.47300002 13958.74755249  1290.20709743
0.47400002 13984.55975983  1394.95990216
0.47500002 14011.19050950  1300.51876473
0.47600002 14038.44136864  1004.45052754
0.47700002 14065.25837064  1512.71860946
