# SAXS profile: number of points = 501, q_min = 0, q_max = 0.5, delta_q = 0.001
#    q    intensity    error
0.00000000 1664650.74656090 474.42546277
0.00100000 1664563.74200300 699.11678824
0.00200000 1664302.69991825 1348.08522962
0.00300000 1663867.83469383 1697.14525185
0.00400000 1663259.02519527 1496.93317956
0.00500000 1662476.92075783 1645.85221670
0.00600000 1661521.39515765 2093.51704313
0.00700000 1660393.16514152 2590.21344527
0.00800000 1659091.98904196 2463.75170775
0.00900000 1657619.39927998 3729.64380781
0.01000000 1655974.68975007 3278.83002728
0.01100000 1654159.42862332 3572.98452139
0.01200000 1652173.59015313 3543.91250626
0.01300000 1650018.46724089 3811.54282743
0.01400000 1647694.34209040 5190.23740767
0.01500000 1645202.61059094 5922.72966186
0.01600000 1642543.15762811 5445.03081095
0.01700000 1639717.96500399 4427.23870411
0.01800000 1636727.69521292 6064.07638363
0.01900000 1633573.29206066 5880.86411678
0.02000000 1630255.52445693 6162.36616121
0.02100000 1626777.18275478 7515.71092508
0.02200000 1623136.82345698 5599.82229534
0.02300000 1619337.73028576 8744.42414158
0.02400000 1615380.33028632 9086.51477218
0.02500000 1611267.14554849 7540.73058556
0.02600000 1606998.53987472 9762.51657626
0.02700000 1602576.48058089 8076.98583206
0.02800000 1598001.39211763 7646.43701195
0.02900000 1593276.85091727 7886.72077415
0.03000000 1588403.28678246 11817.72099687
0.03100000 1583382.36671052 9120.28285191
0.03200000 1578215.41168931 8593.38331244
0.03300000 1572906.56005562 11230.55335653
0.03400000 1567454.22774984 8229.13507538
0.03500000 1561862.70350950 14337.90028031
0.03600000 1556132.38022178 9500.18862029
0.03700000 1550266.63783298 12371.12834204
0.03800000 1544266.73971951 11744.14909908
0.03900000 1538135.33834998 10151.69370323
0.04000000 1531872.51464596 14131.52460245
0.04100000 1525482.66227779 16337.92007053
0.04200000 1518966.88708788 11756.80425149
0.04300000 1512327.20664323 10979.49602988
0.04400000 1505566.66420804 14227.60563752
0.04500000 1498687.36299685 12409.13194220
0.04600000 1491689.94044907 13671.33893975
0.04700000 1484578.64026221 12826.76004841
0.04800000 1477354.99473869 13030.27165987
0.04900000 1470021.68673122 13230.19579641
0.05000000 1462580.44396656 14545.36319257
0.05100000 1455035.40630467 12484.20436766
0.05200000 1447385.59225936 19561.41719097
0.05300000 1439636.48342387 16325.47848309
0.05400000 1431789.25526980 15355.94047888
0.05500000 1423847.42170842 13156.35079032
0.05600000 1415811.90401132 15736.75004743
0.05700000 1407687.50606851 17145.63462425
0.05800000 1399473.83357860 13623.87840602
0.05900000 1391174.89560734 13772.63210977
0.06000000 1382794.27488245 12652.56820629
0.06100000 1374333.24417224 20450.07962894
0.06200000 1365794.98510039 20650.82114001
0.06300000 1357182.61899366 15634.74450181
0.06400000 1348495.47420770 19721.74723261
0.06500000 1339740.17270564 13263.42833022
0.06600000 1330917.93406053 13375.72586314
0.06700000 1322029.85867519 16181.64622747
0.06800000 1313080.54712586 13590.38429891
0.06900000 1304073.12036425 15062.04524540
0.07000000 1295007.36858467 19308.56076979
0.07100000 1285887.97716116 15276.34988418
0.07200000 1276716.38415147 20970.06759207
0.07300000 1267496.64513609 15476.13476226
0.07400000 1258231.38300320 15570.61409437
0.07500000 1248920.99683190 22780.32004998
0.07600000 1239569.25528870 14317.02556978
0.07700000 1230179.81137633 25907.58804235
0.07800000 1220753.69444600 20252.30474062
0.07900000 1211293.20420234 15989.07104542
0.08000000 1201803.33929709 17522.29350894
0.08100000 1192284.76419532 17598.12394520
0.08200000 1182739.12821029 17670.12340464
0.08300000 1173169.81014444 17738.32836188
0.08400000 1163579.90156149 17802.77332953
0.08500000 1153971.24876015 16374.85278863
0.08600000 1144346.68533838 19413.84242827
0.08700000 1134707.85174789 16475.95878105
0.08800000 1125057.03605798 16521.46335042
0.08900000 1115397.40930089 18069.43887939
0.09000000 1105731.07930123 16602.55293562
0.09100000 1096060.22567790 16638.19500747
0.09200000 1086386.30970431 16670.59870571
0.09300000 1076713.92454920 21254.33386939
0.09400000 1067041.78860190 19766.95006285
0.09500000 1057374.22569624 19794.04643541
0.09600000 1047712.68110110 16768.64224928
0.09700000 1038062.02543341 19837.36623864
0.09800000 1028421.18814462 21380.87750681
0.09900000 1018794.11833466 15281.91249361
0.10000000 1009180.36430021 15289.08323815
0.10100000 999583.67915951 16822.99411147
0.10200000 990005.73668398 29061.61976731
0.10300000 980448.60262582 16824.49881250
0.10400000 970914.56599133 22937.85770066
0.10500000 961406.70071741 18343.64071274
0.10600001 951921.70735034 19861.84735844
0.10700001 942467.36990232 22901.95816634
0.10800001 933041.46941880 19831.79736581
0.10900001 923648.10757361 16764.21394148
0.11000001 914288.12989625 21312.05731103
0.11100001 904962.42169470 16723.70634016
0.11200001 895674.13893309 22772.51605444
0.11300001 886422.97941870 22736.75049255
0.11400001 877211.89534732 18158.28708866
0.11500001 868042.47276375 22655.90960595
0.11600001 858915.59237542 15073.96935604
0.11700001 849832.95162707 19554.65713786
0.11800001 840794.98389702 21011.46763719
0.11900001 831803.11971951 14972.45686018
0.12000001 822859.21498441 17921.87454657
0.12100001 813965.76909207 22343.36141413
0.12200001 805122.30421455 14854.50721257
0.12300001 796330.93762666 14811.75613770
0.12400001 787591.89840857 16244.08367006
0.12500001 778905.80849096 20609.84866382
0.12600001 770276.43298570 14673.76673986
0.12700001 761702.22055895 21937.02498591
0.12800001 753184.67340349 18946.36135239
0.12900001 744725.17532583 26139.85488596
0.13000001 736324.77505974 21703.17376786
0.13100001 727982.87951702 23062.49871021
0.13200001 719701.48299086 17229.65431501
0.13300001 711482.33845023 14300.79567703
0.13400001 703324.08614200 15666.54475742
0.13500001 695229.34369349 19855.75099205
0.13600001 687196.86783987 22595.03407995
0.13700001 679229.11336727 15466.04764065
0.13800001 671324.71137411 15396.83298141
0.13900001 663486.45890005 15326.53792336
0.14000001 655713.23645036 15255.16916546
0.14100001 648006.15505039 15182.78492890
0.14200001 640365.02878745 15109.41356688
0.14300001 632792.07026095 17768.80217104
0.14400001 625283.76934703 20399.88393721
0.14500001 617844.93984663 21649.28771347
0.14600001 610473.44014287 17499.22198721
0.14700001 603171.61470208 21424.65676496
0.14800001 595935.39499174 15982.98804773
0.14900001 588769.10705067 14572.03608702
0.15000001 581671.03612110 15809.81950772
0.15100001 574642.18200536 15722.21084152
0.15200001 567682.19390196 13028.30696482
0.15300001 560792.64941888 12954.31081288
0.15400001 553969.40711977 19319.68398502
0.15500001 547217.30501702 14085.37409587
0.15600001 540531.76167682 15275.42830591
0.15700001 533918.61955535 16450.03344489
0.15800001 527370.84192090 13835.57469082
0.15900001 520894.44602324 15001.76075356
0.16000001 514484.12629449 19879.66757839
0.16100001 508145.41738122 14817.52107029
0.16200001 501873.85819445 12270.81641211
0.16300001 495670.35957886 13412.84056340
0.16400001 489535.04831023 13327.59231944
0.16500001 483467.13779710 15649.83198934
0.16600001 477467.45882317 15548.72853068
0.16700001 471533.69824018 14259.17970803
0.16800001 465666.20860940 15346.03062931
0.16900001 459867.35407349 12899.27989084
0.17000001 454133.36048468 16307.92974506
0.17100001 448464.92702242 15041.51436261
0.17200001 442862.64835911 11492.28626762
0.17300001 437325.28336005 13697.02852167
0.17400001 431852.48187286 14736.96663988
0.17500001 426443.99709319 15761.37087694
0.17600001 421097.51569913 12298.15352682
0.17700001 415816.38190968 11102.29792136
0.17800001 410596.55036811 13229.42147771
0.17900001 405439.58204718 12041.55615557
0.18000001 400344.39726450 13043.22107897
0.18100001 395311.89998879 11871.21691742
0.18200001 390337.55037695 12857.71951679
0.18300001 385424.44611162 14892.80130128
0.18400001 380570.59782706 14785.16842404
0.18500001 375777.38265363 12581.02736560
0.18600001 371040.94772806 15611.54861320
0.18700001 366362.27774200 15497.12508065
0.18800001 361740.92924580 11280.89141151
0.18900001 357178.23730082 13233.45431724
0.19000001 352667.60299466 11114.32003351
0.19100001 348217.09543422 10028.65282236
0.19200001 343818.25864096 14930.30858696
0.19300001 339476.13381013 15806.00953708
0.19400001 335185.54055560 11765.01302944
0.19500001 330949.11913398 13621.86638726
0.19600001 326764.86065251 13518.26292402
0.19700001 322631.97066439 13415.03797419
0.19800001 318550.67571820 14263.10717934
0.19900001 314520.33482905 9435.61049080
0.20000001 310538.47268822 11235.28247285
0.20100001 306607.44136812 11148.24709504
0.20200001 302723.45288333 9217.92957597
0.20300001 298889.07928181 10060.60688414
0.20400001 295101.32954696 9981.80294372
0.20500001 291359.97260770 13504.53536868
0.20600001 287664.80472771 12504.78965259
0.20700001 284015.66779480 12405.80495569
0.20800001 280410.07559884 14065.37005691
0.20900001 276851.15108090 9592.89283842
0.21000001 273333.77046746 9516.11566867
0.21100001 269860.00061440 10297.85811026
0.21200001 266428.35948919 9363.62513691
0.21300001 263037.72883131 11820.91609252
0.21400001 259689.42394035 10887.47961342
0.21500001 256382.23874580 10798.82040651
0.21600001 253113.98355440 9886.63266506
0.21700001 249885.52581361 10622.63420457
0.21800001 246695.95749242 10535.15136282
0.21900001 243543.72302383 10448.02621172
0.22000001 240429.08307320 7970.22448073
0.22100001 237352.92715422 11065.39398714
0.22200001 234313.36761534 9405.33902081
0.22300001 231308.47378332 9326.35810394
0.22400001 228338.63863077 12330.28706912
0.22500001 225406.11336451 9169.52112527
0.22600001 222505.78062780 9849.21884524
0.22700001 219641.41556504 7511.73676755
0.22800001 216809.25750362 8936.87801692
0.22900001 214009.21803871 8859.98204580
0.23000001 211242.65814431 11711.29352137
0.23100001 208508.70232698 8707.32382097
0.23200001 205804.58411612 10789.30583255
0.23300001 203131.85889805 8555.91430143
0.23400001 200490.43389407 9894.20338062
0.23500001 197877.27263053 11207.76925188
0.23600001 195295.36546048 8331.30068459
0.23700001 192741.91741831 8257.06413274
0.23800001 190217.39564496 7501.22335206
0.23900001 187720.87528064 7433.74701273
0.24000001 185252.03536451 9375.60595327
0.24100001 182811.91543196 8626.89469730
0.24200001 180398.42469901 9863.28433697
0.24300001 178011.63688338 6515.22621812
0.24400001 175650.81359983 9682.75155772
0.24500001 173316.25768344 6395.37021105
0.24600001 171007.34333650 6335.82237033
0.24700001 168723.86129934 6276.52793725
0.24800001 166465.37248286 6839.23015200
0.24900001 164230.72194648 8006.24807365
0.25000001 162021.32609726 7320.12385938
0.25100001 159834.67594894 6645.92614037
0.25200001 157673.39820084 6582.07631929
0.25300001 155535.32148230 7703.66483748
0.25400001 153419.67975369 8802.45454232
0.25500001 151326.61717887 7554.22508697
0.25600001 149256.73117308 5753.84725895
0.25700001 147208.39766075 8545.44788852
0.25800001 145182.62964164 6204.37997129
0.25900001 143178.63937974 7259.15736002
0.26000001 141196.22613390 8291.74877204
0.26100001 139234.11970078 6019.09127947
0.26200001 137294.24017295 7582.76124354
0.26300001 135374.25517651 8041.23113798
0.26400001 133475.11671281 5836.19975443
0.26500001 131596.85443937 6825.92916277
0.26600001 129737.76631061 5195.99778661
0.26700001 127899.66951589 7198.19374097
0.26800001 126081.78874861 6104.88050010
0.26900001 124281.83794687 5536.75614254
0.27000001 122502.62799919 6473.65168296
0.27100001 120741.99246115 5911.52823065
0.27200001 119001.82752368 6335.06258802
0.27300001 117279.62828041 4820.19295044
0.27400001 115574.40696842 5244.18896437
0.27500001 113890.67954994 5658.08922781
0.27600001 112222.92917492 4662.86292789
0.27700001 110575.16054383 5533.18129548
0.27800001 108944.48167463 5015.25945125
0.27900001 107333.11525769 4958.79015959
0.28000001 105738.04800875 4902.54482796
0.28100001 104161.61455686 4846.64015472
0.28200001 102603.30374965 4791.06149535
0.28300001 101061.95935682 6027.33554132
0.28400001 99537.77788896  5106.28824739
0.28500001 98031.40336278  4626.10214365
0.28600001 96541.84216658  4571.73915219
0.28700001 95069.42316165  4928.39912997
0.28800001 93613.19674315  5681.38517926
0.28900001 92175.72717418  4009.64432187
0.29000001 90753.40238574  4357.52482181
0.29100001 89348.56744699  4304.81418336
0.29200001 87960.14545849  3865.84857589
0.29300001 86588.28171877  3818.54340455
0.29400001 85232.07029075  4525.82314668
0.29500001 83893.29494182  4469.83496609
0.29600001 82570.04261214  4046.34512975
0.29700001 81262.89160709  3632.45142679
0.29800001 79971.75092651  4304.07983861
0.29900001 78697.07280432  4603.77897699
0.30000001 77437.44714627  5244.45135625
0.30100001 76194.92751866  3451.63038000
0.30200001 74966.24325989  3747.93750921
0.30300001 73754.76815424  3363.21758705
0.30400001 72558.70142914  3651.51682229
0.30500001 71377.72583803  3603.86154818
0.30600001 70211.24371460  4203.19630397
0.30700001 69061.38351412  4466.89049717
0.30800001 67926.23316093  3463.21916167
0.30900001 66806.27200412  3417.14097479
0.31000001 65701.90730459  3064.99412087
0.31100001 64611.38017385  3628.57528236
0.31200001 63536.60078240  3877.95661236
0.31300001 62476.07855985  3825.41047134
0.31400001 61431.46272784  3483.16410158
0.31500001 60400.43165771  3721.87477497
0.31600002 59384.59153130  3388.48495321
0.31700002 58383.12476669  3063.36270155
0.31800002 57396.13688009  3021.04580773
0.31900002 56423.71180756  3791.67361300
0.32000002 55465.67288389  2670.67227581
0.32100002 54521.21542288  3423.38727850
0.32200002 53592.15247413  3115.84789238
0.32300002 52675.48151623  3072.03422749
0.32400002 51773.36734109  3028.74213287
0.32500002 50885.19500329  3732.42923023
0.32600002 50011.15191031  2453.04711736
0.32700002 49150.12980920  2901.82380134
0.32800002 48303.63353293  3337.29819882
0.32900002 47469.85896853  3289.66138230
0.33000002 46650.55522857  3242.68024749
0.33100002 45842.08254368  2739.52298254
0.33200002 45050.04547458  2925.32484142
0.33300002 44269.70625884  2439.70362746
0.33400002 43502.76139196  3279.02079520
0.33500002 42747.87611265  3016.29028135
0.33600002 42006.99680879  2123.45378924
0.33700002 41277.79690014  2302.06284214
0.33800002 40562.32825555  2681.37283632
0.33900002 39858.49171440  2439.33980844
0.34000002 39167.63351155  2003.42454899
0.34100002 38488.88628494  2566.82394790
0.34200002 37823.00418631  2529.79175481
0.34300002 37168.28758754  2109.67210338
0.34400002 36526.94893330  2079.29666650
0.34500002 35896.64649412  2421.94685366
0.34600002 35279.15406486  2203.53606725
0.34700002 34671.80731544  2352.82895586
0.34800002 34077.57473510  2319.14945843
0.34900002 33494.07639810  2285.97082244
0.35000002 32922.23763144  2253.36266141
0.35100002 32362.27568825  2221.34670845
0.35200002 31812.14663581  1684.45324415
0.35300002 31273.68743576  1660.63288149
0.35400002 30746.35792820  1964.69236467
0.35500002 30230.00328630  1614.28225195
0.35600002 29723.40856837  1591.68860423
0.35700002 29228.03519681  1883.45467729
0.35800002 28743.59719145  2012.19561670
0.35900002 28269.34184363  1831.85343823
0.36000002 27805.58110918  1505.67228838
0.36100002 27351.17466069  1782.20262531
0.36200002 26907.89675564  1758.16205729
0.36300002 26473.62800752  1590.00617345
0.36400002 26049.03457002  1711.42165232
0.36500002 25634.08203047  2110.96675520
0.36600002 25228.98996129  2083.28394473
0.36700002 24832.82150690  1644.92617453
0.36800002 24447.33916874  1488.47631580
0.36900002 24070.01908446  1870.24057145
0.37000002 23701.36366920  1582.77714080
0.37100002 23341.67581465  1562.95868659
0.37200002 22991.50628059  1672.28728854
0.37300002 22649.54616183  1524.76751984
0.37400002 22316.09899575  1631.86481637
0.37500002 21991.50636194  1240.32101757
0.37600002 21675.34349783  1593.46295273
0.37700002 21366.82037040  1938.39803583
0.37800002 21066.29291078  1556.90445133
0.37900002 20774.41918657  1302.55614470
0.38000002 20490.21109220  1288.11718133
0.38100002 20212.75936929  1737.28675009
0.38200002 19943.90181789  1489.51037783
0.38300002 19681.93981361  1473.78372306
0.38400002 19428.02106735  1234.16509677
0.38500002 19180.24838957  1665.80465155
0.38600002 18940.66434146  1319.40674053
0.38700002 18707.38340479  1415.40069546
0.38800002 18481.18460596  1509.72804199
0.38900002 18261.15103303  1495.58834046
0.39000002 18048.93656357  1270.28421553
0.39100002 17842.17045109  1258.94360667
0.39200002 17642.29717780  1144.01481469
0.39300002 17448.38845031  1237.43976752
0.39400002 17261.94926342  1329.60170501
0.39500002 17080.30574738  1014.57020946
0.39600002 16904.77978280  1107.34765214
0.39700002 16735.00055517  1098.98753853
0.39800002 16571.22729068  1090.96680037
0.39900002 16412.80029808  1181.72167745
0.40000002 16259.67731736  1662.63338286
0.40100002 16112.40816247  1263.05173570
0.40200002 15970.44782041  1641.20314802
0.40300002 15833.02537685  1151.37765996
0.40400002 15701.18675472  953.84714054
0.40500002 15574.39163329  1327.87269357
0.40600002 15452.34314196  1132.03871222
0.40700002 15334.99570452  1032.35195974
0.40800002 15222.40455579  1307.45238925
0.40900002 15114.14429060  1022.47190971
0.41000002 15010.81518209  1017.95847981
0.41100002 14911.49259246  1197.98937164
0.41200002 14816.13393396  1101.43144884
0.41300002 14725.75688599  1097.36345514
0.41400002 14638.71763250  1002.38623738
0.41500002 14556.02798510  1089.95542717
0.41600002 14476.63805752  905.51375340
0.41700002 14401.37183903  993.26266280
0.41800002 14330.79498067  1170.89765938
0.41900002 14261.84062399  1078.19520226
0.42000002 14197.57377217  1075.89219144
0.42100002 14137.10026767  1073.85418722
0.42200002 14079.82883084  1429.38429064
0.42300002 14025.28344316  1159.61049003
0.42400002 13973.86181171  890.83373271
0.42500002 13925.99393885  978.85816035
0.42600002 13880.13110093  1066.82692697
0.42700002 13838.60015049  1066.12580611
0.42800002 13798.87996291  976.75376446
0.42900002 13763.08876305  1154.03504747
0.43000002 13729.40070814  887.60579784
0.43100002 13697.39286315  976.35020955
0.43200002 13669.00180472  1509.26290579
0.43300002 13642.93577505  1509.86377377
0.43400002 13619.14926150  1421.83925028
0.43500002 13597.57225856  889.28126785
0.43600002 13578.62750111  979.08698237
0.43700002 13561.29767780  1336.46594948
0.43800002 13546.02653853  892.00588983
0.43900002 13533.46524145  982.52962309
0.44000002 13522.41718198  894.50793898
0.44100002 13513.62648096  1164.73952159
0.44200002 13506.46049405  987.25477660
0.44300002 13501.29014190  1079.02315928
0.44400002 13498.05062574  1351.49238295
0.44500002 13495.29512004  1083.40234358
0.44600002 13494.69887497  995.30156269
0.44700002 13496.59118283  1269.75935866
0.44800002 13498.42474120  1363.67842411
0.44900002 13503.43764735  1002.63029283
0.45000002 13509.04867440  913.88718613
0.45100002 13515.77689095  1099.64365996
0.45200002 13523.98571847  1470.32779699
0.45300002 13533.16073325  1105.92994753
0.45400002 13543.93711189  1294.12325237
0.45500002 13555.74428868  1019.93424862
0.45600002 13568.50285997  1116.14509816
0.45700002 13582.35211219  1026.41839776
0.45800002 13596.83242085  1123.37034785
0.45900002 13612.38809721  1033.18030555
0.46000002 13629.53266206  1130.97867390
0.46100002 13646.47908356  1040.27114984
0.46200002 13665.02261895  1518.45738539
0.46300002 13684.39226420  952.43374673
0.46400002 13703.65144591  955.82973365
0.46500002 13724.23860824  1151.18918902
0.46600002 13745.17742467  1347.98961393
0.46700002 13766.48864650  1159.68905855
0.46800002 13789.32665660  1067.08709390
0.46900002 13811.61464662  1265.83454236
0.47000002 13834.78877094  1466.14180949
0.47100002 13858.44404751  981.17788507
0.47200002 13882.72941924  1083.47766888
0.47300002 13907.46329722  1582.11309968
0.47400002 13931.81088870  1091.90573016
0.47500002 13956.96139312  1295.48521791
0.47600002 13982.81534313  1500.70572783
0.47700002 14008.15685010  1104.82338313
