# SAXS profile: number of points = 501, q_min = 0, q_max = 0.5, delta_q = 0.001
#    q    intensity    error
0.00000000 1700912.83420644 280.65061764
0.00100000 1700824.79624008 663.32168629
0.00200000 1700560.66141236 841.77755405
0.00300000 1700120.62765912 1122.07965423
0.00400000 1699504.60043254 1911.94274814
0.00500000 1698713.21854332 2140.37874008
0.00600000 1697746.34496495 2317.42385522
0.00700000 1696604.71424627 2239.51831588
0.00800000 1695288.09552555 2975.23073326
0.00900000 1693797.97247415 3302.90618752
0.01000000 1692133.69047225 3350.42485180
0.01100000 1690296.85457337 3346.78791777
0.01200000 1688287.36977931 4279.80867003
0.01300000 1686106.58319034 4248.98877704
0.01400000 1683754.72751040 4546.13796581
0.01500000 1681233.22817963 4034.95992730
0.01600000 1678541.99866882 5136.33874554
0.01700000 1675683.03959859 6786.51661481
0.01800000 1672656.98670081 7150.60893991
0.01900000 1669464.75075184 5509.23392607
0.02000000 1666107.18233945 6297.88543413
0.02100000 1662587.03115599 6035.19119672
0.02200000 1658902.92843561 7440.17997206
0.02300000 1655058.03467816 5958.20919605
0.02400000 1651052.95948168 10525.46309663
0.02500000 1646890.04501031 8349.73290954
0.02600000 1642569.86103158 6652.40824145
0.02700000 1638094.13544271 8943.99438916
0.02800000 1633463.59545882 8526.68035933
0.02900000 1628681.60922598 8794.88109363
0.03000000 1623748.68296550 9815.56123970
0.03100000 1618666.52723643 12431.35950118
0.03200000 1613436.35536420 9583.81239228
0.03300000 1608062.43115296 9841.34253235
0.03400000 1602543.31570178 10937.35863432
0.03500000 1596882.94341729 10347.80195119
0.03600000 1591082.01198660 12362.70780446
0.03700000 1585143.79096247 11745.91603425
0.03800000 1579069.70334672 10161.31401130
0.03900000 1572862.21054369 10380.89107033
0.04000000 1566521.60089012 15414.57326705
0.04100000 1560051.88303495 12776.82551447
0.04200000 1553454.82808935 12023.74092723
0.04300000 1546732.10654332 13270.96209015
0.04400000 1539886.38467533 12473.08029514
0.04500000 1532920.46941505 10577.15173043
0.04600000 1525834.75473182 13984.27617720
0.04700000 1518633.38414041 16401.24131150
0.04800000 1511317.92149109 13329.82468776
0.04900000 1503891.27419730 14662.94060595
0.05000000 1496354.85095259 11447.11514284
0.05100000 1488713.11868198 13934.35543998
0.05200000 1480965.01875859 17660.50867170
0.05300000 1473116.12506034 13125.46528617
0.05400000 1465167.27938705 18131.44592795
0.05500000 1457122.49343045 14687.79541895
0.05600000 1448982.16326189 19822.07691840
0.05700000 1440751.74696929 15041.44894047
0.05800000 1432430.41965004 13944.71078641
0.05900000 1424022.17323864 14097.82017351
0.06000000 1415530.85702209 15542.52953623
0.06100000 1406957.87125008 14393.17969550
0.06200000 1398305.98854332 29070.78286069
0.06300000 1389578.60625886 16007.94629256
0.06400000 1380775.22581453 13462.55908129
0.06500000 1371901.97464386 19014.56225802
0.06600000 1362960.55952006 17807.08054330
0.06700000 1353952.04224947 15191.34262498
0.06800000 1344880.86525494 13919.51760695
0.06900000 1335750.48743024 16830.45692960
0.07000000 1326560.29067316 14127.86775726
0.07100000 1317314.94884431 21340.50317082
0.07200000 1308016.68243335 15755.06167798
0.07300000 1298668.63114366 15856.74472924
0.07400000 1289274.03306732 23206.93368279
0.07500000 1279832.95666451 20426.13494579
0.07600000 1270349.59513453 14672.53851166
0.07700000 1260827.12805359 14751.67808991
0.07800000 1251267.16913356 16310.26831455
0.07900000 1241671.52152519 16390.06485289
0.08000000 1232045.24971851 19460.15563220
0.08100000 1222389.65830247 21049.55090358
0.08200000 1212705.57402058 15098.18510504
0.08300000 1202997.01339475 18189.31569619
0.08400000 1193266.75130769 15214.15179330
0.08500000 1183516.87140235 15267.36835782
0.08600000 1173749.87038980 15317.43652776
0.08700000 1163968.01474384 16900.81636770
0.08800000 1154172.91925291 15408.20919565
0.08900000 1144368.25547416 16993.86939199
0.09000000 1134556.11034227 18584.02996040
0.09100000 1124738.66508041 18625.67316879
0.09200000 1114917.17020431 15553.09525514
0.09300000 1105096.49604696 18698.23359178
0.09400000 1095275.16061601 17168.43894953
0.09500000 1085457.61202116 15630.59034778
0.09600000 1075645.50084792 17215.70705034
0.09700000 1065843.70521856 23501.85480496
0.09800000 1056050.53738603 18818.82146104
0.09900000 1046270.96435409 23541.09780493
0.10000000 1036503.72034949 18843.63852212
0.10100000 1026752.99706399 20422.11807209
0.10200000 1017020.80965161 23569.45837230
0.10300000 1007308.44541209 18856.81498515
0.10400000 997618.36860723 20426.23705819
0.10500000 987954.28238418 18850.16859478
0.10600001 978312.61210296 17272.10997939
0.10700001 968701.18149738 20400.84784235
0.10800001 959117.31345981 18817.88257568
0.10900001 949565.63704452 20368.18387325
0.11000001 940047.14808791 20347.32147810
0.11100001 930562.39961124 20323.48376420
0.11200001 921114.74533288 17174.18523524
0.11300001 911703.64160542 17149.14630599
0.11400001 902332.65363498 21791.33461132
0.11500001 893002.53542754 17092.06933291
0.11600001 883714.88801077 18611.03641793
0.11700001 874471.36640627 21669.40148007
0.11800001 865271.92453005 23167.65687045
0.11900001 856118.70296814 23115.20606890
0.12000001 847012.94311915 21522.59989848
0.12100001 837957.39586888 15334.62106679
0.12200001 828951.82020123 18352.99416389
0.12300001 819998.31200398 16777.16625405
0.12400001 811096.49683125 16728.86603537
0.12500001 802247.93730702 22743.73009435
0.12600001 793456.09100081 27207.61064253
0.12700001 784719.07414572 19586.58901372
0.12800001 776038.58950568 18019.61689757
0.12900001 767416.61343845 17957.54960084
0.13000001 758853.18797536 22367.19876985
0.13100001 750348.48487840 19313.97091118
0.13200001 741904.12373040 19241.28435599
0.13300001 733522.20005543 14743.79691618
0.13400001 725201.08127316 27902.11291745
0.13500001 716943.92810252 17550.78818744
0.13600001 708748.77738303 16021.26686816
0.13700001 700618.67551559 17403.36872043
0.13800001 692551.71970507 27435.43766985
0.13900001 684551.50206280 14375.58222125
0.14000001 676616.44562190 14310.43849979
0.14100001 668747.40624946 17093.18450990
0.14200001 660944.80089667 17012.71997749
0.14300001 653210.43575196 18342.14990107
0.14400001 645540.79537139 23868.87203475
0.14500001 637941.31199436 18162.19000923
0.14600001 630409.08282314 18070.67721160
0.14700001 622947.13843501 13829.42712568
0.14800001 615550.90584686 16509.07607369
0.14900001 608225.04176012 19159.08971939
0.15000001 600967.50646511 17695.48906279
0.15100001 593779.47452679 14891.98992381
0.15200001 586661.17009098 18849.42428447
0.15300001 579613.45302234 17405.79281562
0.15400001 572632.42832559 21301.92733897
0.15500001 565722.80149742 17209.28843371
0.15600001 558880.19891088 14477.79223606
0.15700001 552110.77283053 18319.03630712
0.15800001 545406.91432849 13007.95552069
0.15900001 538774.68338380 19395.88951731
0.16000001 532209.34446989 16708.71315832
0.16100001 525716.06852078 14052.39117489
0.16200001 519290.49552686 13966.31853649
0.16300001 512933.16016766 16403.60323654
0.16400001 506645.00331044 16301.30375109
0.16500001 500424.38948902 14952.68146387
0.16600001 494272.99124952 18572.30852306
0.16700001 488187.81879188 18453.50042161
0.16800001 482169.55967869 13445.29880648
0.16900001 476220.53059841 15786.71133476
0.17000001 470337.11347506 15683.39178939
0.17100001 464519.71527392 13183.07014200
0.17200001 458769.08759195 13095.56422372
0.17300001 453084.17873024 13008.04738564
0.17400001 447464.64934903 14095.13712015
0.17500001 441909.71257353 19832.90883696
0.17600001 436417.55078710 12745.57517270
0.17700001 430991.58366374 13808.97099279
0.17800001 425627.44004463 15999.33622696
0.17900001 420326.87662047 14753.47406624
0.18000001 415088.83814141 13523.59498543
0.18100001 409914.30684681 13428.79332663
0.18200001 404798.59122506 11111.72185402
0.18300001 399745.09992889 14342.85486300
0.18400001 394751.14622131 15336.08275519
0.18500001 389818.73223599 11963.53745750
0.18600001 384944.19540627 14036.99074865
0.18700001 380127.87794725 10719.60666456
0.18800001 375369.84545960 12770.08274587
0.18900001 370671.03685514 11620.53755445
0.19000001 366025.16382106 13632.60787064
0.19100001 361440.28540013 13532.32492478
0.19200001 356907.93413328 14465.47925394
0.19300001 352433.07577395 13332.54388653
0.19400001 348010.43329722 13233.09735144
0.19500001 343642.77341098 10103.09801571
0.19600001 339328.22676866 13035.29444732
0.19700001 335065.99028088 11941.75245795
0.19800001 330856.08211733 13826.47632511
0.19900001 326698.04527402 12741.22436784
0.20000001 322589.15839444 12643.88266083
0.20100001 318532.08166278 12546.97928970
0.20200001 314522.81698466 14365.83034475
0.20300001 310564.21534495 14254.89815809
0.20400001 306652.84130872 13201.40544231
0.20500001 302788.93291340 13098.64985697
0.20600001 298972.20734870 12068.01372006
0.20700001 295202.25624491 11973.40407927
0.20800001 291476.50755982 10965.34673273
0.20900001 287798.42234365 13598.47609855
0.21000001 284162.86761837 11691.88174086
0.21100001 280571.91086299 9814.40590595
0.21200001 277023.80759973 10621.09328548
0.21300001 273517.60748865 13169.87342319
0.21400001 270054.67551023 9580.19006664
0.21500001 266633.85398407 9502.83100526
0.21600001 263252.74894011 11996.42833637
0.21700001 259912.12907202 10198.95242699
0.21800001 256611.74950521 12644.54455471
0.21900001 253349.30363223 9196.58015668
0.22000001 250125.25841313 11608.31379182
0.22100001 246940.92545615 9867.75984781
0.22200001 243793.88496222 13047.84934014
0.22300001 240682.45805018 8895.62407017
0.22400001 237606.62346823 8821.14631338
0.22500001 234569.60519142 8747.10099121
0.22600001 231565.54020204 12615.69122678
0.22700001 228598.34762527 10945.28940189
0.22800001 225663.81678292 8526.70772037
0.22900001 222762.64936720 8453.84294328
0.23000001 219895.89049140 9143.27155903
0.23100001 217062.57191711 12841.42236192
0.23200001 214259.74931989 7488.37859288
0.23300001 211489.72899191 8165.61882257
0.23400001 208751.65416363 8830.19538875
0.23500001 206042.49196548 7293.90456055
0.23600001 203365.75206585 9398.54867625
0.23700001 200718.14465226 9315.32953391
0.23800001 198100.54252923 9942.66669982
0.23900001 195511.60810731 10557.62733717
0.24000001 192951.40563779 9067.75173686
0.24100001 190420.90761651 8294.73512813
0.24200001 187917.47422082 8219.51071122
0.24300001 185441.93667881 8144.61024420
0.24400001 182993.30979523 6725.00445309
0.24500001 180571.51478727 7995.70705301
0.24600001 178176.60097838 7261.58771638
0.24700001 175807.68687207 7194.05088713
0.24800001 173464.64255294 10366.24752936
0.24900001 171146.26794504 7059.78388671
0.25000001 168854.14668786 6993.09481591
0.25100001 166585.49560085 8186.01164110
0.25200001 164342.88618089 8731.53795588
0.25300001 162124.53652761 6794.63964733
0.25400001 159929.38341094 7340.75904586
0.25500001 157757.60371211 9692.62763065
0.25600001 155609.85633088 10797.76844167
0.25700001 153484.44942823 8315.78786347
0.25800001 151382.54134991 5881.21200971
0.25900001 149303.11770661 6987.38623928
0.26000001 147245.89011882 7494.07993218
0.26100001 145210.14846187 7989.46274640
0.26200001 143197.03595560 7343.86033647
0.26300001 141204.72090520 6710.04865492
0.26400001 139234.18630469 7194.92691775
0.26500001 137285.16802045 6025.44630953
0.26600001 135356.07900706 5963.11234283
0.26700001 133448.78625952 5901.10560764
0.26800001 131562.51192772 6901.11188974
0.26900001 129694.89894701 6828.43675269
0.27000001 127848.57201751 6236.45363814
0.27100001 126021.75933258 5141.68802409
0.27200001 124216.19161905 6103.98394502
0.27300001 122429.19049400 5535.02396417
0.27400001 120659.89077204 5972.66487587
0.27500001 118912.79265337 6399.88680348
0.27600001 117182.57201496 4868.93609765
0.27700001 115472.83093250 6741.30418888
0.27800001 113780.99702996 6666.42893149
0.27900001 112109.10272636 6121.15729856
0.28000001 110454.20991137 5586.77420173
0.28100001 108818.58494414 5063.32899709
0.28200001 107201.85650913 8191.29424355
0.28300001 105602.80259776 6748.01940538
0.28400001 104021.53386246 4891.61286141
0.28500001 102458.60022565 5274.56898927
0.28600001 100913.26723613 5647.61126818
0.28700001 99385.79509228  5152.15986145
0.28800001 97874.96311292  5091.45582213
0.28900001 96383.67450560  4192.69003945
0.29000001 94908.00121069  4557.00789383
0.29100001 93450.57494481  4093.13537633
0.29200001 92010.11670348  6874.53619491
0.29300001 90586.75968161  4394.36392017
0.29400001 89179.83295940  5919.31169288
0.29500001 87790.85476982  4677.49696355
0.29600001 86418.03206403  4234.91586177
0.29700001 85061.71564110  4182.48475606
0.29800001 83722.05076878  4130.42757021
0.29900001 82399.60496400  5191.17535848
0.30000001 81092.74761134  4393.60527357
0.30100001 79803.43927775  5422.64395563
0.30200001 78528.70637597  4282.95584850
0.30300001 77271.49994462  4580.65473357
0.30400001 76030.26908185  3826.22347268
0.30500001 74804.58964854  4806.94315839
0.30600001 73594.22540896  3389.01424053
0.30700001 72400.74466782  4682.88038682
0.30800001 71222.66423235  5281.87302953
0.30900001 70060.29606516  3583.58431340
0.31000001 68913.84682567  3857.79732795
0.31100001 67781.91778905  4758.29085407
0.31200001 66666.07026917  3129.97214733
0.31300001 65565.08388798  3396.92715707
0.31400001 64480.47867420  4570.05414241
0.31500001 63409.92053743  3005.63037578
0.31600002 62354.90252178  3557.97090635
0.31700002 61314.83648952  4094.60497464
0.31800002 60289.72768090  3750.32268796
0.31900002 59279.49065615  2845.41568622
0.32000002 58284.40490563  3648.31249781
0.32100002 57303.14588723  3321.29049289
0.32200002 56337.68699065  4094.34159591
0.32300002 55385.05197756  2960.88501892
0.32400002 54447.25163702  2919.73400729
0.32500002 53523.98647242  4187.71689990
0.32600002 52615.34449331  3871.17415440
0.32700002 51720.01153718  3308.01209456
0.32800002 50839.48817244  2759.82174613
0.32900002 49972.34089138  3463.08338776
0.33000002 49120.03085375  2926.57157685
0.33100002 48278.94987316  3125.57936280
0.33200002 47454.49321270  3081.45766269
0.33300002 46642.11668950  3037.80120384
0.33400002 45843.77722646  2764.37989766
0.33500002 45057.55529874  2497.99098406
0.33600002 44285.91264783  2686.38358843
0.33700002 43526.11923114  2427.45178448
0.33800002 42780.60007398  2610.47234014
0.33900002 42046.89643324  2787.70936554
0.34000002 41326.60254701  3170.78373058
0.34100002 40618.80842609  2083.74497094
0.34200002 39924.19725705  2054.10004616
0.34300002 39240.80654020  2227.30828471
0.34400002 38571.43579001  2195.67908633
0.34500002 37913.24233641  2754.77631863
0.34600002 37268.30610754  2133.79696725
0.34700002 36633.72838344  1912.28071218
0.34800002 36012.56666226  2639.36113568
0.34900002 35402.46053245  2973.80682557
0.35000002 34804.37045734  2748.67528705
0.35100002 34218.39072378  1806.73111579
0.35200002 33642.56135692  1959.51107904
0.35300002 33078.60033242  2986.00539343
0.35400002 32526.09669618  2078.41767733
0.35500002 31984.94345524  2391.19448597
0.35600002 31453.71800948  2189.65068294
0.35700002 30933.80749959  1661.14554141
0.35800002 30425.45805849  1638.41099405
0.35900002 29927.28167142  2747.32458757
0.36000002 29439.92555230  1913.00645300
0.36100002 28962.17627127  1572.64624602
0.36200002 28495.82966034  2482.55679760
0.36300002 28038.62438731  1837.09075687
0.36400002 27591.46653609  1661.69615085
0.36500002 27154.12271491  2832.44667456
0.36600002 26726.88198035  2501.23536861
0.36700002 26308.66478265  2033.13371071
0.36800002 25901.61670896  3440.77092660
0.36900002 25502.76581252  2264.64571143
0.37000002 25112.88635272  1956.54506842
0.37100002 24731.98028188  1518.04902161
0.37200002 24361.13378258  2180.80879952
0.37300002 23998.46392316  1346.31388986
0.37400002 23644.58355423  1729.01025431
0.37500002 23299.75422833  1576.92744087
0.37600002 22963.57487292  2077.74435293
0.37700002 22635.26769198  1540.10368672
0.37800002 22315.04525263  1268.61038271
0.37900002 22003.78456126  1254.21577941
0.38000002 21700.30761802  1612.22443086
0.38100002 21403.77118688  1349.07976182
0.38200002 21116.11340465  1455.74492708
0.38300002 20835.29894483  1320.12460368
0.38400002 20562.90664949  2137.51424748
0.38500002 20296.59919465  1762.75972357
0.38600002 20038.93891472  1512.23859684
0.38700002 19787.60480181  1381.96638483
0.38800002 19543.48976287  1368.43521803
0.38900002 19305.83199346  1355.26947015
0.39000002 19076.02808853  1678.21365060
0.39100002 18851.83488342  1219.33673803
0.39200002 18634.75401562  1208.37068139
0.39300002 18423.73944701  1524.38027407
0.39400002 18220.38226515  1187.51347039
0.39500002 18022.04451291  1712.81519166
0.39600002 17829.78289878  1486.46907070
0.39700002 17643.50639611  1579.97607263
0.39800002 17463.48445872  1463.26543212
0.39900002 17288.71087176  1141.05497160
0.40000002 17119.53818973  1235.68832508
0.40100002 16956.23686119  1329.19947053
0.40200002 16798.67289933  1218.57578985
0.40300002 16645.54056086  1311.33574752
0.40400002 16498.20993294  1302.94619119
0.40500002 16356.03033060  1195.29875319
0.40600002 16218.57201227  1287.18702874
0.40700002 16086.12727401  1181.36524298
0.40800002 15958.58909005  1272.77733318
0.40900002 15835.46938865  1460.82212032
0.41000002 15717.32944725  1356.56276887
0.41100002 15603.30980446  1832.14072405
0.41200002 15493.46665706  1151.78436586
0.41300002 15388.59816095  1433.44798661
0.41400002 15287.32491688  1332.29042963
0.41500002 15190.53912114  1232.25659190
0.41600002 15096.97101854  1416.47337293
0.41700002 15007.76589518  940.98696622
0.41800002 14923.29701763  1125.51511440
0.41900002 14840.55048315  1495.92755959
0.42000002 14762.77351443  1118.72302993
0.42100002 14688.77076684  1022.77915696
0.42200002 14618.10767726  1020.27087368
0.42300002 14550.20717005  1388.08982980
0.42400002 14485.66016426  1108.15305508
0.42500002 14424.60947893  1290.42562513
0.42600002 14365.80722148  1288.18199459
0.42700002 14311.30174081  1194.42129989
0.42800002 14258.80382413  1101.06488348
0.42900002 14210.36908545  916.56884944
0.43000002 14164.02693429  1098.84526163
0.43100002 14119.49086904  1097.93166200
0.43200002 14078.71744009  914.41274107
0.43300002 14040.37680865  1279.64000298
0.43400002 14004.45853525  1096.54915527
0.43500002 13970.71272582  1096.42158668
0.43600002 13939.71224236  913.74818079
0.43700002 13910.54379172  1279.49187860
0.43800002 13883.33243854  1097.06098128
0.43900002 13859.13593725  1006.17331673
0.44000002 13836.43938082  1006.80855926
0.44100002 13816.06657561  916.00525737
0.44200002 13797.51092250  1191.89803752
0.44300002 13780.90121560  1284.93129024
0.44400002 13766.37779355  1102.68691352
0.44500002 13752.50866596  1564.07288470
0.44600002 13740.72169604  1658.36778009
0.44700002 13731.68619053  1199.60016246
0.44800002 13722.44286343  1016.62722772
0.44900002 13716.68633409  1018.46400857
0.45000002 13711.55422894  1669.65603759
0.45100002 13707.58958159  1301.12446475
0.45200002 13705.35100734  1024.40650959
0.45300002 13703.90975750  1026.55992859
0.45400002 13704.27120130  1122.37986458
0.45500002 13705.79375884  1124.97160504
0.45600002 13708.34058002  1033.67747043
0.45700002 13712.08146405  1318.82805772
0.45800002 13716.52981674  1605.45130849
0.45900002 13722.04278856  1420.23149593
0.46000002 13729.38983445  1329.14229287
0.46100002 13736.47852202  1237.51940870
0.46200002 13745.38248967  1336.46360281
0.46300002 13755.05912447  1053.08737648
0.46400002 13764.85344835  1152.11828823
0.46500002 13775.96284570  1348.11578798
0.46600002 13787.58190136  1255.56620536
0.46700002 13799.45669953  1259.33847809
0.46800002 13813.19085764  1166.10962747
0.46900002 13826.39666207  1267.18931414
0.47000002 13840.49520771  1466.74654916
0.47100002 13855.19757237  1471.42205193
0.47200002 13870.67051728  1869.83582771
0.47300002 13886.61450104  1283.53983917
0.47400002 13902.20382138  1188.63848307
0.47500002 13918.75660076  1391.31897576
0.47600002 13936.21531842  1395.99075461
0.47700002 13953.08770269  1300.56736641
