# SAXS profile: number of points = 501, q_min = 0, q_max = 0.5, delta_q = 0.001
#    q    intensity    error
0.00000000 1682732.95097188 277.65093691
0.00100000 1682645.41096533 706.71108939
0.00200000 1682382.76693333 908.48672291
0.00300000 1681945.22654086 1110.08388906
0.00400000 1681332.67998270 1513.19946948
0.00500000 1680545.77512133 1814.98950897
0.00600000 1679584.37223539 2468.98912770
0.00700000 1678449.20261809 2618.38086490
0.00800000 1677140.03042855 2716.96696400
0.00900000 1675658.35787622 3518.88270196
0.01000000 1674003.51521499 3038.31651131
0.01100000 1672177.10015506 3912.89458473
0.01200000 1670179.00980661 3582.53413311
0.01300000 1668010.60112322 4203.38690022
0.01400000 1665672.12349026 3747.76244399
0.01500000 1663165.00569938 4390.75581056
0.01600000 1660489.09486218 5504.52159554
0.01700000 1657646.43333416 4475.64557077
0.01800000 1654637.68414455 6130.43289561
0.01900000 1651463.68136204 7927.02602823
0.02000000 1648125.34219664 6229.91407532
0.02100000 1644625.35065080 7055.44307417
0.02200000 1640962.39338297 8491.98077157
0.02300000 1637139.61559780 8840.55432664
0.02400000 1633157.55163326 9798.94575661
0.02500000 1629018.69076839 7623.80782098
0.02600000 1624723.43135376 7896.15623754
0.02700000 1620273.63095682 9527.20938638
0.02800000 1615669.90366762 7730.98084359
0.02900000 1610915.65354832 9423.85700595
0.03000000 1606011.44543769 8961.54427746
0.03100000 1600958.89731546 8453.06336678
0.03200000 1595759.31315616 10268.71165312
0.03300000 1590416.87875791 8922.23910115
0.03400000 1584930.13630169 10817.14867937
0.03500000 1579303.04708812 11086.70790252
0.03600000 1573536.24525558 10479.75187771
0.03700000 1567633.14516238 11616.16214287
0.03800000 1561595.02078552 10048.86442381
0.03900000 1555424.38994012 12132.31080338
0.04000000 1549121.45875125 10479.80715408
0.04100000 1542690.47093593 10690.84545928
0.04200000 1536132.82520801 10898.86290048
0.04300000 1529450.40472997 11103.81045376
0.04400000 1522645.92009792 13361.21856938
0.04500000 1515722.13464925 12550.17985804
0.04600000 1508679.27030570 13827.04615513
0.04700000 1501521.61286248 15135.33856157
0.04800000 1494250.76813050 15375.84111947
0.04900000 1486869.39941719 16727.28152206
0.05000000 1479379.24727803 13580.70212241
0.05100000 1471784.58420824 11479.92029161
0.05200000 1464084.23119122 19787.09930665
0.05300000 1456283.92907303 14155.08045047
0.05400000 1448384.52642655 15533.92477033
0.05500000 1440389.84303628 12099.27524593
0.05600000 1432300.53352575 18369.25519965
0.05700000 1424121.76452796 12389.85992973
0.05800000 1415852.96327036 18795.44896502
0.05900000 1407497.96088170 13934.23046354
0.06000000 1399060.59521285 14081.54554869
0.06100000 1390542.26516637 12932.04367038
0.06200000 1381945.77663819 15671.26583961
0.06300000 1373274.58246409 14501.78026886
0.06400000 1364527.97425208 15964.97804538
0.06500000 1355712.37494417 21474.48502364
0.06600000 1346829.25859722 16242.76161866
0.06700000 1337879.58859892 17740.28417505
0.06800000 1328867.97888306 15129.16264777
0.06900000 1319797.81215256 19401.02874698
0.07000000 1310668.58142206 15354.48315039
0.07100000 1301484.93133013 22489.66066675
0.07200000 1292248.75108912 18395.16183351
0.07300000 1282963.63209100 14240.89698348
0.07400000 1273632.40305081 18626.87476755
0.07500000 1264255.56464924 18736.26834632
0.07600000 1254836.70927013 15942.70113868
0.07700000 1245379.58695275 20399.31859078
0.07800000 1235885.43604537 16109.76741434
0.07900000 1226356.18967696 17659.52995965
0.08000000 1216797.02744532 16262.49303470
0.08100000 1207208.83526730 16333.53630751
0.08200000 1197592.98138107 16401.03664964
0.08300000 1187952.91371948 17961.84889842
0.08400000 1178291.90248316 15023.22246183
0.08500000 1168611.64438732 15075.09092030
0.08600000 1158914.94358197 16636.22479621
0.08700000 1149203.67119132 16686.43808925
0.08800000 1139479.79141290 16733.26152276
0.08900000 1129746.75674753 19827.05651219
0.09000000 1120006.68185141 24460.94708070
0.09100000 1110261.73224954 19918.09641233
0.09200000 1100513.31974074 15352.16153173
0.09300000 1090766.07489627 23069.70356815
0.09400000 1081018.67731554 20025.87193844
0.09500000 1071275.42976579 15426.36691371
0.09600000 1061538.02643132 16989.91691169
0.09700000 1051811.22296587 24738.60112719
0.09800000 1042093.78906056 18570.11219418
0.09900000 1032389.85757321 15485.84859178
0.10000000 1022698.89223408 17043.27784058
0.10100000 1013024.78747911 18599.13597287
0.10200000 1003369.41182439 18602.46977022
0.10300000 993734.33224844 15502.25631231
0.10400000 984122.02083700 15499.92255738
0.10500000 974535.74457679 15495.11906781
0.10600001 964972.26474734 20134.14725134
0.10700001 955439.29627657 18573.74079365
0.10800001 945934.18691940 21652.43455759
0.10900001 936461.62851783 20087.10287712
0.11000001 927022.48127175 20065.40255160
0.11100001 917617.20618751 23123.95468445
0.11200001 908249.38705428 16934.31061885
0.11300001 898918.32484795 15371.50407860
0.11400001 889627.52210500 19949.89812253
0.11500001 880378.03380098 16850.43636040
0.11600001 871171.06030411 19875.76867682
0.11700001 862008.29737992 22886.32137327
0.11800001 852889.99641634 21313.72201428
0.11900001 843817.93843541 15188.72360725
0.12000001 834793.54713201 21212.10503182
0.12100001 825819.65772299 19646.25058273
0.12200001 816895.78923348 16578.90082355
0.12300001 808023.95870312 21040.94487596
0.12400001 799204.18944871 22477.61888733
0.12500001 790437.62014952 17927.12606973
0.12600001 781727.86431832 16381.10816872
0.12700001 773073.11228126 19295.90579189
0.12800001 764475.03512701 17751.11115225
0.12900001 755935.24667083 16214.81180533
0.13000001 747454.37266518 14687.47911516
0.13100001 739032.11889926 21949.25496594
0.13200001 730670.39323577 16034.56253543
0.13300001 722371.10027651 18875.55774008
0.13400001 714132.61822374 17353.42344097
0.13500001 705957.98939877 14401.54366274
0.13600001 697845.41647683 18642.94118021
0.13700001 689798.03918704 15706.70209291
0.13800001 681813.89589149 17058.98447963
0.13900001 673896.01317077 18397.36202715
0.14000001 666043.53981840 15495.50368465
0.14100001 658257.02949048 19629.22554518
0.14200001 650536.80831998 19535.62127525
0.14300001 642884.88036809 18052.20829222
0.14400001 635297.69880327 13817.72560075
0.14500001 627780.32132051 16498.06762255
0.14600001 620330.33643191 15046.11301995
0.14700001 612950.49271418 16329.00189625
0.14800001 605636.13431293 18950.35553670
0.14900001 598392.03486813 20195.73212965
0.15000001 591216.38139750 20086.57750572
0.15100001 584110.04246862 18644.79343535
0.15200001 577073.09377707 14568.21093983
0.15300001 570106.73615643 15803.35947200
0.15400001 563206.80003634 17022.92633443
0.15500001 556378.24759043 15623.10192964
0.15600001 549616.55020301 16826.51147859
0.15700001 542927.65306521 15440.86318193
0.15800001 536304.27569305 19186.28636849
0.15900001 529752.44786643 13985.46528380
0.16000001 523267.20041697 13900.59383522
0.16100001 516853.80346587 16327.41242221
0.16200001 510507.90543229 13730.11076475
0.16300001 504230.09041745 13644.46689082
0.16400001 498020.99541143 13558.62224017
0.16500001 491879.49062068 17146.91985257
0.16600001 485806.81399348 14603.35351811
0.16700001 479800.05937381 22972.82792747
0.16800001 473860.12646611 15616.06120502
0.16900001 467989.12897592 13127.09568761
0.17000001 462183.23210676 15411.50060233
0.17100001 456443.35833244 15309.11096139
0.17200001 450769.83841969 12867.22564532
0.17300001 445161.75128922 15104.33893454
0.17400001 439618.68327917 17309.98647160
0.17500001 434140.07736626 12607.42844213
0.17600001 428723.91072274 14797.40647746
0.17700001 423373.48787934 13564.88719233
0.17800001 418084.58710688 11225.57169403
0.17900001 412859.01749093 14491.35219841
0.18000001 407695.64866253 12175.83112243
0.18100001 402595.50443422 12089.94356925
0.18200001 397553.65544289 13095.41802889
0.18300001 392573.69183747 15169.04816918
0.18400001 387653.10320301 10757.37412207
0.18500001 382793.66464270 14951.92124730
0.18600001 377991.43032211 12723.19214573
0.18700001 373247.43603152 15788.36729005
0.18800001 368561.08255711 12538.44862099
0.18900001 363933.69467557 10372.11078831
0.19000001 359358.95948067 10295.63467558
0.19100001 354844.70687837 12263.43364916
0.19200001 350382.51987775 12172.28931571
0.19300001 345977.49644185 10067.94562219
0.19400001 341624.35979155 15988.02079374
0.19500001 337325.83760428 9917.38009421
0.19600001 333079.86089412 13779.51449636
0.19700001 328885.75967660 10744.69827640
0.19800001 324743.79016019 10662.96285383
0.19900001 320652.93745311 11543.50629386
0.20000001 316611.15431739 12409.57477996
0.20100001 312620.62460020 11366.88644769
0.20200001 308677.50885899 12218.99976570
0.20300001 304784.47804424 12124.32710965
0.20400001 300938.39201543 13880.78398780
0.20500001 297139.28512545 10099.76477880
0.20600001 293386.95878408 10020.63205093
0.20700001 289680.81355226 14460.86689608
0.20800001 286018.64290435 11656.69034258
0.20900001 282403.63285286 9785.28634091
0.21000001 278830.63469477 12354.98600737
0.21100001 275301.73231063 13131.89325201
0.21200001 271815.30319628 13895.19895628
0.21300001 268370.36313476 12060.56468945
0.21400001 264968.09400354 11963.31000984
0.21500001 261607.54274758 12714.12717863
0.21600001 258286.24886924 13451.54847708
0.21700001 255005.14655879 10840.26929274
0.21800001 251763.48965989 12405.64653954
0.21900001 248559.48696991 8202.46345783
0.22000001 245393.38266172 9761.74922384
0.22100001 242266.45653457 8067.47338406
0.22200001 239176.51114701 13600.77294948
0.22300001 236121.52362694 9520.42028282
0.22400001 233101.87825539 7867.18876313
0.22500001 230120.36540019 7801.08075596
0.22600001 227171.32531569 8508.70239206
0.22700001 224258.68205464 8436.61201786
0.22800001 221378.46314235 9125.22068226
0.22900001 218530.94194042 9801.11320953
0.23000001 215717.31102278 7474.60518043
0.23100001 212936.67980957 9633.25585017
0.23200001 210186.16521992 10284.40955060
0.23300001 207467.74037974 7282.11803173
0.23400001 204780.98266894 9384.08897463
0.23500001 202122.62550270 7870.65540933
0.23600001 199496.15463154 7801.29749584
0.23700001 196898.45350907 7029.27512274
0.23800001 194330.09699775 8360.08116826
0.23900001 191790.14066006 9666.22354648
0.24000001 189278.27714818 8210.89205107
0.24100001 186795.66516220 8136.81955935
0.24200001 184339.73432723 10750.69381449
0.24300001 181911.23725479 10652.72255754
0.24400001 179508.99287171 6596.95580010
0.24500001 177133.22056383 9150.70260720
0.24600001 174783.84726824 7770.89021715
0.24700001 172460.03317072 8981.71895242
0.24800001 170161.57569367 10168.85624451
0.24900001 167887.31265373 9443.66178353
0.25000001 165638.79688178 9978.08159620
0.25100001 163413.30975357 6177.02340091
0.25200001 161213.57461982 7953.47208015
0.25300001 159037.40343177 9694.92057187
0.25400001 156884.05139021 6600.89677454
0.25500001 154753.65909134 8913.81118539
0.25600001 152646.76961525 8826.79987062
0.25700001 150561.72548414 8740.10857788
0.25800001 148499.83088861 5769.21870299
0.25900001 146459.84880747 6283.12781113
0.26000001 144441.70701680 5654.89309727
0.26100001 142444.51409120 6157.87663553
0.26200001 140469.66327049 7758.13986952
0.26300001 138515.08813319 7679.27684947
0.26400001 136581.74382350 8686.59931821
0.26500001 134669.56260026 5910.64738221
0.26600001 132776.86340186 5317.71363088
0.26700001 130905.60077688 6841.12702032
0.26800001 129054.72322064 6769.56582688
0.26900001 127222.22725022 5667.75049220
0.27000001 125410.63024802 5607.73659691
0.27100001 123618.03654804 6556.70096879
0.27200001 121846.21502727 6985.44383809
0.27300001 120092.67094665 5922.97081139
0.27400001 118356.36155042 7323.30021751
0.27500001 116641.77555392 6760.55763105
0.27600001 114943.64762736 5253.49966344
0.27700001 113265.68741011 6140.13320509
0.27800001 111605.16665419 6071.87937919
0.27900001 109964.25378350 6465.89842849
0.28000001 108339.81620612 5479.82816306
0.28100001 106734.34832051 4966.34946241
0.28200001 105147.33755453 4463.50469045
0.28300001 103577.51866613 4412.40250402
0.28400001 102025.22935203 5670.05238961
0.28500001 100490.83754238 6466.58570192
0.28600001 98973.74187395  4260.81978935
0.28700001 97473.98148389  8000.66477889
0.28800001 95990.62544676  4993.43257209
0.28900001 94526.30786407  4934.27350406
0.29000001 93077.37696572  4469.11046655
0.29100001 91646.28170354  6422.57172580
0.29200001 90231.74543322  3965.68539951
0.29300001 88833.99963522  4701.09548323
0.29400001 87452.22430296  4256.73721945
0.29500001 86088.12965851  4586.77576533
0.29600001 84739.79574072  4907.70550264
0.29700001 83407.76533407  4473.99274431
0.29800001 82091.95198169  4786.37148687
0.29900001 80792.97128669  4362.82065601
0.30000001 79509.26781606  4307.81233420
0.30100001 78242.74639567  6379.91384313
0.30200001 76990.43582886  5598.74475852
0.30300001 75755.47237733  4836.22958552
0.30400001 74536.01665308  3751.02521565
0.30500001 73332.03304283  4375.72261882
0.30600001 72142.76545016  4983.26175939
0.30700001 70970.27242827  4590.35743798
0.30800001 69812.78593010  3559.40505916
0.30900001 68670.69823191  3512.50638086
0.31000001 67544.22124537  5041.50091244
0.31100001 66431.96409916  3730.81928045
0.31200001 65335.51478786  3681.00307743
0.31300001 64253.61401635  4236.88350884
0.31400001 63187.94493865  3881.31970162
0.31500001 62135.84947802  3534.28728565
0.31600002 61099.14204651  3776.84364443
0.31700002 60077.07785101  3152.24442410
0.31800002 59069.66785651  3674.42886299
0.31900002 58076.92226742  3066.46164091
0.32000002 57098.94579757  4123.97155550
0.32100002 56134.62370586  3253.56294405
0.32200002 55185.81210225  2673.75272296
0.32300002 54249.53619225  3163.83310054
0.32400002 53328.05840767  3379.66586162
0.32500002 52420.66627636  2563.37070229
0.32600002 51527.69150251  2780.17672667
0.32700002 50647.85502338  2741.06204366
0.32800002 49782.51875121  3193.79764172
0.32900002 48930.28360747  4359.68847587
0.33000002 48092.70639816  3820.48477718
0.33100002 47266.08563524  4001.54699937
0.33200002 46455.92514160  3016.61564192
0.33300002 45657.64221409  2287.44798325
0.33400002 44873.09970602  2480.36070371
0.33500002 44100.50697458  2889.46535381
0.33600002 43342.28965772  3067.33398434
0.33700002 42595.79845858  2807.48920936
0.33800002 41863.22111473  2980.24285229
0.33900002 41142.39596423  2308.08852290
0.34000002 40434.65476098  2275.05595787
0.34100002 39739.26873476  2242.48704090
0.34200002 39056.88036066  2612.31956664
0.34300002 38385.61022398  2178.76733950
0.34400002 37728.05636604  1952.42700941
0.34500002 37081.60028660  2309.44217522
0.34600002 36448.11332550  1897.12438844
0.34700002 35824.86679398  1870.05813521
0.34800002 35214.92964320  2027.85181955
0.34900002 34615.81686640  2725.99570734
0.35000002 34028.50925866  2508.24153625
0.35100002 33453.22641802  2472.86261394
0.35200002 32887.85388783  2263.83552959
0.35300002 32334.27914837  2747.12048656
0.35400002 31792.00158533  2031.50899752
0.35500002 31260.84265379  2003.19489213
0.35600002 30739.52765968  1810.71196256
0.35700002 30229.43882178  1947.98512994
0.35800002 29730.62311989  1600.99413084
0.35900002 29241.95537211  1894.87879786
0.36000002 28763.92388297  2024.83651765
0.36100002 28295.36463900  1997.36988448
0.36200002 27838.08557576  1970.51898082
0.36300002 27389.83830023  2093.67933884
0.36400002 26951.46146893  2213.38887798
0.36500002 26522.81084909  1747.32286150
0.36600002 26104.15821268  2586.66115982
0.36700002 25694.46771291  2127.50202741
0.36800002 25295.69380954  1540.12839055
0.36900002 24905.04369488  1796.89898770
0.37000002 24523.24988641  1364.71892082
0.37100002 24150.47831830  1347.59675400
0.37200002 23787.44851943  1996.36171156
0.37300002 23432.63268718  1577.48490723
0.37400002 23086.41063493  2077.77705557
0.37500002 22749.22027262  1283.05608416
0.37600002 22420.45377633  1901.81508167
0.37700002 22099.54432049  1503.65306680
0.37800002 21786.71209741  1486.28956969
0.37900002 21482.62101320  1224.50945576
0.38000002 21186.24724966  1574.03231398
0.38100002 20896.71511643  1197.38183290
0.38200002 20616.02049271  1302.82947676
0.38300002 20342.07705373  1406.04443256
0.38400002 20076.50859045  1507.24395383
0.38500002 19816.94722790  1721.10194828
0.38600002 19565.85922980  1135.79818210
0.38700002 19321.09066715  2024.07755418
0.38800002 19083.45527338  1558.92753514
0.38900002 18852.18577362  1543.99408801
0.39000002 18628.73040704  2294.40768928
0.39100002 18410.79747400  1515.57691986
0.39200002 18199.90296023  1287.46119640
0.39300002 17995.03453333  1276.20790957
0.39400002 17797.76329020  1265.42102989
0.39500002 17605.39576146  1254.91266933
0.39600002 17419.13895840  1348.50270635
0.39700002 17238.77265957  1337.90120950
0.39800002 17064.45089643  1021.30743454
0.39900002 16895.53113839  1216.47829960
0.40000002 16732.08815672  1006.43515031
0.40100002 16574.49047575  999.44182304
0.40200002 16422.48412053  992.73921212
0.40300002 16274.94035934  1183.51371901
0.40400002 16133.11012362  1176.10378374
0.40500002 15996.34129441  1461.26584648
0.40600002 15864.37408069  1065.37209187
0.40700002 15737.23590485  1155.74265961
0.40800002 15615.03064830  1053.78039323
0.40900002 15497.15824468  1048.38280493
0.41000002 15384.22249317  1043.28109781
0.41100002 15275.43509061  1038.42412666
0.41200002 15170.70590001  1127.79033004
0.41300002 15070.93080846  1403.85727133
0.41400002 14974.75814583  1211.83236037
0.41500002 14882.96081857  1207.30583881
0.41600002 14794.42053791  1017.93015334
0.41700002 14710.15893194  1014.55970961
0.41800002 14630.59543903  1195.39285699
0.41900002 14552.76998095  916.82455224
0.42000002 14479.85378488  914.40280984
0.42100002 14410.57847510  1550.72242319
0.42200002 14344.71726848  1092.20682458
0.42300002 14281.59957073  1089.97173089
0.42400002 14221.67827134  1087.95843931
0.42500002 14165.36468984  995.68353123
0.42600002 14111.21727948  1174.97056245
0.42700002 14061.35259071  1263.83443074
0.42800002 14013.41350371  991.93952186
0.42900002 13969.51453845  991.13710347
0.43000002 13927.73984281  1260.59979291
0.43100002 13887.70433720  989.91561207
0.43200002 13851.41871817  1259.50956373
0.43300002 13817.49452989  1349.27840478
0.43400002 13785.98241823  1259.34955358
0.43500002 13756.65598538  1079.62241289
0.43600002 13730.01891360  1170.00361717
0.43700002 13705.14345310  990.47076429
0.43800002 13682.33213011  1081.17793616
0.43900002 13662.37922755  991.88877893
0.44000002 13643.93001730  1173.30981744
0.44100002 13627.81371500  1355.28613818
0.44200002 13613.47424954  995.07694743
0.44300002 13601.04439353  996.41255949
0.44400002 13590.74060399  997.90017614
0.44500002 13580.98544535  1181.13836016
0.44600002 13573.36305297  1274.13165016
0.44700002 13568.38030522  1185.33375964
0.44800002 13563.25627087  1278.87949439
0.44900002 13561.49267395  1098.48095865
0.45000002 13560.42759318  1284.30815822
0.45100002 13560.47710467  1103.28046952
0.45200002 13562.15981746  1198.01344425
0.45300002 13564.75291551  1016.13568906
0.45400002 13569.02141339  1111.30290642
0.45500002 13574.45873261  1114.19162558
0.45600002 13580.88144504  1117.16336062
0.45700002 13588.47900500  1213.58711745
0.45800002 13596.73986151  1123.36270060
0.45900002 13606.12361861  1314.35160385
0.46000002 13617.23270498  941.63168618
0.46100002 13628.06990492  1038.86781809
0.46200002 13640.75551195  947.35051520
0.46300002 13654.15783578  1140.39531649
0.46400002 13667.63519343  1048.64935992
0.46500002 13682.41506992  1147.68103046
0.46600002 13697.69096769  1055.47562754
0.46700002 13713.27441350  1347.74067324
0.46800002 13730.58286380  1159.13586030
0.46900002 13747.33265274  1066.10569775
0.47000002 13765.02322596  1069.74883071
0.47100002 13783.26391400  1073.44064450
0.47200002 13802.24300768  1468.90378171
0.47300002 13821.65396811  982.71964371
0.47400002 13840.76251721  1282.00068892
0.47500002 13860.74093853  1088.62264491
0.47600002 13881.56898275  1092.54893857
0.47700002 13901.83088232  1295.78971796
