# SAXS profile: number of points = 501, q_min = 0, q_max = 0.5, delta_q = 0.001
#    q    intensity    error
0.00000000 1700912.83420644 280.65061764
0.00100000 1700824.90540573 765.37122561
0.00200000 1700561.09552719 765.25251722
0.00300000 1700121.60884228 1428.10220230
0.00400000 1699506.34863724 2039.40769586
0.00500000 1698715.94534457 1528.84441132
0.00600000 1697750.27439835 2139.16543283
0.00700000 1696610.05491748 2035.93215051
0.00800000 1695295.06132965 2746.37811531
0.00900000 1693806.81946130 2794.78137158
0.01000000 1692144.58267990 3350.44641838
0.01100000 1690310.03618117 3346.81401736
0.01200000 1688303.04958544 3950.62930924
0.01300000 1686124.96314107 3894.94883664
0.01400000 1683776.00277026 4546.19540902
0.01500000 1681257.69575964 4842.02237940
0.01600000 1678569.80350887 4708.38850932
0.01700000 1675714.38646691 6334.20066499
0.01800000 1672692.11344474 6197.32455918
0.01900000 1669503.85545680 6010.21415084
0.02000000 1666150.46580941 5248.37420471
0.02100000 1662634.72119395 8230.04224305
0.02200000 1658955.23975811 9157.43333951
0.02300000 1655115.14864873 8341.78072889
0.02400000 1651115.02890217 7430.01796885
0.02500000 1646957.43060306 7707.76112724
0.02600000 1642642.58900714 8648.51362669
0.02700000 1638172.52901462 7568.35743069
0.02800000 1633547.75417142 7105.93305652
0.02900000 1628771.76789032 9528.31527964
0.03000000 1623845.04044555 12836.49563476
0.03100000 1618769.23827415 9324.11124149
0.03200000 1613545.70284003 8785.75675662
0.03300000 1608178.63220474 11482.39596329
0.03400000 1602666.53167172 8413.99967950
0.03500000 1597013.24900377 8623.87194285
0.03600000 1591219.64739946 10597.52334143
0.03700000 1585288.98034487 9939.76236645
0.03800000 1579222.56641839 12009.98817343
0.03900000 1573023.02124706 12269.58013393
0.04000000 1566690.45700514 10598.66143277
0.04100000 1560229.01653391 9829.44325992
0.04200000 1553640.31342967 11023.07853518
0.04300000 1546926.14177576 12251.65561156
0.04400000 1540089.21609940 13514.28349890
0.04500000 1533132.27696721 11636.47452287
0.04600000 1526055.61700733 12910.43112005
0.04700000 1518863.40936909 14216.56217288
0.04800000 1511557.48421796 13331.93763111
0.04900000 1504140.30925928 12409.15812900
0.05000000 1496613.64231842 12594.00438656
0.05100000 1488981.78073059 13936.87011687
0.05200000 1481243.67836495 11775.88779177
0.05300000 1473404.92003153 11934.58040862
0.05400000 1465466.49583374 13299.10906988
0.05500000 1457432.12359553 12242.43040930
0.05600000 1449302.52282029 12391.53714835
0.05700000 1441082.78932349 16298.64710805
0.05800000 1432772.32231871 16484.04633796
0.05900000 1424375.10633146 20511.00248916
0.06000000 1415894.85462127 14250.98237755
0.06100000 1407333.16590427 22249.93839272
0.06200000 1398692.65014859 15861.17539409
0.06300000 1389976.88223784 16012.53443205
0.06400000 1381185.10751050 16159.86651362
0.06500000 1372323.54709529 14944.60412694
0.06600000 1363394.00148903 13702.11035607
0.06700000 1354397.40286866 17959.31040252
0.06800000 1345338.34987237 20886.37885944
0.06900000 1336220.18991251 22448.50024154
0.07000000 1327042.20491462 15546.30015858
0.07100000 1317809.17531013 17078.80771195
0.07200000 1308523.33758625 17193.99746137
0.07300000 1299187.97998994 15863.08597895
0.07400000 1289805.99084780 18863.41350017
0.07500000 1280377.76013564 18975.19929462
0.07600000 1270907.09061588 16146.87534325
0.07700000 1261397.57993445 16234.18761495
0.07800000 1251850.45462214 16317.87144125
0.07900000 1242267.90958049 16397.93717559
0.08000000 1232654.73969094 17972.10694778
0.08100000 1223012.34524103 16547.35780748
0.08200000 1213341.55304236 19637.93395750
0.08300000 1203646.22670606 31848.48065336
0.08400000 1193929.26979229 19789.37857569
0.08500000 1184192.74900255 16803.69589720
0.08600000 1174439.22493634 19924.36238652
0.08700000 1164670.82027332 18448.38665942
0.08800000 1154889.40055410 16959.55164362
0.08900000 1145098.30073991 17004.71056469
0.09000000 1135299.63270178 20145.89292866
0.09100000 1125495.94545988 20191.39821017
0.09200000 1115688.04315240 26458.54318656
0.09300000 1105881.08297217 20270.80120345
0.09400000 1096073.47793839 21866.66691255
0.09500000 1086269.69894405 17206.51284003
0.09600000 1076471.29071412 17228.92381777
0.09700000 1066683.23380969 21952.34198384
0.09800000 1056903.99916367 18834.03015063
0.09900000 1047138.16191553 15707.07316732
0.10000000 1037384.55523706 15716.37675094
0.10100000 1027647.70723057 18867.61279213
0.10200000 1017929.40827814 20445.11312693
0.10300000 1008230.55107679 22019.75627134
0.10400000 998554.55800197 17299.95853126
0.10500000 988904.05753728 25157.72040740
0.10600001 979276.13460583 17289.12096998
0.10700001 969678.34787191 25134.06395959
0.10800001 960108.17525340 21976.87716582
0.10900001 950570.21644971 15684.40930962
0.11000001 941065.40846450 18802.48774615
0.11100001 931594.18243956 18780.93960206
0.11200001 922159.99942152 20319.79654385
0.11300001 912762.42749335 18729.88589398
0.11400001 903404.75599514 17142.10605213
0.11500001 894088.40364681 21779.99453841
0.11600001 884813.93829191 21739.87948760
0.11700001 875583.65712786 20147.18089934
0.11800001 866397.46115460 23197.79311499
0.11900001 857257.43559167 21602.88839444
0.12000001 848164.84604917 15394.19268093
0.12100001 839122.54038201 21498.32049733
0.12200001 830129.80493160 16847.48518479
0.12300001 821189.21447165 18328.94413056
0.12400001 812300.32471785 16753.69498670
0.12500001 803464.45234072 16704.02675127
0.12600001 794685.18557247 18166.50419826
0.12700001 785960.81806335 16599.49325977
0.12800001 777292.89656732 27073.11286338
0.12900001 768683.21525125 19486.12042504
0.13000001 760132.21429851 14936.59871500
0.13100001 751639.65767653 14882.46592352
0.13200001 743207.47740112 20757.78582234
0.13300001 734837.67157945 20678.33305308
0.13400001 726528.49767752 16183.42304874
0.13500001 718283.11540815 16118.27386971
0.13600001 710099.53822560 14592.54619859
0.13700001 701981.06673696 15984.10964330
0.13800001 693925.63587003 15915.18520917
0.13900001 685936.67594346 17285.60504893
0.14000001 678012.97782403 18641.96770444
0.14100001 670155.11230336 15701.73502181
0.14200001 662363.37576383 19890.77311234
0.14300001 654639.78088801 15554.24192756
0.14400001 646981.17866790 16886.20955975
0.14500001 639392.11326908 15402.95673524
0.14600001 631870.37290102 20899.11356960
0.14700001 624418.62503421 16634.51295567
0.14800001 617032.60670816 19306.95117477
0.14900001 609716.70493957 20577.93976259
0.15000001 602469.02386845 15010.51643792
0.15100001 595290.84064749 17644.42134934
0.15200001 588182.07464921 17548.41302522
0.15300001 581143.72562716 16109.30483457
0.15400001 574171.89618230 20024.24582432
0.15500001 567271.47353000 18583.81434987
0.15600001 560437.93833370 15837.97688478
0.15700001 553677.22716113 15746.58108365
0.15800001 546981.98506198 15654.62515135
0.15900001 540358.24454341 15562.31817740
0.16000001 533801.24004785 18047.82077792
0.16100001 527316.04225664 14095.15847487
0.16200001 520898.53391322 16556.76068201
0.16300001 514549.06731783 15189.48918429
0.16400001 508268.45051097 15095.57369283
0.16500001 502055.30027584 12501.17756707
0.16600001 495911.15140411 13664.83242210
0.16700001 489833.09040570 14812.55335324
0.16800001 483821.82966687 14717.86075339
0.16900001 477879.66091587 14623.11831450
0.17000001 472002.68339085 12106.86940066
0.17100001 466191.72357545 13230.52173983
0.17200001 460447.16771219 19117.76730621
0.17300001 454768.24520415 20178.06799261
0.17400001 449154.64608308 21222.55802968
0.17500001 443605.31833901 14053.41714869
0.17600001 438118.61957909 19774.48482863
0.17700001 432697.85451050 12708.33658720
0.17800001 427338.68421809 12621.44863452
0.17900001 422043.10943006 12534.68094213
0.18000001 416809.65308608 11316.38261582
0.18100001 411639.66982890 12361.53986888
0.18200001 406528.17244038 12275.11874669
0.18300001 401478.80055166 17729.30466988
0.18400001 396488.82405448 13203.07846474
0.18500001 391560.22784620 13109.43704761
0.18600001 386689.01192345 11931.29002657
0.18700001 381876.12552707 12922.68869837
0.18800001 377121.04938488 12829.65870623
0.18900001 372425.28614904 14859.76961943
0.19000001 367782.06180072 16859.13050952
0.19100001 363199.72870469 10460.15268094
0.19200001 358669.75392575 10383.48986678
0.19300001 354196.83968748 13399.26707853
0.19400001 349776.23908285 15346.43321494
0.19500001 345410.32012509 12186.07666987
0.19600001 341097.21924942 11087.36563565
0.19700001 336836.28786059 10004.03822223
0.19800001 332627.55984428 10921.82644364
0.19900001 328470.34784737 9854.11090113
0.20000001 324362.22185494 13691.33003157
0.20100001 320305.63671274 11646.31350131
0.20200001 316296.74336978 9631.23629082
0.20300001 312338.07700761 11469.05472980
0.20400001 308426.75644264 12329.36017155
0.20500001 304562.63634939 11293.18308963
0.20600001 300745.32596583 18676.28562527
0.20700001 296974.68888613 12045.29395059
0.20800001 293248.03471360 11951.32421969
0.20900001 289569.10188875 9121.42714068
0.21000001 285932.18047778 10859.70472791
0.21100001 282339.69320022 11671.92346867
0.21200001 278789.91505461 11579.53966921
0.21300001 275281.91544175 10603.85988412
0.21400001 271816.77432612 11395.91880238
0.21500001 268393.81868025 9565.55615000
0.21600001 265010.22473729 10351.29986763
0.21700001 261667.12532461 16257.37926506
0.21800001 258363.75033091 11882.14943951
0.21900001 255098.39404182 9260.07214155
0.22000001 251871.13377216 13359.24556693
0.22100001 248683.38632623 10765.50430309
0.22200001 245532.78998880 9034.37943482
0.22300001 242417.62194270 8145.23248243
0.22400001 239337.95463881 10500.95325633
0.22500001 236296.76522331 8010.46071986
0.22600001 233288.32101337 13503.89510043
0.22700001 230316.70828057 8664.51497525
0.22800001 227377.58589495 9372.50453382
0.22900001 224471.56788554 9293.12334994
0.23000001 221599.83748932 9214.12167856
0.23100001 218761.33778356 10658.05288086
0.23200001 215953.16580118 9057.07620204
0.23300001 213177.52128858 8230.78448622
0.23400001 210433.77821860 9643.12834294
0.23500001 207718.77707639 8088.56956191
0.23600001 205036.04357204 10204.64437123
0.23700001 202382.26103757 7947.55176685
0.23800001 199758.23792382 11458.13306927
0.23900001 197162.88243542 9937.00974476
0.24000001 194595.95517246 11958.89499078
0.24100001 192058.61298571 7668.90077927
0.24200001 189548.27837493 8290.84208829
0.24300001 187065.52204617 8215.91811690
0.24400001 184609.60427159 8819.72426128
0.24500001 182180.45818050 6722.45922486
0.24600001 179777.76388228 9991.14970039
0.24700001 177401.18650669 7919.18934028
0.24800001 175050.38493907 7191.94540545
0.24900001 172723.96413915 8420.29365013
0.25000001 170423.66912043 8983.03202431
0.25100001 168146.64766518 7627.13229892
0.25200001 165895.76686349 6925.31911535
0.25300001 163668.77232770 6859.35857277
0.25400001 161464.90998988 7411.23971917
0.25500001 159284.32140476 8563.12552386
0.25600001 157127.54238645 6057.26704558
0.25700001 154993.14248045 8397.52885691
0.25800001 152882.01138000 6533.41306545
0.25900001 150793.21855214 7057.12296215
0.26000001 148726.64549743 6404.91329140
0.26100001 146681.25390287 8070.40297160
0.26200001 144658.56645349 6277.45878828
0.26300001 142656.43281778 7908.87300965
0.26400001 140676.07243585 8387.81121588
0.26500001 138717.13474018 7748.73951325
0.26600001 136777.93724969 6025.75231067
0.26700001 134860.47055024 5421.39117266
0.26800001 132963.86602554 5901.60147281
0.26900001 131085.79760092 5308.97505407
0.27000001 129229.11684230 6829.11300270
0.27100001 127391.74908843 6756.85869140
0.27200001 125575.53218917 6170.78194380
0.27300001 123777.84064515 7122.17728777
0.27400001 121997.73576265 7045.36957371
0.27500001 120239.75934328 7964.68203583
0.27600001 118498.46099541 5908.33354485
0.27700001 116777.81544336 5356.59864790
0.27800001 115074.88351181 4815.88410289
0.27900001 113391.73393760 7619.92488124
0.28000001 111725.54140760 5180.15497253
0.28100001 110078.69170381 6518.86043123
0.28200001 108450.55912339 5984.84438848
0.28300001 106839.97084644 6371.93616287
0.28400001 105247.24715787 4499.32002896
0.28500001 103672.77452707 4447.56223772
0.28600001 102115.86777323 4835.69714728
0.28700001 100576.64693364 4344.91135319
0.28800001 99054.11324535  5582.19481616
0.28900001 97551.13339589  5092.16940430
0.29000001 96063.68144446  5870.45185094
0.29100001 94594.43791453  4557.56023445
0.29200001 93142.08868751  4502.95449075
0.29300001 91706.92736190  4853.13082572
0.29400001 90288.02364561  4394.76975898
0.29500001 88887.09989026  4735.90490634
0.29600001 87502.24354677  4677.87016145
0.29700001 86134.02983925  4620.22957929
0.29800001 84782.28246207  4943.23121296
0.29900001 83447.85667521  4881.69984659
0.30000001 82128.88861220  5562.17924457
0.30100001 80827.44398557  5126.07674023
0.30200001 79540.64790780  5061.17166597
0.30300001 78271.42004576  4283.01230767
0.30400001 77017.95609167  3875.92882381
0.30500001 75780.24823758  3826.14491465
0.30600001 74557.74896076  4120.06140263
0.30700001 73352.19909600  4066.64611041
0.30800001 72162.04333429  3679.18195358
0.30900001 70987.54045732  3631.01286630
0.31000001 69829.04449128  4234.78260367
0.31100001 68684.99708195  3214.45801562
0.31200001 67557.04723176  3171.80351770
0.31300001 66444.10901761  3755.42121948
0.31400001 65347.51100229  3087.67004105
0.31500001 64264.84839409  3350.76935392
0.31600002 63197.87913228  4507.58894253
0.31700002 62145.85368847  3260.79309743
0.31800002 61108.82895994  3216.46336460
0.31900002 60086.75628880  3172.58088227
0.32000002 59079.68634303  2844.68703211
0.32100002 58086.58359394  2805.58212043
0.32200002 57109.36333714  3320.33854164
0.32300002 56144.80378586  4365.82014911
0.32400002 55195.47517141  4036.16931303
0.32500002 54260.57110545  2918.67625797
0.32600002 53340.22867927  3662.87367685
0.32700002 52433.38435861  2579.72263260
0.32800002 51541.32644389  4324.05978677
0.32900002 50662.60926608  2758.57920517
0.33000002 49798.78002681  2719.76049996
0.33100002 48946.43662778  2681.28592544
0.33200002 48110.56825389  3364.37219731
0.33300002 47286.92570922  3079.79761729
0.33400002 46477.34101234  2802.58379576
0.33500002 45679.98078739  3913.86093921
0.33600002 44897.21150447  2723.46497884
0.33700002 44126.43954235  2460.93164982
0.33800002 43370.04371393  2646.44019275
0.33900002 42625.40055043  3260.84329653
0.34000002 41894.36773780  2571.47641353
0.34100002 41175.70857355  2534.77673983
0.34200002 40470.45513100  2082.20501510
0.34300002 39776.52151330  3283.94977166
0.34400002 39096.68800590  2630.22981016
0.34500002 38428.00782494  2193.85507063
0.34600002 37772.59915392  2359.27665489
0.34700002 37127.79234531  1938.07085221
0.34800002 36496.46470493  2292.70802135
0.34900002 35876.22565297  2825.25290398
0.35000002 35268.14953469  2228.24179314
0.35100002 34672.15405762  1830.68982095
0.35200002 34086.49563496  2526.83204110
0.35300002 33512.82442201  2491.34348553
0.35400002 32950.61902076  2456.46876435
0.35500002 32399.92090881  2595.23378772
0.35600002 31859.25177804  1706.06301352
0.35700002 31329.92602920  2355.38395044
0.35800002 30812.12518302  2488.84952954
0.35900002 30304.84779675  2291.04660195
0.36000002 29808.42915110  1775.53916649
0.36100002 29321.62566509  2547.46295845
0.36200002 28846.38390047  2041.89138111
0.36300002 28380.40101728  2014.44095962
0.36400002 27924.49890570  2140.41294251
0.36500002 27478.55474666  1961.14454516
0.36600002 27042.83378225  1488.70807023
0.36700002 26616.29223733  2203.82910164
0.36800002 26200.91010185  1740.26453140
0.36900002 25793.86405769  1574.71547531
0.37000002 25395.89675535  1695.93806566
0.37100002 25007.15076601  1814.01880250
0.37200002 24628.37204518  1515.75322932
0.37300002 24257.91817900  1496.95620174
0.37400002 23896.42390025  1478.59129887
0.37500002 23544.02920536  2124.61329614
0.37600002 23200.40147156  1705.57759498
0.37700002 22864.74970082  1426.07450640
0.37800002 22537.40682306  1665.62713016
0.37900002 22219.07367929  2153.02834152
0.38000002 21908.57798749  1252.07529130
0.38100002 21605.10512737  1609.36435718
0.38200002 21310.65427722  1714.01600472
0.38300002 21023.23104829  1574.21961547
0.38400002 20744.29431962  1557.37796982
0.38500002 20471.64440737  1185.30826734
0.38600002 20207.67934949  1524.97259435
0.38700002 19950.02246404  1161.09136241
0.38800002 19699.92609688  1264.43981643
0.38900002 19456.19014663  1252.00589525
0.39000002 19220.60609953  1352.74632137
0.39100002 18990.65681941  1674.97601083
0.39200002 18767.92019741  1217.00584286
0.39300002 18551.33648990  1206.02244235
0.39400002 18342.61090838  1304.15969737
0.39500002 18138.94969759  1077.45366308
0.39600002 17941.59650661  1495.79097162
0.39700002 17750.24522083  1059.68968989
0.39800002 17565.15573302  1051.27462043
0.39900002 17385.58711216  1877.64349707
0.40000002 17211.72982295  1035.28559790
0.40100002 17043.85396040  1233.29333101
0.40200002 16881.67351213  1020.49721216
0.40300002 16724.18976106  1418.88032655
0.40400002 16572.51816498  1107.45857885
0.40500002 16426.17143052  1400.49544252
0.40600002 16284.63104762  1193.01212707
0.40700002 16148.28183456  1482.41234265
0.40800002 16016.80101368  1768.73541975
0.40900002 15889.93759252  1368.12369154
0.41000002 15768.20805765  1360.95410194
0.41100002 15650.62536019  1257.37130101
0.41200002 15537.34985073  1443.80830329
0.41300002 15429.19559235  958.15309168
0.41400002 15324.72617874  1049.36067481
0.41500002 15224.74287954  1805.04560133
0.41600002 15128.20596212  1040.89626054
0.41700002 15036.14724751  1037.04312480
0.41800002 14948.81619104  1033.48645634
0.41900002 14863.43432472  1404.59461024
0.42000002 14783.07598399  1400.32693894
0.42100002 14706.50019005  1117.10580737
0.42200002 14633.45763994  1021.34222438
0.42300002 14563.22578002  1204.08756455
0.42400002 14496.47982698  924.15063276
0.42500002 14433.29734114  1106.74529256
0.42600002 14372.50665875  1196.72682365
0.42700002 14316.03460448  1194.81630471
0.42800002 14261.82474292  1009.52331227
0.42900002 14211.58680033  1191.64160968
0.43000002 14163.59979606  1098.81212425
0.43100002 14117.56013873  1006.29973437
0.43200002 14075.32794546  1279.86963073
0.43300002 14035.57052627  1005.08725302
0.43400002 13998.36259019  1187.41116298
0.43500002 13963.45956313  1095.85235845
0.43600002 13931.37184053  1004.52161416
0.43700002 13901.10646107  1004.63301155
0.43800002 13872.98209639  1278.95028007
0.43900002 13847.91770754  913.96261201
0.44000002 13824.44109532  914.48682179
0.44100002 13803.40282146  1372.74847565
0.44200002 13784.17405812  1373.93761435
0.44300002 13767.02622678  1008.57238917
0.44400002 13752.05548944  1560.51457062
0.44500002 13737.73585406  1102.86548663
0.44600002 13725.66766693  1104.36727282
0.44700002 13716.33595626  1013.91160194
0.44800002 13706.99333913  1107.79925417
0.44900002 13701.09874790  1202.27147211
0.45000002 13695.97060660  1111.83894654
0.45100002 13692.09673858  1299.65388402
0.45200002 13689.93208020  1023.25402183
0.45300002 13688.66884529  1398.29758882
0.45400002 13689.25343115  1027.72075005
0.45500002 13691.06164432  1030.11552694
0.45600002 13693.99814243  1408.08542573
0.45700002 13698.18951364  1129.27879703
0.45800002 13703.07864772  1415.18551441
0.45900002 13709.12534433  1040.52266295
0.46000002 13717.05886657  1327.94853181
0.46100002 13724.75651529  1236.46337306
0.46200002 13734.38564037  1144.62375352
0.46300002 13744.84309633  1339.29757478
0.46400002 13755.44039361  1247.27461681
0.46500002 13767.44136634  1058.57861683
0.46600002 13779.89038529  1061.80950396
0.46700002 13792.77383020  1065.07804565
0.46800002 13807.50220620  1165.62939149
0.46900002 13821.73981776  1364.20578467
0.47000002 13836.96128815  1466.37204201
0.47100002 13852.77966779  1471.16527045
0.47200002 13869.42858043  1279.24680575
0.47300002 13886.63747313  1184.80796536
0.47400002 13903.53445812  1684.06569106
0.47500002 13921.36504141  1391.57971550
0.47600002 13940.12142405  997.41573517
0.47700002 13958.40308229  1100.89930328
