# SAXS profile: number of points = 501, q_min = 0, q_max = 0.5, delta_q = 0.001
#    q    intensity    error
0.00000000 1682732.95097188 328.13292544
0.00100000 1682645.39170978 504.79362950
0.00200000 1682382.69785359 1135.60835701
0.00300000 1681945.06240448 1412.83390275
0.00400000 1681332.39066746 1387.09927501
0.00500000 1680545.32388091 1663.73993649
0.00600000 1679583.72517143 2116.27557987
0.00700000 1678448.31060622 2215.55186208
0.00800000 1677138.89242781 2264.13760037
0.00900000 1675656.92037666 3016.18258561
0.01000000 1674001.72120856 3038.31325519
0.01100000 1672174.92069009 4213.88098361
0.01200000 1670176.45277823 3908.21307085
0.01300000 1668007.59374995 4903.94254191
0.01400000 1665668.64649659 4497.30554491
0.01500000 1663160.98668141 5189.06250951
0.01600000 1660484.53792333 6351.35364148
0.01700000 1657641.29643727 4923.19487127
0.01800000 1654631.91364278 5658.84139929
0.01900000 1651457.24620434 5945.24635460
0.02000000 1648118.23980872 6749.04449731
0.02100000 1644617.51334367 6512.68564812
0.02200000 1640953.81248312 9058.06545644
0.02300000 1637130.21207139 6483.03593490
0.02400000 1633147.35421011 7349.16342905
0.02500000 1629007.66102223 7623.75620177
0.02600000 1624711.47253243 7238.08994119
0.02700000 1620260.78974216 9527.13388004
0.02800000 1615656.05361117 7730.91457107
0.02900000 1610900.82284074 9423.77024630
0.03000000 1605995.60933916 9708.24390470
0.03100000 1600941.99978211 9221.42634305
0.03200000 1595741.32729604 7898.91993392
0.03300000 1590397.77436949 8922.13192553
0.03400000 1584909.86893903 8320.77719585
0.03500000 1579281.60253373 10233.74525699
0.03600000 1573513.61833858 12226.20137951
0.03700000 1567609.37062720 9828.91120840
0.03800000 1561569.89027284 11875.73956513
0.03900000 1555397.98114524 10265.62715096
0.04000000 1549093.73026256 12385.00494736
0.04100000 1542661.35954628 9718.76701577
0.04200000 1536102.29732630 13871.00438837
0.04300000 1529418.51624416 11103.57894334
0.04400000 1522612.62843560 11305.39929118
0.04500000 1515687.30872284 12549.89149935
0.04600000 1508642.88391132 17017.49252161
0.04700000 1501483.66909784 12972.81950434
0.04800000 1494211.32850565 19768.41679592
0.04900000 1486828.44422995 11151.21385079
0.05000000 1479336.61892325 13580.31079410
0.05100000 1471740.23294152 13775.48922205
0.05200000 1464038.33787303 12803.01586134
0.05300000 1456236.28593588 17693.27169894
0.05400000 1448335.19531063 13143.64251038
0.05500000 1440338.81778246 13308.73129715
0.05600000 1432247.78994828 14694.86301059
0.05700000 1424067.19801297 17345.13928144
0.05800000 1415796.56213711 20047.68025594
0.05900000 1407439.69079011 17733.74093222
0.06000000 1399000.52469173 12800.85539897
0.06100000 1390480.35054046 19397.20179650
0.06200000 1381881.97214039 15670.54229657
0.06300000 1373208.87835553 18455.92818801
0.06400000 1364460.39045724 13303.48942912
0.06500000 1355642.75046087 14762.95024310
0.06600000 1346757.60432124 16241.89746805
0.06700000 1337805.96872311 19103.87012741
0.06800000 1328792.45945795 19254.20363882
0.06900000 1319720.21090114 18014.18172221
0.07000000 1310588.97511104 16749.32788626
0.07100000 1301403.16530819 14055.15484364
0.07200000 1292164.91986505 19808.88914951
0.07300000 1282877.67280136 15663.93711885
0.07400000 1273544.28849172 22923.79826716
0.07500000 1264165.32946634 20176.07960399
0.07600000 1254744.43372442 17390.75866671
0.07700000 1245285.16010889 23311.73929029
0.07800000 1235788.82746549 16108.50812144
0.07900000 1226257.34605913 19129.61549577
0.08000000 1216695.97218207 16261.14243104
0.08100000 1207105.70151238 16332.14090774
0.08200000 1197487.45702880 20872.20735544
0.08300000 1187845.30055910 19456.90693631
0.08400000 1178181.96510021 24034.91321621
0.08500000 1168499.39968080 18088.37155622
0.08600000 1158800.32128594 19659.04837364
0.08700000 1149086.87765691 22751.92124598
0.08800000 1139360.72314357 21294.65291563
0.08900000 1129625.47066055 15249.94457020
0.09000000 1119882.97983808 16815.04373216
0.09100000 1110135.79660406 18383.84965546
0.09200000 1100384.98407112 19955.48262377
0.09300000 1090635.41370346 16915.75606145
0.09400000 1080885.77792365 16942.88536523
0.09500000 1071140.12603722 15424.41853993
0.09600000 1061400.23412644 16987.71154575
0.09700000 1051671.36243689 15459.56975462
0.09800000 1041951.35706504 23209.46756988
0.09900000 1032245.22049030 15483.67903544
0.10000000 1022551.78205454 18589.99227199
0.10100000 1012875.32556288 15496.99320996
0.10200000 1003217.69109426 26349.51389597
0.10300000 993580.14290182 17049.83605423
0.10400000 983965.45796639 17047.20236125
0.10500000 974376.93712697 20140.37223801
0.10600001 964811.00820267 20130.78263337
0.10700001 955275.58348289 17023.01169873
0.10800001 945768.17789914 23194.96565457
0.10900001 936293.33106429 20083.49289657
0.11000001 926851.78275876 16975.29120025
0.11100001 917444.29432663 20036.98433130
0.11200001 908073.92233627 18470.22444984
0.11300001 898740.60661780 21515.85113541
0.11400001 889447.45806207 15342.96937399
0.11500001 880195.52941146 16846.94322622
0.11600001 870986.25741184 15285.80953741
0.11700001 861821.13162683 15254.23474819
0.11800001 852700.47160057 19786.91537542
0.11900001 843626.09480285 21259.37859038
0.12000001 834599.45840084 16662.77897187
0.12100001 825623.22528662 18130.68688140
0.12200001 816696.98918617 16574.86617640
0.12300001 807822.88645227 21035.70895430
0.12400001 799000.87739481 16479.39387274
0.12500001 790232.01393205 16428.92434379
0.12600001 781519.99156512 16376.75219498
0.12700001 772862.91197514 17806.76233108
0.12800001 764262.51473230 20703.87249986
0.12900001 755720.61204334 23578.48420706
0.13000001 747237.43133862 19088.18108326
0.13100001 738813.03740216 16091.34871313
0.13200001 730449.06374283 18944.19736121
0.13300001 722147.58549487 20321.23401383
0.13400001 713906.99870037 17347.94088630
0.13500001 705730.14456499 23035.03300466
0.13600001 697615.46441398 17203.19816359
0.13700001 689565.86250203 18556.21823492
0.13800001 681579.52133850 14210.93369003
0.13900001 673659.64898172 25464.33593236
0.14000001 665805.05648238 21122.66641306
0.14100001 658016.50547794 19622.05311879
0.14200001 650294.25646678 20923.21868867
0.14300001 642640.13844524 18045.33593870
0.14400001 635051.00682212 20718.54007486
0.14500001 627531.72859814 16491.53460550
0.14600001 620079.67344286 13672.75744442
0.14700001 612697.78406926 17682.45888244
0.14800001 605381.54577106 20295.41727949
0.14900001 598135.68347294 13458.05351310
0.15000001 590957.80976438 16062.23402726
0.15100001 583849.59564240 19967.65711314
0.15200001 576810.80124630 17209.15106723
0.15300001 569842.47091883 15796.03403927
0.15400001 562940.73716184 14397.21003233
0.15500001 556110.41023301 13012.98421357
0.15600001 549346.96492270 12937.12163450
0.15700001 542656.30081367 19291.43240442
0.15800001 536031.14971797 16619.64658143
0.15900001 529477.64144852 15248.95679348
0.16000001 522990.54229720 13893.24441192
0.16100001 516575.43953340 18829.17565981
0.16200001 510227.89093981 16217.59427909
0.16300001 503948.45593439 21075.12542209
0.16400001 497737.80233064 13550.91230818
0.16500001 491594.60489105 13464.77686366
0.16600001 485520.33834762 13378.51355481
0.16700001 479512.11129054 14500.44693006
0.16800001 473570.48081483 20408.52083433
0.16900001 467698.03059235 11926.30034324
0.17000001 461890.78756931 13032.24918665
0.17100001 456149.38606576 12945.52018785
0.17200001 450474.51853244 14027.77716953
0.17300001 444864.93165258 13933.17031735
0.17400001 439320.47881458 12685.37942485
0.17500001 433840.47340351 14889.40575040
0.17600001 428423.03895691 13649.55866582
0.17700001 423071.26530983 15814.40464421
0.17800001 417781.12051361 13460.90833874
0.17900001 412554.34378273 20050.14205488
0.18000001 407389.72470760 15484.88416756
0.18100001 402288.30003886 14277.21244278
0.18200001 397245.34757974 13085.26236740
0.18300001 392264.20674044 10826.49261747
0.18400001 387342.51995465 17198.00869843
0.18500001 382481.97439979 12805.49710786
0.18600001 377678.82102200 12712.66971619
0.18700001 372933.59992313 13671.74641910
0.18800001 368246.17545444 12527.73548085
0.18900001 363617.93348155 11399.42275324
0.19000001 359042.23114648 15429.84061256
0.19100001 354526.99513701 11231.41573663
0.19200001 350064.07087493 14188.09746297
0.19300001 345658.04884367 14082.10957531
0.19400001 341304.09607471 13976.40339470
0.19500001 337004.67280102 10898.73163341
0.19600001 332757.97124799 11799.59821806
0.19700001 328563.14522785 12685.82363675
0.19800001 324420.32107849 11620.73645021
0.19900001 320328.95173949 10570.85590698
0.20000001 316286.41124801 10489.63932479
0.20100001 312295.17420599 14193.81633849
0.20200001 308351.49390601 10328.23377653
0.20300001 304457.87643418 13974.61718883
0.20400001 300611.37255864 10168.18015740
0.20500001 296811.64068363 11922.92416982
0.20600001 293058.68094387 11829.31421545
0.20700001 289352.19773565 9930.56789570
0.20800001 285689.45200106 8956.36474360
0.20900001 282074.08428902 10662.40089015
0.21000001 278500.75162580 10577.45904677
0.21100001 274971.39862146 8744.09088953
0.21200001 271484.70872859 10408.72422472
0.21300001 268039.38299435 11185.28398114
0.21400001 264636.85066081 13655.26213967
0.21500001 261276.10813119 15237.62334661
0.21600001 257954.52097740 13434.27208766
0.21700001 254673.17818730 9993.37598455
0.21800001 251431.30771449 9085.47073383
0.21900001 248227.26074601 10648.94998950
0.22000001 245061.07812963 9748.53014893
0.22100001 241934.11766883 9667.68779917
0.22200001 238843.97228738 11185.06375110
0.22300001 235789.07699815 9507.01603411
0.22400001 232769.47509341 7855.97015588
0.22500001 229787.88192933 10905.73339207
0.22600001 226838.88231524 10041.02360051
0.22700001 223926.34056505 11487.42181422
0.22800001 221046.22132914 11389.40709259
0.22900001 218198.88246463 9033.43416124
0.23000001 215385.36475845 9702.03421437
0.23100001 212605.01227098 8138.52025463
0.23200001 209854.71304470 8801.30708134
0.23300001 207136.51052534 9451.63942228
0.23400001 204449.92912765 8648.23241112
0.23500001 201791.98265229 8572.12382850
0.23600001 199165.80759291 7788.37927429
0.23700001 196568.40470090 7719.24161771
0.23800001 194000.50330246 10432.37755853
0.23900001 191460.93086674 11028.15013955
0.24000001 188949.52291440 9562.73580702
0.24100001 186467.34056008 8799.39421725
0.24200001 184011.96479154 7377.96007731
0.24300001 181583.78407316 9968.95021718
0.24400001 179182.11329854 7901.93157026
0.24500001 176806.99983864 7176.59646293
0.24600001 174457.96983830 6463.66808827
0.24700001 172134.83663698 8324.44109356
0.24800001 169837.06552762 11418.14645558
0.24900001 167563.42725407 9425.44322894
0.25000001 165315.62381198 6846.54688407
0.25100001 163090.89345210 9247.25409621
0.25200001 160891.74850933 7327.01057375
0.25300001 158716.39519608 6651.80443737
0.25400001 156563.71206114 6587.41849663
0.25500001 154434.15132992 7709.35319913
0.25600001 152328.07882536 7046.69725986
0.25700001 150243.91847966 6395.88391229
0.25800001 148182.80215427 7483.97277690
0.25900001 146143.73492435 9119.36949076
0.26000001 144126.57087777 8463.83327527
0.26100001 142130.19816309 6702.86046252
0.26200001 140156.28363913 6634.99878142
0.26300001 138202.67655670 6567.39150073
0.26400001 136270.27781239 7041.76693916
0.26500001 134359.14328948 5360.93007092
0.26600001 132467.50491424 7957.98573429
0.26700001 130597.23626360 6300.01097547
0.26800001 128747.50594437 5714.45832175
0.26900001 126915.97821645 5654.10709710
0.27000001 125105.53827030 5594.09440848
0.27100001 123314.00126925 8553.05953279
0.27200001 121543.38516120 5972.64222947
0.27300001 119791.00871374 6400.43389847
0.27400001 118055.82818094 5356.78345722
0.27500001 116342.52163790 8188.18706038
0.27600001 114645.62703645 5239.87863168
0.27700001 112968.87496514 5181.88253989
0.27800001 111309.57248334 5124.13641178
0.27900001 109669.89415055 5066.74934955
0.28000001 108046.74991758 5009.58779702
0.28100001 106442.63716262 6303.53327111
0.28200001 104856.97777534 5341.41470068
0.28300001 103288.53015321 6160.12822990
0.28400001 101737.49836304 6523.91739131
0.28500001 100204.56780628 5158.53139483
0.28600001 98688.79912417  5098.26360407
0.28700001 97190.43637462  5038.35246014
0.28800001 95708.44005519  4148.96107278
0.28900001 94245.63231210  6149.52779944
0.29000001 92798.14839353  4455.70330602
0.29100001 91368.42434875  5202.51832868
0.29200001 89955.45304751  3953.54234858
0.29300001 88559.17489634  4686.55175736
0.29400001 87178.91240434  5014.96717345
0.29500001 85816.32896883  3810.24518658
0.29600001 84469.57875123  4139.43190265
0.29700001 83139.00368446  5202.83909687
0.29800001 81824.76540311  3669.84090205
0.29900001 80527.36482574  5435.59738305
0.30000001 79245.21824475  3577.92177313
0.30100001 77980.32563542  5298.76337777
0.30200001 76729.60803075  5928.51344516
0.30300001 75496.29658301  3442.63128716
0.30400001 74278.49108888  3738.06524101
0.30500001 73076.04976481  3354.19084300
0.30600001 71888.49123542  3641.51169593
0.30700001 70717.64251213  4574.01733423
0.30800001 69561.75911046  3546.60645616
0.30900001 68421.42224916  3181.59628522
0.31000001 67296.66230407  4395.14522317
0.31100001 66186.13385635  4646.26681669
0.31200001 65091.43340124  3667.25153145
0.31300001 64011.29650290  4823.89153285
0.31400001 62947.15625038  3866.52925575
0.31500001 61896.94099273  3520.69817036
0.31600002 60861.92865091  3183.38332881
0.31700002 59841.63046680  3425.33509010
0.31800002 58836.00075492  3378.36332331
0.31900002 57845.03186715  3054.21782720
0.32000002 56868.81384547  3285.88021958
0.32100002 55906.30293108  2700.27455943
0.32200002 54959.28266738  3195.33284558
0.32300002 54024.88353944  4463.53608938
0.32400002 53105.16177996  2847.76443530
0.32500002 52199.59938848  2807.81658406
0.32600002 51308.38790417  3020.01185504
0.32700002 50430.34133869  2481.17291135
0.32800002 49566.93773015  3669.19273922
0.32900002 48716.56097879  2411.46988264
0.33000002 47880.75975112  2615.00781764
0.33100002 47056.04070237  3515.08640692
0.33200002 46247.73690980  2772.08948165
0.33300002 45451.33748774  2732.53453916
0.33400002 44668.58712804  3366.89491422
0.33500002 43897.98280848  2433.70428215
0.33600002 43141.55435526  3707.36964909
0.33700002 42396.96431923  2579.43143134
0.33800002 41666.28636158  2542.47691419
0.33900002 40947.34338581  2297.14607273
0.34000002 40241.59717830  2881.70091041
0.34100002 39548.04376610  2231.69621541
0.34200002 38867.55735005  2599.65669648
0.34300002 38198.22776193  2168.13151045
0.34400002 37542.56610406  2331.39346548
0.34500002 36898.01181840  2106.50759448
0.34600002 36266.46546344  2076.43657845
0.34700002 35645.15910768  2418.88061161
0.34800002 35037.06462148  2934.70467169
0.34900002 34439.91384768  2350.52423143
0.35000002 33854.57733585  2673.66537173
0.35100002 33281.23117881  2108.69890736
0.35200002 32717.73760638  1905.64471714
0.35300002 32166.12641287  2049.62567211
0.35400002 31625.74652392  2020.88529860
0.35500002 31096.53175666  1992.66584935
0.35600002 30577.18155943  1964.88978007
0.35700002 30069.05945844  1776.17942634
0.35800002 29572.13503167  1592.45954688
0.35900002 29085.40995090  2041.79587526
0.36000002 28609.35084424  2013.95534807
0.36100002 28142.78796712  1833.78415080
0.36200002 27687.38490641  1658.33599752
0.36300002 27241.08210954  1636.09946900
0.36400002 26804.67205526  1467.55586454
0.36500002 26378.05983265  1448.15555341
0.36600002 25961.29046289  2000.83675075
0.36700002 25553.53461081  1974.77724827
0.36800002 25156.71724900  1531.66680226
0.36900002 24768.05114489  1512.08959402
0.37000002 24388.22123736  1357.20457615
0.37100002 24017.34417480  2010.25180266
0.37200002 23656.22396982  2117.70527009
0.37300002 23303.34112935  1830.24449900
0.37400002 22959.10434468  1420.59464862
0.37500002 22623.80802440  1403.58111632
0.37600002 22297.08819506  2395.71075461
0.37700002 21978.09676356  2492.31629105
0.37800002 21667.13960450  1724.48772281
0.37900002 21364.98670067  1461.36515955
0.38000002 21070.57915439  1324.60202129
0.38100002 20783.00297644  1309.95273966
0.38200002 20504.21231621  1413.56046404
0.38300002 20232.24075699  1281.91483509
0.38400002 19968.52913629  1499.13739593
0.38500002 19710.97196260  1369.51839684
0.38600002 19461.72673511  1468.67927764
0.38700002 19218.90543355  1342.24841907
0.38800002 18983.24172834  1550.74109026
0.38900002 18753.82267786  1206.80854649
0.39000002 18532.28746980  1195.61058276
0.39100002 18316.35684474  1077.00183349
0.39200002 18107.34766046  1280.91383419
0.39300002 17904.43683784  1587.22840087
0.39400002 17708.97378175  1888.66214330
0.39500002 17518.55786066  1560.90357934
0.39600002 17334.21464886  1135.47778437
0.39700002 17155.70757723  1331.45452815
0.39800002 16983.37666381  1524.68271223
0.39900002 16816.30746378  1008.97849563
0.40000002 16654.73750326  1302.31726077
0.40100002 16499.05266488  1094.38221511
0.40200002 16348.88956500  1185.94850523
0.40300002 16203.21847146  981.91508589
0.40400002 16063.22609746  1171.00923799
0.40500002 15928.42418535  1067.04518673
0.40600002 15798.27411098  1060.93314819
0.40700002 15673.07247173  959.19208072
0.40800002 15552.62920193  1431.23077012
0.40900002 15436.62033420  1139.22263464
0.41000002 15325.59854063  1039.30551428
0.41100002 15218.63482703  940.51167687
0.41200002 15115.77530201  1498.27571893
0.41300002 15017.91896137  1119.13537403
0.41400002 14923.53167371  928.98989071
0.41500002 14833.49858158  925.61035535
0.41600002 14746.83847770  1383.62218573
0.41700002 14664.40881585  1287.24186685
0.41800002 14586.70180147  1008.45167683
0.41900002 14510.67275204  1005.58966937
0.42000002 14439.46015885  1458.96312358
0.42100002 14372.13454546  1091.70739180
0.42200002 14308.03156835  1180.19803984
0.42300002 14246.66337360  1268.52296689
0.42400002 14188.63043990  1266.33532677
0.42500002 14134.07421353  1264.43433906
0.42600002 14081.69519126  1262.70566764
0.42700002 14033.61947770  1081.15009579
0.42800002 13987.49793267  1170.12419501
0.42900002 13945.39257944  1079.37343680
0.43000002 13905.37925459  1078.77937369
0.43100002 13867.10518924  1258.02384238
0.43200002 13832.56988890  1347.63818529
0.43300002 13800.46356868  988.25124298
0.43400002 13770.62571405  988.38670746
0.43500002 13743.07875740  988.67713266
0.43600002 13718.19201369  989.15028202
0.43700002 13695.04945452  1169.69422934
0.43800002 13673.95156052  900.42975293
0.43900002 13655.74187362  1081.53480764
0.44000002 13639.02294950  1263.10997521
0.44100002 13624.62144402  993.64368900
0.44200002 13611.92869692  1356.76905716
0.44300002 13601.27647886  996.42956206
0.44400002 13592.59775244  1451.68950876
0.44500002 13584.51429941  999.68445467
0.44600002 13578.63571191  1456.71610821
0.44700002 13575.29211633  1094.71160814
0.44800002 13571.88198541  1005.47292454
0.44900002 13571.85972548  1099.32068986
0.45000002 13572.38396463  1009.98900059
0.45100002 13574.09762349  1472.51817998
0.45200002 13577.47726937  1383.88443627
0.45300002 13581.68361511  1109.89523763
0.45400002 13587.65416891  1112.82892917
0.45500002 13594.72017339  1115.85468472
0.45600002 13602.78687949  1118.96530174
0.45700002 13612.01576213  1028.66007990
0.45800002 13621.92813140  1313.01771481
0.45900002 13632.87744339  1034.73544699
0.46000002 13645.59434243  1132.31147220
0.46100002 13658.11083768  1230.45926368
0.46200002 13672.30165498  1044.49553444
0.46300002 13687.35182986  1047.90370576
0.46400002 13702.40742348  1051.31725939
0.46500002 13718.80697237  1342.52251395
0.46600002 13735.59700486  1347.05006211
0.46700002 13752.73669109  1061.98637762
0.46800002 13771.61342785  1162.59966068
0.46900002 13789.92992893  1166.62812728
0.47000002 13809.17197750  1365.86526503
0.47100002 13828.98951177  1370.72950537
0.47200002 13849.47459609  1375.66837683
0.47300002 13870.43523070  1084.80679081
0.47400002 13891.06090655  1286.65957745
0.47500002 13912.58120817  1192.03001442
0.47600002 13934.86964493  1096.74396739
0.47700002 13956.69297494  1400.97290723
