# SAXS profile: number of points = 501, q_min = 0, q_max = 0.5, delta_q = 0.001
#    q    intensity    error
0.00000000 1682732.95097188 252.40994265
0.00100000 1682645.52896377 656.23177188
0.00200000 1682383.23727663 832.77972882
0.00300000 1681946.28460419 1816.50205208
0.00400000 1681334.57045154 2269.80175636
0.00500000 1680548.71534707 1814.99268441
0.00600000 1679588.61418332 2292.63855170
0.00700000 1678454.97101240 3021.21907338
0.00800000 1677147.56259852 2943.39409663
0.00900000 1675667.89945228 3518.90273927
0.01000000 1674015.27343288 3038.33785247
0.01100000 1672191.31543311 4213.92229836
0.01200000 1670195.92007320 4885.32328041
0.01300000 1668030.43329573 4553.72328374
0.01400000 1665695.08783365 4497.37693652
0.01500000 1663191.37388861 4789.99137009
0.01600000 1660519.05886692 4657.75616834
0.01700000 1657680.20816381 5818.45779166
0.01800000 1654675.47674036 4715.82532091
0.01900000 1651505.79492639 4954.51760834
0.02000000 1648171.93937188 6230.09021265
0.02100000 1644676.69071791 6512.91999053
0.02200000 1641018.64281218 7926.12040489
0.02300000 1637201.01263676 6483.31630515
0.02400000 1633224.29461838 6737.05052249
0.02500000 1629091.04396690 6988.80089780
0.02600000 1624801.48778593 6580.44632651
0.02700000 1620357.74321529 7486.05311652
0.02800000 1615760.16707063 11245.69127853
0.02900000 1611012.32031597 9424.42250656
0.03000000 1606114.71306000 8962.12051082
0.03100000 1601068.91154238 8453.64424192
0.03200000 1595876.35862619 9479.50600685
0.03300000 1590541.17341222 10545.28846587
0.03400000 1585061.75262638 10818.04696082
0.03500000 1579442.26650661 9381.88749629
0.03600000 1573683.24484837 9607.33665379
0.03700000 1567788.06514946 9830.03162310
0.03800000 1561758.02069572 10963.54181267
0.03900000 1555595.76899825 10266.93255085
0.04000000 1549301.24342007 11433.84370627
0.04100000 1542878.91443026 13608.19265624
0.04200000 1536330.02409657 10900.26202666
0.04300000 1529656.56738263 13124.45395735
0.04400000 1522861.30114854 17474.83424224
0.04500000 1515946.81983413 11506.03689717
0.04600000 1508913.33362664 10637.83949659
0.04700000 1501765.26849825 12975.25252328
0.04800000 1494504.23804566 14279.98865895
0.04900000 1487132.72092306 13384.19511131
0.05000000 1479652.69745167 12451.27802886
0.05100000 1472068.12219934 14926.77145445
0.05200000 1464378.16793325 12805.98767535
0.05300000 1456588.23938958 12978.20181798
0.05400000 1448699.45032670 13146.94812481
0.05500000 1440715.37038055 13312.21064332
0.05600000 1432637.09475261 14698.85727807
0.05700000 1424469.17588856 16110.74713133
0.05800000 1416211.45865149 13786.81919371
0.05900000 1407867.58749390 15204.97065509
0.06000000 1399441.55101396 17926.84710601
0.06100000 1390934.50716266 12935.69152112
0.06200000 1382349.56723068 20901.12643352
0.06300000 1373690.02982698 14506.16739321
0.06400000 1364955.00576712 14639.14312148
0.06500000 1356151.17280276 17453.66641042
0.06600000 1347279.86673508 14894.17962363
0.06700000 1338342.10481271 13651.09010795
0.06800000 1329342.56778081 13758.69622056
0.06900000 1320284.41275345 13862.98698296
0.07000000 1311167.16737548 15360.32408510
0.07100000 1301995.80698160 16873.86644882
0.07200000 1292771.87587969 15571.43797444
0.07300000 1283499.13165495 19945.57744048
0.07400000 1274180.19397045 20068.33899552
0.07500000 1264815.87429756 15860.79180713
0.07600000 1255409.34705441 15949.97650207
0.07700000 1245964.84130437 16035.56825947
0.07800000 1236483.03657989 19048.02207179
0.07900000 1226966.54361766 17668.31905680
0.08000000 1217420.00891639 20708.31532312
0.08100000 1207844.30268694 17827.78274411
0.08200000 1198241.17268308 17901.72395993
0.08300000 1188613.76201657 20967.14774600
0.08400000 1178965.32154162 16534.98941075
0.08500000 1169297.74814469 16592.33582510
0.08600000 1159613.77203232 25726.03274041
0.08700000 1149915.11439114 22768.32033409
0.08800000 1140203.96325188 22832.58543642
0.08900000 1130483.69707472 16787.68369007
0.09000000 1120756.19581560 16828.15507068
0.09100000 1111023.94378245 19931.77048788
0.09200000 1101288.17613479 18435.56493472
0.09300000 1091553.46048904 24625.44722584
0.09400000 1081818.64129304 18499.09963552
0.09500000 1072088.08906848 24700.91073315
0.09600000 1062363.14804985 15457.38453074
0.09700000 1052648.73484216 21663.51198151
0.09800000 1042943.80916328 18585.25955313
0.09900000 1033252.36241388 17048.66478150
0.10000000 1023573.62861030 18608.56944324
0.10100000 1013911.89180920 20166.70847656
0.10200000 1004268.72052019 18619.14295422
0.10300000 994645.78721247 18619.77001251
0.10400000 985045.78820261 17065.91908348
0.10500000 975471.61696127 15509.99943942
0.10600001 965919.96714386 26355.12754362
0.10700001 956398.94088722 24789.86171435
0.10800001 946905.85798567 24771.05841067
0.10900001 937445.13513446 17014.63000350
0.11000001 928017.63833380 24722.39104888
0.11100001 918623.99311836 18519.46057304
0.11200001 909267.56466845 18494.50313602
0.11300001 899948.12228760 16928.02497721
0.11400001 890668.60736884 16900.43762057
0.11500001 881430.51803245 18404.27008314
0.11600001 872234.61445187 19900.03366584
0.11700001 863082.96055924 18331.88294562
0.11800001 853975.59659214 27438.23721080
0.11900001 844914.40933135 21291.84411803
0.12000001 835900.82627897 16688.76078278
0.12100001 826937.65942335 16646.25586837
0.12200001 818024.24014825 18111.05753012
0.12300001 809162.85876067 22575.64482306
0.12400001 800353.54159624 16507.29257320
0.12500001 791597.13733487 16457.30526067
0.12600001 782897.25338361 17897.03205572
0.12700001 774252.68753722 16352.21753141
0.12800001 765664.38717607 14815.60659011
0.12900001 757134.15695826 19193.35178351
0.13000001 748662.96359713 19124.59630652
0.13100001 740250.17112691 16122.64948713
0.13200001 731897.77113911 14601.36122254
0.13300001 723607.66288794 18907.86912264
0.13400001 715378.34381381 21729.61821780
0.13500001 707212.54725098 15869.85030855
0.13600001 699108.78414612 14366.68619160
0.13700001 691069.87128085 20027.20581407
0.13800001 683094.21721394 27060.77869100
0.13900001 675184.73299250 14178.88006149
0.14000001 667340.45536510 16937.10155593
0.14100001 659561.98992141 16858.40525748
0.14200001 651849.75748257 15380.39575322
0.14300001 644205.45103414 13914.83839867
0.14400001 636626.12112019 18000.60442376
0.14500001 629116.11481870 15155.40792090
0.14600001 621673.44621278 15078.69014922
0.14700001 614300.67656229 17728.71836197
0.14800001 606993.44236456 27132.60815378
0.14900001 599756.10740052 17542.86696915
0.15000001 592587.08057596 17448.72741084
0.15100001 585487.37621255 14684.02408828
0.15200001 578456.64603146 14603.13871814
0.15300001 571496.49977007 17162.04069796
0.15400001 564602.66535518 14439.71384788
0.15500001 557780.08155749 13052.05452441
0.15600001 551024.16350710 16869.60556193
0.15700001 544340.75255499 14190.96408888
0.15800001 537722.71582297 24366.90601760
0.15900001 531176.36752749 16572.70344910
0.16000001 524696.16453561 13938.55426882
0.16100001 518287.69797804 13853.83082091
0.16200001 511946.53645650 13768.80274797
0.16300001 505673.42756541 14927.48028642
0.16400001 499468.79759817 13598.03865657
0.16500001 493331.63261125 12283.95823196
0.16600001 487263.00989764 13426.53287164
0.16700001 481260.39544292 13340.53879155
0.16800001 475324.36903128 16869.26265343
0.16900001 469457.07511188 14365.38717673
0.17000001 463654.67615546 14271.29160595
0.17100001 457918.06357742 14177.14391782
0.17200001 452247.86158368 11735.83256230
0.17300001 446642.73131385 17486.06375671
0.17400001 441102.62192270 11578.94437230
0.17500001 435626.67628821 13800.65375658
0.17600001 430213.12944733 19417.67051468
0.17700001 424865.13579341 12478.28962761
0.17800001 419578.61398272 13518.82358105
0.17900001 414355.23403397 12306.35103208
0.18000001 409193.71446466 13331.53184697
0.18100001 404095.42671902 13238.16680464
0.18200001 399055.19544652 12049.47219570
0.18300001 394076.76331469 14139.47493567
0.18400001 389157.53604070 14038.85877587
0.18500001 384299.45490532 12866.34635806
0.18600001 379498.25552101 12773.91188432
0.18700001 374755.20045871 10568.09715222
0.18800001 370069.55219093 10491.47230029
0.18900001 365442.99545825 13539.66362144
0.19000001 360868.61126591 13440.55206165
0.19100001 356354.83357552 14368.22756866
0.19200001 351892.73130785 12224.75406327
0.19300001 347487.79596571 11123.08487446
0.19400001 343134.67501747 13047.69663409
0.19500001 338835.99150519 10957.95648310
0.19600001 334589.73242422 9887.12706037
0.19700001 330395.15658885 10794.01027586
0.19800001 326252.45503907 12660.22711610
0.19900001 322160.93469040 13530.75989646
0.20000001 318118.35356289 9591.26881322
0.20100001 314126.76576188 11421.64974292
0.20200001 310182.66395429 10389.56882020
0.20300001 306288.28797204 10309.66426042
0.20400001 302440.98837102 10230.06691518
0.20500001 298640.36690538 12919.18288298
0.20600001 294886.30616576 9156.22023924
0.20700001 291178.56071917 10901.72582864
0.20800001 287514.48341834 10816.29537749
0.20900001 283897.69408697 12519.88890107
0.21000001 280322.49483572 9759.42811906
0.21100001 276791.35835069 11442.55529515
0.21200001 273302.69223949 8732.02142985
0.21300001 269855.21439334 12127.29390816
0.21400001 266450.42832806 11170.93473578
0.21500001 263087.27752094 11081.23665308
0.21600001 259763.21069095 9300.82219852
0.21700001 256479.30342737 8386.87361860
0.21800001 253234.61003226 9982.50879945
0.21900001 250027.60984717 9076.00266658
0.22000001 246858.44043316 9001.69345602
0.22100001 243728.19627448 10550.99411561
0.22200001 240634.81849807 8049.23505936
0.22300001 237576.44703185 8780.82589750
0.22400001 234553.41545852 7916.17814605
0.22500001 231568.09354308 8635.17461656
0.22600001 228615.24824885 8562.78452808
0.22700001 225698.84831794 10034.57127074
0.22800001 222814.73882212 8419.05530453
0.22900001 219963.15645666 7588.72925663
0.23000001 217145.54431307 9781.32150616
0.23100001 214360.76259961 8205.73038038
0.23200001 211605.95983780 8874.75437532
0.23300001 208883.13954180 10264.51796254
0.23400001 206191.94111262 8721.91952157
0.23500001 203529.04410533 8645.91420251
0.23600001 200898.10348139 7856.12070821
0.23700001 198295.73712880 7787.07396536
0.23800001 195722.60115103 7016.65558314
0.23900001 193177.85803662 7649.84354008
0.24000001 190661.16167507 10338.60198085
0.24100001 188173.50638492 8196.83832585
0.24200001 185712.66704568 8123.07244082
0.24300001 183278.95054274 8720.41287932
0.24400001 180871.57242037 7976.43672105
0.24500001 178490.63144005 7903.56553404
0.24600001 176135.84915008 10441.33363155
0.24700001 173806.63974080 7758.72876506
0.24800001 171502.91562870 6405.63420176
0.24900001 169223.19629987 7615.04419374
0.25000001 166969.10032239 9429.58038680
0.25100001 164737.93342173 8095.22243132
0.25200001 162532.63938348 8018.54814334
0.25300001 160350.76326292 6720.30080629
0.25400001 158191.61691538 8471.16148660
0.25500001 156055.37144833 6591.77920185
0.25600001 153942.58641111 6527.93568562
0.25700001 151851.70274806 5876.66117439
0.25800001 149783.71209722 8146.73648642
0.25900001 147737.74504971 6337.94956251
0.26000001 145713.60200018 6845.62534587
0.26100001 143710.14421522 6777.37072187
0.26200001 141729.15620640 6709.45857228
0.26300001 139768.28112711 6641.78903343
0.26400001 137828.76232465 8218.04034247
0.26500001 135910.27118015 6507.38409203
0.26600001 134011.23592675 6977.29532869
0.26700001 132133.46045548 6374.11843400
0.26800001 130276.12650464 5256.64195321
0.26900001 128437.19452347 7282.38927409
0.27000001 126619.08214440 6176.47911929
0.27100001 124819.97067301 7638.98256669
0.27200001 123041.54498592 7053.97210786
0.27300001 121281.36632714 5483.13083113
0.27400001 119538.39475013 5917.15082016
0.27500001 117817.14187276 6340.91887568
0.27600001 116112.08983394 7236.68634138
0.27700001 114427.53898171 5725.95432163
0.27800001 112760.16895350 7078.51994106
0.27900001 111112.26764471 4666.71546194
0.28000001 109481.03810657 5537.55116951
0.28100001 107868.66858217 5931.69836608
0.28200001 106274.67133135 4511.36001154
0.28300001 104697.86510789 4906.14219116
0.28400001 103138.55750023 4850.09089601
0.28500001 101597.15285551 4794.36987018
0.28600001 100072.98771872 5169.77079024
0.28700001 98566.07269513  4683.85999617
0.28800001 97075.56995151  4208.22615659
0.28900001 95604.14747495  4990.53673441
0.29000001 94147.99058748  4520.51598203
0.29100001 92709.72671275  5278.89208890
0.29200001 91287.91283091  4413.31435472
0.29300001 89882.96045511  4756.60649244
0.29400001 88493.90488709  3915.85547662
0.29500001 87122.52093010  4641.88813489
0.29600001 85766.82282868  5349.27699305
0.29700001 84427.48007221  6038.25366060
0.29800001 83104.25376213  4472.67114921
0.29900001 81797.89340483  4048.99591522
0.30000001 80506.68884862  3634.87717359
0.30100001 79232.74495605  3589.24351642
0.30200001 77972.98888134  4607.03426615
0.30300001 76730.49058432  3848.80158992
0.30400001 75503.56105475  4836.00331450
0.30500001 74292.06124457  5456.00923610
0.30600001 73095.19951999  4375.84432643
0.30700001 71915.18058183  3654.72965020
0.30800001 70750.09902830  4590.97414330
0.30900001 69600.31066812  3560.05605922
0.31000001 68466.30760404  3832.74408113
0.31100001 67346.37509659  3151.81050374
0.31200001 66242.33024612  3421.08530753
0.31300001 65152.83016386  4296.17782441
0.31400001 64079.38463936  4541.62660135
0.31500001 63019.58256262  2987.12835490
0.31600002 61975.17223073  4420.37936865
0.31700002 60945.29915696  4069.92727041
0.31800002 59930.15971305  3154.42410585
0.31900002 58929.77003473  2828.62909560
0.32000002 57943.96989057  3069.00251057
0.32100002 56971.75000460  2751.73565552
0.32200002 56015.28520516  2985.33476637
0.32300002 55071.08316504  3479.39119912
0.32400002 54141.88588979  4223.06729937
0.32500002 53226.67182765  2602.78437562
0.32600002 52325.81886258  2823.23969042
0.32700002 51438.08868781  3543.05571659
0.32800002 50564.93706962  2744.91773880
0.32900002 49704.77271169  2706.42500231
0.33000002 48859.27961291  2668.44968242
0.33100002 48024.84583714  3109.12866673
0.33200002 47206.66976946  2593.77059331
0.33300002 46400.53518145  3719.46707628
0.33400002 45608.03056023  2520.98400860
0.33500002 44827.56254709  3163.03296311
0.33600002 44061.35308369  2672.76180463
0.33700002 43306.92452509  2415.22729514
0.33800002 42566.51913331  3246.76140065
0.33900002 41837.65022791  2560.46431521
0.34000002 41122.00606539  2313.72978084
0.34100002 40418.59147243  2073.47384073
0.34200002 39728.31970357  2248.42436011
0.34300002 39049.09057498  2014.93316910
0.34400002 38383.61550271  2582.25785524
0.34500002 37729.13490152  2153.95641354
0.34600002 37087.62377668  2702.57527260
0.34700002 36456.47047895  2283.63341896
0.34800002 35838.57137345  2251.37916031
0.34900002 35231.42858179  2034.61509696
0.35000002 34636.26088157  2005.95914396
0.35100002 34052.90488855  1977.79280960
0.35200002 33479.69182533  2127.29971934
0.35300002 32918.12543846  2097.54305229
0.35400002 32367.86376826  2240.66547548
0.35500002 31828.81143133  1699.65861094
0.35600002 31299.55005347  2514.13647713
0.35700002 30781.59535397  2148.86327344
0.35800002 30274.69008068  1793.32135187
0.35900002 29778.15490904  2090.42657363
0.36000002 29292.32019266  2379.26882034
0.36100002 28815.78938231  1564.69743757
0.36200002 28350.67453812  2161.17202241
0.36300002 27894.52344360  2436.86568346
0.36400002 27448.30665312  2404.47177671
0.36500002 27011.77290373  2076.12496372
0.36600002 26585.31222804  1902.57795972
0.36700002 26167.83599957  1733.35753872
0.36800002 25761.17347941  1711.05722355
0.36900002 25362.83844066  1689.16512016
0.37000002 24973.20243033  1667.71053730
0.37100002 24592.75796883  2058.41393950
0.37200002 24221.91368014  2168.34581536
0.37300002 23859.31185345  1740.05969590
0.37400002 23505.48738952  1983.27559244
0.37500002 23160.60939510  1698.13596129
0.37600002 22824.16336133  1548.84779907
0.37700002 22495.62434824  1403.05215706
0.37800002 22175.23859380  2269.19227280
0.37900002 21863.57239792  1744.71316000
0.38000002 21559.62063922  1724.98532906
0.38100002 21262.54267529  1218.34375301
0.38200002 20974.26266719  1445.96573678
0.38300002 20692.94495505  1191.91368588
0.38400002 20419.88272100  1650.94759620
0.38500002 20152.95977299  1283.54206875
0.38600002 19894.53189249  1385.85315729
0.38700002 19642.29765943  1600.45448911
0.38800002 19397.44602964  1697.76154418
0.38900002 19158.83250392  1120.79175458
0.39000002 18928.14391346  1332.16283174
0.39100002 18703.04583600  1319.68697671
0.39200002 18484.93843322  1307.62460672
0.39300002 18272.87911108  1187.91992729
0.39400002 18068.51316396  1819.95107466
0.39500002 17869.14807483  1167.57019053
0.39600002 17675.92145479  1157.86128975
0.39700002 17488.55762579  1044.06693973
0.39800002 17307.34091891  1450.18216430
0.39900002 17131.49683590  1336.25681651
0.40000002 16961.25947791  1224.26376712
0.40100002 16796.91213151  1620.56615923
0.40200002 16638.09300350  1709.81370852
0.40300002 16483.88756316  1098.81599702
0.40400002 16335.39751017  1587.80071322
0.40500002 16192.02434780  1183.31319540
0.40600002 16053.56530670  1470.10531262
0.40700002 15919.96721423  1364.02285554
0.40800002 15791.24112627  1259.43049570
0.40900002 15667.01429412  1252.57785216
0.41000002 15547.82783315  1054.37599446
0.41100002 15432.68823710  1049.11419607
0.41200002 15321.76158101  1423.77476238
0.41300002 15215.92638703  1606.34542479
0.41400002 15113.60704606  1223.06870816
0.41500002 15015.74171510  1030.68056016
0.41600002 14921.23449052  1306.65256625
0.41700002 14831.09758266  1022.90084875
0.41800002 14745.62676935  1297.46776091
0.41900002 14662.08557873  1200.82486580
0.42000002 14583.45173088  1013.03952249
0.42100002 14508.47490679  918.38650512
0.42200002 14437.03884309  1099.23618960
0.42300002 14368.33106204  1005.20848873
0.42400002 14303.00881875  1094.18022648
0.42500002 14241.30364889  910.01934629
0.42600002 14181.80929278  999.17942107
0.42700002 14126.68693021  997.62667829
0.42800002 14073.68964138  1177.33456274
0.42900002 14024.60013043  995.04542641
0.43000002 13977.81841799  1084.39920425
0.43100002 13932.86587482  1083.41970177
0.43200002 13891.69877070  1172.94564129
0.43300002 13852.92641072  992.00810728
0.43400002 13816.66185899  1532.61328934
0.43500002 13782.69069573  1081.66561706
0.43600002 13751.51466511  1081.69419482
0.43700002 13722.06523241  1262.15561989
0.43800002 13694.82539250  991.98472432
0.43900002 13670.54861020  1443.61000165
0.44000002 13647.81935223  1173.64428081
0.44100002 13627.55138145  993.85736935
0.44200002 13609.00817828  904.31863630
0.44300002 13592.56659406  1176.84447148
0.44400002 13578.34470985  996.99000757
0.44500002 13564.68796969  998.22543500
0.44600002 13553.27302061  999.62169901
0.44700002 13544.54574045  1092.23222027
0.44800002 13535.92462947  1093.97348040
0.44900002 13530.54997737  1095.97460011
0.45000002 13526.05407265  1281.05264193
0.45100002 13522.74627503  1008.52646499
0.45200002 13521.12403177  1194.38854795
0.45300002 13520.50425149  1196.97029811
0.45400002 13521.61309375  1015.13515112
0.45500002 13524.00822679  1295.05908917
0.45600002 13527.53559348  927.31260888
0.45700002 13532.28158330  1301.53490437
0.45800002 13537.74487829  1304.90329066
0.45900002 13544.39923027  1308.38902765
0.46000002 13552.84263484  1030.89702388
0.46100002 13561.19375770  939.79077195
0.46200002 13571.39892286  1036.78706985
0.46300002 13582.43971525  1228.93920368
0.46400002 13593.64374668  1232.60370515
0.46500002 13606.24543243  1141.29192096
0.46600002 13619.37902543  1335.65256433
0.46700002 13632.96974350  1626.95868630
0.46800002 13648.29749561  1632.26821635
0.46900002 13663.20215623  1348.55811674
0.47000002 13679.18352668  1159.72123436
0.47100002 13695.70433802  1066.62150440
0.47200002 13713.08361129  972.94332834
0.47300002 13731.01338571  1073.90260780
0.47400002 13748.70931210  1077.55514341
0.47500002 13767.31496282  1277.88223542
0.47600002 13786.88068163  1085.09649548
0.47700002 13805.96619712  1187.86538790
