# SAXS profile: number of points = 501, q_min = 0, q_max = 0.5, delta_q = 0.001
#    q    intensity    error
0.00000000 1664650.74656090 374.54641798
0.00100000 1664563.76819003 848.92754194
0.00200000 1664302.80685570 898.72354416
0.00300000 1663868.07576593 1197.98505723
0.00400000 1663259.45764165 1871.16696095
0.00500000 1662477.59170834 1645.85288094
0.00600000 1661522.36071469 1919.05840475
0.00700000 1660394.47151045 2590.21548321
0.00800000 1659093.70203504 3135.68722923
0.00900000 1657621.54256182 3232.36214617
0.01000000 1655977.33015843 3552.07152657
0.01100000 1654162.66808200 3572.99151862
0.01200000 1652177.42419363 3543.92073027
0.01300000 1650022.96416848 3465.04837758
0.01400000 1647699.53464638 4078.05652903
0.01500000 1645208.60230502 4343.35090349
0.01600000 1642549.94720907 4607.35280789
0.01700000 1639725.63597326 6198.16318202
0.01800000 1636736.31109335 7463.51791443
0.01900000 1633582.82195486 5390.82355570
0.02000000 1630266.12603502 5648.87238224
0.02100000 1626788.79736090 5368.40327469
0.02200000 1623149.60866673 6719.83968518
0.02300000 1619351.64770581 6412.63281681
0.02400000 1615395.46699017 8480.82658840
0.02500000 1611283.56018703 6912.40678890
0.02600000 1607016.29722677 7810.09956174
0.02700000 1602595.52529247 8077.08181741
0.02800000 1598021.89694239 9731.95379868
0.02900000 1593298.76791446 12905.72061266
0.03000000 1588426.66702577 8863.42120941
0.03100000 1583407.29800685 9120.42645618
0.03200000 1578241.91260307 10155.98717537
0.03300000 1572934.67715092 8824.16394561
0.03400000 1567484.05220677 9052.22081917
0.03500000 1561894.21939840 10964.49792650
0.03600000 1556165.61773946 11227.73545087
0.03700000 1550301.65599124 16789.76771087
0.03800000 1544303.61754629 14454.68252919
0.03900000 1538174.09596540 13843.56750478
0.04000000 1531913.21871398 13189.77342433
0.04100000 1525525.26583068 16338.37635460
0.04200000 1519011.49095078 15676.19931388
0.04300000 1512373.93559097 12976.16896970
0.04400000 1505615.19459876 16260.64485684
0.04500000 1498738.14401973 13443.68177652
0.04600000 1491742.83927673 10516.78750579
0.04700000 1484633.76854051 14965.10908288
0.04800000 1477412.28212191 11944.87885673
0.04900000 1470081.14257180 15435.85271550
0.05000000 1462642.11594078 20140.58287437
0.05100000 1455099.46725204 11349.77637328
0.05200000 1447451.88463927 13808.69162296
0.05300000 1439705.27387127 16326.25856680
0.05400000 1431860.32794602 12994.13308208
0.05500000 1423920.91336458 16745.31072232
0.05600000 1415887.77981891 16948.17751530
0.05700000 1407765.83540505 15921.83234164
0.05800000 1399554.75654687 13624.66619115
0.05900000 1391258.24228746 17529.85467157
0.06000000 1382880.15861598 13918.68944673
0.06100000 1374421.66106215 16616.75865877
0.06200000 1365885.87862309 19361.43323450
0.06300000 1357276.17811221 15635.82230291
0.06400000 1348591.59074960 17093.39921215
0.06500000 1339838.92550002 15917.28717952
0.06600000 1331019.37791738 18727.44352353
0.06700000 1322133.92405580 14834.34332214
0.06800000 1313187.16120931 16309.78530567
0.06900000 1304182.46561296 15063.30818308
0.07000000 1295119.50618136 17930.93040276
0.07100000 1286002.75512726 27777.66081179
0.07200000 1276833.98819047 15379.46610823
0.07300000 1267617.00795701 15477.60439237
0.07400000 1258354.43929213 15572.13691602
0.07500000 1249046.87455608 15663.04854110
0.07600000 1239697.81426385 18614.06355381
0.07700000 1230311.10688003 23031.42500070
0.07800000 1220887.75122288 15914.27258351
0.07900000 1211430.00562073 18898.30897408
0.08000000 1201942.90967328 16063.96774136
0.08100000 1192427.06233255 17600.22426580
0.08200000 1182884.39698546 20617.67600694
0.08300000 1173317.70442514 20697.32527743
0.08400000 1163730.66645882 22256.35004071
0.08500000 1154124.85619642 23821.13815018
0.08600000 1144502.98746171 20910.07056268
0.08700000 1134866.98879117 17976.29394658
0.08800000 1125218.81865867 18026.00632148
0.08900000 1115562.00969828 22590.13175744
0.09000000 1105898.43691856 18114.61724767
0.09100000 1096230.34117495 15127.97941894
0.09200000 1086559.25074474 19704.75293812
0.09300000 1076889.56611144 16702.55795528
0.09400000 1067220.12654205 18249.46502155
0.09500000 1057555.30004856 16751.67674014
0.09600000 1047896.56066339 19820.96437669
0.09700000 1038248.53940664 22893.38137020
0.09800000 1028610.52680324 16802.35374534
0.09900000 1018986.09621771 16813.27137819
0.10000000 1009374.97487399 18350.43790618
0.10100000 999780.86400902 16826.31273264
0.10200000 990205.63866096 16828.54562060
0.10300000 980651.15104663 15298.15867596
0.10400000 971119.75638002 16824.65057080
0.10500000 961614.45171423 22934.50575244
0.10600001 952131.95569555 16809.89046877
0.10700001 942680.36325584 16798.56486372
0.10800001 933256.84673021 19836.37521078
0.10900001 923865.96773501 16768.16810360
0.11000001 914508.57297708 19794.53899381
0.11100001 905185.21375472 21289.95722970
0.11200001 895899.44937657 15185.49638182
0.11300001 886650.71678327 24258.76475331
0.11400001 877442.11745455 19676.64041038
0.11500001 868275.04426158 25683.57701865
0.11600001 859150.53114750 16585.90178486
0.11700001 850070.19016054 15046.24307444
0.11800001 841034.49813193 16513.71314859
0.11900001 832045.02101072 14976.81108363
0.12000001 823103.24064661 25396.85168647
0.12100001 814212.10118382 14900.08215358
0.12200001 805370.92504224 14859.09426706
0.12300001 796581.66800169 19261.34563977
0.12400001 787844.64054503 19203.71401812
0.12500001 779160.71989793 16198.75212997
0.12600001 770533.45740944 19082.26197197
0.12700001 761961.35842938 17555.59052554
0.12800001 753445.79203365 16037.09443925
0.12900001 744988.24150392 14527.27139403
0.13000001 736589.80566874 20263.58650907
0.13100001 728249.80304221 20187.08549190
0.13200001 719970.32935246 20108.77224675
0.13300001 711753.08204522 18598.10891061
0.13400001 703596.66111600 17097.39967119
0.13500001 695503.68211688 18444.75851938
0.13600001 687472.91301358 18365.83973712
0.13700001 679507.01249528 18285.53456847
0.13800001 671604.31878784 18203.83591916
0.13900001 663767.54687601 18120.85488426
0.14000001 655996.11772007 15261.75039851
0.14100001 648290.52838408 16570.30668700
0.14200001 640650.94735997 19238.74885662
0.14300001 633079.42751002 17776.87116297
0.14400001 625572.66622196 19048.68858498
0.14500001 618135.31404941 17598.31322114
0.14600001 610765.17719976 16160.84735108
0.14700001 603464.91449599 14736.61390721
0.14800001 596229.88341399 18656.03393219
0.14900001 589064.83895458 17230.14735235
0.15000001 581968.10058743 14499.73591028
0.15100001 574940.42510769 13108.64231099
0.15200001 567981.71479917 15642.21716368
0.15300001 561093.29287830 14257.38124483
0.15400001 554271.25247634 16752.84939668
0.15500001 547520.17099211 14093.16986644
0.15600001 540835.61930378 17831.35120999
0.15700001 534223.55377544 26588.30752629
0.15800001 527676.70785068 15102.10809149
0.15900001 521201.14114915 18763.24196701
0.16000001 514791.81548310 12432.22293075
0.16100001 508454.17131480 12355.43694618
0.16200001 502183.32598423 13506.22118992
0.16300001 495980.64108985 15861.46165084
0.16400001 489845.99744475 12123.68900911
0.16500001 483778.77715565 18069.13817983
0.16600001 477779.83556984 13165.22399070
0.16700001 471846.68923991 16646.75198236
0.16800001 465979.83348646 15356.36613762
0.16900001 460181.66759340 17601.94961658
0.17000001 454448.03410935 12822.25188786
0.17100001 448780.12968893 11578.52789273
0.17200001 443178.28107774 13800.57232446
0.17300001 437641.43360870 18275.90713057
0.17400001 432169.08455410 11344.43900530
0.17500001 426760.91529289 12393.13756540
0.17600001 421414.91034829 11188.56639817
0.17700001 416134.09143035 13332.93691915
0.17800001 410914.29307115 12136.35421908
0.17900001 405757.62658840 13146.54772242
0.18000001 400662.61518090 17404.78482557
0.18100001 395630.47641005 10800.71251618
0.18200001 390656.09114344 10723.51020844
0.18300001 385743.17545809 11711.16336013
0.18400001 380889.37069005 19025.42496474
0.18500001 376096.18084743 15739.62591204
0.18600001 371359.69822204 11458.30402997
0.18700001 366681.17855542 12408.49166855
0.18800001 362059.78720053 11290.83499730
0.18900001 357496.88494838 10188.66170242
0.19000001 352986.16975941 11124.35966558
0.19100001 348535.60724287 10037.82596288
0.19200001 344136.51985844 10959.02799272
0.19300001 339794.28052402 14832.02104573
0.19400001 335503.43494489 10794.82352945
0.19500001 331266.78364446 9739.24389938
0.19600001 327082.22189653 10631.80812517
0.19700001 322949.05123124 12469.06345730
0.19800001 318867.44595045 13325.47119601
0.19900001 314836.69323853 9445.10124353
0.20000001 310854.50679549 11246.71658739
0.20100001 306923.04231132 13019.67607019
0.20200001 303038.64267941 11073.03252686
0.20300001 299203.80711374 10986.76431650
0.20400001 295415.52464377 14534.44449945
0.20500001 291673.74713241 13519.07881859
0.20600001 287978.14167516 11624.23823817
0.20700001 284328.36717929 13306.56821298
0.20800001 280722.29323822 15841.15975625
0.20900001 277162.69442788 11349.81287334
0.21000001 273644.71127625 9526.94107344
0.21100001 270170.36847586 9450.55993605
0.21200001 266738.12823659 10226.74032005
0.21300001 263346.70375571 9298.77254922
0.21400001 259997.70207296 10900.40417474
0.21500001 256689.84645722 8316.75141841
0.21600001 253420.92807294 9073.73675864
0.21700001 250191.77444292 9817.52569331
0.21800001 247001.44704682 12170.99687868
0.21900001 243848.30699202 10461.09286457
0.22000001 240732.92420124 9576.35617752
0.22100001 237656.03387596 14245.10334408
0.22200001 234615.62173678 9417.47150181
0.22300001 231609.80078924 8560.29864195
0.22400001 228639.21258685 8488.23116866
0.22500001 225705.75402523 8416.56796560
0.22600001 222804.55969715 9103.79473973
0.22700001 219939.35404604 8274.11889049
0.22800001 217106.24838557 8949.11998166
0.22900001 214305.26141071 7393.53186832
0.23000001 211537.82811789 7329.78609092
0.23100001 208802.84721486 11626.14308276
0.23200001 206097.62366895 7923.42351668
0.23300001 203424.02083007 8568.22016259
0.23400001 200781.73933976 9908.57930505
0.23500001 198167.46410985 9119.66712966
0.23600001 195584.61302505 6953.03332190
0.23700001 193030.19243183 10336.76729363
0.23800001 190504.56152212 6829.58885360
0.23900001 188006.99976622 9475.55323641
0.24000001 185537.15867490 6707.16860335
0.24100001 183096.06840965 7311.02635742
0.24200001 180681.40872280 7903.00519136
0.24300001 178293.67833125 6525.54893560
0.24400001 175931.76868510 9698.23920753
0.24500001 173596.03860177 8327.40236565
0.24600001 171286.25418928 6980.77161971
0.24700001 169001.69280830 8172.92225084
0.24800001 166742.11352921 6850.60005843
0.24900001 164506.27783396 6785.88428167
0.25000001 162295.81934450 6110.43788739
0.25100001 160107.96212634 12104.16250939
0.25200001 157945.66776702 8391.65372547
0.25300001 155806.42895086 5936.22522387
0.25400001 153689.67527678 7054.35642895
0.25500001 151595.59502574 7567.65246173
0.25600001 149524.52470072 5764.17069993
0.25700001 147474.95456267 9131.64961857
0.25800001 145448.21313780 7910.92868686
0.25900001 143443.08872521 6713.13686997
0.26000001 141459.40643982 8307.20403624
0.26100001 139496.27913287 6578.64483518
0.26200001 137555.21874586 6511.86436355
0.26300001 135634.12620845 6445.33398240
0.26400001 133733.93533470 8505.47868975
0.26500001 131854.48052335 6839.29222837
0.26600001 129994.20890846 5726.89514446
0.26700001 128155.04128088 8242.93264524
0.26800001 126335.95423994 6117.18719377
0.26900001 124534.99493298 6052.40104015
0.27000001 122754.52632849 5987.96607767
0.27100001 120992.83093557 7898.41237725
0.27200001 119251.56569971 6348.35740045
0.27300001 117528.10292921 5313.44578488
0.27400001 115821.79817784 5733.17928112
0.27500001 114136.87613755 5197.79358529
0.27600001 112467.96691424 6074.95752038
0.27700001 110819.10333030 7855.96660688
0.27800001 109187.35146217 6397.28722493
0.27900001 107574.80144023 7229.02699892
0.28000001 105978.61971024 4466.99903220
0.28100001 104401.00358371 6624.24399091
0.28200001 102841.61390971 6111.87740393
0.28300001 101299.06337029 6041.47642535
0.28400001 99773.88142425  5118.40035932
0.28500001 98266.18604400  5480.30545506
0.28600001 96775.64268045  6665.90658334
0.28700001 95302.11151078  6175.57711820
0.28800001 93844.80321464  4474.98965311
0.28900001 92406.12550891  5627.53330986
0.29000001 90982.69453375  4368.53428482
0.29100001 89576.79285955  4315.81008426
0.29200001 88187.22034934  3875.82851782
0.29300001 86814.27684921  4211.36076930
0.29400001 85456.92379058  6050.35049078
0.29500001 84117.06154607  3734.79770944
0.29600001 82792.68284497  3688.41419534
0.29700001 81484.47036572  4735.06279710
0.29800001 80192.19188316  3956.28197384
0.29900001 78916.44585807  5681.98437076
0.30000001 77655.87220815  3506.16279618
0.30100001 76412.10280652  4153.76210520
0.30200001 75182.41433585  3758.74498266
0.30300001 73969.79336657  4047.62728464
0.30400001 72772.60670094  4661.08567986
0.30500001 71590.61052774  3614.61009667
0.30600001 70423.06925491  4215.87724054
0.30700001 69272.09452310  4800.55637772
0.30800001 68135.88201425  4421.33759323
0.30900001 67014.87738475  4051.04952970
0.31000001 65909.32134246  4304.53798067
0.31100001 64817.81318414  3033.47380064
0.31200001 63741.92283124  3890.48844420
0.31300001 62680.32503315  4428.36517326
0.31400001 61634.79338930  4659.59060085
0.31500001 60602.57906747  3159.81862219
0.31600002 59585.62412887  2833.29656148
0.31700002 58583.08435668  3353.29590735
0.31800002 57595.12030357  4685.07528293
0.31900002 56621.52272709  3533.18318546
0.32000002 55662.52415630  2948.16573153
0.32100002 54716.97000943  3699.96168723
0.32200002 53786.86780292  4169.55818951
0.32300002 52869.04971788  2826.37953175
0.32400002 51965.93266593  3040.00720491
0.32500002 51076.65839918  3246.94332818
0.32600002 50201.59369629  2708.62711614
0.32700002 49339.58923877  3398.51106770
0.32800002 48491.89327559  2871.69005576
0.32900002 47657.06430473  2359.02479479
0.33000002 46836.77898254  2557.99080526
0.33100002 46027.26602117  2979.80534332
0.33200002 45234.09483341  3163.22040149
0.33300002 44452.67406605  2895.20279902
0.33400002 43684.76422967  3292.73925974
0.33500002 42928.67669571  3029.04757109
0.33600002 42186.77809443  2345.79590703
0.33700002 41456.56052733  2942.58680558
0.33800002 40740.00641426  2693.11825155
0.33900002 40035.07386069  2450.14663631
0.34000002 39343.11137631  2213.64026642
0.34100002 38663.27056791  1983.42587407
0.34200002 37996.40040670  2541.38936156
0.34300002 37340.51574143  2119.44777386
0.34400002 36698.11270502  2278.95290691
0.34500002 36066.68295390  2059.04702735
0.34600002 35448.13507082  2398.59817317
0.34700002 34839.63588091  2000.49198703
0.34800002 34244.36647041  1971.96193659
0.34900002 33659.75592970  2120.56472400
0.35000002 33086.80684059  2961.43478653
0.35100002 32525.71528664  2060.82941817
0.35200002 31974.49346522  2370.26931284
0.35300002 31434.89762458  1669.19314292
0.35400002 30906.51647002  1974.92649597
0.35500002 30389.02200918  1622.77385215
0.35600002 29881.34602089  1920.17538625
0.35700002 29384.77155722  2209.14723031
0.35800002 28899.28131086  1711.84900953
0.35900002 28423.80494240  1841.86264751
0.36000002 27958.90004808  1513.97450931
0.36100002 27503.30692607  1642.77260051
0.36200002 27058.92143621  2062.70167879
0.36300002 26623.39305607  1744.36479566
0.36400002 26197.67726721  1434.32289832
0.36500002 25781.52473484  1556.94635249
0.36600002 25375.29962600  1536.60134164
0.36700002 24977.93351417  1516.66019482
0.36800002 24591.30762083  1361.12894129
0.36900002 24212.69502292  1746.94602866
0.37000002 23842.84424977  1326.85434535
0.37100002 23481.98672938  1572.35390588
0.37200002 23130.60970613  2070.65227898
0.37300002 22787.39112321  1789.72178360
0.37400002 22452.69498715  1515.55698343
0.37500002 22126.93122787  1747.14257252
0.37600002 21809.45426231  1479.98963635
0.37700002 21499.69102445  1950.45206213
0.37800002 21197.98628612  2289.70059716
0.37900002 20904.84449150  1310.73381171
0.38000002 20619.32603318  1885.43126179
0.38100002 20340.53957620  1282.06427022
0.38200002 20070.47896080  1614.26869929
0.38300002 19807.14132777  1483.15881289
0.38400002 19551.99728710  1354.95347619
0.38500002 19302.81764858  1341.15983376
0.38600002 19061.99370243  1327.85854422
0.38700002 18827.40722352  1314.90618278
0.38800002 18599.83638186  1302.36060516
0.38900002 18378.48378135  1182.65548736
0.39000002 18164.90525445  1278.44609238
0.39100002 17956.72427632  1372.61206871
0.39200002 17755.47951656  1046.68556709
0.39300002 17560.21680267  1349.15152087
0.39400002 17372.42750404  1235.17965406
0.39500002 17189.38785797  1735.78446813
0.39600002 17012.45826371  1620.94710016
0.39700002 16841.29751261  1307.05316188
0.39800002 16676.04618272  1297.47983472
0.39900002 16516.16723277  1189.16409710
0.40000002 16361.64716989  1082.56843629
0.40100002 16212.93824215  977.64022232
0.40200002 16069.54088619  1457.10568889
0.40300002 15930.65938502  1061.93780492
0.40400002 15797.41225406  1631.47782784
0.40500002 15669.10289774  1145.09809402
0.40600002 15545.61140359  1518.49539385
0.40700002 15426.69531700  1038.52517795
0.40800002 15312.66721555  1127.31861382
0.40900002 15202.88209611  1215.47048118
0.41000002 15097.99696671  1210.02902423
0.41100002 14997.12991299  1019.50493979
0.41200002 14900.26031123  1107.68540402
0.41300002 14808.26907499  1195.47161907
0.41400002 14719.74797247  1191.19566111
0.41500002 14635.51336380  1004.58168489
0.41600002 14554.54322967  1001.42539437
0.41700002 14477.69581430  1452.40251291
0.41800002 14405.51986888  1267.54175332
0.41900002 14334.95809091  1264.34336353
0.42000002 14269.17748828  1351.64790162
0.42100002 14206.97980155  1348.95279608
0.42200002 14148.16775092  1256.78180087
0.42300002 14091.98018999  1075.49997906
0.42400002 14038.88453016  1073.97471745
0.42500002 13989.38075357  983.31361976
0.42600002 13941.88754204  892.97793938
0.42700002 13898.69546995  1427.67406633
0.42800002 13857.26866315  980.88680880
0.42900002 13819.81589613  1337.06725131
0.43000002 13784.44315349  1247.63000894
0.43100002 13750.73085367  1069.25688185
0.43200002 13720.69816120  1158.50720414
0.43300002 13692.89513581  1604.53352805
0.43400002 13667.41579478  1426.87827659
0.43500002 13644.09030082  1070.78825755
0.43600002 13623.39134412  982.31467942
0.43700002 13604.30469558  1251.32400520
0.43800002 13587.32648220  1073.67058950
0.43900002 13573.07549673  1074.98763028
0.44000002 13560.23339878  1076.41137821
0.44100002 13549.70587015  1078.01465012
0.44200002 13540.76467304  989.76224068
0.44300002 13533.76833276  1171.75371778
0.44400002 13528.82924823  1354.57409267
0.44500002 13524.31278939  1447.64250958
0.44600002 13521.88544690  997.30670840
0.44700002 13522.00207648  908.67858260
0.44800002 13522.02115884  1092.84980185
0.44900002 13525.15175630  1004.24256550
0.45000002 13529.01663587  1098.28562255
0.45100002 13533.91124921  1101.11907142
0.45200002 13540.30915893  1012.07045605
0.45300002 13547.68414143  1291.63626726
0.45400002 13556.53369622  925.23346862
0.45500002 13566.53726448  1020.74631216
0.45600002 13577.44220985  1209.95381987
0.45700002 13589.48339830  1120.31706445
0.45800002 13602.06326632  1123.80252032
0.45900002 13615.80748690  1315.28706557
0.46000002 13631.09506200  1036.84929503
0.46100002 13646.09684524  1323.94437867
0.46200002 13662.86308459  1043.77447482
0.46300002 13680.28806116  1047.36290360
0.46400002 13697.72696280  1242.04145122
0.46500002 13716.40310571  1054.65428478
0.46600002 13735.50118630  1539.47504592
0.46700002 13754.94217905  1255.27608275
0.46800002 13775.87726739  1356.78621637
0.46900002 13796.26764521  1167.16429810
0.47000002 13817.55464569  1073.83131019
0.47100002 13839.35962952  979.82670821
0.47200002 13861.74837306  1081.84020305
0.47300002 13884.58424938  1283.35218300
0.47400002 13907.01907400  990.87515599
0.47500002 13930.27582790  1491.93261188
0.47600002 13954.29972891  1397.80227010
0.47700002 13977.68416401  1403.08000289
