# SAXS profile: number of points = 501, q_min = 0, q_max = 0.5, delta_q = 0.001
#    q    intensity    error
0.00000000 1646666.22097350 395.19989303
0.00100000 1646580.01928656 790.35842803
0.00200000 1646321.37264060 740.84464115
0.00300000 1645890.51416268 987.53434368
0.00400000 1645287.28358900 1604.15516245
0.00500000 1644512.37593535 1776.07343631
0.00600000 1643565.61318971 2243.46715334
0.00700000 1642447.74476706 1970.93737563
0.00800000 1641158.56317454 2880.23339997
0.00900000 1639699.47951289 3197.41412173
0.01000000 1638069.88402838 3243.37851042
0.01100000 1636271.34024929 4417.93281103
0.01200000 1634303.72749036 3505.58164916
0.01300000 1632168.45094019 4113.06467778
0.01400000 1629865.68719148 4033.91775463
0.01500000 1627396.87766069 4686.90321637
0.01600000 1624761.85044858 5800.40006540
0.01700000 1621962.69901745 5255.15938056
0.01800000 1618999.94823731 4614.15006010
0.01900000 1615874.58866718 5332.38638321
0.02000000 1612587.39143466 5587.61556408
0.02100000 1609141.06126285 5310.16574292
0.02200000 1605534.19405512 6093.00254326
0.02300000 1601770.13486605 6919.64729759
0.02400000 1597849.25839921 6591.12849144
0.02500000 1593773.95102776 6837.29056217
0.02600000 1589544.76341258 8368.95356215
0.02700000 1585163.52761354 7323.45583300
0.02800000 1580630.65914341 8938.46678737
0.02900000 1575949.68132880 9219.30605907
0.03000000 1571121.10021747 8036.28479700
0.03100000 1566146.60070037 12779.75684975
0.03200000 1561027.38418333 9272.50308912
0.03300000 1555767.52474682 9521.29769039
0.03400000 1550365.56302243 10581.24545585
0.03500000 1544825.82917501 9176.26584904
0.03600000 1539148.54421034 11104.95725968
0.03700000 1533337.15842278 9614.02442794
0.03800000 1527392.76680422 10722.29771919
0.03900000 1521318.16931320 10040.70038245
0.04000000 1515113.43679606 11181.53768170
0.04100000 1508782.78679732 15208.53119608
0.04200000 1502327.47791616 13566.01775495
0.04300000 1495749.47620625 14807.92050180
0.04400000 1489051.62175708 15076.64837048
0.04500000 1482236.18024375 13295.65915457
0.04600000 1475303.81239976 13521.16006920
0.04700000 1468258.67978267 10571.46298609
0.04800000 1461102.18787262 15034.74221275
0.04900000 1453837.17249970 14174.91309168
0.05000000 1446465.22889046 12172.00546792
0.05100000 1438990.51434535 20203.42776257
0.05200000 1431412.01780166 14793.64389338
0.05300000 1423735.15185852 14991.93184796
0.05400000 1415961.08790724 12849.84747200
0.05500000 1408093.48242932 14193.58296501
0.05600000 1400132.84124861 15562.47725669
0.05700000 1392084.60279166 15744.47759250
0.05800000 1383947.61345931 13472.73064610
0.05900000 1375726.37462998 13619.69174496
0.06000000 1367424.26410420 20019.09216175
0.06100000 1359042.46700125 12639.09553375
0.06200000 1350584.12765934 14039.32266327
0.06300000 1342052.57906242 15460.44643366
0.06400000 1333446.71960650 24702.10163595
0.06500000 1324773.83872965 15738.31394031
0.06600000 1316034.26717765 13226.14500397
0.06700000 1307229.89114300 20000.61827050
0.06800000 1298364.53497996 14781.88092267
0.06900000 1289442.00623939 14893.05586934
0.07000000 1280461.71308810 15000.60967128
0.07100000 1271428.18188992 16477.71000907
0.07200000 1262342.94731110 20733.98388091
0.07300000 1253210.14377756 15301.69657249
0.07400000 1244032.17816414 18193.97145830
0.07500000 1234809.84585951 14076.83290261
0.07600000 1225546.41453016 18401.58027685
0.07700000 1216245.78405725 14230.07634070
0.07800000 1206908.78726183 18592.43073968
0.07900000 1197537.62686840 21555.67829467
0.08000000 1188137.63037009 20210.22204068
0.08100000 1178709.31797172 14498.12529128
0.08200000 1169254.21947660 18924.38043026
0.08300000 1159775.49592295 17535.80632135
0.08400000 1150276.59585703 14666.02728558
0.08500000 1140759.35557655 20602.11492888
0.08600000 1131225.76877695 19191.24606836
0.08700000 1121678.70369488 16286.77554244
0.08800000 1112119.53589118 17816.15580169
0.08900000 1102551.86238803 16372.89592549
0.09000000 1092977.67208877 20886.80429478
0.09100000 1083398.60362684 17941.08171895
0.09200000 1073816.96496627 16477.72210164
0.09300000 1064236.80238687 18006.88754257
0.09400000 1054656.88268139 22543.29192679
0.09500000 1045081.39308093 16554.09004449
0.09600000 1035512.08762551 16573.37174152
0.09700000 1025953.77636073 15081.52122153
0.09800000 1016404.83048719 21131.05741936
0.09900000 1006869.75091841 22654.57046094
0.10000000 997347.90495878 15109.82147070
0.10100000 987842.80068781 18136.79467363
0.10200000 978356.68593242 19650.29496123
0.10300000 968890.92121125 18137.63889828
0.10400000 959448.04654976 21155.83042170
0.10500000 950031.32350292 15105.49875440
0.10600001 940637.07262810 15097.22572606
0.10700001 931273.30743066 19612.61677741
0.10800001 921937.49708611 24117.88605880
0.10900001 912634.44916572 19576.00985596
0.11000001 903364.12600500 21057.41876834
0.11100001 894127.75999594 18025.61649004
0.11200001 884928.54665330 17999.44748629
0.11300001 875766.04988533 20965.84022134
0.11400001 866643.40253916 17939.51927723
0.11500001 857561.75513377 22382.36286293
0.11600001 848522.48437576 26804.82654371
0.11700001 839526.98332697 19317.51679611
0.11800001 830575.57485533 22238.66206415
0.11900001 821670.10724560 17748.07515247
0.12000001 812811.81806950 19178.29575074
0.12100001 804003.73694292 16184.59598709
0.12200001 795245.04612997 16139.49897156
0.12300001 786538.00364433 16092.56831275
0.12400001 777882.76632114 26253.54460034
0.12500001 769280.02580282 20355.15044189
0.12600001 760733.26963189 17390.36336328
0.12700001 752241.05614439 17331.63475034
0.12800001 743805.21486765 20149.68422040
0.12900001 735426.74163848 17208.98656544
0.13000001 727106.59533543 18573.93885332
0.13100001 718844.72095967 18503.06398969
0.13200001 710642.47484215 18430.51345385
0.13300001 702501.93451955 18356.37641437
0.13400001 694421.58337165 21093.05658936
0.13500001 686404.13725691 15402.90956626
0.13600001 678448.48797071 15336.32879370
0.13700001 670556.64990311 15268.57563826
0.13800001 662727.52488604 15199.65650001
0.13900001 654963.94516493 16505.09219651
0.14000001 647264.64055376 20534.47168999
0.14100001 639630.93543304 14986.55352401
0.14200001 632062.38896836 16269.28665939
0.14300001 624561.33181618 14839.57794390
0.14400001 617124.25388741 20133.67973278
0.14500001 609755.98136292 17359.75360830
0.14600001 602454.18923849 14612.52704932
0.14700001 595221.60627865 22463.66448071
0.14800001 588053.55048049 13142.99747331
0.14900001 580955.01552126 14378.63731255
0.15000001 573923.70693833 20798.99612080
0.15100001 566961.10444402 16804.72792865
0.15200001 560066.65962298 12853.53044487
0.15300001 553241.61512448 14057.87010369
0.15400001 546482.53542337 15246.86345783
0.15500001 539793.67074559 15157.40698986
0.15600001 533170.55692507 15067.40064981
0.15700001 526619.17854712 12480.87512062
0.15800001 520132.44309527 14886.19122400
0.15900001 513716.36826165 14795.03210427
0.16000001 507365.57752508 15928.74305828
0.16100001 501085.81948002 13394.02458696
0.16200001 494872.28374510 15729.51628137
0.16300001 488726.20178871 12022.66513157
0.16400001 482647.47665414 16723.73585559
0.16500001 476635.39670907 14241.86632604
0.16600001 470690.94435880 14148.97045544
0.16700001 464811.55325277 15227.22720351
0.16800001 458997.69099424 13962.71041931
0.16900001 453251.96861877 15025.30346918
0.17000001 447570.22198729 13776.21208328
0.17100001 441953.47545868 19384.08034896
0.17200001 436402.17543388 13589.56438475
0.17300001 430914.89609821 12371.56725122
0.17400001 425491.59209377 13402.98578392
0.17500001 420131.93186195 16637.22528747
0.17600001 414833.77010337 17622.13938627
0.17700001 409599.99804911 12029.95251088
0.17800001 404426.94398016 11944.75035463
0.17900001 399316.05981545 14015.99436155
0.18000001 394266.40484348 13915.63341626
0.18100001 389278.77275664 10627.31099825
0.18200001 384348.56812522 11605.40556276
0.18300001 379478.94679851 17805.15302489
0.18400001 374668.05905562 11436.74304295
0.18500001 369917.16764595 12384.82735787
0.18600001 365222.27177661 11268.93372805
0.18700001 360584.71291155 13219.03619987
0.18800001 356003.91648147 16148.33841455
0.18900001 351481.08209832 14024.09583833
0.19000001 347009.92578846 11930.20181229
0.19100001 342598.16629085 11840.19318646
0.19200001 338237.30066194 10771.16734853
0.19300001 333932.94460383 10689.19406186
0.19400001 329679.45000733 14464.68655258
0.19500001 325479.51892947 13396.73763220
0.19600001 321331.26080917 10444.87312619
0.19700001 317233.98747159 11306.21984779
0.19800001 313187.72247154 12153.25014486
0.19900001 309191.86360817 11130.90761594
0.20000001 305243.99345130 11043.72820501
0.20100001 301346.49511317 11870.03900351
0.20200001 297495.63209709 12682.23939571
0.20300001 293694.00898992 11683.14822982
0.20400001 289938.40495318 13373.40956057
0.20500001 286228.71987778 9728.91464850
0.20600001 282564.92533046 12283.09788471
0.20700001 278946.70033160 13925.01993878
0.20800001 275371.65136293 9496.19184614
0.20900001 271842.70977524 8563.04576271
0.21000001 268355.17001948 8493.44153262
0.21100001 264910.95680028 9266.58570694
0.21200001 261508.16030804 11697.26056356
0.21300001 258146.15519807 8286.49197361
0.21400001 254826.17853705 9039.95911098
0.21500001 251547.04904758 10595.16220680
0.21600001 248306.46310834 8082.37575630
0.21700001 245105.30917250 12022.41598333
0.21800001 241942.78123982 11921.73110926
0.21900001 238817.27935191 10245.26176861
0.22000001 235729.09688040 8595.86192418
0.22100001 232679.27882199 7748.22035114
0.22200001 229665.59970846 9218.77760820
0.22300001 226686.36195136 8378.32833389
0.22400001 223742.09459511 10571.81446952
0.22500001 220834.73587346 8234.92769013
0.22600001 217959.36284046 11874.42664907
0.22700001 215119.77807520 7357.09675808
0.22800001 212312.24608769 10210.09639719
0.22900001 209536.53052888 10120.61490316
0.23000001 206794.15775308 9315.04327651
0.23100001 204084.25444227 7812.34562952
0.23200001 201403.98025619 8446.88333143
0.23300001 198754.97021303 8371.55974130
0.23400001 196137.14207400 7605.21804361
0.23500001 193547.51571248 7536.74061830
0.23600001 190988.83771384 10184.48025279
0.23700001 188458.59301055 7400.76929756
0.23800001 185957.19494355 9333.19205566
0.23900001 183483.58982847 8587.03241014
0.24000001 181037.75463918 6544.51513976
0.24100001 178620.40438725 7132.31308455
0.24200001 176229.53890037 7065.92369644
0.24300001 173865.50702991 8272.52121580
0.24400001 171527.26597295 6933.99005496
0.24500001 169215.06421807 6868.43978152
0.24600001 166928.72205849 7421.65133380
0.24700001 164667.80400132 6125.64259863
0.24800001 162431.58355272 6673.50192596
0.24900001 160219.16728911 6609.04096333
0.25000001 158032.04978965 7139.88834727
0.25100001 155867.81261680 7659.34467435
0.25200001 153728.78501686 7584.20996761
0.25300001 151612.88746214 5776.45128559
0.25400001 149519.54345161 5719.12280760
0.25500001 147448.85271567 5662.03621216
0.25600001 145401.19199412 6726.25945989
0.25700001 143375.01751190 5548.61344023
0.25800001 141371.71158984 6041.52038064
0.25900001 139390.02889710 5436.21138420
0.26000001 137429.87556320 9146.64580089
0.26100001 135490.18708434 6389.71752523
0.26200001 133572.76908249 5269.44598964
0.26300001 131675.25453936 6778.64242443
0.26400001 129798.64433924 7739.24453493
0.26500001 127942.89986636 10209.84389245
0.26600001 126106.34675612 6565.72725454
0.26700001 124290.96873493 5496.14689754
0.26800001 122495.72448850 5436.97298870
0.26900001 120718.63029546 7333.65713749
0.27000001 118962.23336259 6286.55951954
0.27100001 117224.33334883 5261.02832966
0.27200001 115507.08176833 5676.01826670
0.27300001 113807.88063803 6080.75535026
0.27400001 112125.69235931 5087.70353158
0.27500001 110465.08957040 5030.58041711
0.27600001 108820.62678104 7234.39561078
0.27700001 107196.00753238 7152.11796105
0.27800001 105588.67119679 5744.55192833
0.27900001 104000.75854736 5241.63847886
0.28000001 102429.17726941 5180.86803149
0.28100001 100876.16222546 5973.88660973
0.28200001 99341.56788488  4217.04975630
0.28300001 97823.90653334  4584.02847712
0.28400001 96323.45973300  4941.39371818
0.28500001 94840.90019514  5289.27725423
0.28600001 93375.27401617  6029.70860499
0.28700001 91926.80144653  4368.36181150
0.28800001 90494.62627221  4315.23645804
0.28900001 89081.17864495  6587.55347261
0.29000001 87683.06304879  5358.31223654
0.29100001 86302.38954767  4158.04932523
0.29200001 84938.31702770  4479.64705209
0.29300001 83590.78243260  4423.62441573
0.29400001 82258.97150562  4367.95159371
0.29500001 80944.69650399  5031.52257287
0.29600001 79645.92250935  3903.04861733
0.29700001 78363.41585245  6305.12073796
0.29800001 77096.81519770  4495.13002289
0.29900001 75846.86612292  3413.10913711
0.30000001 74612.05436619  4379.35473834
0.30100001 73394.23324766  4654.66249292
0.30200001 72190.35876925  5249.68313822
0.30300001 71003.62870833  4856.64843357
0.30400001 69832.58050337  3194.84070928
0.30500001 68676.53346653  3152.25303535
0.30600001 67534.93215014  3731.98052730
0.30700001 66410.05063522  3681.77338152
0.30800001 65299.84635365  3631.97762614
0.30900001 64204.98088299  3582.63810289
0.31000001 63125.43463917  4122.72233147
0.31100001 62060.02370005  3194.85017134
0.31200001 61010.39319495  3723.76952496
0.31300001 59974.79686596  3389.77567936
0.31400001 58955.16707397  3064.19495375
0.31500001 57949.29381245  3570.83565379
0.31600002 56958.53846379  2979.21649541
0.31700002 55982.10396730  3204.41578281
0.31800002 55020.06446746  4212.33633508
0.31900002 54072.51525442  3633.67319715
0.32000002 53139.49753137  2814.53362002
0.32100002 52220.06683857  3278.89815205
0.32200002 51315.77927169  2734.87458578
0.32300002 50424.06996130  2695.67090777
0.32400002 49546.77526916  2898.48649049
0.32500002 48683.26742440  3570.91783467
0.32600002 47833.99936920  2580.88355818
0.32700002 46997.69255143  2774.74389963
0.32800002 46175.85576660  2962.41216699
0.32900002 45366.63689947  2919.34322272
0.33000002 44571.85765695  3098.18997245
0.33100002 43787.72791016  3489.00632510
0.33200002 43020.10070912  3867.93743792
0.33300002 42264.02342130  2752.65597578
0.33400002 41521.29964870  2295.08994677
0.33500002 40790.54868808  2467.01250148
0.33600002 40073.63914055  2836.01157628
0.33700002 39368.42066988  2594.77272923
0.33800002 38676.67806164  2163.38008983
0.33900002 37996.59115746  2325.39148896
0.34000002 37329.33806053  3055.03317155
0.34100002 36674.12198735  2069.52080176
0.34200002 36031.68406017  1853.83023269
0.34300002 35400.23551963  3105.30880685
0.34400002 34781.96604730  2699.95024229
0.34500002 34174.74820459  1951.03646740
0.34600002 33580.22600207  1922.63593081
0.34700002 32995.58213218  2066.84336265
0.34800002 32423.93302964  1697.39297449
0.34900002 31863.10550822  1672.81311841
0.35000002 31313.48229101  1813.52041278
0.35100002 30775.76632215  1949.95264653
0.35200002 30247.62268563  2242.25637589
0.35300002 29731.04931015  1736.59067246
0.35400002 29225.60140693  2645.64769267
0.35500002 28730.78814125  1687.64657535
0.35600002 28245.60339152  2420.08341321
0.35700002 27771.58109054  1491.33397520
0.35800002 27308.28352653  1911.71647882
0.35900002 26854.85845494  1450.16242525
0.36000002 26411.80642492  1573.21932422
0.36100002 25977.98696070  1692.72571054
0.36200002 25555.10303204  1669.77051120
0.36300002 25140.97866425  1509.96725010
0.36400002 24736.50125704  2031.48526196
0.36500002 24341.38995727  1469.97660915
0.36600002 23956.02566074  1714.41305762
0.36700002 23579.24600752  1952.36166190
0.36800002 23213.05646021  2055.74837749
0.36900002 22854.77619734  1268.44013904
0.37000002 22505.12084251  2003.85605474
0.37100002 22164.06238350  1360.43021354
0.37200002 21832.43637021  1221.52487278
0.37300002 21508.71638639  1447.96685572
0.37400002 21193.34105414  1430.55058892
0.37500002 20886.70785156  1178.01037863
0.37600002 20588.23213050  1513.54395677
0.37700002 20297.14077912  1265.93273036
0.37800002 20013.92871011  1934.24623182
0.37900002 19739.13161164  1575.18277723
0.38000002 19471.76056774  1669.21675375
0.38100002 19210.97583505  1210.86786425
0.38200002 18958.62129589  1415.92469856
0.38300002 18712.81950466  1185.64429998
0.38400002 18474.95517524  1493.70019668
0.38500002 18242.96432884  1373.14799008
0.38600002 18018.98530598  1255.20257588
0.38700002 17801.14659809  1243.23213731
0.38800002 17590.08645974  1334.29607162
0.38900002 17385.03900924  1322.13227929
0.39000002 17187.54333672  1310.46430379
0.39100002 16995.34853532  999.32654122
0.39200002 16809.82261181  1189.12690790
0.39300002 16630.16406945  982.84274307
0.39400002 16457.56580895  1267.64406649
0.39500002 16289.57301565  1257.88088786
0.39600002 16127.54577901  1152.47447597
0.39700002 15971.06730599  1048.82003968
0.39800002 15820.37147262  946.84927750
0.39900002 15674.83544534  1504.78427405
0.40000002 15534.38863331  1121.27222468
0.40100002 15399.58239054  1300.03280700
0.40200002 15269.84643716  1107.67471303
0.40300002 15144.45493606  1193.08021639
0.40400002 15024.49774315  912.73828114
0.40500002 14909.37215871  1180.37504973
0.40600002 14798.82820937  993.81535549
0.40700002 14692.64361923  1079.02779852
0.40800002 14591.17806534  895.16881672
0.40900002 14493.79893541  1069.64241211
0.41000002 14401.04763384  1154.17201730
0.41100002 14312.25137925  1061.39661258
0.41200002 14227.17207555  1057.64802221
0.41300002 14146.79522645  1054.21923023
0.41400002 14069.74610163  1138.59425722
0.41500002 13996.72354876  960.73514991
0.41600002 13926.88812633  1045.35227229
0.41700002 13860.99660489  1042.90143397
0.41800002 13799.65142564  1040.76975984
0.41900002 13739.62744774  1211.83519831
0.42000002 13684.17429638  950.57121254
0.42100002 13632.32613407  949.21891369
0.42200002 13583.59449819  1206.63075645
0.42300002 13537.33656365  860.97464625
0.42400002 13493.97509349  860.24095297
0.42500002 13454.14423124  945.69184283
0.42600002 13416.05300700  1374.87717731
0.42700002 13382.26069035  1116.88353014
0.42800002 13349.91616096  944.97386023
0.42900002 13321.46143304  1117.00459409
0.43000002 13294.96548365  1203.32738295
0.43100002 13269.97936421  1203.85258497
0.43200002 13248.45539452  1462.82827171
0.43300002 13229.10025311  1205.70025420
0.43400002 13211.84499537  1206.90209752
0.43500002 13196.73491267  1121.98645544
0.43600002 13184.02426741  1037.05539802
0.43700002 13172.85543285  1038.54797154
0.43800002 13163.61488484  1040.18889749
0.43900002 13156.95556090  955.19501899
0.44000002 13151.59371083  1130.97135476
0.44100002 13148.45218578  1220.43938972
0.44200002 13146.77426336  1048.32382944
0.44300002 13146.93883304  963.14478455
0.44400002 13148.97367787  1404.31045535
0.44500002 13151.30729355  1407.71599941
0.44600002 13155.72169685  970.30029973
0.44700002 13162.49428436  1415.23145252
0.44800002 13169.17342283  1064.33264647
0.44900002 13178.75135417  1245.39206199
0.45000002 13188.90388814  1070.67526838
0.45100002 13200.05213580  1252.94900811
0.45200002 13212.59734727  987.57563553
0.45300002 13226.06345031  1170.90345275
0.45400002 13240.91140028  994.06147049
0.45500002 13256.80234242  1178.79492016
0.45600002 13273.47839815  1364.84548097
0.45700002 13291.12334638  1004.41023889
0.45800002 13309.33178670  1191.25179803
0.45900002 13328.60231059  1471.47776483
0.46000002 13349.33403754  1569.28103716
0.46100002 13369.73949530  1111.82758912
0.46200002 13391.75141865  1116.06861613
0.46300002 13414.34595462  1307.09393177
0.46400002 13436.88091121  1312.11148317
0.46500002 13460.58857870  940.89518625
0.46600002 13484.66682631  1039.06105155
0.46700002 13509.06357136  1043.16993842
0.46800002 13534.81089640  1237.82618920
0.46900002 13559.93591308  1242.76818534
0.47000002 13585.86216479  959.84120744
0.47100002 13612.34323068  1252.88013033
0.47200002 13639.21885096  1064.47288568
0.47300002 13666.56989631  1554.70906509
0.47400002 13693.51370468  1268.36176701
0.47500002 13721.13126492  1077.65770063
0.47600002 13749.37540885  1180.52142856
0.47700002 13777.02880451  1382.93821695
