# SAXS profile: number of points = 501, q_min = 0, q_max = 0.5, delta_q = 0.001
#    q    intensity    error
0.00000000 1682732.95097188 378.61491397
0.00100000 1682645.84702186 706.71127253
0.00200000 1682384.49295735 832.78035038
0.00300000 1681949.12232685 1211.00341122
0.00400000 1681339.58681996 2269.80852846
0.00500000 1680556.57403014 1663.75107414
0.00600000 1679599.88706026 2469.01193450
0.00700000 1678470.31393325 2618.41379856
0.00800000 1677167.62758069 3396.26458924
0.00900000 1675693.22876543 3770.30992589
0.01000000 1674046.52284660 3038.39457016
0.01100000 1672229.15018040 3913.01638179
0.01200000 1670240.84541776 4234.06072877
0.01300000 1668083.12012294 4553.86711878
0.01400000 1665756.09310887 4872.33678834
0.01500000 1663261.32225663 4391.01008628
0.01600000 1660598.49025882 5081.43160735
0.01700000 1657769.80100224 5371.17439619
0.01800000 1654775.76701431 5187.72226302
0.01900000 1651617.33857908 5450.33746324
0.02000000 1648295.31548479 7268.98267011
0.02100000 1644812.42614947 5970.66937762
0.02200000 1641167.32439354 6794.43303168
0.02300000 1637363.21006875 5894.50782456
0.02400000 1633400.59363514 7962.82825706
0.02500000 1629281.83094871 7625.03931708
0.02600000 1625007.48816681 7239.40869090
0.02700000 1620579.30557617 6806.43339516
0.02800000 1615997.93670879 7029.59134706
0.02900000 1611266.68062233 7975.77043528
0.03000000 1606386.08433884 8963.63476263
0.03100000 1601357.97529215 8455.17049859
0.03200000 1596183.42018247 10271.44078196
0.03300000 1590866.68879198 9736.10458425
0.03400000 1585406.30673086 9988.06019326
0.03500000 1579806.24768093 10237.14495770
0.03600000 1574067.10956781 12230.50200656
0.03700000 1568192.17132630 11620.30452694
0.03800000 1562182.79577130 11880.40071166
0.03900000 1556041.58225163 12137.12490363
0.04000000 1549768.65084584 13343.50870211
0.04100000 1543368.07412698 12640.18511318
0.04200000 1536841.47254591 11895.15354936
0.04300000 1530190.61602465 12119.11024146
0.04400000 1523418.07234218 10283.07246588
0.04500000 1516526.75357795 15696.05262885
0.04600000 1509516.97204974 10642.09514767
0.04700000 1502392.77110620 14062.39699157
0.04800000 1495155.72752662 12088.33461950
0.04900000 1487808.70541984 16737.84871508
0.05000000 1480353.30870192 22649.40667783
0.05100000 1472793.79038061 16082.90894016
0.05200000 1465128.85719091 15142.10744471
0.05300000 1457364.46026155 16526.51374980
0.05400000 1449501.12462499 15545.90028657
0.05500000 1441543.06193912 13319.85851368
0.05600000 1433490.39159058 19610.14947205
0.05700000 1425348.91841670 12400.53616906
0.05800000 1417117.34408222 12541.48908072
0.05900000 1408800.00723470 13947.12072304
0.06000000 1400400.40747113 16657.76362510
0.06100000 1391920.13759306 20711.77261527
0.06200000 1383361.82510039 16994.60081575
0.06300000 1374729.16869219 13197.40063649
0.06400000 1366020.89097727 18646.18603386
0.06500000 1357244.15616042 18811.40488434
0.06600000 1348399.71239564 14906.55951799
0.06700000 1339489.19753009 19127.90663590
0.06800000 1330516.42908146 20656.26852839
0.06900000 1321485.52876771 18038.27831221
0.07000000 1312395.41866899 16772.41423602
0.07100000 1303250.89393137 19705.15443919
0.07200000 1294053.84923536 24088.81353200
0.07300000 1284807.90654865 15687.50527401
0.07400000 1275515.82951756 18654.41988092
0.07500000 1266178.18764019 17321.31841881
0.07600000 1256798.28966958 20322.42929668
0.07700000 1247380.20725795 14594.34910923
0.07800000 1237924.92808940 17603.29330296
0.07900000 1228434.26047312 20637.69654393
0.08000000 1218913.65870378 19252.74214239
0.08100000 1209363.94836072 14875.17726275
0.08200000 1199786.54868021 17924.81187841
0.08300000 1190184.44652872 20994.85462210
0.08400000 1180561.34508929 25588.66835591
0.08500000 1170918.86418347 15104.85405707
0.08600000 1161259.33454495 22731.65254100
0.08700000 1151585.27965157 19761.20432676
0.08800000 1141898.25144398 19817.64508452
0.08900000 1132201.83120112 18341.67052696
0.09000000 1122498.24513258 16854.31194241
0.09100000 1112788.99056043 18427.78654944
0.09200000 1103076.38184298 18465.49949968
0.09300000 1093364.34483773 18499.72558400
0.09400000 1083651.76421267 23163.05754865
0.09500000 1073943.00698679 17011.25803025
0.09600000 1064239.84178690 21678.56659626
0.09700000 1054546.67016042 21702.57149220
0.09800000 1044862.40226437 21722.69036443
0.09900000 1035191.25407584 18633.44344956
0.10000000 1025532.64673558 31073.64065739
0.10100000 1015890.16715137 17097.43231728
0.10200000 1006266.54779007 18656.18267355
0.10300000 996662.10765373 18657.51553294
0.10400000 987080.16162999 15546.51327706
0.10500000 977523.69590007 17096.89024569
0.10600001 967989.28450200 17089.85162202
0.10700001 958485.23453186 17080.20768311
0.10800001 949008.17910016 17067.91290436
0.10900001 939563.23313854 26354.74992994
0.11000001 930150.95929799 27876.62556230
0.11100001 920772.07009894 24750.35440934
0.11200001 911429.92945687 20083.35944105
0.11300001 902123.88596430 21596.84684678
0.11400001 892857.61868301 18482.15357696
0.11500001 883631.96332755 19987.75595165
0.11600001 874448.12301766 16881.22180982
0.11700001 865307.93299440 16847.54624883
0.11800001 856211.23279364 16811.70834771
0.11900001 847160.45141661 19823.55549687
0.12000001 838156.45151689 16733.79434278
0.12100001 829202.37587717 19726.72545141
0.12200001 820297.48510914 19674.83610725
0.12300001 811443.94229600 16602.14384158
0.12400001 802641.70112999 16554.48586581
0.12500001 793892.25483357 16505.02075571
0.12600001 785198.36875719 17949.63555564
0.12700001 776559.02222727 16400.92732236
0.12800001 767975.75549495 22290.49735378
0.12900001 759449.81930340 17771.12660929
0.13000001 750981.99565090 17708.15629212
0.13100001 742572.19210109 16173.22310633
0.13200001 734222.13234162 17577.27867686
0.13300001 725933.71300132 23346.02931072
0.13400001 717705.16370561 17440.23630028
0.13500001 709539.98852833 23159.38631749
0.13600001 701435.96369644 17297.41168034
0.13700001 693396.45943174 14353.30738704
0.13800001 685418.99941097 15720.08549278
0.13900001 677507.39907955 17073.18726195
0.14000001 669660.27781942 15579.64709821
0.14100001 661878.59031660 18327.41903024
0.14200001 654162.08831564 16838.13294742
0.14300001 646513.38932375 16757.62784169
0.14400001 638928.41456051 18065.70177386
0.14500001 631412.65243089 15210.73151458
0.14600001 623963.33577117 16510.07064336
0.14700001 616583.52380711 13688.15487428
0.14800001 609268.23083278 14978.86016171
0.14900001 602022.58831359 14900.05976376
0.15000001 594844.38459298 14820.54854141
0.15100001 587734.98081396 16080.42983382
0.15200001 580694.34355815 21323.09730163
0.15300001 573723.26505364 18554.21126739
0.15400001 566818.10218308 15814.22579720
0.15500001 559983.24651976 17034.69116305
0.15600001 553214.62832821 13028.20511199
0.15700001 546518.21769381 19428.72355599
0.15800001 539886.38967404 19314.43650221
0.15900001 533325.51986370 12799.81308089
0.16000001 526830.40548936 15267.54587175
0.16100001 520406.73374682 16439.64949508
0.16200001 514049.51406100 18852.76681815
0.16300001 507759.71335213 13739.97849194
0.16400001 501538.06494605 17378.29477080
0.16500001 495383.14409065 14802.04904425
0.16600001 489296.52215324 13482.56630449
0.16700001 483274.95930301 19485.64727911
0.16800001 477319.69395892 13310.06029450
0.16900001 471432.83344764 15627.99916671
0.17000001 465610.24261847 13137.19361581
0.17100001 459853.23746398 15423.47831286
0.17200001 454161.76891788 12964.04830596
0.17300001 448535.25816951 14048.12494928
0.17400001 442973.04407854 13953.65154745
0.17500001 437474.64586542 16169.06367481
0.17600001 432038.33471327 20647.11299109
0.17700001 426667.08353556 12531.21283530
0.17800001 421356.59661129 16970.13773005
0.17900001 416109.06355433 11234.94524663
0.18000001 410923.06489060 12272.21791264
0.18100001 405799.88770626 14401.83869499
0.18200001 400734.44114552 13200.19311488
0.18300001 395730.48504379 12014.37809348
0.18400001 390785.36146259 10844.29429288
0.18500001 385900.86666456 12919.96162630
0.18600001 381073.07598809 12826.92034375
0.18700001 376303.05059391 13795.27048653
0.18800001 371590.35322607 12641.50441401
0.18900001 366936.15068969 13594.98502538
0.19000001 362334.06073580 11418.95846362
0.19100001 357792.13522083 10304.41398124
0.19200001 353301.64444122 11250.89139885
0.19300001 348868.33874589 14212.89679210
0.19400001 344486.19674873 21160.06563519
0.19500001 340158.51300801 13000.85898152
0.19600001 335882.94866927 9925.34160221
0.19700001 331659.13769764 12805.35991166
0.19800001 327486.95185538 13685.68036480
0.19900001 323365.64971821 9700.96995001
0.20000001 319292.97895649 10589.35214756
0.20100001 315271.27496282 11463.26409943
0.20200001 311296.92119809 13270.58837789
0.20300001 307372.19181234 10346.14846541
0.20400001 303494.37692105 9332.45253143
0.20500001 299663.19672263 12037.47118132
0.20600001 295878.68999430 10105.73713443
0.20700001 292140.11739750 10937.72651238
0.20800001 288445.35905046 9042.76243369
0.20900001 284797.44595137 13456.67995732
0.21000001 281191.55166942 15129.51215278
0.21100001 277629.65618327 12360.07287758
0.21200001 274109.88852654 15764.06043440
0.21300001 270631.52515010 10424.72684162
0.21400001 267195.80344656 9478.77157539
0.21500001 263801.74199198 9401.89452909
0.21600001 260446.90857023 10173.05672972
0.21700001 257132.18910776 11771.51217391
0.21800001 253856.74527394 9173.11392418
0.21900001 250619.01353131 9924.51340509
0.22000001 247419.11281870 9842.33277330
0.22100001 244258.40241647 13014.08829610
0.22200001 241134.59199176 10485.73822857
0.22300001 238045.83084947 10397.84238317
0.22400001 234992.45683392 7930.99579317
0.22500001 231977.11350832 14941.64658762
0.22600001 228994.50855439 11695.89507749
0.22700001 226048.32370297 8503.93833985
0.22800001 223134.38974259 9197.59998014
0.22900001 220253.38012160 9878.36456561
0.23000001 217406.38299640 9793.07098521
0.23100001 214592.51254966 8214.60176889
0.23200001 211808.77542144 10363.80387151
0.23300001 209057.38702245 8805.49755784
0.23400001 206337.73746400 8728.08670752
0.23500001 203646.68192400 10092.73003350
0.23600001 200987.51465692 8574.12778079
0.23700001 198357.50919928 10622.04512002
0.23800001 195756.90760588 7017.88546961
0.23900001 193184.83688396 9041.05079381
0.24000001 190641.21189533 8270.01616319
0.24100001 188126.93366867 6829.00801519
0.24200001 185639.44016184 8119.86949676
0.24300001 183179.79161371 6704.38069020
0.24400001 180746.67325610 9299.41677892
0.24500001 178340.06786451 8554.97346015
0.24600001 175960.22382150 7823.19192118
0.24700001 173606.27367780 7103.96905496
0.24800001 171277.78692567 7676.67077317
0.24900001 168973.82969203 6336.51891322
0.25000001 166695.76553772 7531.31504329
0.25100001 164441.14126389 6837.46297723
0.25200001 162212.68014702 9849.55440451
0.25300001 160007.79219606 6705.92688820
0.25400001 157826.32638620 6640.54299687
0.25500001 155668.04673100 8966.47991593
0.25600001 153533.44002432 6510.58583226
0.25700001 151421.07240925 6445.99535744
0.25800001 149332.29301258 5801.55985803
0.25900001 147265.66498512 7466.36956802
0.26000001 145221.12779196 6822.48890648
0.26100001 143198.05595554 7315.98902493
0.26200001 141197.50649756 6684.29027387
0.26300001 139217.69710159 6615.62527930
0.26400001 137259.65841300 6547.28601611
0.26500001 135323.00149578 8639.02082428
0.26600001 133405.97096623 5342.90939002
0.26700001 131510.91546788 5815.41295718
0.26800001 129636.53141553 5753.91771916
0.26900001 127781.10143443 6727.67530889
0.27000001 125946.70459757 5631.70716258
0.27100001 124131.72865200 7596.86215301
0.27200001 122338.04006278 8015.58876424
0.27300001 120562.85426279 5450.64689917
0.27400001 118805.27782293 5390.78973633
0.27500001 117069.95384291 6785.37484586
0.27600001 115351.39756920 6230.70603457
0.27700001 113653.41444331 4739.34760658
0.27800001 111973.29784940 6560.51583149
0.27900001 110312.99692364 6023.08991709
0.28000001 108669.76610510 6412.60320136
0.28100001 107045.73034833 4528.03460804
0.28200001 105440.57707548 6713.92906305
0.28300001 103853.07903893 6636.21206468
0.28400001 102283.47637097 4809.88070400
0.28500001 100732.13486115 6049.97230611
0.28600001 99198.38606244  4697.53979433
0.28700001 97682.39154489  5063.85541737
0.28800001 96183.29175096  5420.40966319
0.28900001 94703.45978697  5767.44097402
0.29000001 93239.47897320  4883.88413979
0.29100001 91793.71252771  4824.67775883
0.29200001 90364.80162220  5957.29982893
0.29300001 88953.16686380  5884.25226658
0.29400001 87557.84862567  3874.43498509
0.29500001 86180.55536032  5356.98357478
0.29600001 84819.24899796  3778.69772173
0.29700001 83474.84579879  4850.72351899
0.29800001 82146.77583798  4052.71137782
0.29900001 80836.09101569  4365.14912149
0.30000001 79541.07358587  4309.53557089
0.30100001 78263.30428980  4254.39342260
0.30200001 77000.46767524  4199.60570582
0.30300001 75754.89025316  4145.30779090
0.30400001 74525.50737250  3750.49633608
0.30500001 73311.72531108  3365.00835109
0.30600001 72113.12268501  3320.80945686
0.30700001 70931.48571701  4915.55219291
0.30800001 69765.22556200  3880.34202947
0.30900001 68614.66180799  4466.81469518
0.31000001 67479.94549634  4407.11544902
0.31100001 66359.87009069  4969.02730765
0.31200001 65255.97804796  4902.02930305
0.31300001 64166.82451883  4231.16060910
0.31400001 63094.21381805  2981.20174405
0.31500001 62035.56045107  3234.53427506
0.31600002 60992.49242981  3770.25109806
0.31700002 59964.25254679  4004.41297468
0.31800002 58950.99689811  3667.04693568
0.31900002 57952.61253131  3059.89808654
0.32000002 56969.44111137  4114.61807909
0.32100002 56000.06271837  3516.24410458
0.32200002 55046.45993883  3467.10144342
0.32300002 54105.61171641  2892.48613932
0.32400002 53179.90863278  3370.27686919
0.32500002 52268.35893061  3067.10744728
0.32600002 51371.52935844  2771.75099778
0.32700002 50488.15380693  3726.02592739
0.32800002 49619.42254395  2938.46234220
0.32900002 48763.93645980  2413.81496906
0.33000002 47923.38944335  2617.33603839
0.33100002 47093.99596941  2345.28111034
0.33200002 46281.23124378  2542.92237111
0.33300002 45480.53112364  2734.28966064
0.33400002 44693.84182243  2919.62535531
0.33500002 43919.17943764  2434.87942333
0.33600002 43159.08989668  2399.86130735
0.33700002 42410.89011019  2365.25545346
0.33800002 41676.86965354  2543.12270669
0.33900002 40954.47137078  2297.54595271
0.34000002 40245.64514791  2264.42133149
0.34100002 39549.13754766  2434.64502274
0.34200002 38865.95397182  2199.61876921
0.34300002 38193.83883859  1970.80217741
0.34400002 37535.62872437  2330.96265418
0.34500002 36888.59211666  2297.42162583
0.34600002 36254.72123071  2453.17582826
0.34700002 35631.09607828  2417.92629439
0.34800002 35021.00843636  2016.68486632
0.34900002 34421.98399238  1807.15424519
0.35000002 33834.54239816  1781.38874163
0.35100002 33259.27499391  1931.69878314
0.35200002 32694.10504926  2250.49882766
0.35300002 32140.81557128  1706.67738767
0.35400002 31599.02273867  2019.17764864
0.35500002 31068.38139410  1990.86197403
0.35600002 30547.57720358  1962.98740408
0.35700002 30038.05306668  1613.04352608
0.35800002 29539.92266886  2227.01487549
0.35900002 29051.90159571  2353.20414071
0.36000002 28574.66324369  1702.04989673
0.36100002 28106.86737014  1678.82326754
0.36200002 27650.54623434  1806.68677653
0.36300002 27203.05443899  1782.34421127
0.36400002 26765.72051943  1611.96559464
0.36500002 26338.01524968  1590.55281627
0.36600002 25920.49329045  1569.61554555
0.36700002 25511.71839796  1408.24692227
0.36800002 25114.06758323  1807.08281855
0.36900002 24724.44838196  1646.64834024
0.37000002 24343.89445591  1490.21156971
0.37100002 23972.18942866  2006.47235022
0.37200002 23610.37116378  1321.00032919
0.37300002 23256.54255590  1565.63051903
0.37400002 22911.52233702  1546.52783101
0.37500002 22575.43294419  2291.85806106
0.37600002 22247.85787694  1258.11642254
0.37700002 21927.98000216  1367.64817752
0.37800002 21616.38757919  1228.89169209
0.37900002 21313.45348814  1579.32697829
0.38000002 21018.13792724  1321.30530339
0.38100002 20729.70642731  1187.81223455
0.38200002 20450.10449152  1292.34441456
0.38300002 20177.20870950  1510.86945974
0.38400002 19912.76255112  1494.95071935
0.38500002 19654.13530703  1251.77193701
0.38600002 19404.19599074  1126.41363063
0.38700002 19160.28266757  1672.69275612
0.38800002 18923.67976784  1214.61644344
0.38900002 18693.25765174  1312.26674932
0.39000002 18470.81747777  1191.64484603
0.39100002 18253.61801848  1073.31279034
0.39200002 18043.57387757  1382.76934962
0.39300002 17839.53719937  1265.18003812
0.39400002 17642.99752687  1254.41718359
0.39500002 17451.34783197  1140.27112136
0.39600002 17265.77747303  1233.81251668
0.39700002 17086.10316958  1326.05252982
0.39800002 16912.29736708  1214.64125445
0.39900002 16743.97623474  1004.63862168
0.40000002 16581.07636657  997.35179070
0.40100002 16423.98975361  990.36662907
0.40200002 16272.37002829  1180.39777778
0.40300002 16125.20185953  1368.06219058
0.40400002 15983.69787594  1165.21163036
0.40500002 15847.28804687  1061.60987656
0.40600002 15715.61612137  1151.32609160
0.40700002 15588.69715750  1240.23680461
0.40800002 15466.68848984  948.88138381
0.40900002 15348.95395659  1132.75285567
0.41000002 15236.10393621  1408.95877826
0.41100002 15127.33664977  1308.81722895
0.41200002 15022.65533569  1116.78425057
0.41300002 14922.74244697  1204.71305483
0.41400002 14826.57146312  922.95411731
0.41500002 14734.56787826  1287.21191084
0.41600002 14645.88052323  916.09987014
0.41700002 14561.49999491  1369.50913941
0.41800002 14481.64896654  1092.20601681
0.41900002 14403.50309519  1633.35732839
0.42000002 14330.32647701  1357.44023986
0.42100002 14260.58193083  1083.23385479
0.42200002 14194.41091528  1080.76249830
0.42300002 14130.76981441  988.58870306
0.42400002 14070.36864027  1166.08185632
0.42500002 14013.46818888  1074.55279164
0.42600002 13958.78677480  1072.87240235
0.42700002 13908.31212691  1071.49641703
0.42800002 13859.72410563  1337.80993269
0.42900002 13815.09894971  891.07392448
0.43000002 13772.61703641  1068.47968032
0.43100002 13731.88166430  1779.65194803
0.43200002 13694.84777880  978.42844592
0.43300002 13660.07419962  978.19795979
0.43400002 13627.74871996  978.13171073
0.43500002 13597.53477452  1067.13457967
0.43600002 13570.00528999  1245.31944448
0.43700002 13544.18161349  1156.80860643
0.43800002 13520.40438560  1068.38240518
0.43900002 13499.53335227  890.96924347
0.44000002 13480.03984878  1159.21608173
0.44100002 13462.95914651  1071.11308046
0.44200002 13447.53972132  982.94796251
0.44300002 13434.02291591  1342.05895290
0.44400002 13422.68806928  985.56091819
0.44500002 13411.79159360  897.24890013
0.44600002 13403.01211884  988.53920567
0.44700002 13396.91739465  1080.32746990
0.44800002 13390.73242741  901.86587173
0.44900002 13387.65591962  994.03349914
0.45000002 13385.45617879  996.07876875
0.45100002 13384.32986716  907.45760800
0.45200002 13384.75970429  1273.29225101
0.45300002 13386.10460370  1367.39065007
0.45400002 13389.13113247  1096.56989172
0.45500002 13393.36368460  1007.71673139
0.45600002 13398.50048063  1102.16070177
0.45700002 13404.82269530  1289.27590794
0.45800002 13411.79702500  1292.76317651
0.45900002 13419.93683133  925.97568525
0.46000002 13429.79252241  1021.53721663
0.46100002 13439.28992609  1303.87997043
0.46200002 13450.79232729  1120.98908569
0.46300002 13462.78454817  1030.71083386
0.46400002 13475.00154453  939.88140228
0.46500002 13488.49603483  1037.13050927
0.46600002 13502.52682398  1513.36327816
0.46700002 13516.84999797  1138.65949780
0.46800002 13532.88250603  1047.24216236
0.46900002 13548.30666130  1241.70236436
0.47000002 13564.72018250  1245.85178421
0.47100002 13581.74510054  961.58759869
0.47200002 13599.40430357  1061.36555918
0.47300002 13617.59499226  968.21104984
0.47400002 13635.47397160  1262.98583648
0.47500002 13654.17746095  1267.38081200
0.47600002 13673.79028658  1369.70363793
0.47700002 13692.77158565  1178.12612307
