# SAXS profile: number of points = 501, q_min = 0, q_max = 0.5, delta_q = 0.001
#    q    intensity    error
0.00000000 1664650.74656091 324.60689558
0.00100000 1664564.01154926 699.11690145
0.00200000 1664303.76827701 1123.40507916
0.00300000 1663870.24353083 1098.15439985
0.00400000 1663263.28935904 1871.17127163
0.00500000 1662483.60198735 1795.48236121
0.00600000 1661530.97587063 2442.45063397
0.00700000 1660406.19618760 2191.73627006
0.00800000 1659109.05117353 2687.75677638
0.00900000 1657640.91606797 2983.75377647
0.01000000 1656001.22316944 3825.36299070
0.01100000 1654191.56157375 4764.07190476
0.01200000 1652211.75797258 4832.71960395
0.01300000 1650063.22936436 3811.64622794
0.01400000 1647746.17290709 4448.91486407
0.01500000 1645262.02269884 5133.21773940
0.01600000 1642610.60249117 4607.52294596
0.01700000 1639794.03807902 4427.44410142
0.01800000 1636812.87015084 8396.85040171
0.01900000 1633667.97519981 5881.20497609
0.02000000 1630360.28359130 5649.19863819
0.02100000 1626892.37884568 6442.49411232
0.02200000 1623263.01994409 5600.25767324
0.02300000 1619475.32678102 5830.11144179
0.02400000 1615529.89918987 6664.06113802
0.02500000 1611429.00949812 8798.40279369
0.02600000 1607173.25772858 7159.95719066
0.02700000 1602764.38015192 8751.09391644
0.02800000 1598202.97918298 7647.40160610
0.02900000 1593492.42244251 7170.71623023
0.03000000 1588633.27408549 9603.28858326
0.03100000 1583627.27170718 12162.25800634
0.03200000 1578475.53429922 11720.18138198
0.03300000 1573182.22832911 9627.87568122
0.03400000 1567745.96131000 9053.73334431
0.03500000 1562170.82118732 9279.29510635
0.03600000 1556457.20450267 9502.17167262
0.03700000 1550608.59331988 12373.85714695
0.03800000 1544626.07792896 11746.88186629
0.03900000 1538512.40321889 11077.28981617
0.04000000 1532267.71652459 16019.85971861
0.04100000 1525896.10017960 10574.46046455
0.04200000 1519399.05195804 9800.12433979
0.04300000 1512778.45819081 13978.07360252
0.04400000 1506036.84706168 14232.04886570
0.04500000 1499177.08665725 13447.61909216
0.04600000 1492199.42252538 13676.00834320
0.04700000 1485108.10898083 16039.16832294
0.04800000 1477904.55878135 14121.37871620
0.04900000 1470591.69001046 11029.43818847
0.05000000 1463171.01579061 11193.25879202
0.05100000 1455646.86130409 12489.45065180
0.05200000 1448018.00123245 17267.61546939
0.05300000 1440290.16692465 17499.52634393
0.05400000 1432464.07107623 14181.39496499
0.05500000 1424543.84831381 11966.16888405
0.05600000 1416529.60358313 12111.32867580
0.05700000 1408427.18718545 14703.98052058
0.05800000 1400235.28833142 18588.12432052
0.05900000 1391958.19626974 15033.14922185
0.06000000 1383599.51959183 13925.92981529
0.06100000 1375160.63281142 17904.59227591
0.06200000 1366644.30413901 14206.26820558
0.06300000 1358054.16983674 18252.24889600
0.06400000 1349389.08999778 13156.54424277
0.06500000 1340656.08239283 15926.99500386
0.06600000 1331855.86776708 18739.21293626
0.06700000 1322990.16775777 16193.40041119
0.06800000 1314062.78816284 16320.66059294
0.06900000 1305077.66191802 15073.64770088
0.07000000 1296034.11406918 17943.59314956
0.07100000 1286936.64753889 15288.80808886
0.07200000 1277787.03934227 15390.94560989
0.07300000 1268589.06327045 15489.47318830
0.07400000 1259345.43742861 14167.63683503
0.07500000 1250056.88521518 18525.84390724
0.07600000 1240726.62371454 14330.39317572
0.07700000 1231358.55763767 17288.27495985
0.07800000 1221953.81741799 18824.19944011
0.07900000 1212514.12545467 18915.22124429
0.08000000 1203045.09715721 14616.99861616
0.08100000 1193547.40818322 14680.63380944
0.08200000 1184022.32784445 16215.18654073
0.08300000 1174473.15639506 16278.19871160
0.08400000 1164903.51043843 20793.52863735
0.08500000 1155314.87027779 26826.41254722
0.08600000 1145709.46221020 16446.66010222
0.08700000 1136090.27394230 14996.39232023
0.08800000 1126458.32471383 19549.68514354
0.08900000 1116817.49085694 15077.03683473
0.09000000 1107169.89019080 18135.44365325
0.09100000 1097516.98305807 16660.30858554
0.09200000 1087861.19204050 16693.23077622
0.09300000 1078206.41957795 16722.98235350
0.09400000 1068551.49726557 22840.28932749
0.09500000 1058900.69469363 16772.98779232
0.09600000 1049255.82221403 18320.00751704
0.09700000 1039621.60564531 19867.16981789
0.09800000 1029996.38872908 19884.08121932
0.09900000 1020384.75029656 21428.08076383
0.10000000 1010786.05189064 19907.43222818
0.10100000 1001203.78758005 19913.94427156
0.10200000 991640.50459144 16852.93116823
0.10300000 982097.16573787 19916.93145807
0.10400000 972576.29462253 24508.92377751
0.10500000 963081.56204375 15312.99755696
0.10600001 953609.00813692 16835.96783085
0.10700001 944167.05947788 15295.50708331
0.10800001 934752.39515492 16811.52261804
0.10900001 925370.39050426 18322.33459434
0.11000001 916021.23991571 18302.10523499
0.11100001 906705.70580462 18279.18788948
0.11200001 897427.21609773 19774.80963765
0.11300001 888185.11776508 21263.15272038
0.11400001 878983.07358999 19711.19635335
0.11500001 869821.66456772 21188.85674661
0.11600001 860702.73284685 18126.40040735
0.11700001 851627.44991532 19595.94854542
0.11800001 842596.01282163 16544.37349096
0.11900001 833610.62660169 16505.49118415
0.12000001 824672.26696117 16464.58258544
0.12100001 815784.07115349 22393.27380807
0.12200001 806945.33494018 17865.77055726
0.12300001 798158.06173201 16330.31471243
0.12400001 789422.47379379 20722.34091347
0.12500001 780739.70980951 16231.57933178
0.12600001 772112.80098300 23533.99928297
0.12700001 763540.44336200 14659.97720342
0.12800001 755024.42420071 17531.66795619
0.12900001 746566.02123821 18925.44953038
0.13000001 738165.74026282 14504.95747985
0.13100001 729823.80984715 14450.51211614
0.13200001 721541.67703133 15834.23284888
0.13300001 713321.27132184 21506.63734424
0.13400001 705161.00706621 24275.16881272
0.13500001 697064.06582006 17064.12913582
0.13600001 689028.69192642 15575.49431539
0.13700001 681057.66346614 23966.42030747
0.13800001 673149.04430195 21052.73735330
0.13900001 665306.19387936 20957.14609550
0.14000001 657527.89747926 26422.75980632
0.14100001 649815.23234528 16609.27812209
0.14200001 642167.92057041 15151.95280051
0.14300001 634588.30255655 21931.37277080
0.14400001 627072.54119759 15002.71125583
0.14500001 619626.16291924 14926.79496885
0.14600001 612246.33654045 14850.03559333
0.14700001 604935.97616172 18801.41102609
0.14800001 597690.17178906 20037.56395457
0.14900001 590514.18279061 13286.56973966
0.15000001 583405.57635774 14535.55062078
0.15100001 576365.78014038 18397.59657017
0.15200001 569394.84110137 13067.61221990
0.15300001 562493.35345114 18191.03590903
0.15400001 555657.95118016 16794.76236698
0.15500001 548892.87899222 16697.32216694
0.15600001 542193.99303564 20429.87062177
0.15700001 535567.27880173 13962.23961733
0.15800001 529005.25233437 16401.80862277
0.15900001 522514.15407067 17556.47640545
0.16000001 516088.75008951 13709.89829327
0.16100001 509734.68208745 13625.20869537
0.16200001 503447.06921467 14771.13770805
0.16300001 497227.02748925 19570.85672587
0.16400001 491074.95436424 15800.33740260
0.16500001 484989.66364081 12076.24319479
0.16600001 478972.54692963 13198.08915377
0.16700001 473020.40512590 13112.12624918
0.16800001 467134.42884075 13026.04416327
0.16900001 461316.98733507 15292.65885225
0.17000001 455563.65963204 12853.72926347
0.17100001 449875.83130934 11606.79699587
0.17200001 444253.67120405 11528.38331215
0.17300001 438696.04568680 11449.96733314
0.17400001 433202.70480973 13645.88584595
0.17500001 427773.25958150 11293.21458630
0.17600001 422405.73388237 14579.33459352
0.17700001 417103.12011854 11136.65383316
0.17800001 411861.27994386 12164.32347769
0.17900001 406682.18268413 14274.54528645
0.18000001 401564.61590011 15263.47177133
0.18100001 396509.66711008 15154.60019280
0.18200001 391512.33128203 11821.71540149
0.18300001 386576.19272398 16004.25513480
0.18400001 381698.94941085 11651.36098118
0.18500001 376882.05850453 11566.51092193
0.18600001 372121.86516222 12525.62257311
0.18700001 367419.19950641 10361.22191559
0.18800001 362773.73467431 12341.56303671
0.18900001 358186.60868403 18374.97389366
0.19000001 353651.62326487 14184.96727938
0.19100001 349176.38044855 11061.90825529
0.19200001 344752.51376247 12974.76146853
0.19300001 340385.62325044 9905.22210464
0.19400001 336069.74813003 13762.05683624
0.19500001 331808.14708357 11706.19198229
0.19600001 327598.48893811 13552.75012782
0.19700001 323440.39293311 13448.65217371
0.19800001 319333.62664718 10485.32012648
0.19900001 315277.73165603 10404.16563635
0.20000001 311270.20412514 13138.71593707
0.20100001 307313.42700713 10242.75700624
0.20200001 303403.79200178 10162.51049342
0.20300001 299543.76978507 10082.64376752
0.20400001 295730.22097479 10912.44566975
0.20500001 291963.05069800 9923.82456229
0.20600001 288242.37231785 11634.90390857
0.20700001 284567.49252292 14205.60989823
0.20800001 280936.18159293 9688.08468019
0.20900001 277351.37782200 8736.56881438
0.21000001 273808.52772670 10399.24837466
0.21100001 270309.37276703 11174.58999845
0.21200001 266852.15824886 11936.29760275
0.21300001 263436.09854529 8456.29916308
0.21400001 260062.47049264 9225.71657689
0.21500001 256730.14735519 9149.86288432
0.21600001 253436.89885635 9074.30859257
0.21700001 250183.37605081 9817.19614039
0.21800001 246969.00825943 8924.22553540
0.21900001 243792.06648104 8849.65243169
0.22000001 240652.70794225 10370.92893914
0.22100001 237552.30990860 9492.59075279
0.22200001 234488.48400116 12549.82425715
0.22300001 231459.43234602 10887.85221239
0.22400001 228465.68126006 10023.93223928
0.22500001 225509.52442826 8409.25056358
0.22600001 222585.74982564 10610.66319595
0.22700001 219698.14150250 10519.14751258
0.22800001 216842.75248942 8938.25868030
0.22900001 214019.84341140 11813.89591500
0.23000001 211230.60605069 7319.14084579
0.23100001 208474.28216312 10882.35804357
0.23200001 205747.93025328 8629.06860292
0.23300001 203053.48488737 7839.89542229
0.23400001 200390.47460620 9182.89393314
0.23500001 197755.89689882 7700.61498945
0.23600001 195152.85948914 10406.52672446
0.23700001 192578.64991179 9625.08137784
0.23800001 190033.65917548 7493.97770404
0.23900001 187516.83888675 6750.60651922
0.24000001 185028.20763567 8026.52402689
0.24100001 182568.51837420 11266.30380178
0.24200001 180135.45750632 9192.31283136
0.24300001 177729.87311990 7155.40503028
0.24400001 175350.44652572 7088.54213612
0.24500001 172997.30599764 7660.32107194
0.24600001 170670.58446625 6323.34545360
0.24700001 168369.61084239 7516.01978356
0.24800001 166093.59101868 7444.31510162
0.24900001 163841.77384925 9216.10021501
0.25000001 161615.69502514 7301.79744667
0.25100001 159412.82854298 7230.96624480
0.25200001 157235.54182092 7160.50691329
0.25300001 155081.71012979 7681.19746613
0.25400001 152950.89992405 7020.44663866
0.25500001 150843.03255980 6950.84726921
0.25600001 148758.55635188 6308.10688055
0.25700001 146695.86285540 6244.84317722
0.25800001 144656.50883852 6743.88676113
0.25900001 142639.09952542 6119.21765917
0.26000001 140643.39736739 9360.52175468
0.26100001 138668.79890373 7629.55767668
0.26200001 136716.48632258 5393.46564063
0.26300001 134784.53666558 6938.70827587
0.26400001 132873.90873672 7394.43337109
0.26500001 130984.48689633 5748.90940191
0.26600001 129114.41220967 5688.13569906
0.26700001 127265.95857180 6139.31013202
0.26800001 125437.92574063 5061.42054315
0.26900001 123628.38749607 7009.72990274
0.27000001 121839.73191444 5448.06387037
0.27100001 120069.99452582 5878.62721018
0.27200001 118321.28482409 7752.41094855
0.27300001 116590.81698189 5271.07108520
0.27400001 114877.63213994 5686.44306004
0.27500001 113186.34010619 5623.09764259
0.27600001 111511.59057984 5096.63748865
0.27700001 109856.92257173 5497.24066566
0.27800001 108219.89778492 6793.50440497
0.27900001 106602.44433559 6715.95431099
0.28000001 105001.67176483 5310.98480923
0.28100001 103419.76956819 5249.58775174
0.28200001 101856.49210485 4756.18912394
0.28300001 100310.53513084 5127.87479859
0.28400001 98782.02816852  4645.22509449
0.28500001 97271.62386074  5842.13400559
0.28600001 95778.42744843  7009.54454459
0.28700001 94302.74373150  5296.04233864
0.28800001 92843.56487359  5232.19934611
0.28900001 91403.36451885  5168.86050820
0.29000001 89978.65155640  3927.56832635
0.29100001 88571.81653011  5043.27947195
0.29200001 87181.69223114  3831.63555493
0.29300001 85808.39079699  4919.39527726
0.29400001 84451.10133309  4484.35369306
0.29500001 83111.54711094  4428.18343969
0.29600001 81787.72910342  4372.37220485
0.29700001 80480.40424298  5396.21135994
0.29800001 79189.22684919  3551.63699232
0.29900001 77914.97701652  4908.64378441
0.30000001 76656.14687429  4845.43527330
0.30100001 75414.38764471  4099.52630644
0.30200001 74187.00286404  4046.15932775
0.30300001 72976.76006393  3327.74041645
0.30400001 71782.41579477  4597.66394932
0.30500001 70603.35605858  3564.76361616
0.30600001 69439.07729787  4156.97055924
0.30700001 68291.54603266  3155.06957608
0.30800001 67159.02073544  3424.10283431
0.30900001 66042.00256489  3378.04859113
0.31000001 64940.44904152  3635.36650946
0.31100001 63853.26091336  3287.16602745
0.31200001 62782.00555571  3242.37683044
0.31300001 61725.10912858  3779.42861088
0.31400001 60684.39170913  4014.27270162
0.31500001 59657.55878301  3393.32210424
0.31600002 58645.90677289  3067.47429899
0.31700002 57648.84071663  4124.77474858
0.31800002 56666.36916756  2982.63448236
0.31900002 55698.52437720  3475.58808570
0.32000002 54745.55950505  2899.59869648
0.32100002 53806.26707907  2858.72710527
0.32200002 52882.26174191  3330.78941353
0.32300002 51970.98771205  3283.52715913
0.32400002 51074.33665038  3485.82364145
0.32500002 50191.58173834  3436.11584851
0.32600002 49323.33495391  2903.17163286
0.32700002 48468.20068274  3815.41693842
0.32800002 47627.59866678  2585.46431606
0.32900002 46799.86275098  2316.59331587
0.33000002 45986.76029629  2511.56703251
0.33100002 45184.44502866  3150.25965658
0.33200002 44398.68848519  2883.02897331
0.33300002 43624.70116214  2841.27692124
0.33400002 42864.31667987  3015.50482123
0.33500002 42115.84687172  2334.90266114
0.33600002 41381.58245004  2510.20691029
0.33700002 40659.01063795  2679.83551806
0.33800002 39950.14982123  2234.61173608
0.33900002 39252.96556303  2402.28160622
0.34000002 38568.91728811  3748.32040416
0.34100002 37896.96285571  3110.58285851
0.34200002 37238.01491497  1915.89595811
0.34300002 36589.98656139  1888.04339598
0.34400002 35955.44127866  2046.76359172
0.34500002 35332.06447824  2200.48107992
0.34600002 34721.51228415  2891.60767997
0.34700002 34120.91475624  1781.11183463
0.34800002 33533.54612190  1931.02934489
0.34900002 32957.11307120  1903.27337000
0.35000002 32391.90057676  2387.60710460
0.35100002 31838.80705176  2017.30691034
0.35200002 31295.32028074  1988.50474482
0.35300002 30763.64144708  1796.90438203
0.35400002 30243.18762494  1932.53978077
0.35500002 29733.54986223  1746.54880163
0.35600002 29233.59706101  1565.45919676
0.35700002 28744.79535069  2469.75293351
0.35800002 28267.10087061  2283.27518097
0.35900002 27799.17748788  2702.08017981
0.36000002 27341.83035891  2813.06434972
0.36100002 26893.82025271  1606.36795978
0.36200002 26456.95564917  1728.69756400
0.36300002 26028.74199628  1563.28631834
0.36400002 25610.43153466  1402.17119294
0.36500002 25201.59492765  1521.92438977
0.36600002 24802.61234734  1638.46064928
0.36700002 24412.22761912  1347.55502841
0.36800002 24032.73579146  1463.23318797
0.36900002 23661.07799219  1444.50887985
0.37000002 23298.25780701  1944.82216256
0.37100002 22944.05009451  1664.36147270
0.37200002 22599.49830865  1390.88618929
0.37300002 22262.87312565  1498.73668981
0.37400002 21934.72088507  1850.74216235
0.37500002 21615.37305317  1584.83922733
0.37600002 21304.31639083  1927.61463836
0.37700002 21000.75313945  1428.89131130
0.37800002 20705.17749334  1412.50727551
0.37900002 20418.08673201  1512.98029852
0.38000002 20138.52744575  1266.00858785
0.38100002 19865.67112214  1593.62421291
0.38200002 19601.38168353  1126.09943107
0.38300002 19343.60199711  1114.19152782
0.38400002 19094.06240043  1323.21858704
0.38500002 18850.21635688  1527.99861028
0.38600002 18614.71360775  1512.81784657
0.38700002 18385.34294218  1284.03241191
0.38800002 18162.85461108  1271.76314012
0.38900002 17946.49550934  1049.87003703
0.39000002 17737.79081240  1456.45007261
0.39100002 17534.37054483  1134.12314057
0.39200002 17337.79633725  1124.26945675
0.39300002 17147.13839458  1520.09389070
0.39400002 16963.63861096  1306.62432591
0.39500002 16784.95889390  1096.72926609
0.39600002 16612.16613188  989.25454002
0.39700002 16445.11235176  1178.12790470
0.39800002 16283.81696551  1559.33838650
0.39900002 16127.81511232  1257.96963836
0.40000002 15977.00322017  1153.22014707
0.40100002 15831.87993178  1431.99360768
0.40200002 15692.06263918  1138.30227778
0.40300002 15556.52984687  1225.54347940
0.40400002 15426.55524746  1124.59593082
0.40500002 15301.49087884  1304.60517414
0.40600002 15181.02314718  1112.16180846
0.40700002 15065.07740522  1198.57761515
0.40800002 14953.99689171  1009.17052805
0.40900002 14846.97056053  1369.63309910
0.41000002 14744.66790467  1090.81058327
0.41100002 14646.40244463  995.66248536
0.41200002 14552.00620591  1081.79619261
0.41300002 14462.28046338  1167.53995713
0.41400002 14376.06363373  1073.89200432
0.41500002 14293.92463615  1516.29959725
0.41600002 14215.02817627  978.06506001
0.41700002 14140.17543228  1152.56575410
0.41800002 14069.89892526  1503.29842190
0.41900002 14001.03720524  1146.68500144
0.42000002 13936.92745580  880.11701054
0.42100002 13876.36249231  1141.88592360
0.42200002 13819.10127404  964.50421913
0.42300002 13764.31169475  962.95129179
0.42400002 13712.57780597  874.17687655
0.42500002 13664.29452491  1222.40784612
0.42600002 13617.98982496  1133.90197651
0.42700002 13575.89537322  1045.88702911
0.42800002 13535.40704289  871.00348448
0.42900002 13498.92671855  1044.81697753
0.43000002 13464.42913624  1218.66553887
0.43100002 13431.49887215  870.36116816
0.43200002 13402.18114334  957.51887716
0.43300002 13375.05619642  1219.00267951
0.43400002 13350.17932907  1132.42901525
0.43500002 13327.39593813  1307.41760349
0.43600002 13307.11514429  1744.56287809
0.43700002 13288.49370756  960.35948576
0.43800002 13271.82159185  1223.52929053
0.43900002 13257.88908627  1050.02486539
0.44000002 13245.24010625  1314.25901183
0.44100002 13234.90593795  1140.71659685
0.44200002 13226.13685466  1142.53988634
0.44300002 13219.22638437  1232.56072649
0.44400002 13214.31703328  970.26127415
0.44500002 13209.78498313  1148.85505443
0.44600002 13207.30858498  1151.21510737
0.44700002 13207.37426324  1153.79627032
0.44800002 13207.27944658  978.46134417
0.44900002 13210.23568270  1248.36733118
0.45000002 13213.86907644  893.91828539
0.45100002 13218.51753013  1344.32329653
0.45200002 13224.65599439  1258.06158437
0.45300002 13231.70012135  1081.29458516
0.45400002 13240.29869282  994.01547147
0.45500002 13249.98990243  1721.96876933
0.45600002 13260.48294079  1363.50922301
0.45700002 13272.06687711  1094.14924520
0.45800002 13284.28418527  914.62300950
0.45900002 13297.59354961  1284.54759777
0.46000002 13312.47686535  1380.83672830
0.46100002 13327.03281436  923.56341781
0.46200002 13343.37035904  1204.70624996
0.46300002 13360.23203138  1022.85941280
0.46400002 13377.17390430  1119.66950886
0.46500002 13395.34892561  1123.60192113
0.46600002 13414.01712422  1127.58233290
0.46700002 13432.91401192  1037.28966916
0.46800002 13453.36600800  1703.59981834
0.46900002 13473.20212532  1234.81903331
0.47000002 13493.93273493  1334.68495007
0.47100002 13515.28938335  1722.38856065
0.47200002 13537.10924754  1056.50374130
0.47300002 13559.40853422  1060.48139173
0.47400002 13581.36725436  1354.74144783
0.47500002 13604.12401239  971.33450052
0.47600002 13627.59439136  1072.55986741
0.47700002 13650.51104750  1076.61585735
