# SAXS profile: number of points = 501, q_min = 0, q_max = 0.5, delta_q = 0.001
#    q    intensity    error
0.00000000 1682732.95097188 252.40994265
0.00100000 1682645.85675010 757.19065352
0.00200000 1682384.53167633 1059.90228852
0.00300000 1681949.20635903 1211.00347172
0.00400000 1681339.73730493 1891.50727634
0.00500000 1680556.80334412 2268.75177431
0.00600000 1679600.23186033 2292.65440983
0.00700000 1678470.77414580 3625.49702283
0.00800000 1677168.21745562 2490.59490807
0.00900000 1675693.97265179 3770.31159964
0.01000000 1674047.45079916 5524.35682618
0.01100000 1672230.26624404 4214.02045441
0.01200000 1670242.16189448 4234.06406604
0.01300000 1668084.68121448 4904.16917907
0.01400000 1665757.89829272 4872.34206850
0.01500000 1663263.35837193 4790.19868541
0.01600000 1660600.80583561 5081.43869301
0.01700000 1657772.39086349 4923.58422173
0.01800000 1654778.66424090 5187.73134583
0.01900000 1651620.57150023 6441.32051950
0.02000000 1648298.86459493 7268.99832168
0.02100000 1644816.34407695 6513.47301786
0.02200000 1641171.55540298 7926.85897273
0.02300000 1637367.83197377 6483.97690976
0.02400000 1633405.59602933 6737.79839085
0.02500000 1629287.16682603 10166.75238532
0.02600000 1625013.25702243 7897.56479035
0.02700000 1620585.45032515 8848.39696404
0.02800000 1616004.54970616 9138.50614768
0.02900000 1611273.69632714 7250.73196638
0.03000000 1606393.57201200 12698.54177045
0.03100000 1601365.84717230 9223.86770413
0.03200000 1596191.79036034 11851.72458929
0.03300000 1590875.45521552 10547.50475432
0.03400000 1585415.46172531 9988.11786972
0.03500000 1579815.86519570 9384.10667260
0.03600000 1574077.21652673 10483.35474654
0.03700000 1568202.73228613 9832.63158617
0.03800000 1562193.78932548 10052.71749954
0.03900000 1556053.12498198 10269.95110048
0.04000000 1549780.54927597 14296.72622957
0.04100000 1543380.45788401 12640.28653616
0.04200000 1536854.29890134 9912.71068779
0.04300000 1530203.87893834 12119.21528374
0.04400000 1523431.77107467 11311.48142556
0.04500000 1516540.86397891 13603.37218197
0.04600000 1509531.47106863 10642.19736576
0.04700000 1502407.77681554 10817.33649616
0.04800000 1495171.07874517 16484.26191015
0.04900000 1487824.49292764 13390.42105964
0.05000000 1480369.49349700 12457.30986787
0.05100000 1472810.28410165 12636.71282626
0.05200000 1465145.77076241 16307.07318852
0.05300000 1457381.68407615 12985.27141046
0.05400000 1449518.68170525 13154.38264991
0.05500000 1441560.78528518 15741.84450966
0.05600000 1433508.50269161 15933.44775094
0.05700000 1425367.29561756 13640.76565579
0.05800000 1417135.99280860 16304.15035854
0.05900000 1408818.84040569 17751.11821819
0.06000000 1400419.56559841 17939.37547342
0.06100000 1391939.40612663 14239.54079011
0.06200000 1383381.26915954 18302.13504649
0.06300000 1374748.67135198 17156.86422065
0.06400000 1366040.56967902 14650.78579498
0.06500000 1357263.99735106 16124.29704279
0.06600000 1348419.52859760 18972.26365505
0.06700000 1339509.03985537 15029.29213053
0.06800000 1330536.30125966 15148.15649891
0.06900000 1321505.31727514 13875.80648104
0.07000000 1312415.09224549 22363.55421911
0.07100000 1303270.59167083 15482.85535423
0.07200000 1294073.42158756 17004.12555625
0.07300000 1284827.30054897 17113.90044519
0.07400000 1275534.99411695 20089.67709883
0.07500000 1266197.11921439 14434.64783563
0.07600000 1256817.02048605 17419.48472057
0.07700000 1247398.59308021 16054.02064569
0.07800000 1237942.92977001 14669.62440572
0.07900000 1228452.05518895 16215.56788906
0.08000000 1218931.00415186 26658.02231136
0.08100000 1209380.72427727 19337.99868850
0.08200000 1199802.87509881 16431.30114552
0.08300000 1190200.20205874 17995.82789971
0.08400000 1180576.55167320 16557.58691441
0.08500000 1170933.53270807 18126.05193725
0.08600000 1161273.32062427 19701.00280938
0.08700000 1151598.54994082 24321.76251684
0.08800000 1141910.75702224 16768.96025441
0.08900000 1132213.55739974 21398.83723995
0.09000000 1122509.09393633 19918.92480760
0.09100000 1112799.07484005 18427.95354512
0.09200000 1103085.40356971 15388.04210283
0.09300000 1093372.40978397 24666.48272386
0.09400000 1083658.67884242 15442.13689925
0.09500000 1073949.03446703 21650.81355250
0.09600000 1064244.77189593 21678.66702259
0.09700000 1054550.28190482 17052.07886007
0.09800000 1044864.85986231 20171.11706804
0.09900000 1035192.55592151 23291.83360347
0.10000000 1025532.68326973 17090.50297041
0.10100000 1015888.85657717 20206.03030765
0.10200000 1006263.55368502 20210.80442641
0.10300000 996657.84002001 18657.43564283
0.10400000 987074.30545087 21764.98945913
0.10500000 977516.38263895 21759.51570131
0.10600001 967980.43113861 18643.30398096
0.10700001 958474.72921005 23290.93701582
0.10800001 948995.98290135 21722.51907091
0.10900001 939549.36733378 20153.33487784
0.11000001 930135.25808391 17035.42805366
0.11100001 920754.50032833 21656.14686715
0.11200001 911410.36392823 16993.24703543
0.11300001 902102.59311317 20053.74158905
0.11400001 892834.26299628 20021.80929041
0.11500001 883606.62873431 15374.75606394
0.11600001 874420.77279278 24553.73645629
0.11700001 865278.60486358 19910.06163557
0.11800001 856179.74580419 15282.80918240
0.11900001 847126.70384625 18297.93766494
0.12000001 838120.42641316 24339.01832953
0.12100001 829164.10968201 22760.55588298
0.12200001 820256.81639503 19673.86066810
0.12300001 811401.16421147 19619.68107500
0.12400001 802596.52565420 18058.42267809
0.12500001 793844.56910631 16504.02936940
0.12600001 785148.29761479 23931.32123903
0.12700001 776506.53848500 16399.81886567
0.12800001 767920.55350536 17831.11609276
0.12900001 759392.15787115 16288.96255407
0.13000001 750921.70874252 19182.29595398
0.13100001 742509.32924851 20582.35957697
0.13200001 734156.60560879 17575.70996680
0.13300001 725865.49241839 16048.88679396
0.13400001 717634.25736256 15985.30383639
0.13500001 709466.26137621 17367.73489735
0.13600001 701359.52741392 20178.11455511
0.13700001 693317.01092735 18657.16164380
0.13800001 685336.77871303 14289.27250999
0.13900001 677422.50413598 17071.04790927
0.14000001 669572.43324614 15577.60339412
0.14100001 661787.77604415 21144.12044183
0.14200001 654068.42194804 21044.65246876
0.14300001 646416.69233664 16755.12145566
0.14400001 638828.79909368 15283.97973926
0.14500001 631310.02502892 16590.82824038
0.14600001 623857.81496465 22009.70475025
0.14700001 616475.00834475 17791.46958017
0.14800001 609156.76027117 19060.51592813
0.14900001 601907.99854737 17605.80978817
0.15000001 594726.81315897 17511.73183972
0.15100001 587614.42191782 17416.89228746
0.15200001 580570.66771031 14656.50719794
0.15300001 573596.54303970 17225.10500032
0.15400001 566688.28335094 15810.60385161
0.15500001 559850.55455930 14410.55395443
0.15600001 553078.79935546 15630.00760744
0.15700001 546379.23552033 16833.94504089
0.15800001 539744.42851922 16734.77679610
0.15900001 533180.50914822 12796.33282355
0.16000001 526682.44519012 13991.31981690
0.16100001 520255.67063552 12642.21339321
0.16200001 513895.40974857 13821.21769763
0.16300001 507602.65693317 14984.43114005
0.16400001 501377.95011360 13650.01533625
0.16500001 495220.22860060 17263.37798404
0.16600001 489130.60060250 14703.26654830
0.16700001 483106.15671400 13391.70329640
0.16800001 477148.06381588 15724.41518550
0.16900001 471258.18944622 16823.91815762
0.17000001 465432.68577176 14326.01874452
0.17100001 459672.79397033 15417.42623780
0.17200001 453978.53673010 17671.11537670
0.17300001 448349.25138392 17552.87402061
0.17400001 442784.29978987 13947.70610208
0.17500001 437283.16577631 13853.13134604
0.17600001 431844.14834878 14905.10148421
0.17700001 426470.30223277 13664.10912890
0.17800001 421157.24241986 12438.87974238
0.17900001 415907.29847187 12352.44734806
0.18000001 410718.73313785 11151.01413141
0.18100001 405593.04397181 13287.22874816
0.18200001 400525.09840232 12093.85591755
0.18300001 395518.75934459 14191.21375567
0.18400001 390571.21954440 11922.18703981
0.18500001 385684.46832842 12912.71660966
0.18600001 380854.34601289 13887.85438347
0.18700001 376082.18115932 18029.38061657
0.18800001 371367.38498009 13686.74562009
0.18900001 366711.03318989 15676.89740956
0.19000001 362106.92777280 12449.23676504
0.19100001 357563.07814907 12357.38056472
0.19200001 353070.59029506 10221.39407202
0.19300001 348635.46875175 11159.82188207
0.19400001 344251.56443906 10069.35873566
0.19500001 339922.17886794 15989.94004955
0.19600001 335644.92697184 12893.80047894
0.19700001 331419.50400638 10827.47570757
0.19800001 327245.72047634 11721.94226143
0.19900001 323122.93307113 10663.05729528
0.20000001 319048.83996697 9619.32297962
0.20100001 315025.93781087 18136.04409692
0.20200001 311050.27751529 11365.77767759
0.20300001 307124.50809697 10337.81143116
0.20400001 303245.37958440 10257.27544926
0.20500001 299413.37288803 11102.24839146
0.20600001 295627.74577730 13768.86291040
0.20700001 291888.37086317 11838.99288183
0.20800001 288192.79130072 11745.29776466
0.20900001 284544.13551524 11652.08290016
0.21000001 280937.54404871 9780.84105842
0.21100001 277375.17704605 10584.63725645
0.21200001 273854.87583066 10499.59643571
0.21300001 270376.08906561 8679.07286931
0.21400001 266940.13273366 12052.34756272
0.21500001 263545.84288320 10246.66285574
0.21600001 260190.83602603 11856.89695828
0.21700001 256875.97668829 10079.81380182
0.21800001 253600.62075663 9996.93694289
0.21900001 250362.88288823 11566.76573633
0.22000001 247163.21977345 9012.80723519
0.22100001 244002.75464639 8125.29211392
0.22200001 240879.42342796 10474.64222305
0.22300001 237791.07924212 7989.78064034
0.22400001 234738.33454926 9506.90299879
0.22500001 231723.55372823 8640.97172713
0.22600001 228741.62859494 11682.97923295
0.22700001 225796.23892014 11583.34760437
0.22800001 222883.19201687 9187.24560940
0.22900001 220003.10477040 8349.11822087
0.23000001 217157.23802086 9781.84824925
0.23100001 214344.47058945 9696.94430806
0.23200001 211561.94404139 11091.13544091
0.23300001 208811.86557010 8062.22651096
0.23400001 206093.64980521 9444.24194899
0.23500001 203404.01981167 7920.55290608
0.23600001 200746.60642844 8563.85063528
0.23700001 198118.16100355 10609.22802353
0.23800001 195519.30069687 7009.36726152
0.23900001 192949.06152744 6946.16654354
0.24000001 190407.37828162 7571.54975551
0.24100001 187895.03295122 7502.64902063
0.24200001 185409.61818635 7433.99899282
0.24300001 182952.24202196 8035.26284969
0.24400001 180521.32982981 7960.99102208
0.24500001 178116.98651006 9201.52395838
0.24600001 175739.66290075 7813.38578218
0.24700001 173388.17442539 9675.06059062
0.24800001 171062.20641090 8305.92582521
0.24900001 168760.86367389 7594.23922459
0.25000001 166485.58048011 8775.45536226
0.25100001 164233.77721236 8070.44819402
0.25200001 162008.19909264 6763.03259108
0.25300001 159806.25334217 9132.92781059
0.25400001 157627.82962962 8440.97067602
0.25500001 155472.53835268 6567.16033072
0.25600001 153341.16642978 8866.95336832
0.25700001 151232.02996290 8193.75177106
0.25800001 149146.57400016 6373.77914147
0.25900001 147083.33485930 8030.75046329
0.26000001 145042.20745597 7949.76376681
0.26100001 143022.66511395 7307.02830641
0.26200001 141025.70725895 6676.15729753
0.26300001 139049.53026615 6056.99782500
0.26400001 137095.07326820 7084.38824635
0.26500001 135162.10639615 9168.04611067
0.26600001 133248.94690386 8004.93086404
0.26700001 131357.71353850 5808.63836754
0.26800001 129487.21482753 5747.29030209
0.26900001 127635.72868152 5169.24725622
0.27000001 125805.38232771 6136.78684035
0.27100001 123994.54822249 5058.97780688
0.27200001 122204.90738104 6005.14943289
0.27300001 120433.82870945 7424.74589131
0.27400001 118680.50067814 5385.12797312
0.27500001 116949.39790109 6294.21689291
0.27600001 115235.02029044 6224.41991556
0.27700001 113541.41599614 6628.54817956
0.27800001 111865.57833628 5149.73214243
0.27900001 110209.69663860 5091.68822568
0.28000001 108570.87428470 5491.51508122
0.28100001 106951.27491737 5428.84697175
0.28200001 105350.54558405 4919.34395888
0.28300001 103767.56346206 5746.64793652
0.28400001 102202.46039241 5679.90200514
0.28500001 100655.62867611 5181.75200951
0.28600001 99126.45386226  6401.09106113
0.28700001 97615.07377386  4638.66852529
0.28800001 96120.57087295  4166.82694457
0.28900001 94645.34631812  5352.19458763
0.29000001 93185.92917178  5287.83580115
0.29100001 91744.79761157  5625.79125584
0.29200001 90320.50532821  4366.54503678
0.29300001 88913.51471325  5881.62927669
0.29400001 87522.83851042  4260.17436616
0.29500001 86150.15724267  4207.57387891
0.29600001 84793.53748676  7177.34932033
0.29700001 83453.76735723  3730.38357746
0.29800001 82130.33560797  5525.31858959
0.29900001 80824.27412991  5091.92951123
0.30000001 79533.85303158  5386.43045156
0.30100001 78260.66657138  5317.81254527
0.30200001 77002.39438745  3499.75899059
0.30300001 75761.42063153  3454.72094435
0.30400001 74536.61672279  3751.05541416
0.30500001 73327.40716612  3702.30096309
0.30600001 72133.26245704  4982.60534011
0.30700001 70956.17081497  4589.44534559
0.30800001 69794.46020142  4528.96273689
0.30900001 68648.23172827  4788.21438974
0.31000001 67518.00247004  3149.71496435
0.31100001 66402.27971320  4661.44025656
0.31200001 65302.76488143  3065.96495634
0.31300001 64217.90590645  3629.59621368
0.31400001 63149.60913585  5370.87451130
0.31500001 62095.16249217  3531.97300978
0.31600002 61056.31571488  4064.51912959
0.31700002 60032.21437417  3149.89043735
0.31800002 59023.12393103  3106.68227521
0.31900002 58028.77255139  3063.91933579
0.32000002 57049.60667389  4120.40803712
0.32100002 56084.17999795  3521.52582882
0.32200002 55134.56031763  3205.52348865
0.32300002 54197.46979878  3424.19630403
0.32400002 53275.61096784  4155.49785226
0.32500002 52367.83028180  4097.25923526
0.32600002 51474.70657767  2777.31792491
0.32700002 50594.91105735  4231.75856122
0.32800002 49729.77348636  2944.99732532
0.32900002 48877.81473317  4113.06830456
0.33000002 48040.74834335  3577.83490230
0.33100002 47214.63199226  3526.93317684
0.33200002 46405.27036896  2549.73770116
0.33300002 45607.80269764  2970.43633036
0.33400002 44824.25936786  3153.38679586
0.33500002 44052.72067764  3552.41156367
0.33600002 43295.69245508  2845.17656442
0.33700002 42550.41560020  2804.49802502
0.33800002 41819.23995050  2339.15929741
0.33900002 41099.69817961  3353.73553028
0.34000002 40393.53757894  2272.74249951
0.34100002 39699.75053741  2240.25702892
0.34200002 39019.09113042  2810.54526723
0.34300002 38349.47331506  2374.59950013
0.34400002 37693.69809851  1950.64896898
0.34500002 37048.96404376  2691.97785491
0.34600002 36417.37584832  2464.18185348
0.34700002 35795.86115934  2242.25284922
0.34800002 35187.87526836  2763.12803631
0.34900002 34590.76257255  2179.21814528
0.35000002 34005.34213361  1790.38134813
0.35100002 33431.83150731  1765.20078719
0.35200002 32868.44555731  2436.53798456
0.35300002 32316.78574492  1887.62354476
0.35400002 31776.56595860  1861.31243918
0.35500002 31247.31757818  1835.46752148
0.35600002 30727.90487981  2303.67113795
0.35700002 30219.64229690  2596.47178913
0.35800002 29722.72556938  1920.68261727
0.35900002 29235.78093358  1736.60546971
0.36000002 28759.54317120  2491.72693838
0.36100002 28292.65008663  2304.43645871
0.36200002 27837.22544894  1515.73699749
0.36300002 27390.48925884  2093.72909812
0.36400002 26953.81787751  1918.43807830
0.36500002 26526.58613819  1601.94061277
0.36600002 26109.51782881  1581.06192702
0.36700002 25701.13956838  1702.44356565
0.36800002 25303.77395938  1820.73314149
0.36900002 24914.34007945  1935.84431587
0.37000002 24533.85449980  1911.43269462
0.37100002 24162.16483257  1348.24886152
0.37200002 23800.22841772  1331.62284305
0.37300002 23446.30042896  1841.47252292
0.37400002 23100.97698026  1429.37301836
0.37500002 22764.61757683  1412.31694137
0.37600002 22436.52765078  1268.78569876
0.37700002 22116.15923859  1755.58080352
0.37800002 21803.92912932  1363.50877269
0.37900002 21500.24397779  1960.82234366
0.38000002 21204.20140951  1454.18420155
0.38100002 20914.90482490  1318.26651356
0.38200002 20634.33305421  1303.98673914
0.38300002 20360.37785159  1876.41251170
0.38400002 20094.76483031  1508.61454110
0.38500002 19834.96751054  1378.13360792
0.38600002 19583.74680337  1250.52021137
0.38700002 19338.41819189  1463.14478972
0.38800002 19100.35087417  1671.75828946
0.38900002 18868.42843380  1103.80311567
0.39000002 18644.33456693  1202.83930157
0.39100002 18425.44916965  1516.78304751
0.39200002 18213.66109755  1395.80398434
0.39300002 18007.74716171  1489.96107075
0.39400002 17809.31052984  1582.80254833
0.39500002 17615.65363216  1151.00686286
0.39600002 17428.02588178  1141.62288947
0.39700002 17246.20875296  1235.51845360
0.39800002 17070.24691691  1430.31605693
0.39900002 16899.65748528  1115.37744687
0.40000002 16734.43332627  1207.89145472
0.40100002 16574.85396711  1399.24923820
0.40200002 16420.82217378  1389.69424641
0.40300002 16271.13379960  1183.23690597
0.40400002 16127.10165897  979.72147220
0.40500002 15987.99088921  1363.13616780
0.40600002 15853.59095013  1355.00648271
0.40700002 15723.92090074  962.30400472
0.40800002 15599.13537921  1148.40840103
0.40900002 15478.48896106  1047.11982783
0.41000002 15362.73314344  1515.38006907
0.41100002 15251.02058945  1319.51836392
0.41200002 15143.26956601  1219.56327228
0.41300002 15040.31331788  1027.40385143
0.41400002 14941.04840634  1302.11243031
0.41500002 14845.88699906  1111.66007116
0.41600002 14753.99846056  1015.14891218
0.41700002 14666.33133415  1011.53692005
0.41800002 14583.23880602  1191.52358311
0.41900002 14501.76220135  1096.33327437
0.42000002 14425.23031204  1093.14400484
0.42100002 14352.08614009  1181.03322443
0.42200002 14282.50203434  1268.71471583
0.42300002 14215.43165506  1265.74209454
0.42400002 14151.52484286  992.37572663
0.42500002 14091.15522937  1170.55232037
0.42600002 14032.94037056  1168.45283532
0.42700002 13978.93586211  987.19249736
0.42800002 13926.72425315  1075.42169779
0.42900002 13878.54094735  1163.71571358
0.43000002 13832.43304604  1251.97357432
0.43100002 13788.09933316  982.81576704
0.43200002 13747.37464540  1160.75963319
0.43300002 13708.93494545  892.45170724
0.43400002 13672.96162921  1338.24118288
0.43500002 13639.05213018  1248.79167222
0.43600002 13607.84179397  1070.39288624
0.43700002 13578.32698579  1159.72496281
0.43800002 13550.86716560  981.55710966
0.43900002 13526.26804489  1249.82722658
0.44000002 13503.12291014  893.23162284
0.44100002 13482.27880721  983.26264001
0.44200002 13463.22100557  1163.02040168
0.44300002 13445.97847212  895.50220868
0.44400002 13430.99841699  896.51918682
0.44500002 13416.41442712  1077.06980125
0.44600002 13403.97450734  1348.10479996
0.44700002 13394.19270779  1260.12570967
0.44800002 13384.38603761  901.43844235
0.44900002 13377.65809402  993.29116056
0.45000002 13371.84754228  1266.44774075
0.45100002 13367.14457377  1268.80942307
0.45200002 13363.96247583  1089.69755192
0.45300002 13361.76227288  1273.91047547
0.45400002 13361.21392904  1185.47376204
0.45500002 13361.96969001  913.95877011
0.45600002 13363.60188390  1190.89743832
0.45700002 13366.45710678  1652.89616416
0.45800002 13370.00865438  1012.57765343
0.45900002 13374.72302314  922.85593233
0.46000002 13381.20431591  1480.49651568
0.46100002 13387.39537937  927.74654376
0.46200002 13395.53728764  1023.35211959
0.46300002 13404.30019778  1399.40900697
0.46400002 13413.27275376  1029.13340081
0.46500002 13423.53702461  1407.45792374
0.46600002 13434.36048712  1223.40009574
0.46700002 13445.59270306  1321.43291349
0.46800002 13458.53152317  1041.48851128
0.46900002 13470.92016178  1234.60989134
0.47000002 13484.32245671  1047.93416939
0.47100002 13498.36405812  1146.82106473
0.47200002 13513.11456023  1054.63107584
0.47300002 13528.44383803  1058.05964272
0.47400002 13543.48775556  1157.96825798
0.47500002 13559.42029354  968.14265485
0.47600002 13576.32252288  971.38592255
0.47700002 13592.60179198  1169.50751361
