# SAXS profile: number of points = 501, q_min = 0, q_max = 0.5, delta_q = 0.001
#    q    intensity    error
0.00000000 1682732.95097188 252.40994265
0.00100000 1682645.96455666 555.27318149
0.00200000 1682384.96284156 757.07325725
0.00300000 1681950.17866374 1110.08715746
0.00400000 1681341.47276993 1513.20738299
0.00500000 1680559.50571494 1663.75397651
0.00600000 1679604.12957175 2116.30128942
0.00700000 1678476.07352918 2014.17137194
0.00800000 1677175.13803596 2717.02383833
0.00900000 1675702.74978700 2513.55423213
0.01000000 1674058.26193790 3590.85512691
0.01100000 1672243.34156500 4214.05340422
0.01200000 1670257.72548136 4885.50406123
0.01300000 1668102.90914960 4203.61951646
0.01400000 1665779.01302293 4872.40382909
0.01500000 1663287.62780034 4790.26858137
0.01600000 1660628.39840145 5081.52312627
0.01700000 1657803.50564109 5818.89056583
0.01800000 1654813.50271976 8489.19365095
0.01900000 1651659.36831242 6441.47182707
0.02000000 1648341.82143317 9865.32624754
0.02100000 1644863.67033659 7056.46546567
0.02200000 1641223.46506168 6794.66545405
0.02300000 1637424.49445012 7073.67413801
0.02400000 1633467.17146895 7350.60260678
0.02500000 1629354.02477997 6354.48098685
0.02600000 1625085.39615873 7239.75577102
0.02700000 1620663.24564377 7487.46453781
0.02800000 1616088.05238623 8435.98002033
0.02900000 1611363.14908321 8701.36140457
0.03000000 1606489.19391945 8964.21011411
0.03100000 1601467.78803665 9224.45488354
0.03200000 1596300.27551162 8691.85540049
0.03300000 1590990.75344864 12171.07982497
0.03400000 1585537.69301629 10821.29525413
0.03500000 1579945.17356598 11091.21563060
0.03600000 1574213.80198617 9610.57570527
0.03700000 1568346.80125730 14303.32348896
0.03800000 1562345.48703841 10967.66582659
0.03900000 1556212.63482465 9337.27624136
0.04000000 1549948.08737164 10485.39929695
0.04100000 1543556.16871738 10696.84474519
0.04200000 1537038.32640121 12888.06696479
0.04300000 1530396.37128325 10100.61651932
0.04400000 1523633.03956797 12341.42819366
0.04500000 1516750.97185775 13605.25684973
0.04600000 1509750.61297291 12772.49077950
0.04700000 1502635.99818548 11900.87765911
0.04800000 1495408.74377448 13189.50573377
0.04900000 1488071.57039934 14508.69848674
0.05000000 1480626.26207250 14724.82886199
0.05100000 1473076.82578004 16085.99968687
0.05200000 1465422.22563710 15145.13940774
0.05300000 1457668.19648310 17710.66941290
0.05400000 1449815.52932645 13157.07654220
0.05500000 1441867.97955678 13322.86075261
0.05600000 1433826.32095989 17162.90186278
0.05700000 1425695.70806965 14884.26388702
0.05800000 1417475.15391192 15053.58683743
0.05900000 1409168.98533523 12682.52146036
0.06000000 1400780.70015867 14098.85840578
0.06100000 1392311.68268605 14243.34917949
0.06200000 1383764.88461413 14384.23664793
0.06300000 1375143.83048578 19802.07208485
0.06400000 1366447.14734906 21316.57649555
0.06500000 1357682.20956016 13441.05450339
0.06600000 1348849.52715995 13555.93838222
0.06700000 1339950.85933853 13667.49940488
0.06800000 1330990.12604179 17908.47298417
0.06900000 1321971.24591225 15268.76860515
0.07000000 1312893.17674414 19575.23818193
0.07100000 1303760.80140051 25345.11116633
0.07200000 1294575.99779358 15593.16862391
0.07300000 1285342.45855011 14267.30195841
0.07400000 1276062.67315928 14355.70574581
0.07500000 1266737.50229271 21661.21230452
0.07600000 1257369.97003215 20331.67336858
0.07700000 1247964.43748077 17521.42152378
0.07800000 1238521.49017236 16144.12838150
0.07900000 1229043.54380077 16223.37553911
0.08000000 1219535.55012699 19262.56491788
0.08100000 1209998.31665420 17859.57599176
0.08200000 1200433.67191786 16439.93990836
0.08300000 1190844.14399112 18005.56430218
0.08400000 1181233.64878095 22591.09459333
0.08500000 1171603.82643929 16625.05907764
0.08600000 1161957.08109432 21228.95686832
0.08700000 1152295.51325160 21294.42208483
0.08800000 1142621.23114055 21355.59181296
0.08900000 1132937.51175390 15294.65712706
0.09000000 1123246.53864631 16865.54757004
0.09100000 1113549.98713436 16903.68959885
0.09200000 1103849.95633133 16938.57837579
0.09300000 1094150.51019261 16970.27521056
0.09400000 1084450.46879237 16998.76189722
0.09500000 1074754.37273197 30952.92738955
0.09600000 1065063.74553432 20145.68169379
0.09700000 1055382.88614067 17065.54207119
0.09800000 1045711.12089474 15528.81087542
0.09900000 1036052.42170179 20203.02317318
0.10000000 1026406.10802284 23325.07990173
0.10100000 1016776.00439315 20223.67567854
0.10200000 1007164.53630370 23341.03922671
0.10300000 997572.20536578 15562.12713576
0.10400000 988002.61674806 17117.14614044
0.10500000 978458.16989305 15557.48563327
0.10600001 968935.69912909 17106.56057305
0.10700001 959443.51844145 15542.98573017
0.10800001 949978.46377261 21745.00805911
0.10900001 940545.36046038 21726.59884921
0.11000001 931144.75790784 15503.56094891
0.11100001 921777.50368631 15485.86279090
0.11200001 912446.68913857 17012.56931989
0.11300001 903152.30865471 23165.85780766
0.11400001 893897.29072226 15419.72899099
0.11500001 884683.09874656 18472.18397165
0.11600001 875510.29288074 18438.24763635
0.11700001 866381.23925505 15334.94865701
0.11800001 857295.47791685 18363.27000186
0.11900001 848255.54837506 19849.18076691
0.12000001 839262.31125377 19802.39516682
0.12100001 830319.03522317 18233.80687246
0.12200001 821424.59649005 22732.92677884
0.12300001 812581.61697395 18136.82254536
0.12400001 803789.78861564 16578.16517132
0.12500001 795050.40894978 19534.38946837
0.12600001 786366.56907312 19474.36900080
0.12700001 777737.31990264 22398.83586877
0.12800001 769163.83496529 19348.31718042
0.12900001 760647.47492502 19282.41439817
0.13000001 752189.34723009 17736.62564370
0.13100001 743788.97385822 14727.02237659
0.13200001 735448.29861990 17606.63309894
0.13300001 727169.13118195 17539.32027096
0.13400001 718949.78659613 16014.60725145
0.13500001 710793.37111112 20300.25963605
0.13600001 702698.19679113 15884.49348743
0.13700001 694667.18448917 14379.61139697
0.13800001 686698.29960311 15749.42624407
0.13900001 678795.09838335 21382.04660741
0.14000001 670956.30265931 18447.94441163
0.14100001 663182.60183384 24013.84314497
0.14200001 655474.15026931 16871.90542370
0.14300001 647833.03422242 18191.15245900
0.14400001 640256.01956727 23673.46744017
0.14500001 632747.55606664 15242.88934468
0.14600001 625305.62076229 13787.98958825
0.14700001 617932.90654671 16461.73340701
0.14800001 610624.85658789 16376.95942633
0.14900001 603385.91280154 14933.80204643
0.15000001 596214.51506334 14854.68534369
0.15100001 589111.79545018 18804.44939806
0.15200001 582077.38667853 17366.27965102
0.15300001 575112.61016274 18599.14269034
0.15400001 568213.51272258 14532.06127366
0.15500001 561384.67053874 18390.96267477
0.15600001 554621.92775328 16979.75111952
0.15700001 547930.99903005 18180.35140587
0.15800001 541304.60298529 19365.17308581
0.15900001 534749.13875778 16684.17391675
0.16000001 528259.21314536 15308.95271957
0.16100001 521840.54817638 13948.79851120
0.16200001 515488.18465123 17645.16139357
0.16300001 509203.15257139 15031.67777352
0.16400001 502985.95195961 14938.68347845
0.16500001 496835.47591885 12371.20393444
0.16600001 490753.01057979 14752.03619452
0.16700001 484735.65152440 18323.00849274
0.16800001 478784.38717456 13350.90326674
0.16900001 472901.20705118 14470.77761905
0.17000001 467082.20794807 11980.65919959
0.17100001 461328.57497268 14282.73335560
0.17200001 455640.40492857 16553.41669276
0.17300001 450017.03146338 17618.16761380
0.17400001 444457.81073100 14000.42169921
0.17500001 438962.19952972 15065.18339935
0.17600001 433528.59351815 12661.20317167
0.17700001 428159.86566924 17147.80342995
0.17800001 422851.80478703 11353.57149478
0.17900001 417606.58588990 15785.52969225
0.18000001 412422.51711898 14556.45342929
0.18100001 407301.28475869 14455.12327890
0.18200001 402237.58227539 12145.56437054
0.18300001 397235.22477516 13156.43126605
0.18400001 392291.58504776 14151.91959914
0.18500001 387408.57672135 15132.17972161
0.18600001 382581.81120775 11804.56234250
0.18700001 377812.92200090 12785.18988454
0.18800001 373101.00636375 11635.15543317
0.18900001 368447.67894170 10500.75934597
0.19000001 363846.12160831 13551.44943959
0.19100001 359304.71506092 10347.97628270
0.19200001 354814.50448195 10271.88039011
0.19300001 350381.33876978 15294.14615999
0.19400001 345999.38361421 11132.53069384
0.19500001 341671.60961113 11049.66037698
0.19600001 337395.93999286 11964.06059752
0.19700001 333171.65797907 14842.79806440
0.19800001 328999.03720578 11784.74606964
0.19900001 324877.00688140 11695.57280046
0.20000001 320803.73857795 9672.23317525
0.20100001 316781.15727014 14397.70427840
0.20200001 312805.87736885 20002.37277373
0.20300001 308880.00644138 14177.59296576
0.20400001 305000.94054432 12192.41317454
0.20500001 301168.50844276 11167.32882090
0.20600001 297382.41739446 10157.09694621
0.20700001 293642.32628673 14658.62562113
0.20800001 289945.78699402 9998.78093713
0.20900001 286296.26706538 13527.49925830
0.21000001 282688.29795652 11631.21056926
0.21100001 279124.34503025 14201.84734651
0.21200001 275602.52136813 17611.00194797
0.21300001 272121.75430942 10482.13047155
0.21400001 268683.66700026 12131.06813858
0.21500001 265287.18136206 10314.36609899
0.21600001 261929.67354323 13641.29804307
0.21700001 258612.32012713 10147.94792158
0.21800001 255334.02068228 8387.72297599
0.21900001 252093.38603707 9982.89855907
0.22000001 248890.55762236 8250.72237530
0.22100001 245726.67040113 8182.69851126
0.22200001 242599.71401055 9737.95298084
0.22300001 239507.68490425 8047.45859331
0.22400001 236451.09841577 8778.24744378
0.22500001 233432.11665953 10287.35386765
0.22600001 230445.82013104 9416.01665582
0.22700001 227496.06681589 8558.40243833
0.22800001 224578.41736180 7714.26900119
0.22900001 221693.54366768 9178.11314188
0.23000001 218842.75986657 8341.19218678
0.23100001 216024.85902249 10524.73162932
0.23200001 213237.06084991 9688.42631792
0.23300001 210481.40983140 9604.26718484
0.23400001 207757.49686641 8055.79732200
0.23500001 205062.04639729 7985.11646438
0.23600001 202398.68603658 7914.80099181
0.23700001 199764.11873562 8557.89525140
0.23800001 197158.89783885 7774.96150402
0.23900001 194582.24369538 8405.95332524
0.24000001 192033.96462432 6942.02814953
0.24100001 189514.84728035 8255.26713802
0.24200001 187022.59477053 8180.36868221
0.24300001 184557.97959153 8781.26908434
0.24400001 182119.85943176 10039.35772607
0.24500001 179708.28120006 6631.23588997
0.24600001 177323.27082844 8540.77574347
0.24700001 174964.08792927 7159.53081675
0.24800001 172630.48670124 7092.52388164
0.24900001 170321.32993057 7025.75519201
0.25000001 168037.85772609 8857.27589976
0.25100001 165777.75474541 7519.67931100
0.25200001 163543.96117493 7447.79234426
0.25300001 161333.54384719 8605.53163594
0.25400001 159146.45851879 6696.08755898
0.25500001 156982.47076585 7233.75259513
0.25600001 154842.22206524 6566.08473734
0.25700001 152724.24954114 7092.51448426
0.25800001 150629.58067739 7607.54733206
0.25900001 148557.11678409 6373.10061158
0.26000001 146506.75741831 6309.31380675
0.26100001 144477.68342783 5677.97322737
0.26200001 142471.24739785 6744.58917095
0.26300001 140485.34389525 8344.82982223
0.26400001 138521.24409170 8259.32956978
0.26500001 136578.41798797 8174.21870337
0.26600001 134655.30446718 5392.94519910
0.26700001 132753.96505629 5870.38061258
0.26800001 130873.30378478 8449.18089217
0.26900001 129011.64887667 5747.46922943
0.27000001 127170.95408562 5686.44948103
0.27100001 125349.76562033 6648.55188313
0.27200001 123549.56862825 5565.29058223
0.27300001 121767.97534632 6005.59682829
0.27400001 120003.97760461 6435.21360359
0.27500001 118262.13306003 6364.86830251
0.27600001 116536.84029538 5810.52713212
0.27700001 114832.49857851 6703.92158429
0.27800001 113145.72000119 5208.66346677
0.27900001 111478.71049251 7491.36969965
0.28000001 109828.83512483 5555.14274353
0.28100001 108198.05884236 5034.45591621
0.28200001 106586.13801030 4977.03994995
0.28300001 104991.81212272 4472.65140812
0.28400001 103415.47242656 4863.11282103
0.28500001 101857.21440683 4369.67470488
0.28600001 100316.68934910 6046.08715324
0.28700001 98793.72596895  5121.46699664
0.28800001 97287.71562977  4639.16493939
0.28900001 95800.93811340  5834.27740726
0.29000001 94329.92383323  4117.50137022
0.29100001 92877.22491544  4068.02264386
0.29200001 91441.21149649  4420.72557905
0.29300001 90022.60220169  4366.99663952
0.29400001 88620.15815055  3921.44218379
0.29500001 87235.76123252  3873.26798207
0.29600001 85867.25193166  4207.92488010
0.29700001 84515.76829074  6044.56803429
0.29800001 83180.49454149  4849.83896383
0.29900001 81862.66588969  5525.73020914
0.30000001 80560.29069703  4728.48648631
0.30100001 79275.30147700  4309.40559230
0.30200001 78005.12920372  3899.86661916
0.30300001 76752.27408407  4549.87502310
0.30400001 75515.53704420  4491.28677833
0.30500001 74294.44968456  4433.15002255
0.30600001 73088.40849356  4375.43778161
0.30700001 71899.45030167  3653.93023732
0.30800001 70725.83361617  4261.58530630
0.30900001 69567.75566678  3234.90079166
0.31000001 68425.65434438  4468.87969681
0.31100001 67298.15624163  4094.42001959
0.31200001 66186.76623285  3728.96258611
0.31300001 65090.14842531  3678.89536318
0.31400001 64010.04674544  3326.92233711
0.31500001 62943.75911123  3281.88775545
0.31600002 61893.15808633  3531.62376762
0.31700002 60857.32639808  3483.47352796
0.31800002 59836.52581652  3149.49568548
0.31900002 58830.63663344  4235.80603817
0.32000002 57839.78672361  3341.98303513
0.32100002 56862.68445522  3570.40812600
0.32200002 55901.59610847  2708.43245970
0.32300002 54952.94060280  2670.71303976
0.32400002 54019.66675917  4213.53420673
0.32500002 53100.48380955  3115.93653749
0.32600002 52195.89870441  2816.22984795
0.32700002 51304.77170686  2776.61437626
0.32800002 50428.39352303  4230.69027495
0.32900002 49565.15349132  2453.47521400
0.33000002 48716.83455544  3144.42823528
0.33100002 47879.69413423  2622.84976888
0.33200002 47059.11019769  2820.72319882
0.33300002 46250.69772287  4402.60412473
0.33400002 45456.16284140  3426.25843642
0.33500002 44673.74591489  2927.02397096
0.33600002 43905.80763960  2663.32641754
0.33700002 43149.82058133  2187.69600708
0.33800002 42408.00521727  3019.02603439
0.33900002 41677.77827692  2550.68015134
0.34000002 40961.10885729  2723.70906246
0.34100002 40256.79516869  2271.69105895
0.34200002 39565.76365980  3460.61968240
0.34300002 38885.79597539  2207.15788409
0.34400002 38219.82136301  2175.66343413
0.34500002 37564.84842415  2534.50044321
0.34600002 36923.06633830  2498.39940211
0.34700002 36291.63738056  2083.86591709
0.34800002 35673.66059601  2801.27433097
0.34900002 35066.67024157  2393.30035734
0.35000002 34471.54786297  2177.91249713
0.35100002 33888.29322741  2147.16236058
0.35200002 33315.35972913  2998.88224805
0.35300002 32754.19436885  1913.17258370
0.35400002 32204.46672035  2057.86552090
0.35500002 31665.96507164  2029.15513790
0.35600002 31137.34732412  2334.36703946
0.35700002 30620.00725294  1808.72391410
0.35800002 30113.92371594  2108.12532959
0.35900002 29618.07764387  2239.12677593
0.36000002 29133.07355472  1735.31160848
0.36100002 28657.38031403  2022.92457219
0.36200002 28193.27519794  1535.12390724
0.36300002 27738.02131759  2120.29444995
0.36400002 27292.86172037  1643.71267497
0.36500002 26857.30961209  1621.91300430
0.36600002 26431.99242842  1746.09750253
0.36700002 26015.54405602  1723.26971990
0.36800002 25610.03036634  1559.26677272
0.36900002 25212.76592919  1959.03200550
0.37000002 24824.38503653  2210.36334836
0.37100002 24445.03010629  2046.04911682
0.37200002 24075.39626476  1751.12403027
0.37300002 23713.94017857  1862.49294985
0.37400002 23361.26713372  1708.29274008
0.37500002 23017.57672958  1298.19138904
0.37600002 22682.27526416  1539.21927234
0.37700002 22354.82165925  1774.52582737
0.37800002 22035.69159651  1378.00203927
0.37900002 21725.16902833  2105.16897857
0.38000002 21422.33836931  1469.14403496
0.38100002 21126.42006267  2300.03346118
0.38200002 20839.19636203  1436.65426526
0.38300002 20558.89729263  1184.19254016
0.38400002 20286.97229049  1288.72997581
0.38500002 20021.01081549  1738.82487170
0.38600002 19763.73248844  1491.47014290
0.38700002 19512.36905017  1249.18192577
0.38800002 19268.46450449  1236.74645281
0.38900002 19030.75129415  1335.95880414
0.39000002 18801.02194642  1212.94798834
0.39100002 18576.63775817  1638.45952789
0.39200002 18359.40953360  1731.65958925
0.39300002 18148.16240770  1501.57902875
0.39400002 17944.50222877  1063.21180743
0.39500002 17745.79108091  1370.33005219
0.39600002 17553.17623100  1254.35003290
0.39700002 17366.51841375  1036.78119842
0.39800002 17185.79715653  1131.42700941
0.39900002 17010.47169314  1326.81685493
0.40000002 16840.74402475  1215.56496130
0.40100002 16676.84700523  1307.29809868
0.40200002 16518.41399598  1397.95344271
0.40300002 16364.54224910  2181.72087602
0.40400002 16216.35491986  985.14360806
0.40500002 16073.24086518  1272.51853959
0.40600002 15934.98237177  1264.67993586
0.40700002 15801.58495003  1257.17415819
0.40800002 15672.97695027  1153.84461775
0.40900002 15548.81470422  1721.25386931
0.41000002 15429.65082722  1426.85702785
0.41100002 15314.49012940  1325.00974878
0.41200002 15203.49000675  1224.41312571
0.41300002 15097.47838565  1125.06414261
0.41400002 14995.12176100  1306.82492339
0.41500002 14896.99853301  929.57275251
0.41600002 14802.26042150  1018.46957656
0.41700002 14711.86187608  922.43378334
0.41800002 14626.05192345  1103.09688834
0.41900002 14542.07256737  1099.38073819
0.42000002 14463.11132141  1004.68007555
0.42100002 14387.57606208  1183.95369025
0.42200002 14315.69313241  1271.66308121
0.42300002 14246.44383563  1087.28864506
0.42400002 14180.47993324  1356.00845787
0.42500002 14118.10066740  1082.57601047
0.42600002 14058.00812876  1260.58164864
0.42700002 14002.19665790  988.83517484
0.42800002 13948.38909937  1077.09465729
0.42900002 13898.52742309  1075.74607352
0.43000002 13850.89518636  1701.37479084
0.43100002 13805.15754417  1073.48910150
0.43200002 13763.09103838  983.30408583
0.43300002 13723.35756590  1161.40780584
0.43400002 13686.20519614  982.32742450
0.43500002 13651.17747026  982.06575375
0.43600002 13619.04422805  1339.09258718
0.43700002 13588.55725213  982.04507915
0.43800002 13560.23562513  1071.52986988
0.43900002 13534.87564623  1250.62256898
0.44000002 13511.00667168  1072.50376042
0.44100002 13489.56888588  1430.97353523
0.44200002 13469.92014784  984.58385987
0.44300002 13452.22177843  1164.69341677
0.44400002 13436.85970247  986.60147041
0.44500002 13421.89989604  1167.30268928
0.44600002 13409.19058411  1798.17254255
0.44700002 13399.25913656  990.47328231
0.44800002 13389.40105495  1262.48668530
0.44900002 13382.59563545  1083.99029784
0.45000002 13376.80870809  1085.92938239
0.45100002 13372.20070876  1087.96230123
0.45200002 13369.19974079  1362.65574816
0.45300002 13367.18837077  1001.33612831
0.45400002 13366.94219655  1185.98200260
0.45500002 13368.00740804  1280.12045006
0.45600002 13370.09497351  1008.17205926
0.45700002 13373.39989567  1470.00418620
0.45800002 13377.44893025  1105.24488300
0.45900002 13382.72573978  923.40811981
0.46000002 13389.74560683  1018.49104785
0.46100002 13396.62544797  1114.06342505
0.46200002 13405.50005555  1210.31562988
0.46300002 13415.00701786  1213.78989250
0.46400002 13424.82057283  1591.84817487
0.46500002 13435.96603897  1127.00888476
0.46600002 13447.69137275  1224.61407290
0.46700002 13459.87064966  1417.32444658
0.46800002 13473.78858090  1232.24539307
0.46900002 13487.21946165  1045.93391882
0.47000002 13501.77861617  1335.46098622
0.47100002 13516.86541065  1052.69352808
0.47200002 13532.83353782  1152.18550202
0.47300002 13549.41036116  1348.70837128
0.47400002 13565.68193010  1063.21037166
0.47500002 13582.88234919  1163.78141484
0.47600002 13601.08889529  973.15795658
0.47700002 13618.72496314  1171.75515137
