# SAXS profile: number of points = 501, q_min = 0, q_max = 0.5, delta_q = 0.001
#    q    intensity    error
0.00000000 1664650.74656090 324.60689558
0.00100000 1664564.20174490 649.18005410
0.00200000 1664304.52059071 898.72446958
0.00300000 1663871.94689582 1197.98784444
0.00400000 1663266.31690433 1372.19476359
0.00500000 1662488.32232415 2244.35932397
0.00600000 1661537.77183223 2093.53767774
0.00700000 1660415.44659855 2789.49806622
0.00800000 1659121.11746887 2687.77632378
0.00900000 1657656.18161167 4475.67188168
0.01000000 1656020.04468514 2732.43319172
0.01100000 1654214.37675700 2977.58600780
0.01200000 1652238.84606557 4188.42565841
0.01300000 1650094.99651952 3811.71961008
0.01400000 1647782.94352818 4819.76532348
0.01500000 1645304.28102129 6712.84176548
0.01600000 1642658.60234507 5026.53554788
0.01700000 1639848.16519691 4870.34926911
0.01800000 1636873.48468765 6064.61653366
0.01900000 1633735.44943485 4901.20656946
0.02000000 1630434.94150367 7190.21841729
0.02100000 1626974.62251865 6979.72144705
0.02200000 1623353.15854865 7280.73924687
0.02300000 1619573.73717967 8745.69857886
0.02400000 1615636.86137800 6058.63850643
0.02500000 1611544.92613457 7542.03059876
0.02600000 1607298.44219906 7160.51488751
0.02700000 1602899.13412666 10098.26500751
0.02800000 1598347.70802481 7648.09413364
0.02900000 1593647.39068271 8605.69630481
0.03000000 1588798.77457225 10343.08049789
0.03100000 1583803.64738170 8362.48364296
0.03200000 1578663.12883925 8595.82113244
0.03300000 1573381.43044216 10431.51936473
0.03400000 1567957.01905180 9878.12967581
0.03500000 1562393.96366532 10968.00613141
0.03600000 1556692.81013821 9503.61004509
0.03700000 1550856.79993616 9723.87258530
0.03800000 1544887.38030243 9037.59159303
0.03900000 1538787.02231945 10155.99481763
0.04000000 1532555.93067563 16965.39493874
0.04100000 1526198.14854851 13461.06829434
0.04200000 1519715.22143199 9802.16363299
0.04300000 1513108.96781660 11983.82358137
0.04400000 1506381.96337654 13218.50234252
0.04500000 1499537.10222340 14485.52908055
0.04600000 1492574.66836046 14731.71266155
0.04700000 1485498.78786150 16043.38765505
0.04800000 1478310.83778216 11952.14367958
0.04900000 1471013.78005214 13239.12463672
0.05000000 1463609.29363090 11196.61161766
0.05100000 1456101.46018499 12493.35111038
0.05200000 1448489.06741326 20727.87952063
0.05300000 1440778.03892433 21006.54478680
0.05400000 1432968.94427694 13004.19377575
0.05500000 1425065.81132695 14364.66404828
0.05600000 1417069.06806377 14539.12931679
0.05700000 1408984.09556228 13483.97842394
0.05800000 1400809.91193522 14876.60195938
0.05900000 1392550.75920877 17546.14038554
0.06000000 1384210.13036939 13932.07561306
0.06100000 1375789.36216535 17912.77833248
0.06200000 1367291.52416523 15505.08660880
0.06300000 1358719.91805718 19565.56773482
0.06400000 1350073.42556960 17112.18146938
0.06500000 1341359.32071419 18591.24105476
0.06600000 1332578.05189697 14731.65105299
0.06700000 1323731.38020254 14852.26678094
0.06800000 1314823.10916904 16330.10378028
0.06900000 1305857.39058838 20567.25486470
0.07000000 1296833.11577368 17954.65532868
0.07100000 1287755.18592220 15298.53232530
0.07200000 1278625.23181453 15401.04163870
0.07300000 1269447.03043878 23954.46658678
0.07400000 1260223.24424680 15595.26337841
0.07500000 1250954.51186044 21391.32315548
0.07600000 1241643.99917992 17209.18663541
0.07700000 1232295.94238171 18743.22216247
0.07800000 1222911.16553595 20288.09718768
0.07900000 1213491.53618724 24755.22849933
0.08000000 1204042.65386011 16092.03082373
0.08100000 1194564.87780784 17631.77842370
0.08200000 1185060.27917490 20655.60163529
0.08300000 1175531.15706339 14811.69327414
0.08400000 1165981.64182710 19326.14662043
0.08500000 1156413.15176431 14917.73035807
0.08600000 1146828.15236427 20952.55132745
0.08700000 1137228.87395567 16512.56402523
0.08800000 1127617.16735529 16559.05888029
0.08900000 1117996.58114631 18111.54546526
0.09000000 1108369.09634710 16642.16276343
0.09100000 1098736.23988711 16678.81690508
0.09200000 1089100.45869876 18231.54253526
0.09300000 1079465.59790620 19786.60533944
0.09400000 1069830.59025862 16769.59529043
0.09500000 1060199.81788580 21373.62933320
0.09600000 1050574.90870164 18343.03876820
0.09700000 1040960.10605444 22953.17141759
0.09800000 1031354.79292733 26036.55297163
0.09900000 1021762.69314378 21457.01756498
0.10000000 1012183.46991737 23001.87043559
0.10100000 1002620.62784209 16874.10596020
0.10200000 993076.64004466 18411.64177244
0.10300000 983552.32689435 15343.41702132
0.10400000 974050.87442864 21477.82279158
0.10500000 964574.86818559 18404.08935088
0.10600001 955121.15466490 18395.63430443
0.10700001 945697.87879847 15320.30635747
0.10800001 936301.96210791 16839.39158100
0.10900001 926938.30466424 15294.48274680
0.11000001 917607.33270984 16805.97908963
0.11100001 908309.77858962 18311.52599835
0.11200001 899049.26469922 18286.66290487
0.11300001 889825.17288776 19780.81452459
0.11400001 880640.61441527 22786.57697089
0.11500001 871496.87219369 24262.47406434
0.11600001 862395.09732990 18162.04160505
0.11700001 853336.80844914 22656.09333131
0.11800001 844322.32035207 22606.73119217
0.11900001 835353.56043869 18043.63775536
0.12000001 826431.68505296 14999.73579027
0.12100001 817559.91886606 16457.48194205
0.12200001 808737.24096812 17905.44335858
0.12300001 799965.79965362 19343.17394697
0.12400001 791245.86855447 16319.44680787
0.12500001 782578.55178784 14790.73532574
0.12600001 773966.74944038 17692.88072596
0.12700001 765409.49233873 19104.62182911
0.12800001 756908.29198237 14646.17614012
0.12900001 748464.16860199 24811.58835858
0.13000001 740078.21389320 17451.04510615
0.13100001 731750.20682386 14488.65477807
0.13200001 723481.94322265 17320.15853723
0.13300001 715275.11982460 23003.24893800
0.13400001 707128.21871226 20047.08594562
0.13500001 699044.10189703 18538.65045637
0.13600001 691021.42866390 17040.58923433
0.13700001 683062.87852982 15553.34247751
0.13800001 675166.51878946 15484.94483864
0.13900001 667335.55088533 19619.66612126
0.14000001 659568.99213410 13949.88484152
0.14100001 651867.67218645 13884.78207242
0.14200001 644231.36239280 13818.76337509
0.14300001 636662.63899459 20627.87047639
0.14400001 629157.60396000 16421.01423793
0.14500001 621721.33614038 14977.26769413
0.14600001 614351.46004314 20319.67549949
0.14700001 607050.72519298 13476.52673506
0.14800001 599814.38883019 20108.77833424
0.14900001 592647.23805659 13334.56348541
0.15000001 585547.59978122 15915.18451298
0.15100001 578516.34276969 13190.17323753
0.15200001 571553.49338962 14428.86862148
0.15300001 564659.88896826 20869.83048109
0.15400001 557832.08969022 16860.47570655
0.15500001 551074.26586639 19342.70764475
0.15600001 544382.41923883 20512.33052500
0.15700001 537762.31655300 15293.96100459
0.15800001 531206.57264475 12669.27735555
0.15900001 524721.45850088 12593.31559843
0.16000001 518301.90977408 15020.39005425
0.16100001 511953.44216754 14928.56307830
0.16200001 505670.95349449 17309.11755521
0.16300001 499455.76898780 15972.59624626
0.16400001 493308.12222204 15872.18958181
0.16500001 487227.10520717 16984.73768939
0.16600001 481213.81847715 18081.61008297
0.16700001 475265.33904328 11976.68710937
0.16800001 469382.77958110 15468.51023146
0.16900001 463568.25298455 14185.18921112
0.17000001 457817.54592309 12917.32266817
0.17100001 452132.08763821 13998.01009428
0.17200001 446511.86580175 13904.38015767
0.17300001 440956.14652270 12659.85156452
0.17400001 435464.26883481 16003.31263545
0.17500001 430035.86070287 12488.24198460
0.17600001 424669.30747845 15784.95890448
0.17700001 419367.26053790 11197.10638521
0.17800001 414125.42063567 12231.19487618
0.17900001 408946.49008794 14354.02248008
0.18000001 403828.45625735 13156.73172632
0.18100001 398772.87376134 15241.09995509
0.18200001 393774.51179065 12970.93303110
0.18300001 388837.19871084 10731.90719139
0.18400001 383958.49322038 10654.84869021
0.18500001 379139.87295829 12693.60354632
0.18600001 374377.39951029 13651.67251809
0.18700001 369672.48792095 11467.24111708
0.18800001 365024.33934976 10348.44050949
0.18900001 360434.21862792 13354.08843111
0.19000001 355895.93528701 11216.06093052
0.19100001 351417.27246258 13157.06330267
0.19200001 346989.57184552 12054.41829550
0.19300001 342618.64316410 14955.30448079
0.19400001 338298.43968003 12863.79877670
0.19500001 334032.32656703 11784.66103817
0.19600001 329817.80411834 11695.33988672
0.19700001 325654.51471738 11606.32745301
0.19800001 321542.46248174 12477.45584627
0.19900001 317480.80055094 11429.30935998
0.20000001 313467.48712367 11341.25422014
0.20100001 309504.55723374 12191.38508563
0.20200001 305588.55767628 12096.72362735
0.20300001 301721.70975250 11079.22170577
0.20400001 297901.35540652 14656.74737876
0.20500001 294127.21526098 12723.94393361
0.20600001 290399.17007527 9016.89465705
0.20700001 286716.63571808 16102.00702305
0.20800001 283077.63536372 11536.82957460
0.20900001 279484.95346685 13205.66467556
0.21000001 275933.79055054 9606.63537215
0.21100001 272426.12874738 10395.78156444
0.21200001 268960.29625968 10311.93824609
0.21300001 265535.22357808 8523.68107982
0.21400001 262152.49685823 12681.62763506
0.21500001 258810.89304615 11739.66266360
0.21600001 255508.14998971 12475.18601306
0.21700001 252245.13684996 9898.09963797
0.21800001 249020.75623749 10634.43189792
0.21900001 245833.69520290 8923.76355779
0.22000001 242684.21907354 8849.48046694
0.22100001 239573.26188941 7977.78999814
0.22200001 236498.95444090 9493.06848013
0.22300001 233459.03590854 8628.64637519
0.22400001 230454.52087963 8555.62449222
0.22500001 227487.05574036 14652.44195311
0.22600001 224552.02777309 9175.19628869
0.22700001 221653.07018059 9854.69596625
0.22800001 218786.11427385 7515.30338071
0.22900001 215951.45918158 10430.45597174
0.23000001 213150.45907602 9601.36288315
0.23100001 210382.02087272 11714.07147618
0.23200001 207643.46008854 10885.70890997
0.23300001 204936.70695279 7912.60662967
0.23400001 202261.42036370 11407.54464804
0.23500001 199614.22748444 8479.61278459
0.23600001 196998.61540588 9804.62155248
0.23700001 194411.66732882 7634.54653710
0.23800001 191853.62281589 8253.54324392
0.23900001 189323.86744732 8860.35741563
0.24000001 186822.12465153 8104.34415072
0.24100001 184349.21494437 7361.06450092
0.24200001 181902.84497661 7956.43081563
0.24300001 179483.95016114 7226.02417530
0.24400001 177091.03481962 7809.71500497
0.24500001 174724.31352730 10960.45670605
0.24600001 172384.05199749 7664.19531436
0.24700001 170069.22927113 10122.52100507
0.24800001 167779.52239859 6893.22200384
0.24900001 165513.87227621 8068.80165518
0.25000001 163273.81653780 9220.88922520
0.25100001 161056.77819151 7305.53580438
0.25200001 158865.77306870 10249.22583442
0.25300001 156697.72815087 8358.25721500
0.25400001 154552.80589570 5911.64510520
0.25500001 152430.79225368 5853.34269947
0.25600001 150331.98939135 6954.35815827
0.25700001 148255.05412581 7458.71212597
0.25800001 146201.40308065 5679.92477842
0.25900001 144169.55807350 9558.44215253
0.26000001 142159.50045649 6122.09917683
0.26100001 140170.54150020 9364.79432073
0.26200001 138203.85494178 5452.14233543
0.26300001 136257.46330025 5935.37538221
0.26400001 134332.49070088 7475.60346124
0.26500001 132428.56804184 6340.68013788
0.26600001 130544.06294067 6796.77695863
0.26700001 128681.14259055 5690.28039462
0.26800001 126838.49082031 5629.72668146
0.26900001 125014.66879020 6075.71319072
0.27000001 123211.52019195 7011.96794595
0.27100001 121427.47499946 6440.51357875
0.27200001 119664.39539369 4900.25722327
0.27300001 117919.40071069 6300.43387813
0.27400001 116191.90360686 5272.20787567
0.27500001 114486.21089836 6635.62109770
0.27600001 112796.96930464 5624.05715569
0.27700001 111128.22694429 6951.07092434
0.27800001 109476.90365601 5039.76949832
0.27900001 107845.18407435 4982.44774004
0.28000001 106230.24119683 4925.36536620
0.28100001 104634.17333503 4868.62831571
0.28200001 103056.73590382 5687.18624002
0.28300001 101496.60644916 5620.88233119
0.28400001 99954.22963508  5554.95657489
0.28500001 98429.72674840  7178.48031153
0.28600001 96922.73881818  5841.53374506
0.28700001 95433.07986063  4947.25109414
0.28800001 93960.19597665  4480.49215722
0.28900001 92506.13518677  5231.22219242
0.29000001 91067.78296155  5167.64158876
0.29100001 89647.44735581  5104.52589406
0.29200001 88243.65262847  5041.80133158
0.29300001 86856.93958151  4979.50858192
0.29400001 85486.22842705  5674.14868044
0.29500001 84133.34938272  4856.17715625
0.29600001 82796.24998315  4795.14504476
0.29700001 81475.80278592  4006.16541263
0.29800001 80171.56757686  3955.26447364
0.29900001 78884.34347273  3904.77518675
0.30000001 77612.58148725  3854.62904204
0.30100001 76357.84938546  3459.01074091
0.30200001 75117.73824877  3755.51150154
0.30300001 73894.85108118  4043.52644259
0.30400001 72687.83808976  3325.46875004
0.30500001 71496.41097710  3609.85396113
0.30600001 70319.68013280  4209.68785045
0.30700001 69159.86828529  3195.18606605
0.30800001 68015.19739921  4098.25591332
0.30900001 66885.97350918  3421.21770697
0.31000001 65772.47239382  3375.11458068
0.31100001 64673.33535839  3329.38346188
0.31200001 63590.27428166  2985.56351888
0.31300001 62521.74129384  3533.72898524
0.31400001 61469.54018435  3485.32309347
0.31500001 60431.07731714  4010.20648064
0.31600002 59408.04752842  3672.30863184
0.31700002 58399.64691349  3621.36227657
0.31800002 57406.11227652  3021.57086274
0.31900002 56427.21973141  2979.35734289
0.32000002 55463.35372151  2670.56060814
0.32100002 54513.05038236  3949.47068721
0.32200002 53578.47388026  2855.46490066
0.32300002 52656.31875634  3582.73609783
0.32400002 51749.38635194  3027.33924494
0.32500002 50856.35138556  4227.68869087
0.32600002 49977.75283488  2696.54978189
0.32700002 49112.50678603  2657.96899312
0.32800002 48261.78588298  2619.89117072
0.32900002 47424.09234133  2816.99121847
0.33000002 46601.23305558  2545.12646385
0.33100002 45789.26565187  2964.39719868
0.33200002 44993.83722897  2247.44227601
0.33300002 44210.35543739  2879.42058599
0.33400002 43440.65108876  2401.18210264
0.33500002 42682.90378929  2366.34029814
0.33600002 41939.55566705  2332.04910330
0.33700002 41207.99181139  2716.01886891
0.33800002 40490.32766760  2470.71991128
0.33900002 39784.31050379  3043.49989767
0.34000002 39091.55174616  2599.39285646
0.34100002 38411.12860579  2167.54008988
0.34200002 37743.78183515  2330.30120086
0.34300002 37087.45786824  3061.94066661
0.34400002 36444.81297262  2074.62107672
0.34500002 35813.20189225  2416.31684611
0.34600002 35194.70651760  2015.07301710
0.34700002 34586.26017752  1985.94315345
0.34800002 33991.27701413  2847.10949755
0.34900002 33407.11909533  2104.64860269
0.35000002 32834.52067264  1728.73759529
0.35100002 32273.94363653  1874.47073519
0.35200002 31723.30972667  1847.72426254
0.35300002 31184.44012454  1655.89384904
0.35400002 30656.98521706  2285.47835618
0.35500002 30140.44821063  1931.40001282
0.35600002 29633.70158047  1904.26175376
0.35700002 29138.15731856  1721.19103433
0.35800002 28653.81592609  2160.21128499
0.35900002 28179.44837288  2130.36639790
0.36000002 27715.77909450  2101.13331268
0.36100002 27261.43199242  1776.35499277
0.36200002 26818.46129390  1606.29181528
0.36300002 26384.18674443  1584.63433093
0.36400002 25959.94765530  1421.30720145
0.36500002 25545.20483455  1963.40453659
0.36600002 25140.54185764  1660.78427378
0.36700002 24744.63149704  2185.44595734
0.36800002 24359.50567985  1887.61818455
0.36900002 23982.44224298  1730.33328980
0.37000002 23614.31674119  1576.96414668
0.37100002 23255.00220519  1557.15502142
0.37200002 22905.31757586  1794.17361071
0.37300002 22563.62893186  1265.81964304
0.37400002 22230.58489166  2000.75273503
0.37500002 21906.44061776  1235.52330937
0.37600002 21590.55502693  1831.41891692
0.37700002 21282.37782697  1689.39523193
0.37800002 20982.40787175  1431.41993282
0.37900002 20690.85876178  1415.25480635
0.38000002 20406.93295392  1399.50752828
0.38100002 20129.77010144  1730.15382218
0.38200002 19861.28437064  1255.13392526
0.38300002 19599.45919087  1241.82179316
0.38400002 19345.92497381  1564.11810823
0.38500002 19098.21898679  1216.36562489
0.38600002 18858.99481941  1313.71764136
0.38700002 18625.81196024  1409.22899967
0.38800002 18399.68130908  1395.70789182
0.38900002 18179.80518624  1382.57424991
0.39000002 17967.64188361  1369.94292032
0.39100002 17760.70757853  1253.19558611
0.39200002 17560.85184894  1035.21226554
0.39300002 17366.87397479  1129.02053059
0.39400002 17180.31320369  1323.31368721
0.39500002 16998.52253862  1413.59720128
0.39600002 16822.76392327  1101.97520300
0.39700002 16652.80792951  1093.58994854
0.39800002 16488.53444251  1085.52271645
0.39900002 16329.78361805  1469.68059526
0.40000002 16176.32130254  1362.20808143
0.40100002 16028.56544794  1353.13155923
0.40200002 15886.11692377  960.31581354
0.40300002 15748.12626131  1049.77014632
0.40400002 15615.71636764  1233.25125857
0.40500002 15488.14758393  943.22823255
0.40600002 15365.49195598  1500.90132537
0.40700002 15247.24783895  1399.69741793
0.40800002 15133.94932796  928.46783526
0.40900002 15024.78129017  1016.42650244
0.41000002 14920.43133585  1103.81356253
0.41100002 14820.14289426  1099.06184911
0.41200002 14723.74194907  1368.20378545
0.41300002 14632.13144702  1181.25202769
0.41400002 14544.12949819  1448.59536666
0.41500002 14460.17916259  992.54674475
0.41600002 14379.55069028  1169.27321978
0.41700002 14303.02398346  1255.51950476
0.41800002 14231.04682028  1431.07413606
0.41900002 14160.61621072  1338.17829532
0.42000002 14095.09733108  979.11598250
0.42100002 14032.88833577  1332.42281062
0.42200002 13974.18939412  886.66235907
0.42300002 13917.98657908  885.18398837
0.42400002 13864.85533604  1502.60376825
0.42500002 13815.26796228  971.07523108
0.42600002 13767.74178748  970.00629360
0.42700002 13724.37194753  1321.65708118
0.42800002 13682.71284642  1320.72392009
0.42900002 13645.02285005  880.10401553
0.43000002 13609.40136755  1231.78697615
0.43100002 13575.43803742  879.68842651
0.43200002 13545.09608855  967.72943591
0.43300002 13516.89295569  1055.93972774
0.43400002 13491.06763292  1320.43830714
0.43500002 13467.27802869  880.76002481
0.43600002 13446.14001943  969.53397205
0.43700002 13426.54616339  882.12412474
0.43800002 13409.06370533  971.28557552
0.43900002 13394.27019758  1060.82624992
0.44000002 13380.83977692  973.65685251
0.44100002 13369.72238512  1063.69516337
0.44200002 13360.20881639  1242.90028509
0.44300002 13352.49090476  1156.05871732
0.44400002 13346.96924161  1069.09228692
0.44500002 13341.75891182  1071.07645620
0.44600002 13338.52907296  983.78325840
0.44700002 13337.98792188  1254.83796316
0.44800002 13337.28122424  1257.57230623
0.44900002 13339.50201631  900.41642877
0.45000002 13342.66507841  1173.42073593
0.45100002 13346.76753008  1176.38414585
0.45200002 13352.32880386  1088.74894227
0.45300002 13358.81314911  1364.60282785
0.45400002 13366.82802346  1277.20047817
0.45500002 13375.98067849  1006.40883395
0.45600002 13386.01099101  1559.93886477
0.45700002 13397.12559631  1288.53560092
0.45800002 13408.79823466  1015.51538243
0.45900002 13421.65537395  1296.53197057
0.46000002 13436.02851345  1393.65212361
0.46100002 13450.08284363  1211.71802081
0.46200002 13466.01317049  1309.30052262
0.46300002 13482.39801552  1126.04993563
0.46400002 13498.92058812  1600.63458460
0.46500002 13516.62766129  1039.29355013
0.46600002 13534.84155569  1042.92726550
0.46700002 13553.33694970  1332.02201855
0.46800002 13573.34910476  1432.32773217
0.46900002 13592.75215481  1054.11797957
0.47000002 13613.08246817  961.76432196
0.47100002 13633.95018507  1351.39720640
0.47200002 13655.37344343  1065.73367091
0.47300002 13677.26255390  1069.69875504
0.47400002 13698.79208765  1366.45457551
0.47500002 13721.06354904  1469.52597575
0.47600002 13744.22429848  2065.13851985
0.47700002 13766.57855416  1085.77010203
