# SAXS profile: number of points = 501, q_min = 0, q_max = 0.5, delta_q = 0.001
#    q    intensity    error
0.00000000 1664650.74656090 374.54641798
0.00100000 1664563.91881013 499.36918750
0.00200000 1664303.39745836 1123.40482886
0.00300000 1663869.41202373 1597.31469244
0.00400000 1663261.81493746 1496.93569032
0.00500000 1662481.28001286 2244.34981685
0.00600000 1661527.65739056 2093.52493354
0.00700000 1660401.68729184 2390.97852907
0.00800000 1659103.12976110 2239.78931974
0.00900000 1657633.44653120 2486.45027609
0.01000000 1655992.00919174 3825.34170641
0.01100000 1654180.44324049 3275.27742022
0.01200000 1652198.49518257 3221.78720686
0.01300000 1650047.73116034 4851.14054357
0.01400000 1647728.15405979 4448.86621318
0.01500000 1645241.46951676 4343.43767293
0.01600000 1642587.20445990 5026.31707034
0.01700000 1639767.68646568 4870.11024727
0.01800000 1636783.37523247 7930.21580984
0.01900000 1633635.20591300 5390.99642277
0.02000000 1630324.05680090 7189.72941572
0.02100000 1626852.57271195 6979.19785336
0.02200000 1623219.36874522 7280.13919958
0.02300000 1619427.81128297 6995.92846319
0.02400000 1615478.28718764 7875.45700914
0.02500000 1611373.16048165 6284.35561289
0.02600000 1607113.00137222 8461.45033924
0.02700000 1602699.63551683 6731.33877747
0.02800000 1598133.62755314 7647.06975853
0.02900000 1593418.26422757 9321.49727372
0.03000000 1588554.20000074 11818.84379126
0.03100000 1583543.16533105 7601.00754334
0.03200000 1578386.21363416 10938.21696428
0.03300000 1573087.73470173 8022.74781683
0.03400000 1567645.96942822 12345.21257886
0.03500000 1562065.37194370 10122.18407762
0.03600000 1556346.13300520 12956.58215604
0.03700000 1550491.67161610 15024.26499279
0.03800000 1544503.46469281 14456.55309857
0.03900000 1538383.82729586 15691.51576509
0.04000000 1532133.02467069 9422.61853836
0.04100000 1525755.34242633 9612.25910297
0.04200000 1519252.14279048 12738.92980829
0.04300000 1512625.13374845 11979.99161537
0.04400000 1505877.37195205 13214.07455257
0.04500000 1499011.00252914 12411.81167765
0.04600000 1492026.90255887 12622.54818243
0.04700000 1484929.04755172 10691.48963961
0.04800000 1477718.98110578 13033.48201978
0.04900000 1470399.44099692 12130.79595288
0.05000000 1462972.17862639 15668.43276271
0.05100000 1455441.16975847 14758.17414885
0.05200000 1447805.52541917 13812.06535616
0.05300000 1440070.85575694 12831.03192295
0.05400000 1432238.11917992 18905.54405481
0.05500000 1424310.90554474 13160.63338117
0.05600000 1416289.94267879 12109.27957497
0.05700000 1408180.59589555 17151.64045862
0.05800000 1399981.75750093 14867.80695887
0.05900000 1391698.00247821 13777.81086804
0.06000000 1383332.47501026 15188.99128522
0.06100000 1374886.61386948 16622.37993847
0.06200000 1366363.61214363 12912.13673832
0.06300000 1357766.68047603 18248.38503881
0.06400000 1349094.80762728 17099.77748638
0.06500000 1340354.98325083 14596.46645039
0.06600000 1331548.21096153 18734.88420481
0.06700000 1322675.91153290 17538.68340772
0.06800000 1313741.85027182 20395.84318018
0.06900000 1304750.20037635 17809.84106897
0.07000000 1295700.03638313 17938.96784378
0.07100000 1286596.29840209 16674.28880828
0.07200000 1277440.30542275 16785.56639960
0.07300000 1268236.14836107 15485.16409706
0.07400000 1258986.39211872 19829.03660514
0.07500000 1249691.71678552 14246.48623912
0.07600000 1240355.47809120 18623.93837664
0.07700000 1230981.58484813 21603.72782705
0.07800000 1221570.99595945 20265.86377336
0.07900000 1212125.69846010 18909.16178289
0.08000000 1202651.30674977 16073.43546873
0.08100000 1193147.94299643 17610.86446490
0.08200000 1183617.59782622 19156.85171976
0.08300000 1174063.37777426 17751.83910508
0.08400000 1164488.51621797 16331.95220656
0.08500000 1154895.01224954 16387.96099316
0.08600000 1145285.07011540 16440.56795342
0.08700000 1135661.00010473 17988.87108638
0.08800000 1126024.72014455 16535.67379190
0.08900000 1116379.71197345 24113.80291124
0.09000000 1106727.91694857 21149.57148640
0.09100000 1097071.05068267 21195.41369497
0.09200000 1087411.36721381 16686.32821393
0.09300000 1077752.92078388 18235.58027659
0.09400000 1068094.52316044 19786.45197146
0.09500000 1058440.65589807 19814.01000972
0.09600000 1048792.65437378 18311.92060617
0.09700000 1039155.38531757 19858.26034701
0.09800000 1029527.75853113 21403.88310622
0.09900000 1019913.58829283 15298.70454378
0.10000000 1010312.53288388 16836.85915230
0.10100000 1000728.47337503 21435.60490785
0.10200000 991163.05325441 15313.46989307
0.10300000 981618.04573855 16844.56645725
0.10400000 972096.00559407 15310.51280839
0.10500000 962599.87591428 18366.40649657
0.10600001 953126.46861020 16827.44859510
0.10700001 943683.56512544 18345.20936932
0.10800001 934268.60977412 18330.35098643
0.10900001 924886.26867860 21364.87381203
0.11000001 915536.84954693 15243.68926247
0.11100001 906221.60340382 25881.69021155
0.11200001 896943.48441970 21284.46988729
0.11300001 887702.24069717 16697.67993365
0.11400001 878501.03613681 19700.38666295
0.11500001 869340.97713121 19664.49382867
0.11600001 860223.31716106 21135.68789796
0.11700001 851149.62280390 16571.88393644
0.11800001 842120.12846391 15031.84500106
0.11900001 833136.70681417 19495.39985772
0.12000001 824200.86781217 31414.41755643
0.12100001 815315.39471717 14920.27242619
0.12200001 806479.57611869 17855.45865646
0.12300001 797695.46072900 16320.84989546
0.12400001 788963.47180664 16272.37237272
0.12500001 780284.38135783 19171.58815334
0.12600001 771661.34705156 17640.17922486
0.12700001 763093.31115848 20511.94917059
0.12800001 754581.68199277 14601.15623470
0.12900001 746127.95559003 17459.39498370
0.13000001 737732.82835689 30442.54659705
0.13100001 729396.05964848 20218.85972652
0.13200001 721119.49761828 18702.23505236
0.13300001 712904.91723499 20061.14531673
0.13400001 704750.72759458 15698.32319728
0.13500001 696660.05717457 18475.42558735
0.13600001 688631.42005699 19811.92688919
0.13700001 680666.91966132 15498.78649151
0.13800001 672765.54795668 18235.31103727
0.13900001 664930.09923375 18152.59256512
0.14000001 657159.31048571 18068.59609393
0.14100001 649454.51814663 17983.39645563
0.14200001 641815.40259321 13766.94103495
0.14300001 634244.19611530 16439.61033873
0.14400001 626737.29117057 17720.99774375
0.14500001 619299.52513947 18987.72433647
0.14600001 611928.76033611 17540.93874252
0.14700001 604627.72608009 16107.28338266
0.14800001 597391.59440030 18692.38387067
0.14900001 590225.32786787 18592.09870503
0.15000001 583126.93027667 22453.30350972
0.15100001 576097.64647744 13135.02695946
0.15200001 569136.85566013 16980.19888986
0.15300001 562246.20056857 12987.88784602
0.15400001 555421.75939578 12913.55651536
0.15500001 548668.05498018 12838.83309244
0.15600001 541980.61137850 16592.73720045
0.15700001 535365.41129325 13956.97693114
0.15800001 528815.26035785 13873.46901030
0.15900001 522336.29307161 15043.28595051
0.16000001 515923.28993786 16197.41245216
0.16100001 509581.61831652 12382.83390961
0.16200001 503306.83580000 13536.43798784
0.16300001 497099.73129884 13451.51936396
0.16400001 490960.72532326 17011.78993557
0.16500001 484888.83503425 16903.22558732
0.16600001 478884.99312937 14395.28357311
0.16700001 472946.72141009 16685.56111915
0.16800001 467074.67124943 15392.44651780
0.16900001 461271.08024199 16467.37834220
0.17000001 455531.87018820 15189.71092868
0.17100001 449858.45498356 18570.15789863
0.17200001 444250.76855672 16139.63118383
0.17300001 438707.72705591 11450.27221689
0.17400001 433229.22823293 15921.17488945
0.17500001 427814.70407080 13553.17046505
0.17600001 422462.29614447 16824.56173856
0.17700001 417174.86399284 12252.42633416
0.17800001 411948.35185627 14379.05790070
0.17900001 406784.94008423 17573.11024168
0.18000001 401682.84749085 11996.25880696
0.18100001 396643.50385490 12994.04180008
0.18200001 391662.08982068 15051.57482281
0.18300001 386741.77439100 12808.88817291
0.18400001 381880.71137732 11656.90926547
0.18500001 377080.02213647 13676.69304901
0.18600001 372335.96295968 15666.03638165
0.18700001 367649.61622704 15551.57950113
0.18800001 363020.50057972 13379.12118098
0.18900001 358449.92800220 10215.82343073
0.19000001 353931.38857711 16224.21561895
0.19100001 349472.80319192 20129.63441498
0.19200001 345065.60932391 10988.61484815
0.19300001 340715.30958686 13880.74236847
0.19400001 336416.31827983 11808.21332961
0.19500001 332171.56418196 13672.18222781
0.19600001 327978.59268062 12599.29823322
0.19700001 323837.36198626 10579.76711607
0.19800001 319747.44023255 11453.35385040
0.19900001 315708.42898549 11365.50398061
0.20000001 311717.80197611 12217.77982588
0.20100001 307778.10214920 13988.51540381
0.20200001 303885.22452757 10178.63607663
0.20300001 300042.03363322 11017.54399575
0.20400001 296245.38645934 10931.45527703
0.20500001 292495.31304542 9941.91616034
0.20600001 288791.37995187 11657.06460276
0.20700001 285133.29886848 11565.00714877
0.20800001 281518.80983395 10590.73812658
0.20900001 277951.02353919 11382.09495198
0.21000001 274424.76168288 13028.31617677
0.21100001 270942.24175390 12062.34917311
0.21200001 267501.60052722 10256.01184906
0.21300001 264102.14038726 11020.98283938
0.21400001 260745.03773120 10931.73622370
0.21500001 257429.13753370 11676.98623059
0.21600001 254152.19312594 10754.45056058
0.21700001 250915.06645674 10666.39997938
0.21800001 247716.70903683 8951.24370427
0.21900001 244555.86368392 12105.51582472
0.22000001 241432.66390459 8803.84250555
0.22100001 238348.01396815 8730.68816447
0.22200001 235300.12826732 8657.86862898
0.22300001 232286.75546868 10146.28595864
0.22400001 229308.62587853 10060.91643616
0.22500001 226367.81616396 9208.64319700
0.22600001 223459.27295263 12174.06176615
0.22700001 220586.90742910 10561.70162716
0.22800001 217746.64972470 8227.55754893
0.22900001 214938.61875310 11123.07404649
0.23000001 212164.19630539 9556.93667454
0.23100001 209422.50584305 9474.27461240
0.23200001 206710.60944556 10836.80421269
0.23300001 204030.30716159 7161.46412007
0.23400001 201381.52249444 12067.78830623
0.23500001 198760.95922266 7739.75211819
0.23600001 196171.74312905 6973.90579808
0.23700001 193611.17009386 7603.11100920
0.23800001 191079.56024174 8220.24307041
0.23900001 188576.09407594 8825.36162019
0.24000001 186100.47939032 8073.03917781
0.24100001 183653.61179109 7999.95170803
0.24200001 181233.36262343 7927.14765612
0.24300001 178840.28478470 6545.55473274
0.24400001 176473.08312016 6485.38611145
0.24500001 174132.13259544 7068.02359640
0.24600001 171817.22599163 8275.57708136
0.24700001 169527.80122922 6937.07795446
0.24800001 167263.33914175 9995.65761997
0.24900001 165022.88033839 10520.20911926
0.25000001 162807.74902003 7968.62565277
0.25100001 160615.64469814 7285.52598818
0.25200001 158449.14793711 10823.66180765
0.25300001 156305.65001444 9528.39287567
0.25400001 154185.01443416 7666.85020547
0.25500001 152086.94578483 7008.16679333
0.25600001 150012.08301254 7517.85589586
0.25700001 147958.86602436 6298.60922467
0.25800001 145928.63109871 6236.26034507
0.25900001 143920.03491838 6174.16979013
0.26000001 141933.13062825 5556.68232701
0.26100001 139966.89118515 6050.76899223
0.26200001 138022.91772208 7078.50567031
0.26300001 136098.84546097 5389.51453527
0.26400001 134195.90394120 7468.00240770
0.26500001 132313.88442741 6335.18908616
0.26600001 130451.07553344 8881.76189798
0.26700001 128609.51144901 5687.11286539
0.26800001 126788.09531316 6139.07986557
0.26900001 124985.02664429 5568.08320049
0.27000001 123202.58242908 7512.27781911
0.27100001 121438.78624926 6936.58379882
0.27200001 119695.71602352 5881.84776374
0.27300001 117970.68494399 4848.59538065
0.27400001 116262.64979243 4795.83453090
0.27500001 114576.22938476 6166.49295732
0.27600001 112905.90599742 5629.48873945
0.27700001 111255.81116839 4639.36754529
0.27800001 109622.82347869 6881.57306956
0.27900001 108009.12987372 5897.29877021
0.28000001 106411.95360550 7624.94889648
0.28100001 104833.33854951 7538.56573189
0.28200001 103273.00896017 4383.93943785
0.28300001 101729.80666653 4333.68996911
0.28400001 100203.80187806 4712.08400634
0.28500001 98695.74276647  5927.66659112
0.28600001 97204.54804017  5440.05278856
0.28700001 95730.48253808  4135.55704139
0.28800001 94272.75551171  4904.06897384
0.28900001 92833.79368766  5249.75128153
0.29000001 91410.08518747  5586.07057022
0.29100001 90004.00738466  5124.82842307
0.29200001 88614.26195595  3894.59699732
0.29300001 87241.17052996  4616.80296299
0.29400001 85883.82890098  3800.35960876
0.29500001 84543.98260952  4879.87890722
0.29600001 83219.59639276  4078.17651428
0.29700001 81911.48227208  5126.02080324
0.29800001 80619.27682835  5062.08463168
0.29900001 79343.76364555  4641.61039299
0.30000001 78083.29415635  4935.64525727
0.30100001 76839.74236817  3828.92454347
0.30200001 75610.25990504  4467.43241798
0.30300001 74397.91186563  4071.05393002
0.30400001 73200.97107340  5693.20579476
0.30500001 72019.29393153  3966.82289755
0.30600001 70851.93869272  3589.00512439
0.30700001 69701.28886622  4830.29954711
0.30800001 68565.42625326  3813.60918876
0.30900001 67444.66193047  3449.79462107
0.31000001 66339.37396852  4023.15152480
0.31100001 65247.96264864  4885.76767445
0.31200001 64172.52654740  3314.19029045
0.31300001 63111.10891676  4161.54671900
0.31400001 62065.66603537  4692.16457443
0.31500001 61033.86712924  3471.60652668
0.31600002 60017.16241981  3139.19782900
0.31700002 59014.71422158  3378.00240199
0.31800002 58026.75390400  2776.58030577
0.31900002 57053.34117787  3560.12865807
0.32000002 56094.38499286  4321.51162447
0.32100002 55148.85554322  3729.16578841
0.32200002 54218.66034413  3414.96248348
0.32300002 53300.70861922  3367.53893002
0.32400002 52397.60242393  3065.25988694
0.32500002 51508.14342126  3022.49799908
0.32600002 50632.84601461  2483.54121462
0.32700002 49770.42020214  3673.05718485
0.32800002 48922.56413661  2655.76151991
0.32900002 48087.28173326  3094.41672607
0.33000002 47266.50891349  2816.13873442
0.33100002 46456.40405461  3470.29354721
0.33200002 45662.65196101  2280.84957346
0.33300002 44880.49317586  2698.21537751
0.33400002 44111.78773356  2438.27918244
0.33500002 43355.01012876  2622.11113676
0.33600002 42612.12594116  2584.85168200
0.33700002 41880.87483020  2123.36045445
0.33800002 41163.23836036  2721.09600068
0.33900002 40457.05955055  2475.97216175
0.34000002 39763.89216084  2237.31549838
0.34100002 39082.83192816  2004.94937287
0.34200002 38414.50101999  1976.42617108
0.34300002 37757.11348874  2922.40072243
0.34400002 37113.09679752  2496.78370530
0.34500002 36479.95976583  2271.97200182
0.34600002 35859.63230857  1866.49395006
0.34700002 35249.23000990  2024.01088303
0.34800002 34651.94930129  2358.23852139
0.34900002 34065.30999685  1788.42885954
0.35000002 33490.14523515  1939.58185316
0.35100002 32926.81297610  2955.51087272
0.35200002 32373.16291702  2056.99086917
0.35300002 31831.05886937  1859.25223662
0.35400002 31300.11451847  2000.07741246
0.35500002 30779.99297148  1808.01687278
0.35600002 30269.46853630  1945.11614027
0.35700002 29770.05671501  2238.11296984
0.35800002 29281.50764413  1576.80926132
0.35900002 28802.97175050  2177.50476748
0.36000002 28334.87720093  1841.20040773
0.36100002 27875.96878098  1665.03169415
0.36200002 27428.19810131  1493.46545736
0.36300002 26989.14690620  2652.49348358
0.36400002 26559.84340177  1744.98179415
0.36500002 26139.93603126  1865.60732292
0.36600002 25729.94495698  1841.36359807
0.36700002 25328.63373127  1817.58284265
0.36800002 24937.88147300  1518.34298541
0.36900002 24555.28517985  1362.81839204
0.37000002 24181.29316039  1345.68902812
0.37100002 23816.05677757  1461.82963425
0.37200002 23460.33387663  1837.64803961
0.37300002 23112.55063065  1555.93698216
0.37400002 22773.26070526  1280.99597535
0.37500002 22442.84075328  1265.77627845
0.37600002 22120.59086131  1501.10336696
0.37700002 21805.92369885  1360.03552552
0.37800002 21499.25791037  1833.34930516
0.37900002 21201.04226342  1450.15135952
0.38000002 20910.44727839  1314.53533043
0.38100002 20626.51182475  1772.84877532
0.38200002 20351.10484060  1519.92233702
0.38300002 20082.39848586  1619.44469062
0.38400002 19821.77136137  1373.64882042
0.38500002 19567.09359435  1246.22825006
0.38600002 19320.69564225  1233.72307868
0.38700002 19080.35965057  1887.81087326
0.38800002 18847.09887610  1209.70109867
0.38900002 18619.89442774  1198.19026319
0.39000002 18400.43231188  1079.18540622
0.39100002 18186.31521975  1390.16200126
0.39200002 17979.12612998  1589.80430336
0.39300002 17777.75803629  1155.73210469
0.39400002 17583.82345621  1041.84158914
0.39500002 17394.63161733  1653.18586724
0.39600002 17211.46970657  1127.43737654
0.39700002 17034.02918959  2237.24949976
0.39800002 16862.41491119  1211.05869630
0.39900002 16696.23238040  1402.48358640
0.40000002 16535.33326367  1094.06037723
0.40100002 16380.08244716  1086.49092020
0.40200002 16230.20530683  1079.22755301
0.40300002 16084.79388584  1072.21241123
0.40400002 15944.97943638  1162.38905599
0.40500002 15810.05487074  1251.68210342
0.40600002 15679.93516055  1244.43811298
0.40700002 15554.41592885  951.93029995
0.40800002 15433.74269286  1230.91820679
0.40900002 15317.30546445  1413.02149605
0.41000002 15205.70358651  1312.40433874
0.41100002 15098.17111950  1679.52063491
0.41200002 14994.54966958  1300.47735446
0.41300002 14895.85984913  1387.54941069
0.41400002 14800.64307534  1197.74209762
0.41500002 14709.59370296  1009.66655961
0.41600002 14621.91445518  1371.90118876
0.41700002 14538.42743650  911.55944346
0.41800002 14459.49286963  1090.53500390
0.41900002 14382.20422164  996.68679979
0.42000002 14309.75590571  1084.39335392
0.42100002 14240.86033040  901.44650163
0.42200002 14175.40281581  1169.25815667
0.42300002 14112.56799435  1077.07124037
0.42400002 14052.81625990  895.86707902
0.42500002 13996.75485739  1520.46755221
0.42600002 13942.69907888  982.33291015
0.42700002 13892.95838459  981.12076761
0.42800002 13844.97425732  980.01654924
0.42900002 13801.07639557  1157.22031061
0.43000002 13759.29037173  978.49198115
0.43100002 13719.20313683  977.90484593
0.43200002 13682.76563737  977.56523729
0.43300002 13648.65384165  1155.08562936
0.43400002 13616.97753308  1155.06017398
0.43500002 13587.43242790  977.47993518
0.43600002 13560.57167913  1333.34327354
0.43700002 13535.37943460  1244.98425939
0.43800002 13512.31820081  1156.72205440
0.43900002 13492.03935365  1068.56956745
0.44000002 13473.25259635  1515.13469252
0.44100002 13456.89749996  1605.94622375
0.44200002 13442.16617453  982.55518309
0.44300002 13429.42360377  983.83961984
0.44400002 13418.81958763  1343.55937488
0.44500002 13408.65893639  986.74325789
0.44600002 13400.68443865  988.36752761
0.44700002 13395.33800078  1260.23345884
0.44800002 13390.02541784  1172.36373102
0.44900002 13387.76498936  1265.14385145
0.45000002 13386.42465699  1448.94667354
0.45100002 13386.15404049  1179.85567305
0.45200002 13387.45724712  1091.61331566
0.45300002 13389.81309859  911.84631523
0.45400002 13393.77607212  1371.18789037
0.45500002 13398.94996873  1099.78586556
0.45600002 13405.10309970  1102.70383324
0.45700002 13412.43266610  1197.86441818
0.45800002 13420.44402356  923.99761481
0.45900002 13429.68948382  926.64861830
0.46000002 13440.55570125  1115.29736495
0.46100002 13451.29094071  1398.26175956
0.46200002 13463.82647215  1122.07535137
0.46300002 13477.09095906  1219.40724777
0.46400002 13490.48144321  1317.34557537
0.46500002 13505.21210151  1416.02155596
0.46600002 13520.48302472  947.10988077
0.46700002 13536.15112200  1330.33299532
0.46800002 13553.41266117  1048.83088850
0.46900002 13570.21352200  1148.04011837
0.47000002 13588.02044982  1823.98801153
0.47100002 13606.41780147  1348.66819640
0.47200002 13625.49823286  1450.09371816
0.47300002 13645.11180985  1067.18424523
0.47400002 13664.51697528  1557.75500902
0.47500002 13684.71507556  1172.50644325
0.47600002 13705.82076428  1176.78182660
0.47700002 13726.37893306  1377.85398261
