# SAXS profile: number of points = 501, q_min = 0, q_max = 0.5, delta_q = 0.001
#    q    intensity    error
0.00000000 1664650.74656090 274.66737318
0.00100000 1664563.90033453 749.05377294
0.00200000 1664303.32754921 823.83017322
0.00300000 1663869.25076005 998.32158602
0.00400000 1663261.53050331 1746.42467339
0.00500000 1662480.83139659 1795.47936898
0.00600000 1661527.01637746 1744.60343822
0.00700000 1660400.80530060 2789.47346884
0.00800000 1659101.99070537 3135.70289482
0.00900000 1657632.02351032 3232.38258402
0.01000000 1655990.24045946 3825.33762064
0.01100000 1654178.28551335 4764.03366970
0.01200000 1652195.96198665 4510.49517398
0.01300000 1650044.73774923 3811.60351231
0.01400000 1647724.71595004 5931.80924038
0.01500000 1645237.49250191 4738.28418940
0.01600000 1642582.70731666 5445.16191817
0.01700000 1639762.61312952 5312.83110487
0.01800000 1636777.66445484 6530.74317504
0.01900000 1633628.84154553 5390.97542035
0.02000000 1630317.02043183 6676.14850067
0.02100000 1626844.81910814 6442.30577575
0.02200000 1623210.89265702 6720.09340091
0.02300000 1619418.52251279 8161.86972498
0.02400000 1615468.17967677 12116.01190004
0.02500000 1611362.25600325 8169.60701105
0.02600000 1607101.18016472 7159.63608510
0.02700000 1602686.94308953 12116.31384470
0.02800000 1598119.92570816 8342.18639477
0.02900000 1593403.57623056 10755.47463339
0.03000000 1588538.54456425 11080.05685763
0.03100000 1583526.44861225 8361.02003339
0.03200000 1578368.44154451 10156.80138914
0.03300000 1573068.83848359 10429.44687995
0.03400000 1567625.90913482 9053.04004296
0.03500000 1562044.15309767 9278.54269787
0.03600000 1556323.75081913 8637.59721622
0.03700000 1550468.14815011 8837.66885318
0.03800000 1544478.57991447 17166.88021023
0.03900000 1538357.66797468 12922.20500941
0.04000000 1532105.60085044 10364.69487004
0.04100000 1525726.55113260 15379.32434850
0.04200000 1519221.92469739 10778.88005579
0.04300000 1512593.56243257 14974.67696318
0.04400000 1505844.41874375 12197.34035829
0.04500000 1498976.55927876 12411.52648753
0.04600000 1491990.93912331 13674.09759273
0.04700000 1484891.52594592 12829.46338084
0.04800000 1477679.99735663 10860.94848591
0.04900000 1470358.93335546 15438.76951887
0.05000000 1462930.02548633 12310.55673772
0.05100000 1455397.34352876 13622.51977002
0.05200000 1447760.16002488 12660.66318942
0.05300000 1440023.68604483 16329.86936101
0.05400000 1432189.34169303 14178.67514397
0.05500000 1424260.45360136 14356.54604202
0.05600000 1416237.75612529 13319.71671791
0.05700000 1408126.66408594 14700.84305927
0.05800000 1399926.00761985 13628.28032052
0.05900000 1391640.40240219 20039.62273056
0.06000000 1383273.07595065 17719.72893077
0.06100000 1374825.39692932 19178.81518342
0.06200000 1366300.51972447 21949.61887538
0.06300000 1357701.70510081 14337.33067621
0.06400000 1349027.97746848 15783.62807453
0.06500000 1340286.14519196 18576.36684132
0.06600000 1331477.38657474 17395.75286952
0.06700000 1322603.10197266 13490.55227146
0.06800000 1313667.21132605 19035.03878313
0.06900000 1304673.50284197 13699.07242122
0.07000000 1295621.39450248 17937.87904689
0.07100000 1286515.45101938 15283.80427397
0.07200000 1277357.42992027 16784.47741545
0.07300000 1268151.25009238 18299.42339626
0.07400000 1258899.34389360 15578.88011077
0.07500000 1249602.60432575 21368.20553555
0.07600000 1240264.31807434 17190.06425439
0.07700000 1230888.30945632 17281.67267508
0.07800000 1221475.51510185 20264.27974586
0.07900000 1212028.05310357 15998.77105137
0.08000000 1202551.46798051 14611.00102138
0.08100000 1193046.06360456 20544.25417917
0.08200000 1183513.38578234 14734.74234442
0.08300000 1173957.04240907 20708.60319999
0.08400000 1164379.89170604 22268.76647414
0.08500000 1154784.15309361 14896.71627424
0.08600000 1145171.83523113 16438.94246658
0.08700000 1135545.67926897 17987.04440425
0.08800000 1125907.13001259 16533.94698073
0.08900000 1116259.86469124 18083.41065737
0.09000000 1106605.74129750 21147.23670960
0.09100000 1096946.62839641 18165.43701968
0.09200000 1087284.63946371 22751.43214979
0.09300000 1077623.95553423 16713.94833576
0.09400000 1067963.28876070 22827.71637010
0.09500000 1058307.01899319 15239.62178981
0.09600000 1048656.61837224 24412.72722329
0.09700000 1039017.27270240 16800.91008946
0.09800000 1029387.17435751 19872.32033532
0.09900000 1019770.80293357 16826.21903961
0.10000000 1010167.30461002 15304.03538455
0.10100000 1000580.89356824 21432.44374824
0.10200000 991013.28931781 22966.73406021
0.10300000 981465.80469480 15310.86727347
0.10400000 971941.43610128 16838.88617264
0.10500000 962443.07888927 21423.98394406
0.10600001 952967.36248686 16824.63957636
0.10700001 943521.96556432 16813.56221756
0.10800001 934104.74708640 18327.13600034
0.10900001 924720.14449311 16783.67141248
0.11000001 915368.46264246 18289.06274445
0.11100001 906050.93441156 21310.31898051
0.11200001 896770.40695713 16720.28502486
0.11300001 887526.84720257 18212.05176203
0.11400001 878323.31825354 16666.18574858
0.11500001 869160.98893294 16635.74211152
0.11600001 860040.95327856 21131.20721715
0.11700001 850964.90112273 18074.49535106
0.11800001 841933.10362062 19537.05858968
0.11900001 832947.49944398 17991.66683543
0.12000001 824009.36804274 23929.23317515
0.12100001 815121.63924567 22375.09005134
0.12200001 806283.50292349 17851.11759572
0.12300001 797497.20753814 16316.79363499
0.12400001 788763.04131045 17747.16926569
0.12500001 780081.51328728 19166.60368461
0.12600001 771456.35317983 20574.74190886
0.12700001 762886.00471956 14647.41198089
0.12800001 754372.20696840 23355.36462846
0.12900001 745916.23805042 18908.97752580
0.13000001 737518.93734235 20289.14692261
0.13100001 729180.09101873 17325.31977928
0.13200001 720901.35474487 14381.98270513
0.13300001 712684.58820370 15757.45698804
0.13400001 704528.35011719 15693.36973873
0.13500001 696435.46354656 18469.46936406
0.13600001 688404.78097899 15561.39080776
0.13700001 680438.00243435 18310.58750891
0.13800001 672534.53654128 21033.51862218
0.13900001 664697.14049968 19542.09685226
0.14000001 656924.36798790 16672.74124583
0.14100001 649217.51266440 19359.66714071
0.14200001 641576.29010183 13761.81207176
0.14300001 634003.00244080 16433.35859839
0.14400001 626494.21078540 14988.87470006
0.14500001 619054.55841217 14913.02501563
0.14600001 611681.76655204 16185.10030649
0.14700001 604378.73721079 17442.37117877
0.14800001 597140.74324937 16015.31548953
0.14900001 589972.77454797 15929.26566435
0.15000001 582872.36156050 17162.67749593
0.15100001 575841.22786205 15755.01673771
0.15200001 568878.62242527 14361.34150079
0.15300001 561985.97552510 14280.06431196
0.15400001 555159.79042667 18070.45203115
0.15500001 548404.33545340 16682.46067179
0.15600001 541715.17288628 14033.13221591
0.15700001 535098.27866972 13950.01278332
0.15800001 528546.43176605 15126.99959112
0.15900001 522065.70793457 16288.45085638
0.16000001 515650.95406313 16188.86246697
0.16100001 509307.53210054 13613.79097568
0.16200001 503031.18773101 18448.66968092
0.16300001 496822.55565366 12221.83544605
0.16400001 490682.03496861 12144.38093880
0.16500001 484608.43326935 13273.42561390
0.16600001 478603.08712862 17983.51184791
0.16700001 472663.38852634 15484.45333922
0.16800001 466789.74155945 13016.43255797
0.16900001 460984.72107769 11755.11094253
0.17000001 455244.23668892 21018.62740042
0.17100001 449569.18338417 17398.32821854
0.17200001 443960.20532669 12672.84465950
0.17300001 438415.68158926 18308.23972776
0.17400001 432935.92227839 18183.30959442
0.17500001 427520.06786615 15801.14245458
0.17600001 422166.37701317 12329.36962297
0.17700001 416877.57319757 14469.82124911
0.17800001 411649.96973558 15473.92309323
0.17900001 406485.26548649 12072.61295518
0.18000001 401382.03397711 11987.27501095
0.18100001 396341.49820831 14066.16043585
0.18200001 391358.93481132 12891.36392165
0.18300001 386437.49017293 13865.37780240
0.18400001 381575.36949542 12706.46040446
0.18500001 376773.62828489 14716.77861606
0.18600001 372028.50041313 15653.09989439
0.18700001 367341.09365978 15538.52899592
0.18800001 362711.02212267 10282.85796300
0.18900001 358139.52303494 16331.16302200
0.19000001 353620.00057509 14183.69889323
0.19100001 349160.57979088 14078.15524236
0.19200001 344752.62421777 11976.70673124
0.19300001 340401.33566397 10896.24726948
0.19400001 336101.71995594 10814.07335059
0.19500001 331855.88466968 10732.21981737
0.19600001 327662.31650260 10650.66410123
0.19700001 323520.31249263 10569.40910862
0.19800001 319429.70583224 14302.46575456
0.19900001 315390.02551800 9461.70121270
0.20000001 311398.70741916 13144.14006137
0.20100001 307458.30038374 11179.18433031
0.20200001 303564.96656589 12940.97513634
0.20300001 299721.32229978 10088.62018545
0.20400001 295924.13791627 11829.56797234
0.20500001 292173.46164769 9028.16039165
0.20600001 288468.95238875 9852.65753455
0.20700001 284810.45478727 10663.30393128
0.20800001 281195.49111798 11460.12278224
0.20900001 277627.36530638 9619.78866261
0.21000001 274100.74424338 10410.34675848
0.21100001 270617.86081903 11187.34289512
0.21200001 267176.95147213 9389.93440339
0.21300001 263777.10926326 11007.41928994
0.21400001 260419.75048495 14277.51349533
0.21500001 257103.69506291 9996.19213664
0.21600001 253826.47290302 9088.25729197
0.21700001 250589.08161680 10652.54236318
0.21800001 247390.62243508 10564.81703060
0.21900001 244229.68649761 8865.53803904
0.22000001 241106.37756287 9591.21215295
0.22100001 238021.76297102 10303.96260622
0.22200001 234973.63574211 9431.84218467
0.22300001 231960.37562863 7793.86898966
0.22400001 228982.23968050 8500.96605012
0.22500001 226041.46598672 8429.08666523
0.22600001 223132.92446058 9876.97936831
0.22700001 220260.65658569 9792.78925489
0.22800001 217420.50408385 8215.23413531
0.22900001 214612.65094982 8144.55048871
0.23000001 211838.37102606 9542.25987414
0.23100001 209096.94259277 10187.20352490
0.23200001 206385.24989582 8655.79778999
0.23300001 203705.15888096 7865.05655637
0.23400001 201056.63815667 7795.97151324
0.23500001 198436.38490260 9132.04286513
0.23600001 195847.52823517 9051.09394548
0.23700001 193287.22360809 6900.35420918
0.23800001 190756.04344319 8890.18582516
0.23900001 188252.91554217 8810.23686409
0.24000001 185777.77893708 7387.45372886
0.24100001 183331.39521929 6654.92996125
0.24200001 180911.73369272 10550.77280803
0.24300001 178518.91163419 9800.68871232
0.24400001 176152.30759687 9710.39641561
0.24500001 173811.87141138 8337.75586602
0.24600001 171497.44296265 7624.77667481
0.24700001 169208.61917284 8182.92921030
0.24800001 166944.85059841 7482.46855779
0.24900001 164705.00753331 7411.72568963
0.25000001 162490.62762010 7953.10414511
0.25100001 160299.21807122 9088.96609463
0.25200001 158133.24997612 6601.27283256
0.25300001 155990.57309430 8320.53756250
0.25400001 153870.54622045 6474.10353852
0.25500001 151773.28622182 8159.33225332
0.25600001 149699.20363140 6347.99503033
0.25700001 147646.83415990 5713.93275233
0.25800001 145617.43537028 6788.68515816
0.25900001 143609.72017671 6160.85728708
0.26000001 141623.76133151 7762.39872586
0.26100001 139658.25211027 6037.42652439
0.26200001 137715.26294435 9235.87454638
0.26300001 135792.11835623 6990.57858376
0.26400001 133890.07321796 6918.76986092
0.26500001 132009.03784250 5267.16085915
0.26600001 130147.24738661 6776.11675583
0.26700001 128306.70688474 7221.10180518
0.26800001 126486.36236311 7145.21494801
0.26900001 124684.25098221 5049.71240374
0.27000001 122902.90801492 6994.40482612
0.27100001 121140.18819149 7413.77986816
0.27200001 119398.18355492 5867.22701755
0.27300001 117674.28109481 5320.05450006
0.27400001 115967.40178646 5262.02110508
0.27500001 114282.20237535 6150.66842292
0.27600001 112613.07406132 6550.70282817
0.27700001 110964.08127936 4627.20240834
0.27800001 109332.22447925 6405.77533541
0.27900001 107719.84695477 5429.08054347
0.28000001 106123.90649618 5367.74744462
0.28100001 104546.55179802 7075.71096058
0.28200001 102987.56601933 4809.00462288
0.28300001 101445.62392266 4753.74216201
0.28400001 99920.90218216  5125.94252456
0.28500001 98414.16976842  4221.96808290
0.28600001 96924.30533924  5424.36900506
0.28700001 95451.62029231  4948.21223016
0.28800001 93995.16420093  4482.15961708
0.28900001 92557.65374748  4026.25812859
0.29000001 91135.32045721  4773.66831151
0.29100001 89730.56219994  4323.21869143
0.29200001 88342.30689609  5047.43794343
0.29300001 86970.61895501  4218.94492521
0.29400001 85614.72859377  4924.98749549
0.29500001 84276.33839144  4116.05656188
0.29600001 82953.49050530  4065.13599465
0.29700001 81646.76875395  4379.53288328
0.29800001 80356.06406550  5405.95446592
0.29900001 79082.08183600  4270.43262130
0.30000001 77823.06000302  3513.71132547
0.30100001 76581.07713614  4509.85984604
0.30200001 75353.09805083  5137.19770281
0.30300001 74142.38791510  3380.89304898
0.30400001 72946.96148200  4338.52073953
0.30500001 71766.77393349  3952.91409540
0.30600001 70601.05605162  3576.29666361
0.30700001 69451.97657879  3850.41776382
0.30800001 68317.61396459  4116.47802433
0.30900001 67198.55291368  3749.67943011
0.31000001 66094.92589230  4008.32697051
0.31100001 65005.23443229  3954.91865011
0.31200001 63931.33979728  3301.73420015
0.31300001 62871.61659000  2961.25328159
0.31400001 61827.69435593  2921.35869663
0.31500001 60797.59365714  2881.80607579
0.31600002 59782.57134306  4263.99210293
0.31700002 58781.82946963  3645.06141800
0.31800002 57795.54146699  3042.06846915
0.31900002 56823.84024192  3273.05335291
0.32000002 55866.54002045  3496.96623816
0.32100002 54922.74560316  3713.87623354
0.32200002 53994.24564187  3139.22559026
0.32300002 53078.10699456  2579.59612208
0.32400002 52176.61808939  4069.77640368
0.32500002 51288.88459741  4012.84252092
0.32600002 50415.35116718  2472.87309185
0.32700002 49554.65945356  3657.13404085
0.32800002 48708.55203085  2884.52058786
0.32900002 47875.05801292  2843.77858063
0.33000002 47055.95740625  2569.96123544
0.33100002 46247.68157762  2303.13465163
0.33200002 45455.70236314  2724.61492867
0.33300002 44675.35202729  2685.88229107
0.33400002 43908.32914073  2647.67237257
0.33500002 43153.44423571  3044.90716947
0.33600002 42412.26457520  2358.33408339
0.33700002 41682.80409124  2535.98192101
0.33800002 40967.01803996  2916.44215238
0.33900002 40262.69893362  2258.73751715
0.34000002 39571.30421408  2428.88676769
0.34100002 38892.03506201  1995.16149317
0.34200002 38225.49666540  2163.37208623
0.34300002 37569.96698907  2520.19350498
0.34400002 36927.74310267  2484.31403489
0.34500002 36296.45261936  2448.92177421
0.34600002 35677.92258112  2599.85034162
0.34700002 35069.39977859  2196.74730617
0.34800002 34473.84698356  2526.58836509
0.34900002 33889.07095487  1779.17630940
0.35000002 33315.77134345  2280.29807760
0.35100002 32754.25025908  1729.42449559
0.35200002 32202.46007488  2387.16847841
0.35300002 31662.18842599  2017.51474206
0.35400002 31133.04732102  2155.18530288
0.35500002 30614.80045178  1634.83042156
0.35600002 30106.06293327  1934.61569572
0.35700002 29608.59250438  1748.97964207
0.35800002 29121.79744865  1725.02975358
0.35900002 28645.15182843  1701.52209920
0.36000002 28178.93364229  1831.06719481
0.36100002 27721.90967702  1655.82974344
0.36200002 27275.87506278  1782.20576102
0.36300002 26838.71472143  2051.55145048
0.36400002 26411.28989042  1446.01818999
0.36500002 25993.24087638  1569.73189088
0.36600002 25585.12691622  1971.84582484
0.36700002 25185.69013243  1529.27517728
0.36800002 24796.77585090  1921.50225171
0.36900002 24416.05252174  1626.10917498
0.37000002 24043.89209902  1605.65119043
0.37100002 23680.48767490  1321.37127485
0.37200002 23326.58389475  1566.14691688
0.37300002 22980.64826457  1418.13587158
0.37400002 22643.24084079  1910.52353644
0.37500002 22314.60235242  1510.25235875
0.37600002 21994.28677332  1741.28776633
0.37700002 21681.45207556  1721.07374729
0.37800002 21376.61372674  1701.36476711
0.37900002 21080.30130366  1682.20812372
0.38000002 20791.51836508  1425.88239703
0.38100002 20509.40266328  1645.26435959
0.38200002 20235.86225763  1511.31544431
0.38300002 19968.98085724  1725.32002780
0.38400002 19710.16428808  1593.56685819
0.38500002 19457.41491234  1351.90125215
0.38600002 19212.81555328  1115.30399571
0.38700002 18974.28786186  1546.02504823
0.38800002 18742.86605782  1093.64628629
0.38900002 18517.47317163  1299.92667823
0.39000002 18299.84396171  1180.61448912
0.39100002 18087.65266858  1276.26483276
0.39200002 17882.24574979  1581.23765534
0.39300002 17682.78372173  1045.05256747
0.39400002 17490.58322923  1243.58052652
0.39500002 17303.22972447  1130.59308376
0.39600002 17121.88803818  1529.41272147
0.39700002 16946.24572653  1214.02910137
0.39800002 16776.54857714  1104.48412790
0.39900002 16612.10778315  1295.74446848
0.40000002 16453.01697280  1385.50862492
0.40100002 16299.63546517  1277.72848465
0.40200002 16151.50848676  1366.90222800
0.40300002 16007.93440011  1067.08895767
0.40400002 15869.84852328  1253.32134651
0.40500002 15736.84100753  1725.07259298
0.40600002 15608.44759644  952.89577091
0.40700002 15484.79941098  1137.20372262
0.40800002 15365.81464074  1036.96205016
0.40900002 15251.23236853  1406.92625266
0.41000002 15141.45188597  1400.20582950
0.41100002 15035.68771012  1115.04665342
0.41200002 14933.86102410  925.15273428
0.41300002 14836.95607511  1197.78752070
0.41400002 14743.50500012  917.78322975
0.41500002 14654.21946268  1097.30800536
0.41600002 14568.32049775  1002.37333934
0.41700002 14486.61657009  1089.97308238
0.41800002 14409.44452546  1358.45044701
0.41900002 14333.90737715  1264.25069057
0.42000002 14263.15025430  1261.00517373
0.42100002 14196.10795150  1347.92051387
0.42200002 14132.35635941  986.36785884
0.42300002 14071.23547627  1073.91674244
0.42400002 14013.27443335  982.68091620
0.42500002 13958.97293824  1070.37409562
0.42600002 13906.62630662  1425.15113144
0.42700002 13858.64699768  978.69769735
0.42800002 13812.51653353  977.71902916
0.42900002 13770.27966984  1065.81969695
0.43000002 13730.23869619  976.42597115
0.43100002 13691.88720027  975.95776588
0.43200002 13657.15934168  887.03254128
0.43300002 13624.78624296  1064.36835174
0.43400002 13594.76107729  1419.29312373
0.43500002 13566.98779280  1242.19346117
0.43600002 13541.83128159  976.43379083
0.43700002 13518.36942150  1065.78829570
0.43800002 13496.97955976  1244.28660458
0.43900002 13478.41538713  978.53300348
0.44000002 13461.33257607  1068.56063053
0.44100002 13446.64687203  1069.81527584
0.44200002 13433.58986260  981.92829754
0.44300002 13422.55732762  983.33659642
0.44400002 13413.57901310  1074.42772987
0.44500002 13405.05990575  1165.83811525
0.44600002 13398.83219674  988.23091550
0.44700002 13395.09598955  1170.19564110
0.44800002 13391.51366548  992.11033692
0.44900002 13390.97895105  994.28023424
0.45000002 13391.18452899  996.50504395
0.45100002 13392.57331802  1089.61981679
0.45200002 13395.58163954  1001.25279710
0.45300002 13399.56429057  1277.51452001
0.45400002 13405.19431537  1189.37592200
0.45500002 13412.00307925  1192.59537033
0.45600002 13419.83663651  1379.89476755
0.45700002 13428.76810687  1014.81205393
0.45800002 13438.43198322  1017.75969448
0.45900002 13449.25536189  1206.39826314
0.46000002 13461.77353894  1023.96985277
0.46100002 13474.16339316  1307.26339436
0.46200002 13488.24950958  1498.81435654
0.46300002 13503.15930659  1221.76591197
0.46400002 13518.13252355  1508.62366113
0.46500002 13534.49829204  946.06147545
0.46600002 13551.31065652  1234.05016343
0.46700002 13568.55873617  952.51286842
0.46800002 13587.41021081  1051.46178900
0.46900002 13605.80197250  1055.12999298
0.47000002 13625.15827103  1540.18796396
0.47100002 13645.11544068  1255.89648469
0.47200002 13665.76632559  1066.54478343
0.47300002 13686.96654321  1459.71505102
0.47400002 13707.92448302  1465.03449856
0.47500002 13729.71820758  980.30192649
0.47600002 13752.27112251  1180.77005454
0.47700002 13774.41181179  1382.67552320
