# SAXS profile: number of points = 501, q_min = 0, q_max = 0.5, delta_q = 0.001
#    q    intensity    error
0.00000000 1682732.95097188 277.65093691
0.00100000 1682645.73503261 555.27310575
0.00200000 1682384.04762587 908.48741449
0.00300000 1681948.11815732 1211.00268821
0.00400000 1681337.80996495 1513.20408647
0.00500000 1680553.77341281 2419.99752950
0.00600000 1679595.88502200 1939.93332618
0.00700000 1678464.86789463 2819.82109526
0.00800000 1677160.48909849 2943.41678264
0.00900000 1675684.24248659 3267.58441253
0.01000000 1674035.42301812 3038.37442397
0.01100000 1672215.72768927 3310.98728498
0.01200000 1670224.88543973 3582.63253634
0.01300000 1668064.42778992 4553.81608871
0.01400000 1665734.40364104 5247.06360408
0.01500000 1663236.51451571 4390.94459385
0.01600000 1660570.28524463 5081.34530000
0.01700000 1657738.03136961 5371.07146258
0.01800000 1654740.17894979 4716.00972222
0.01900000 1651577.76621743 6441.15357889
0.02000000 1648251.57905639 5191.99270889
0.02100000 1644764.34360727 7056.03935399
0.02200000 1641114.62948757 7360.39944765
0.02300000 1637305.77252333 9430.88167901
0.02400000 1633338.17584620 7962.52397032
0.02500000 1629214.33607391 9530.90430131
0.02600000 1624934.61712538 7897.18260043
0.02700000 1620501.01598420 10209.15686829
0.02800000 1615913.94604730 9137.99378396
0.02900000 1611176.84248946 7975.32573650
0.03000000 1606290.29512350 10456.95030191
0.03100000 1601256.01796815 8454.63216390
0.03200000 1596075.11099111 10270.74381228
0.03300000 1590752.03257698 11357.97003621
0.03400000 1585284.89248276 10819.56989041
0.03500000 1579678.12570677 9383.28850000
0.03600000 1573932.12986471 11355.92084177
0.03700000 1568050.10890803 8937.88603413
0.03800000 1562033.61899052 10051.68680339
0.03900000 1555885.05821227 10268.84185975
0.04000000 1549604.63978154 10483.07587390
0.04100000 1543196.52877950 11666.56629851
0.04200000 1536662.26407410 15858.35530096
0.04300000 1530003.51813898 13127.43079498
0.04400000 1523223.38693509 12338.11000718
0.04500000 1516323.84578272 11508.89852425
0.04600000 1509306.00903814 13832.79021588
0.04700000 1502173.60466730 14060.34559360
0.04800000 1494928.43707482 12086.49697611
0.04900000 1487573.13559192 11156.79903626
0.05000000 1480109.38759946 15851.97227936
0.05100000 1472541.23488237 14931.56881728
0.05200000 1464867.86785732 12810.27010139
0.05300000 1457094.67480136 14162.96089932
0.05400000 1449222.96119227 20325.35297857
0.05500000 1441256.10922647 19370.48301162
0.05600000 1433194.88654821 13479.19853698
0.05700000 1425044.60005047 18596.83289873
0.05800000 1416804.14109573 16300.33240441
0.05900000 1408478.15532569 15211.56478799
0.06000000 1400069.78672662 17934.89480586
0.06100000 1391580.55958355 15530.03977069
0.06200000 1383013.58004329 15683.37473079
0.06300000 1374372.07541491 19790.95881131
0.06400000 1365655.04434080 14646.65103553
0.06500000 1356869.34396888 17462.90927376
0.06600000 1348016.15392769 13547.56298084
0.06700000 1339096.92339433 15024.66818362
0.06800000 1330115.52479335 16520.03559122
0.06900000 1321075.85592802 19419.81599136
0.07000000 1311976.99901762 16767.06683262
0.07100000 1302823.86333087 15477.54822130
0.07200000 1293618.25895411 16998.14471897
0.07300000 1284363.92389779 18533.37229024
0.07400000 1275063.41237782 15778.91046764
0.07500000 1265717.42607255 20200.85106698
0.07600000 1256329.34389533 17412.72552271
0.07700000 1246903.14304703 21883.15118654
0.07800000 1237439.60100151 19062.75794740
0.07900000 1227941.02777847 17682.35162938
0.08000000 1218412.70200140 14803.71502378
0.08100000 1208855.09524337 19329.59387985
0.08200000 1199269.87215871 17917.09273081
0.08300000 1189660.42520988 14989.72206114
0.08400000 1180029.66167920 16549.91678188
0.08500000 1170379.88646997 24156.64199078
0.08600000 1160713.29521198 21206.23289919
0.08700000 1151032.10071582 16712.98688720
0.08800000 1141338.21818724 19807.92570689
0.08900000 1131635.15761714 19860.19794901
0.09000000 1121924.91515357 19908.55855461
0.09100000 1112209.21858107 19953.03431876
0.09200000 1102490.25080995 19993.66163788
0.09300000 1092772.12674391 16948.89648226
0.09400000 1083053.61066328 18520.21761275
0.09500000 1073339.18062753 24729.73588402
0.09600000 1063630.25696490 24761.31354612
0.09700000 1053931.75731041 18591.35707299
0.09800000 1044242.39971486 23260.50054730
0.09900000 1034566.34220464 17070.34544907
0.10000000 1024902.69391182 20185.45950586
0.10100000 1015255.87502989 17086.75718037
0.10200000 1005627.64747127 18644.33746108
0.10300000 996018.88516886 21753.05347537
0.10400000 986433.17566526 18643.58789716
0.10500000 976872.91832650 27958.10423792
0.10600001 967335.10278430 18630.87495627
0.10700001 957827.41977597 18620.16591667
0.10800001 948347.55592006 17056.03159591
0.10900001 938899.81019945 23237.77139614
0.11000001 929484.79428907 17023.51480869
0.11100001 920103.66776904 15457.74234617
0.11200001 910759.28139364 20068.58171028
0.11300001 901451.55075816 24663.71558993
0.11400001 892183.54539940 15390.16688278
0.11500001 882956.67822462 16899.79161700
0.11600001 873771.54596340 19935.09875993
0.11700001 864630.35400119 15303.95798656
0.11800001 855533.06631137 21379.77233407
0.11900001 846481.76899342 21331.34158338
0.12000001 837477.80752949 24320.35667626
0.12100001 828523.97172710 21226.78515560
0.12200001 819619.45704103 19658.57360327
0.12300001 810766.62785066 21112.36398393
0.12400001 801965.58347523 16540.54093853
0.12500001 793217.13046390 16490.98491941
0.12600001 784524.68171660 14945.19589097
0.12700001 775887.15319592 22345.55106511
0.12800001 767305.86210417 14847.36913146
0.12900001 758782.06687045 19235.12630176
0.13000001 750316.97749104 17692.47516317
0.13100001 741909.98277487 16158.80018652
0.13200001 733563.12883679 20488.41915424
0.13300001 725278.05353352 18951.51643226
0.13400001 717053.28969776 15972.36278104
0.13500001 708891.87068039 15907.53432808
0.13600001 700792.33703791 18721.66816671
0.13700001 692756.83329186 20076.09397545
0.13800001 684784.30040456 17133.30400406
0.13900001 676877.81591185 22743.09568716
0.14000001 669035.96042782 16980.13347645
0.14100001 661259.82203908 15493.31836109
0.14200001 653549.19684567 19626.08330695
0.14300001 645906.55591901 13951.58226591
0.14400001 638328.21809812 15272.00333838
0.14500001 630818.99300455 16577.92391818
0.14600001 623376.46873161 15119.99696236
0.14700001 616003.62793714 15042.80930389
0.14800001 608695.94310931 14964.79046736
0.14900001 601458.02100466 14886.08672220
0.15000001 594287.78896147 18844.86667712
0.15100001 587186.65821410 18742.99901458
0.15200001 580154.20996480 18640.35564575
0.15300001 573191.73244484 14564.80260872
0.15400001 566295.46305887 19749.55520618
0.15500001 559469.86350137 15709.91450852
0.15600001 552710.75659928 14317.97282544
0.15700001 546023.83995235 14234.84217940
0.15800001 539401.96304153 19297.10613861
0.15900001 532851.14233597 16624.95642559
0.16000001 526366.44180482 12711.75016961
0.16100001 519953.13442760 12634.86176301
0.16200001 513606.86966127 13813.45741162
0.16300001 507328.21187261 12480.27460123
0.16400001 501117.81928641 13642.93327415
0.16500001 494974.38877444 12324.86286236
0.16600001 488899.26679422 13471.61993255
0.16700001 482889.77173873 14602.58738684
0.16800001 476946.58565745 15717.77547248
0.16900001 471071.88164772 15616.03361398
0.17000001 465261.82803563 16707.55303368
0.17100001 459517.34143202 13041.10276566
0.17200001 453838.85668373 16487.96644193
0.17300001 448225.16245293 17548.01593873
0.17400001 442676.17080887 16268.35004552
0.17500001 437191.11590283 11541.84600493
0.17600001 431768.24206141 12609.79210495
0.17700001 426410.61284065 11385.16390057
0.17800001 421114.11839958 12437.60607439
0.17900001 415880.66257508 13474.53410388
0.18000001 410708.75405434 13380.89183914
0.18100001 405599.76329851 11072.87406109
0.18200001 400548.79561517 12094.57145492
0.18300001 395559.21427001 17467.89572733
0.18400001 390628.86551077 11923.94668301
0.18500001 385759.27429129 10762.68426118
0.18600001 380946.29709207 19233.97944886
0.18700001 376191.22813191 11669.45244797
0.18800001 371493.61042324 12638.21322371
0.18900001 366854.77202084 12546.43379590
0.19000001 362267.89782148 12454.77091558
0.19100001 357741.49448363 12363.54663353
0.19200001 353266.65409689 12272.48414322
0.19300001 348848.58562806 10151.49432146
0.19400001 344482.49892618 10076.11356973
0.19500001 340170.24273568 10001.00560903
0.19600001 335910.50780023 11911.38716948
0.19700001 331702.45500600 10836.71971716
0.19800001 327546.10805587 15643.60286005
0.19900001 323440.81460858 13584.51485556
0.20000001 319384.11758816 10592.37476042
0.20100001 315378.46925629 11467.16168412
0.20200001 311420.14832222 9482.74396460
0.20300001 307511.58565384 15055.76794522
0.20400001 303649.84419061 12138.40309525
0.20500001 299834.78881322 13897.34311838
0.20600001 296066.23525482 10112.14274311
0.20700001 292343.77651144 11857.46413580
0.20800001 288665.05036720 12669.50965951
0.20900001 285033.57067130 12569.98106080
0.21000001 281443.59044768 9798.45906463
0.21100001 277897.64346538 12372.00367195
0.21200001 274394.00292837 9643.57768881
0.21300001 270931.58987331 9566.59489069
0.21400001 267511.85263928 10352.70918658
0.21500001 264133.72603289 12836.89969210
0.21600001 260794.77488786 9337.75735634
0.21700001 257495.81524584 9262.12491230
0.21800001 254236.06469926 12527.48268036
0.21900001 251014.07476352 8283.46485885
0.22000001 247829.92034686 10680.23092234
0.22100001 244684.72519505 14666.40312167
0.22200001 241576.30909219 9696.87350547
0.22300001 238503.08799093 12020.55620314
0.22400001 235465.08861482 9536.33653984
0.22500001 232464.91201758 10244.72915706
0.22600001 229497.18922841 9377.25559531
0.22700001 226566.09198804 8523.41678366
0.22800001 223667.18183826 11524.45208921
0.22900001 220800.96326731 9141.16031156
0.23000001 217968.70679268 7552.61604754
0.23100001 215169.42317762 10483.05479299
0.23200001 212400.16013359 7423.38594775
0.23300001 209662.89162194 9566.91819717
0.23400001 206957.38444479 12401.92184941
0.23500001 204280.32764034 7954.67633454
0.23600001 201635.17222670 7168.13071169
0.23700001 199018.81296202 10657.45793819
0.23800001 196431.77078879 10563.11897379
0.23900001 193873.11315105 7677.37564392
0.24000001 191342.79864259 8300.45099773
0.24100001 188841.50977076 10282.42069339
0.24200001 186367.22505580 8151.70280953
0.24300001 183920.09569652 7404.62340300
0.24400001 181499.49624220 10005.16020363
0.24500001 179105.35184129 6608.98779558
0.24600001 176737.55449967 7202.93937437
0.24700001 174395.57283830 9082.52186308
0.24800001 172079.12284409 8355.30220496
0.24900001 169786.82816445 10823.91080754
0.25000001 167520.23249857 9460.70557793
0.25100001 165276.87998020 8746.45290234
0.25200001 163059.47151575 7425.72868414
0.25300001 160865.53069926 8580.56781345
0.25400001 158694.63228876 7891.09096390
0.25500001 156546.68399758 6612.53224491
0.25600001 154422.31205363 8334.17257585
0.25700001 152320.01722270 6484.26343996
0.25800001 150240.91635879 7004.23185205
0.25900001 148183.88036905 7512.92309018
0.26000001 146148.84344725 9154.76398670
0.26100001 144134.72397746 6797.39390440
0.26200001 142143.25024556 5607.55148752
0.26300001 140171.93945674 6105.88997165
0.26400001 138222.28581587 7142.63695751
0.26500001 136293.74470732 8157.18100672
0.26600001 134384.87249728 6458.53727783
0.26700001 132497.47433028 6924.31833616
0.26800001 130630.56611039 6325.13231038
0.26900001 128782.37313493 5737.25499466
0.27000001 126955.12349264 7741.08902129
0.27100001 125146.95823092 6127.19536494
0.27200001 123359.78936626 8587.69214313
0.27300001 121591.00402360 5996.86860224
0.27400001 119839.56348458 6920.73511876
0.27500001 118110.06304022 5378.73252540
0.27600001 116396.90999988 4836.29183938
0.27700001 114704.43596545 6218.12776797
0.27800001 113029.36785129 5203.30719529
0.27900001 111373.89372601 5145.47413367
0.28000001 109735.33067433 6475.48216957
0.28100001 108115.65457847 6859.93860768
0.28200001 106514.64154098 5878.01077164
0.28300001 104930.98664597 4470.06024269
0.28400001 103364.94811547 4418.85174108
0.28500001 101817.11317313 5678.34067043
0.28600001 100286.53856908 6476.00353462
0.28700001 98773.38481864  5973.81459659
0.28800001 97276.86842203  4638.64769027
0.28900001 95799.57134283  5417.46601587
0.29000001 94337.69992588  4529.62487635
0.29100001 92893.94106093  4882.50577327
0.29200001 91466.70741632  4823.95437748
0.29300001 90056.58677457  5957.24349713
0.29400001 88662.46580748  4315.64572747
0.29500001 87286.18338319  4650.60807080
0.29600001 85925.70401400  3827.99029503
0.29700001 84581.76275551  5293.12696381
0.29800001 83254.02946618  4107.33773815
0.29900001 81943.47277398  5162.43902915
0.30000001 80648.08905513  5097.76595050
0.30100001 79370.02864626  4674.10120825
0.30200001 78106.45564196  3904.93243468
0.30300001 76860.23033085  4556.27466971
0.30400001 75629.60634319  4152.06558481
0.30500001 74414.60964718  3415.63074451
0.30600001 73214.41433011  3371.52393952
0.30700001 72031.13398186  4326.19011177
0.30800001 70862.93775536  4926.74598069
0.30900001 69710.24132137  3565.67901240
0.31000001 68573.31519266  5118.31248831
0.31100001 67450.61995178  3472.35807952
0.31200001 66343.93448809  3426.33265886
0.31300001 65251.91538549  3688.03843220
0.31400001 64175.99239620  3638.77894115
0.31500001 63113.96281505  3290.76217698
0.31600002 62067.38507648  3541.56516015
0.31700002 61035.39533438  3202.52734483
0.31800002 60018.20306962  3159.05826815
0.31900002 59015.97535540  3116.04364631
0.32000002 58028.28908813  3352.87470227
0.32100002 57054.37621636  3306.87180208
0.32200002 56096.17008841  3533.21744032
0.32300002 55150.38129966  3752.43212131
0.32400002 54219.77548382  4757.78552399
0.32500002 53303.16978335  3127.83015100
0.32600002 52401.01723343  2827.29701871
0.32700002 51511.95022662  3041.26568539
0.32800002 50637.69631726  2748.86747475
0.32900002 49776.39862594  2710.32503353
0.33000002 48929.77404274  4129.91777365
0.33100002 48094.33855599  2395.09817351
0.33200002 47275.24797526  3069.81837264
0.33300002 46468.19575923  2560.86238956
0.33400002 45674.78888461  2524.67407515
0.33500002 44893.65809252  2488.90452251
0.33600002 44126.63806134  2453.66182560
0.33700002 43371.50984199  3078.50991437
0.33800002 42630.47732687  2384.53586220
0.33900002 41900.97152592  3419.11943844
0.34000002 41184.76688982  2317.26101880
0.34100002 40480.90482963  2492.00461933
0.34200002 39790.10275157  2251.92097187
0.34300002 39110.43617717  2219.90846255
0.34400002 38444.49808391  2984.25430510
0.34500002 37789.58248971  2745.79119374
0.34600002 37147.68249749  2513.59805524
0.34700002 36516.16278004  2096.75816613
0.34800002 35897.84930232  3006.80399997
0.34900002 35290.50375565  2408.57699540
0.35000002 34694.94054888  2009.35757706
0.35100002 34111.28314497  1801.07583536
0.35200002 33537.79052252  2308.57391996
0.35300002 32975.89449085  2801.63212864
0.35400002 32425.40614461  1726.65295898
0.35500002 31886.14636033  1872.99232592
0.35600002 31356.59785080  1679.14589444
0.35700002 30838.44264246  1821.62689317
0.35800002 30331.24920602  2123.33920124
0.35900002 29834.49180238  2577.70021382
0.36000002 29348.40010984  1907.05912947
0.36100002 28871.64135633  1881.27623989
0.36200002 28406.21479023  2474.74954974
0.36300002 27949.82220981  1831.27243793
0.36400002 27503.39748860  1806.97330059
0.36500002 27066.53930416  1783.14369382
0.36600002 26639.84728051  1906.48076094
0.36700002 26222.11454792  1592.20687077
0.36800002 25815.06737503  1714.63685627
0.36900002 25416.48873141  1833.79974884
0.37000002 25026.59725730  1949.82228468
0.37100002 24645.75247248  2062.84957966
0.37200002 24274.60019986  1493.98034007
0.37300002 23911.58198879  1475.58379443
0.37400002 23557.35020413  1722.63131528
0.37500002 23212.08888133  1570.99424991
0.37600002 22875.29535455  1552.31761629
0.37700002 22546.23620487  2301.06897607
0.37800002 22225.44813016  1642.57182187
0.37900002 21913.33987209  1249.06043188
0.38000002 21608.90273539  1481.93861980
0.38100002 21311.36612646  1465.36960427
0.38200002 21022.56393837  1328.52099102
0.38300002 20740.65014245  1672.52610672
0.38400002 20467.03872776  1300.16869678
0.38500002 20199.56194168  1403.46563020
0.38600002 19940.64972730  1273.31024866
0.38700002 19687.71970257  1145.82534097
0.38800002 19442.28704387  1247.90325303
0.38900002 19202.98700089  1460.38723060
0.39000002 18971.66481261  1335.22583277
0.39100002 18745.87413990  1432.93468714
0.39200002 18527.09393475  1529.04113488
0.39300002 18314.38801528  1407.09449788
0.39400002 18109.21711240  1072.97116474
0.39500002 17909.06782672  1170.17854724
0.39600002 17715.05844711  1793.38402686
0.39700002 17526.95959218  1464.90335212
0.39800002 17344.89102291  1245.71013228
0.39900002 17168.25021436  1648.15209867
0.40000002 16997.22307647  1022.38301649
0.40100002 16832.00259013  1623.95168684
0.40200002 16672.26356021  1108.62221796
0.40300002 16517.17963718  1000.94113344
0.40400002 16367.74761185  1392.07700034
0.40500002 16223.52161904  1679.62127280
0.40600002 16084.10438132  1178.32154281
0.40700002 15949.64102321  1171.34169224
0.40800002 15819.92037601  1067.60737716
0.40900002 15694.76476354  1158.27369443
0.41000002 15574.59320494  1344.24320321
0.41100002 15458.52432604  1050.87053348
0.41200002 15346.58021249  1235.93689597
0.41300002 15239.73075339  1041.02605709
0.41400002 15136.48140592  1130.69521460
0.41500002 15037.55227795  1407.51495991
0.41600002 14942.03402783  1215.01155454
0.41700002 14850.97388188  1303.61854912
0.41800002 14764.42707162  1299.12199959
0.41900002 14679.81554591  1109.79410786
0.42000002 14600.19056883  1198.60270154
0.42100002 14524.18852372  1011.31929483
0.42200002 14451.70397581  1192.04885893
0.42300002 14381.95657954  1006.16172998
0.42400002 14315.55862747  1095.14028690
0.42500002 14252.84897469  1275.05992970
0.42600002 14192.35569351  1090.82451029
0.42700002 14136.18871712  1089.05203037
0.42800002 14082.18312820  1268.66393814
0.42900002 14032.05832623  905.06780493
0.43000002 13984.24724189  1175.30611514
0.43100002 13938.31023446  993.52280059
0.43200002 13896.12107968  902.55310690
0.43300002 13856.35727574  992.25379154
0.43400002 13819.11570055  1082.03681063
0.43500002 13784.14660349  991.63155365
0.43600002 13751.99775839  1081.73219494
0.43700002 13721.58241122  1171.96040928
0.43800002 13693.33978036  1082.04776072
0.43900002 13668.09483249  1172.72259220
0.44000002 13644.40910150  1263.60878677
0.44100002 13623.24803116  1083.86566472
0.44200002 13603.75611653  903.96963678
0.44300002 13586.41971548  1266.79783431
0.44400002 13571.26142368  1268.23444015
0.44500002 13556.66017729  1360.41091326
0.44600002 13544.36562088  1089.77970950
0.44700002 13534.79412745  909.53820847
0.44800002 13525.38257290  1002.02801540
0.44900002 13519.08062824  1368.80697848
0.45000002 13513.76172889  1005.62662671
0.45100002 13509.63646905  1465.52543362
0.45200002 13507.21461439  1009.59680420
0.45300002 13505.80425794  1287.64343898
0.45400002 13506.16135466  1290.51377860
0.45500002 13507.81200121  1108.72126161
0.45600002 13510.57967809  1296.61039316
0.45700002 13514.53570074  1578.36269929
0.45800002 13519.29116576  1023.88356497
0.45900002 13525.25672658  1119.89131004
0.46000002 13532.99219360  1403.70968181
0.46100002 13540.66064264  1126.04139241
0.46200002 13550.21260473  1129.27477200
0.46300002 13560.55488426  1038.19613114
0.46400002 13571.12714924  1041.24477988
0.46500002 13583.11477407  949.45976771
0.46600002 13595.65830014  1047.61349997
0.46700002 13608.60140190  1050.85625006
0.46800002 13623.32799385  1245.92152073
0.46900002 13637.64692973  1442.18123117
0.47000002 13653.04704566  1350.42294729
0.47100002 13668.99154581  1258.09404151
0.47200002 13685.84769100  1068.11203367
0.47300002 13703.22778148  1071.72949559
0.47400002 13720.42274766  1075.33818382
0.47500002 13738.53607784  980.93152245
0.47600002 13757.55052446  1279.65862269
0.47700002 13776.12783074  1481.62261842
