# SAXS profile: number of points = 501, q_min = 0, q_max = 0.5, delta_q = 0.001
#    q    intensity    error
0.00000000 1682732.95097188 302.89193117
0.00100000 1682645.70690779 555.27309647
0.00200000 1682383.93968500 832.78007651
0.00300000 1681947.87081355 1513.75313766
0.00400000 1681337.37410813 1387.10338635
0.00500000 1680553.09755722 1814.99741720
0.00600000 1679594.91483000 1939.93220561
0.00700000 1678463.53982305 3424.06576354
0.00800000 1677158.75934545 2716.99730485
0.00900000 1675682.02474707 3770.28471685
0.01000000 1674032.68944251 3867.01567959
0.01100000 1672212.45017566 3611.97904964
0.01200000 1670220.97728503 3582.62415335
0.01300000 1668059.86181481 3502.92586431
0.01400000 1665729.09629999 5621.83594923
0.01500000 1663230.44231904 4390.92856325
0.01600000 1660563.36539557 8045.42986500
0.01700000 1657730.20773235 4475.87176166
0.01800000 1654731.48631581 5187.58344303
0.01900000 1651568.05998970 5945.64528425
0.02000000 1648240.86968431 6230.35076924
0.02100000 1644752.50812405 5970.45187518
0.02200000 1641101.66741523 7926.52141374
0.02300000 1637291.60800731 5894.25005712
0.02400000 1633322.80141722 11024.92941228
0.02500000 1629197.66639123 10166.19390258
0.02600000 1624916.61082283 9213.27760476
0.02700000 1620481.59727605 10209.03453042
0.02800000 1615893.19377938 7732.04928682
0.02900000 1611154.56333794 10150.27421507
0.03000000 1606266.53263516 10456.79560810
0.03100000 1601230.64544378 9991.67968732
0.03200000 1596048.18430189 10270.57053903
0.03300000 1590723.41578382 8112.68979450
0.03400000 1585254.62131216 9154.84586049
0.03500000 1579646.08862991 9383.09819976
0.03600000 1573898.25667123 9608.64930103
0.03700000 1568014.45067421 10725.21933863
0.03800000 1561996.12733432 12792.74887491
0.03900000 1555845.71640269 12135.59714994
0.04000000 1549563.28324782 13341.74048701
0.04100000 1543153.22912609 11666.23895312
0.04200000 1536616.98390034 9911.18000597
0.04300000 1529956.25558707 14136.79645783
0.04400000 1523173.86669766 10281.42407770
0.04500000 1516272.36017956 13600.96370278
0.04600000 1509252.31925150 11704.25227989
0.04700000 1502117.83172366 14059.82355883
0.04800000 1494870.42912383 12086.02798181
0.04900000 1487512.77375781 13387.61558698
0.05000000 1480046.83053681 15851.30229318
0.05100000 1472476.36961776 18376.50594888
0.05200000 1464800.65919831 19796.78183162
0.05300000 1457025.29544882 21243.42979797
0.05400000 1449151.13189787 13151.04713526
0.05500000 1441181.72750107 16948.29790604
0.05600000 1433118.11445371 17154.42463051
0.05700000 1424965.33320161 13636.91887529
0.05800000 1416722.56401479 13791.79480466
0.05900000 1408394.01882506 17745.76546603
0.06000000 1399983.15070233 15371.81571286
0.06100000 1391491.39243563 15529.04466528
0.06200000 1382921.79805291 15682.33392297
0.06300000 1374277.80069630 15831.68100424
0.06400000 1365558.19225359 19971.28949570
0.06500000 1356769.97392447 20148.03505526
0.06600000 1347914.21145011 14901.19230479
0.06700000 1338992.36117922 17755.03954015
0.06800000 1330008.21403485 17895.26135750
0.06900000 1320965.85662060 20805.21321585
0.07000000 1311864.40160000 19559.89914382
0.07100000 1302708.75823180 14069.25524788
0.07200000 1293500.51453205 14163.83129766
0.07300000 1284243.53888420 15680.61434450
0.07400000 1274940.24546342 17211.69412037
0.07500000 1265591.75530377 15870.52135540
0.07600000 1256200.88200961 15960.03295415
0.07700000 1246772.01935351 17504.67997249
0.07800000 1237305.91768459 19060.69855581
0.07900000 1227804.70359430 17680.38856103
0.08000000 1218273.75539393 19242.63486914
0.08100000 1208713.36359290 25274.19761855
0.08200000 1199125.70974040 19407.85052287
0.08300000 1189513.49873857 14987.87078752
0.08400000 1179880.34749627 22565.21270505
0.08500000 1170227.98139882 18115.13000247
0.08600000 1160558.89279513 25747.00024552
0.08700000 1150875.03009954 18229.86133281
0.08800000 1141178.59646959 24375.57596536
0.08900000 1131473.05292065 16802.37562507
0.09000000 1121760.26118392 16843.23111290
0.09100000 1112042.16846119 19950.03743947
0.09200000 1102320.70439780 19990.58691355
0.09300000 1092600.07971662 16946.22803274
0.09400000 1082879.07674538 18517.23308261
0.09500000 1073162.41957884 15453.53956829
0.09600000 1063451.21424563 17020.53748410
0.09700000 1053750.30028031 17039.14315659
0.09800000 1044058.75576670 18605.12790253
0.09900000 1034380.31597376 18618.84656303
0.10000000 1024714.51727504 18629.31080014
0.10100000 1015065.54698566 17083.55395924
0.10200000 1005435.00039921 15533.97148683
0.10300000 995824.39390507 20195.31965840
0.10400000 986236.53151528 26406.48437362
0.10500000 976674.19883888 18634.94459061
0.10600001 967134.30132400 24836.01002662
0.10700001 957624.91691898 20167.58169935
0.10800001 948142.95283508 15502.13800841
0.10900001 938693.37650458 17037.28558543
0.11000001 929276.57097827 20114.19232559
0.11100001 919893.59799543 16999.63449119
0.11200001 910547.40417568 16977.15715009
0.11300001 901238.02595425 18493.40516327
0.11400001 891968.54412119 16925.10392161
0.11500001 882740.03508702 24575.48373403
0.11600001 873553.56205476 16863.95230962
0.11700001 864410.98212822 19890.09763549
0.11800001 855312.23874035 21374.25385281
0.11900001 846259.59687539 16755.94080736
0.12000001 837254.31309176 16715.78314827
0.12100001 828299.29637585 21221.02897283
0.12200001 819393.64991365 18141.37626375
0.12300001 810539.69500362 22614.05855605
0.12400001 801737.60078956 19542.35494003
0.12500001 792988.33317143 16486.22822347
0.12600001 784294.97846342 14940.82004379
0.12700001 775656.76341967 22338.91583924
0.12800001 767074.52190378 16327.18196821
0.12900001 758550.25786819 16270.90379815
0.13000001 750084.48075058 16213.07681563
0.13100001 741676.98354108 19090.76645624
0.13200001 733329.60853309 17555.91165587
0.13300001 725044.24877502 23317.42413986
0.13400001 716819.12174097 15967.14668956
0.13500001 708657.50202892 15902.27509529
0.13600001 700557.72705965 15836.10816687
0.13700001 692522.38854407 14335.21411881
0.13800001 684549.85291167 22836.58417001
0.13900001 676643.38570969 17051.41412400
0.14000001 668801.70472791 16974.18806651
0.14100001 661025.71628033 16895.81810498
0.14200001 653315.62266997 22421.79322756
0.14300001 645673.16118509 16735.84912731
0.14400001 638095.42714238 18042.14905350
0.14500001 630586.57430286 16571.81595441
0.14600001 623144.91068509 15114.38052168
0.14700001 615773.04617073 20505.24340485
0.14800001 608466.11869542 19038.90575221
0.14900001 601228.91077149 13527.65113060
0.15000001 594059.74151939 14800.99915831
0.15100001 586959.79651213 14720.95239113
0.15200001 579928.45536892 15971.23041449
0.15300001 572967.35856865 17206.21058976
0.15400001 566072.45600234 14477.30374546
0.15500001 559248.42479744 15703.69650942
0.15600001 552490.80590801 13011.15909319
0.15700001 545805.48503507 14229.14966643
0.15800001 539185.26033704 16717.43978579
0.15900001 532636.42568057 15339.92978365
0.16000001 526153.74642003 13977.27493341
0.16100001 519742.48719889 13892.71733862
0.16200001 513398.27397474 13807.84723036
0.16300001 507121.74336855 17465.27366611
0.16400001 500913.59156810 16116.89556958
0.16500001 494772.62256582 22175.70999034
0.16600001 488699.94720173 17138.70795754
0.16700001 482693.00144262 13380.25063173
0.16800001 476752.58827125 14502.81441998
0.16900001 470880.65887985 12007.45736840
0.17000001 465073.24191282 14314.95506202
0.17100001 459331.78852968 11850.76070367
0.17200001 453656.26325625 11772.38058743
0.17300001 448045.74317535 11693.99444912
0.17400001 442500.05625071 12777.18972766
0.17500001 437018.21060362 18459.65008770
0.17600001 431598.92116426 12604.84708792
0.17700001 426244.85590078 14794.95964709
0.17800001 420951.63551554 13563.06233692
0.17900001 415722.14104838 13469.39800618
0.18000001 410553.76602515 17834.45643854
0.18100001 405448.82166718 16603.13003154
0.18200001 400401.66215373 10991.02614531
0.18300001 395416.16212795 12004.83524930
0.18400001 390489.97285479 11919.70698449
0.18500001 385624.51776909 10758.92455403
0.18600001 380815.80824785 16022.82588900
0.18700001 376065.27683557 11665.54543858
0.18800001 371372.03503542 16845.43630509
0.18900001 366737.72847278 11497.22833084
0.19000001 362155.58609578 13488.48544145
0.19100001 357633.82429693 15449.78193963
0.19200001 353163.59173452 14313.72104934
0.19300001 348750.59247629 11163.50699267
0.19400001 344389.16650470 10073.38359627
0.19500001 340082.29200761 13997.78780050
0.19600001 335827.51755859 12900.81469666
0.19700001 331624.79237929 9849.25679912
0.19800001 327473.56288749 9775.08631415
0.19900001 323373.55327535 11641.44846809
0.20000001 319322.30840992 16366.86569107
0.20100001 315322.21227778 9554.26348357
0.20200001 311369.30552732 11377.43496171
0.20300001 307466.27616090 10349.31534473
0.20400001 303610.22906837 13070.42097918
0.20500001 299801.00195280 9263.85139821
0.20600001 296038.28887452 11030.38716485
0.20700001 292321.68925948 10944.52456321
0.20800001 288648.93986573 9954.05916180
0.20900001 285023.41742526 9876.06188064
0.21000001 281439.46859285 9798.31556225
0.21100001 277899.68248950 15023.25754558
0.21200001 274402.17153475 11397.29473350
0.21300001 270945.99756436 12176.31370618
0.21400001 267532.50650139 11216.30086534
0.21500001 264160.80157174 11982.33452579
0.21600001 260828.12112585 10187.94689285
0.21700001 257535.70680220 9263.55981165
0.21800001 254282.33415613 10859.12759356
0.21900001 251066.84062817 10770.76797221
0.22000001 247889.22958646 10682.78685414
0.22100001 244750.58201219 9780.23371965
0.22200001 241649.04029660 10508.10901417
0.22300001 238582.28183012 8818.00155340
0.22400001 235551.14308288 8744.83660046
0.22500001 232557.55980603 7883.70165022
0.22600001 229596.69499323 8599.54461763
0.22700001 226672.38704669 8527.41560395
0.22800001 223780.26974432 11530.27894384
0.22900001 220920.86735640 10670.47839793
0.23000001 218095.42054916 7557.00667941
0.23100001 215302.99299103 8991.05341252
0.23200001 212540.53103135 8171.12110194
0.23300001 209810.28369786 8837.20956730
0.23400001 207111.79541961 10951.03670074
0.23500001 204441.65922041 7960.95858657
0.23600001 201803.48903864 8608.93724957
0.23700001 199194.07745106 9244.59757175
0.23800001 196613.95131197 9163.19363430
0.23900001 194062.40912274 7684.87176475
0.24000001 191538.97788056 9001.37469127
0.24100001 189044.66919736 10979.71490634
0.24200001 186577.17739458 10881.18150035
0.24300001 184137.24650594 8761.25060318
0.24400001 181723.58663378 8681.84476211
0.24500001 179336.36015510 9264.51680386
0.24600001 176975.62352659 9835.42074276
0.24700001 174640.57606362 8445.61865796
0.24800001 172330.89736590 7723.87118533
0.24900001 170045.48932271 7652.04738152
0.25000001 167785.75682375 7580.56085192
0.25100001 165549.19373639 7509.31178314
0.25200001 163338.80267854 6198.70785491
0.25300001 161151.53019201 9823.79774527
0.25400001 158987.50346902 6081.27229540
0.25500001 156846.27780930 7829.76655868
0.25600001 154728.59388909 6561.26633430
0.25700001 152632.96802426 7088.27537042
0.25800001 150560.53928940 5849.27722815
0.25900001 148509.96516604 6371.07780707
0.26000001 146481.44788890 12042.97280800
0.26100001 144473.93974213 5677.82610052
0.26200001 142488.88935597 8431.78042660
0.26300001 140524.03731388 7234.17778322
0.26400001 138580.70543714 5508.58330178
0.26500001 136658.60058212 5997.94626337
0.26600001 134755.87042229 5396.97286579
0.26700001 132874.66793419 7478.18666521
0.26800001 131013.83739572 5815.04944798
0.26900001 129171.79745185 6277.74965323
0.27000001 127350.50476219 6212.15791627
0.27100001 125548.29738048 5122.37077553
0.27200001 123767.04245714 5575.08669131
0.27300001 122004.01745021 5515.80188995
0.27400001 120258.29349591 6448.85129391
0.27500001 118534.37358437 4907.32329863
0.27600001 116826.81781407 5339.56996089
0.27700001 115139.96917735 6721.87171870
0.27800001 113470.27508544 5698.47748448
0.27900001 111820.07880434 6105.37659167
0.28000001 110186.81731069 5573.24948335
0.28100001 108572.34245931 5051.87133373
0.28200001 106976.28007560 5449.37196497
0.28300001 105397.67793044 4489.94129235
0.28400001 103836.58905898 6658.52158856
0.28500001 102293.46829425 7021.42399605
0.28600001 100767.69448731 6507.07417951
0.28700001 99259.17795208  4716.79635954
0.28800001 97767.20786116  5509.67125981
0.28900001 96294.30373685  5864.32337515
0.29000001 94836.76593471  5381.51253770
0.29100001 93397.27288639  6545.28119370
0.29200001 91974.13541641  4446.48978718
0.29300001 90567.94772956  4792.85602072
0.29400001 89177.77984579  5524.56372296
0.29500001 87805.32590379  5457.97931654
0.29600001 86448.45958438  5006.66277383
0.29700001 85108.16613028  5706.50280917
0.29800001 83783.91970352  4885.02166956
0.29900001 82476.69438262  3711.45142291
0.30000001 81184.67612995  4398.58596095
0.30100001 79909.58496412  3981.89480727
0.30200001 78649.10868650  4646.98280673
0.30300001 77405.73292781  4235.64190633
0.30400001 76177.87964954  4530.67960665
0.30500001 74965.67701718  3785.01721179
0.30600001 73767.98891290  4076.41926032
0.30700001 72587.13676777  4024.23105293
0.30800001 71421.30634236  5627.64209968
0.30900001 70270.62973046  3267.58443717
0.31000001 69135.72894940  4515.25467146
0.31100001 68014.91053919  4138.02735312
0.31200001 66910.11293520  3769.71594125
0.31300001 65819.73983637  4030.14286099
0.31400001 64745.49416789  3976.99216756
0.31500001 63684.83787191  4527.99218708
0.31600002 62639.51944910  3276.36021991
0.31700002 61608.63627270  3526.47850722
0.31800002 60592.56269292  3769.16054078
0.31900002 59591.07276670  3146.40879106
0.32000002 58604.31527958  3103.97770575
0.32100002 57630.95943929  3061.93301999
0.32200002 56673.34094104  3844.15289805
0.32300002 55727.82031741  2979.20941524
0.32400002 54797.60047277  3739.93640936
0.32500002 53881.09441338  2898.26420573
0.32600002 52978.87800092  2858.47549789
0.32700002 52089.69425966  3587.93831050
0.32800002 51215.16966518  3032.96249119
0.32900002 50353.44751864  3738.74365530
0.33000002 49506.41298644  2703.79287329
0.33100002 48670.28424098  2666.15829698
0.33200002 47850.37748689  2868.15176239
0.33300002 47042.35341697  2356.82201780
0.33400002 46248.00066406  2323.96214342
0.33500002 45465.59941958  3666.34611082
0.33600002 44697.35364024  2937.28673357
0.33700002 43940.79364228  2450.57817748
0.33800002 43198.18582158  2635.95342366
0.33900002 42466.85044563  2382.39042282
0.34000002 41748.87699923  2135.45515964
0.34100002 41043.07088460  3158.26445414
0.34200002 40350.28329745  2491.22660877
0.34300002 39668.35617609  2660.95345831
0.34400002 39000.18079075  2421.91134181
0.34500002 38342.76763728  2188.98870808
0.34600002 37698.33940106  2747.07812226
0.34700002 37064.01958570  2128.21610541
0.34800002 36443.03816822  2480.13108000
0.34900002 35832.72031771  2821.82685867
0.35000002 35234.13709038  2226.09288680
0.35100002 34647.27723589  2927.00211952
0.35200002 34070.42813974  2525.64095762
0.35300002 33505.22087525  2490.77823784
0.35400002 32951.26809452  1754.65510914
0.35500002 32408.36400599  2249.78873585
0.35600002 31875.14584079  1877.60555468
0.35700002 31352.98385043  2020.38637502
0.35800002 30841.94011877  1993.00626487
0.35900002 30341.05194111  1802.25857067
0.36000002 29850.79686637  2586.27316300
0.36100002 29369.68272150  1594.77384732
0.36200002 28900.03573789  2360.41053070
0.36300002 28439.05202505  1708.04954553
0.36400002 27988.01431178  1838.81262738
0.36500002 27546.44837243  1663.53009601
0.36600002 27115.00579970  2089.75359597
0.36700002 26692.34386629  1473.41745121
0.36800002 26280.40289782  1600.08240623
0.36900002 25876.59211165  1866.99620929
0.37000002 25481.59994189  1418.05110394
0.37100002 25095.51721037  1680.39591201
0.37200002 24719.06294539  1521.33480104
0.37300002 24350.60397280  1912.49652662
0.37400002 23990.84670973  1754.33074875
0.37500002 23640.01085302  1999.94501291
0.37600002 23297.46076169  1449.21861533
0.37700002 22962.62543139  1822.77329309
0.37800002 22636.06669711  1544.23254323
0.37900002 22318.00945123  1399.33925888
0.38000002 22007.58087467  1760.82662920
0.38100002 21703.97836418  2114.18463261
0.38200002 21409.04273479  1475.93947606
0.38300002 21120.88843516  1338.21955465
0.38400002 20841.11212183  1564.64656667
0.38500002 20567.22013202  1190.84210206
0.38600002 20301.94049066  1414.23324158
0.38700002 20042.55451984  1516.41974681
0.38800002 19790.55363499  1385.73463117
0.38900002 19544.73278233  1486.37699851
0.39000002 19306.76741709  1245.57615892
0.39100002 19074.25272880  1345.87933631
0.39200002 18848.78831973  2000.04502336
0.39300002 18629.20185118  1321.18305788
0.39400002 18417.29075553  1418.59188765
0.39500002 18210.29244085  1189.86056446
0.39600002 18009.36451006  1179.70347812
0.39700002 17814.33624516  1276.21910907
0.39800002 17625.18864265  1054.86759024
0.39900002 17441.59479586  1465.09403227
0.40000002 17263.54324464  1246.08261044
0.40100002 17091.17856193  1236.71773934
0.40200002 16924.38316699  1125.38691201
0.40300002 16762.15046455  1218.94363954
0.40400002 16605.65743950  1210.55248470
0.40500002 16454.09656223  1503.08179218
0.40600002 16307.53718720  1095.13271169
0.40700002 16165.77597623  1582.95285859
0.40800002 16028.92503570  1081.71205729
0.40900002 15896.45203137  977.63184625
0.41000002 15769.02597023  1069.37654684
0.41100002 15645.62988255  1450.34995883
0.41200002 15526.44040977  1154.23563475
0.41300002 15412.27158277  1339.94295490
0.41400002 15301.76937700  1047.78870774
0.41500002 15195.51012892  1517.11980316
0.41600002 15092.74189463  1510.48168039
0.41700002 14994.37828071  1034.16231902
0.41800002 14900.57747377  1217.45174018
0.41900002 14808.66696484  1026.24066929
0.42000002 14721.82063450  1022.65131883
0.42100002 14638.46816778  1019.27658682
0.42200002 14558.81759592  1108.50842428
0.42300002 14481.86033656  1197.36026936
0.42400002 14408.26235266  1194.08479906
0.42500002 14338.32903664  916.21926886
0.42600002 14270.71049856  1279.65467104
0.42700002 14207.36155712  1185.74645175
0.42800002 14146.16936951  1092.36725048
0.42900002 14088.96081108  1181.35941999
0.43000002 14034.11091005  1360.95796999
0.43100002 13981.11839329  1087.17181778
0.43200002 13931.97581480  1538.29918249
0.43300002 13885.18789360  994.31835218
0.43400002 13841.05612604  1083.75474603
0.43500002 13799.15704845  992.71140511
0.43600002 13760.16288412  992.17659178
0.43700002 13722.90609338  991.75447037
0.43800002 13687.95890064  991.48734995
0.43900002 13655.98446735  1351.94252634
0.44000002 13625.62305239  1171.73550992
0.44100002 13597.78952881  1442.45358157
0.44200002 13571.80190481  1442.95404690
0.44300002 13547.86817551  1082.74567590
0.44400002 13526.35298582  1173.74933597
0.44500002 13505.35424169  1084.20988990
0.44600002 13486.62891469  1175.56206506
0.44700002 13470.79987884  1267.33291266
0.44800002 13455.08505947  1359.30003255
0.44900002 13442.59551665  998.11276441
0.45000002 13431.19595690  908.62044955
0.45100002 13421.03631807  1091.93556659
0.45200002 13412.60352524  1002.52509801
0.45300002 13405.23599424  1095.47593737
0.45400002 13399.73730554  1097.43853733
0.45500002 13395.59869840  1282.76259215
0.45600002 13392.59527189  1101.67493928
0.45700002 13390.97281188  1011.95586335
0.45800002 13390.11062199  1014.10007602
0.45900002 13390.58182596  1201.13524672
0.46000002 13392.90157990  1111.34302577
0.46100002 13395.15755437  1299.59824752
0.46200002 13399.50780294  1302.83420543
0.46300002 13404.64109901  1119.55567765
0.46400002 13410.11260708  1215.96201828
0.46500002 13417.02061998  1031.63476437
0.46600002 13424.62626759  1034.43462608
0.46700002 13432.72104074  1131.57247410
0.46800002 13442.69220943  1323.97081846
0.46900002 13452.27053455  1043.22362940
0.47000002 13463.03867725  1141.39647316
0.47100002 13474.44066030  1240.18757715
0.47200002 13486.82796620  1243.95763642
0.47300002 13499.83530024  959.83833534
0.47400002 13512.76631598  1059.06311021
0.47500002 13526.61733429  965.80052344
0.47600002 13541.65115614  1259.57674199
0.47700002 13556.13137137  1166.36959848
