# SAXS profile: number of points = 501, q_min = 0, q_max = 0.5, delta_q = 0.001
#    q    intensity    error
0.00000000 1682732.95097188 302.89193117
0.00100000 1682645.76273772 555.27311489
0.00200000 1682384.15451203 908.48747220
0.00300000 1681948.36501733 1614.67048794
0.00400000 1681338.24504277 1261.00373170
0.00500000 1680554.45937082 1663.74898063
0.00600000 1679596.85850312 1939.93445055
0.00700000 1678466.19676956 2618.40737578
0.00800000 1677162.23361863 3169.83675537
0.00900000 1675686.41861538 2764.88270891
0.01000000 1674038.10046986 3314.59558205
0.01100000 1672219.02030961 4213.99211465
0.01200000 1670228.78574696 4234.03015750
0.01300000 1668068.98975974 4553.82854289
0.01400000 1665739.68236409 4122.70589661
0.01500000 1663242.60443882 4390.96067124
0.01600000 1660577.18606204 4657.91921513
0.01700000 1657745.80213083 5818.68802650
0.01800000 1654748.93307041 6602.44854005
0.01900000 1651587.44467296 6441.19132487
0.02000000 1648262.34256433 7788.03992091
0.02100000 1644776.13882749 5970.53765464
0.02200000 1641127.62117036 7926.64677038
0.02300000 1637319.89521391 8252.09264750
0.02400000 1633353.54944241 7962.59891661
0.02500000 1629231.02980814 10801.80222095
0.02600000 1624952.66669042 7897.27032132
0.02700000 1620520.36599224 7486.80443379
0.02800000 1615934.78258621 9138.11161460
0.02900000 1611199.12136639 9425.51529276
0.03000000 1606314.04677885 8216.29672694
0.03100000 1601281.35808535 9991.99613422
0.03200000 1596102.04206203 7900.70547210
0.03300000 1590780.60830476 9735.57777164
0.03400000 1585315.22695682 15813.52011854
0.03500000 1579710.15002611 8530.43520406
0.03600000 1573965.90825422 8735.51119451
0.03700000 1568085.71520566 13407.13348506
0.03800000 1562071.10902126 13707.17461602
0.03900000 1555924.44153365 13069.76591414
0.04000000 1549645.99230820 12389.42028262
0.04100000 1543239.83064343 9722.41138385
0.04200000 1536707.60977889 12885.29390578
0.04300000 1530051.00531776 12118.00452461
0.04400000 1523272.72006130 16451.34614069
0.04500000 1516375.45762067 11509.29025812
0.04600000 1509359.77856222 14897.38170694
0.04700000 1502229.64782161 12979.26476082
0.04800000 1494986.67851408 12086.96785817
0.04900000 1487633.56242690 13388.70268505
0.05000000 1480172.14621227 16984.97616871
0.05100000 1472606.35711743 16080.86216883
0.05200000 1464935.29805212 17469.35424337
0.05300000 1457164.64216814 15343.94439733
0.05400000 1449295.25847686 15543.69237203
0.05500000 1441330.88648884 12107.18001130
0.05600000 1433272.09564960 17156.26778551
0.05700000 1425124.27062284 13638.43990648
0.05800000 1416886.41777362 17555.22353591
0.05900000 1408562.91760921 15212.48022069
0.06000000 1400157.12779135 17936.01364496
0.06100000 1391670.50156335 15531.04352323
0.06200000 1383106.03750113 13070.35266534
0.06300000 1374467.20652127 15833.86295944
0.06400000 1365752.88191027 18642.52770992
0.06500000 1356969.86671630 18807.60323247
0.06600000 1348119.38761607 13548.60047946
0.06700000 1339202.79013744 19123.81673814
0.06800000 1330224.03110880 15144.60130308
0.06900000 1321187.11141434 18034.20491515
0.07000000 1312091.01303833 18165.90092620
0.07100000 1302940.67203089 18293.28789213
0.07200000 1293737.93873615 15583.07420209
0.07300000 1284486.42568305 24238.25998834
0.07400000 1275188.63304836 14345.87279410
0.07500000 1265845.56574234 15873.70413845
0.07600000 1256460.17775485 14512.11573341
0.07700000 1247036.74989396 26262.59518418
0.07800000 1237576.15815627 17598.33379428
0.07900000 1228080.29831410 17684.35712519
0.08000000 1218554.75550862 23688.70555835
0.08100000 1208999.94750435 20818.98007281
0.08200000 1199417.73775032 25385.67761071
0.08300000 1189810.95803611 19489.10440729
0.08400000 1180183.25679911 15047.33723049
0.08500000 1170536.21455790 22649.87681500
0.08600000 1160872.50192420 15149.38686140
0.08700000 1151194.15134199 16715.33986240
0.08800000 1141503.03806548 18286.87952863
0.08900000 1131802.84110002 21391.07470152
0.09000000 1122095.45884624 22974.90559913
0.09100000 1112382.50843296 18421.05520509
0.09200000 1102666.42234959 16920.41704599
0.09300000 1092951.05267440 16951.67162358
0.09400000 1083235.22981041 18523.32330031
0.09500000 1073523.72112986 18550.49077305
0.09600000 1063817.64960523 20122.11178818
0.09700000 1054121.87218830 26342.50682442
0.09800000 1044435.32302573 17060.85180379
0.09900000 1034762.04266467 18625.71764379
0.10000000 1025101.05804098 17083.30993563
0.10100000 1015456.87210636 15536.49087394
0.10200000 1005831.42201273 18648.11544125
0.10300000 996225.39957846 17095.22866094
0.10400000 986642.41874360 18647.54259153
0.10500000 977084.74119969 23303.47217403
0.10600001 967549.51712312 23293.75572079
0.10700001 958044.66144510 17072.35667034
0.10800001 948567.27116655 17059.98317480
0.10900001 939122.04624400 20144.16884003
0.11000001 929709.68872523 20123.56715966
0.11100001 920330.98591648 21646.18580771
0.11200001 910989.08701262 16985.39232697
0.11300001 901683.93545905 16960.67562451
0.11400001 892418.40155663 20012.48359718
0.11500001 883193.94413657 26124.87809773
0.11600001 874011.36586386 18406.68023189
0.11700001 864872.54146502 15308.24470487
0.11800001 855777.61267369 16803.19421625
0.11900001 846728.66084295 18289.33993567
0.12000001 837726.95593082 16725.21946300
0.12100001 828775.52771273 16683.25215877
0.12200001 819873.33139342 19664.66277990
0.12300001 811022.62871252 21119.03024668
0.12400001 802223.71685541 22562.54309965
0.12500001 793477.56921170 16496.39944123
0.12600001 784787.22482232 16445.21707111
0.12700001 776151.84047040 16392.32764325
0.12800001 767572.67466636 20793.54473670
0.12900001 759051.01460568 17761.79457892
0.13000001 750587.79538890 19173.76613696
0.13100001 742182.77874951 19103.78562552
0.13200001 733837.94051019 17568.08112398
0.13300001 725554.84905076 14583.65315344
0.13400001 717332.00041970 21788.96054000
0.13500001 709172.36056813 17360.54020523
0.13600001 701074.59256780 18729.20862355
0.13700001 693041.08989517 18649.73660848
0.13800001 685070.29420698 14283.71630777
0.13900001 677165.42620900 14220.47462100
0.14000001 669325.40681502 15571.85632393
0.14100001 661550.80210017 21136.54912396
0.14200001 653841.85035477 18232.38085708
0.14300001 646200.68896820 20936.90331011
0.14400001 638623.90292937 16668.08465269
0.14500001 631116.18515209 16585.73412818
0.14600001 623675.22933277 15127.24340108
0.14700001 616303.91965550 16418.33719418
0.14800001 608997.58640692 13611.09669835
0.14900001 601760.90850168 21663.39372816
0.15000001 594592.08113351 17507.76465504
0.15100001 587492.13034315 17413.26756502
0.15200001 580461.12113325 17318.05836620
0.15300001 573499.90178138 15897.41802756
0.15400001 566604.81133729 21077.69997643
0.15500001 559780.26103889 13098.85872648
0.15600001 553022.30460687 16930.77865459
0.15700001 546336.49615566 15537.81068400
0.15800001 539715.62742775 12872.21832170
0.15900001 533165.71964956 12795.97787557
0.16000001 526682.09026608 17807.12231244
0.16100001 520269.86612239 13906.81417791
0.16200001 513924.38136810 13821.99688938
0.16300001 507646.58604350 14985.72792745
0.16400001 501436.95550572 18615.84785200
0.16500001 495294.35796916 16032.67912439
0.16600001 489220.02967258 14705.95478627
0.16700001 483211.13505848 13394.61329624
0.16800001 477268.61198863 14518.51186221
0.16900001 471394.71275451 13222.62231711
0.17000001 465585.08811089 19107.61291833
0.17100001 459841.20996264 14236.68453272
0.17200001 454163.26075702 18856.85947711
0.17300001 448550.12171398 14048.59047552
0.17400001 443001.60331216 18606.06821780
0.17500001 437516.92121171 13860.53671859
0.17600001 432094.60390671 13766.53473065
0.17700001 426737.40468674 15951.44494059
0.17800001 421440.91409386 15841.96470904
0.17900001 416207.90378109 12361.37532617
0.18000001 411036.18664897 12275.59629411
0.18100001 405927.57057877 13298.18784032
0.18200001 400876.71442357 14305.28622996
0.18300001 395887.43692884 13111.79253048
0.18400001 390957.18433510 11933.96861560
0.18500001 386087.64642392 14003.39959735
0.18600001 381274.71634792 19250.56133787
0.18700001 376519.84559919 16988.57623606
0.18800001 371822.21372845 11595.27628295
0.18900001 367183.28210344 11511.19643782
0.19000001 362596.36204115 14543.74076864
0.19100001 358069.93724222 14437.38055177
0.19200001 353594.90345899 10236.57293883
0.19300001 349176.79389712 10161.04518254
0.19400001 344810.34909705 15128.55478152
0.19500001 340498.14816751 15015.96904377
0.19600001 336238.07961653 16890.92072774
0.19700001 332029.85832863 13805.80216173
0.19800001 327873.24236793 12723.12177137
0.19900001 323767.56498718 12626.93563125
0.20000001 319710.62498158 9639.27579876
0.20100001 315704.60405069 13392.18993678
0.20200001 311745.92825298 14238.99594594
0.20300001 307836.86847454 12245.75120671
0.20400001 303974.75297673 10281.94650542
0.20500001 300159.25568011 15767.36644615
0.20600001 296390.31198827 11963.79550891
0.20700001 292667.29361684 10044.34199172
0.20800001 288988.13356325 11777.71194010
0.20900001 285356.08188805 10786.46040526
0.21000001 281765.53935233 9809.66771628
0.21100001 278218.99834110 10616.83747859
0.21200001 274714.80338616 9654.85222143
0.21300001 271251.71756914 11319.33470929
0.21400001 267831.31251144 13820.09637896
0.21500001 264452.53328789 8568.26248361
0.21600001 261112.94003047 8499.22659982
0.21700001 257813.42725685 8430.49946989
0.21800001 254552.90226560 10034.47588175
0.21900001 251330.13002771 10782.06308798
0.22000001 248145.18195775 10693.81712210
0.22100001 244999.18025328 10606.01501465
0.22200001 241890.15460348 8091.22605408
0.22300001 238815.97898947 14443.59109225
0.22400001 235777.33929128 9548.98269283
0.22500001 232776.20510010 10258.44784386
0.22600001 229807.68205481 9389.94233279
0.22700001 226875.77393592 7759.15183553
0.22800001 223975.94559120 9232.28891386
0.22900001 221108.88449224 7628.25687573
0.23000001 218275.70176314 10588.55479328
0.23100001 215475.40417802 10497.96218803
0.23200001 212705.16479701 10407.66420573
0.23300001 209967.04219497 8106.82788256
0.23400001 207260.65885107 9497.72014105
0.23500001 204582.57712902 7966.44593019
0.23600001 201936.55782488 10050.38295830
0.23700001 199319.21594120 7115.69634566
0.23800001 196731.08814205 7758.09082783
0.23900001 194171.49403529 8388.20893908
0.24000001 191640.16180835 11084.46748329
0.24100001 189137.84459119 6865.70408342
0.24200001 186662.40220740 10205.76732344
0.24300001 184214.47137054 7416.47496820
0.24400001 181792.78161507 8017.06204846
0.24500001 179397.53613533 6619.76939654
0.24600001 177028.83483933 6558.91864107
0.24700001 174685.85226998 7148.14541304
0.24800001 172368.25327380 7725.54547720
0.24900001 170074.85046760 9566.71079138
0.25000001 167807.12516040 9476.90784177
0.25100001 165562.64549615 10013.22927332
0.25200001 163344.30912276 7438.70018937
0.25300001 161149.15212000 7981.71788212
0.25400001 158977.22595522 6688.96709853
0.25500001 156828.22484922 7828.86535487
0.25600001 154702.68815435 7156.54669262
0.25700001 152599.21703695 5905.58997874
0.25800001 150519.08519395 7017.20008375
0.25900001 148460.97838491 6947.97411716
0.26000001 146424.71987394 6305.78085973
0.26100001 144409.60738107 8512.94675791
0.26200001 142416.95301149 6180.18396836
0.26300001 140444.55599535 6673.92561669
0.26400001 138493.80604879 6055.64195603
0.26500001 136564.17456554 5993.80190530
0.26600001 134654.12608399 5392.89800485
0.26700001 132765.62294913 6404.61395413
0.26800001 130897.47000294 6866.22711392
0.26900001 129048.28287925 5749.10127433
0.27000001 127219.86444538 6205.78528132
0.27100001 125410.63914580 5116.75431929
0.27200001 123622.40520917 6074.80527946
0.27300001 121852.33408437 6009.75740145
0.27400001 120099.75776199 6440.34981477
0.27500001 118369.05024653 7840.76625940
0.27600001 116654.78614013 6785.80923092
0.27700001 114961.22332087 5273.27156329
0.27800001 113285.09255734 6637.37388706
0.27900001 111628.45274742 7032.59285592
0.28000001 109988.72580220 4636.02501198
0.28100001 108367.95082458 4583.96453683
0.28200001 106765.76455824 5891.86899601
0.28300001 105180.95499265 6721.06334214
0.28400001 103613.84751075 5758.33984796
0.28500001 102064.79915418 5692.15411825
0.28600001 100533.14585465 5626.33777406
0.28700001 99018.86380307  4705.37663064
0.28800001 97521.34907414  5918.57095545
0.28900001 96042.82996492  5431.22229160
0.29000001 94579.80817578  4541.24970452
0.29100001 93134.99065500  4895.17534054
0.29200001 91706.54297695  5642.70385647
0.29300001 90295.35791813  4380.22801995
0.29400001 88900.13525176  6687.51299088
0.29500001 87522.70493545  5051.81076801
0.29600001 86161.06003827  4606.17048769
0.29700001 84816.09670665  4549.53564271
0.29800001 83487.23462890  4493.28318043
0.29900001 82175.59280227  5177.06259162
0.30000001 80879.16157682  4382.03318168
0.30100001 79599.88531488  4687.63746811
0.30200001 78335.25424792  4984.47246376
0.30300001 77087.88211012  3866.72834970
0.30400001 75856.09427247  4511.54142044
0.30500001 74640.11815078  4453.77606091
0.30600001 73438.81850330  5072.78662828
0.30700001 72254.40565183  3338.15369915
0.30800001 71085.17707286  3953.75773598
0.30900001 69931.31326813  3251.80622092
0.31000001 68793.27074189  3209.20623205
0.31100001 67669.44223208  3483.62305104
0.31200001 66561.66892132  4062.59165496
0.31300001 65468.57787660  4008.64121318
0.31400001 64391.64848119  3651.00664175
0.31500001 63328.51383625  3301.94886776
0.31600002 62280.79461725  3553.74230912
0.31700002 61247.68158687  3213.66600502
0.31800002 60229.43538343  3746.57220542
0.31900002 59226.01527359  3979.98841483
0.32000002 58237.31497081  2804.12684862
0.32100002 57262.29568921  3595.49971657
0.32200002 56303.06132823  3273.46014062
0.32300002 55356.02241866  3228.36338032
0.32400002 54424.40432643  3183.82780385
0.32500002 53506.68690120  2878.12482470
0.32600002 52603.41606807  2838.21744835
0.32700002 51713.31042784  3053.15399223
0.32800002 50837.88500877  2759.73471838
0.32900002 49975.50567356  3215.92394238
0.33000002 49127.87523205  2683.11903285
0.33100002 48291.30870902  3126.37947387
0.33200002 47471.07323461  2845.41626443
0.33300002 46662.89628775  3272.93570061
0.33400002 45868.43953838  2535.37811555
0.33500002 45086.09399505  3635.74279193
0.33600002 44318.06361970  2912.36168869
0.33700002 43561.79835775  3092.01659386
0.33800002 42819.63036719  2395.11613801
0.33900002 42088.94437827  2146.53626495
0.34000002 41371.64532304  2962.62366189
0.34100002 40666.65074325  2712.05906651
0.34200002 39974.78230047  2262.37291144
0.34300002 39293.93886897  2635.83754416
0.34400002 38626.91273762  2598.62567749
0.34500002 37970.76530478  2167.75109392
0.34600002 37327.80742145  2525.78620880
0.34700002 36695.04428154  3064.77024354
0.34800002 36075.68556612  2455.13089748
0.34900002 35467.15979088  3165.44416126
0.35000002 34870.43363017  2019.52125934
0.35100002 34285.60470962  1991.30801585
0.35200002 33710.85998384  1963.48913276
0.35300002 33147.84647822  1936.16580450
0.35400002 32596.28317984  1909.32737769
0.35500002 32055.81939504  2567.67125516
0.35600002 31525.14641748  2869.89184005
0.35700002 31005.69653673  1831.50658117
0.35800002 30497.42686408  1970.74381730
0.35900002 29999.36858960  2105.95577474
0.36000002 29512.08831452  1757.88762372
0.36100002 29034.07557889  1576.55037861
0.36200002 28567.55629830  1711.05386553
0.36300002 28109.84686328  2148.71679601
0.36400002 27662.19974020  1665.95605827
0.36500002 27224.10128581  1494.60323139
0.36600002 26796.18453326  1917.66903696
0.36700002 26377.19663164  2038.42985225
0.36800002 25968.93566749  2012.33292020
0.36900002 25568.99695493  2128.61909733
0.37000002 25177.88736068  1541.26444779
0.37100002 24795.82633992  1937.05004543
0.37200002 24423.41936759  1503.13941618
0.37300002 24059.11546675  1619.65972995
0.37400002 23703.56516338  1466.65816396
0.37500002 23357.03091554  1580.80392725
0.37600002 23018.86237817  1822.40342081
0.37700002 22688.52405299  1801.01512464
0.37800002 22366.47316671  1271.53405976
0.37900002 22053.00873619  1634.12802476
0.38000002 21747.22065674  1491.42446329
0.38100002 21448.35480817  1474.78894647
0.38200002 21158.19631470  1580.19996662
0.38300002 20874.91936083  1563.11403579
0.38400002 20600.03089793  1784.47776107
0.38500002 20331.10908548  1765.75690773
0.38600002 20070.84181300  1514.64614917
0.38700002 19816.55941031  1153.32381232
0.38800002 19569.67373860  1141.89051674
0.38900002 19329.04917849  1130.74943051
0.39000002 19096.29903607  1231.99779068
0.39100002 18869.01510893  1220.44795507
0.39200002 18648.86164974  1099.35044634
0.39300002 18434.68959185  1198.43922714
0.39400002 18228.09711352  1836.02516874
0.39500002 18026.52860936  1392.00860516
0.39600002 17831.02820023  1380.38911352
0.39700002 17641.51504904  1263.83819799
0.39800002 17457.85996172  1253.82356186
0.39900002 17279.79899527  1244.14558661
0.40000002 17107.32388865  1131.90613872
0.40100002 16940.52745763  1736.57355196
0.40200002 16779.37368258  1521.46978075
0.40300002 16622.73098797  1712.47382752
0.40400002 16471.84227551  1000.66446565
0.40500002 16326.01668447  1093.67990951
0.40600002 16185.15483194  1185.72449917
0.40700002 16049.03236587  1375.08115826
0.40800002 15917.85375120  1660.15263564
0.40900002 15791.03619820  1165.37852664
0.41000002 15669.29335419  1062.61317916
0.41100002 15551.65776691  1345.52949375
0.41200002 15438.11899411  1243.30897210
0.41300002 15329.64952469  1523.15404894
0.41400002 15224.85824986  1516.39595354
0.41500002 15124.31572429  1038.13308051
0.41600002 15027.19805421  1409.92692424
0.41700002 14934.53518066  1217.31402026
0.41800002 14846.33437819  1119.71059186
0.41900002 14760.05381052  1115.86012095
0.42000002 14678.81670977  1019.66405106
0.42100002 14601.07843597  924.24830879
0.42200002 14526.97796470  1382.60519331
0.42300002 14455.57727728  1195.18718592
0.42400002 14387.53303957  1192.36685716
0.42500002 14323.09229065  1006.77020482
0.42600002 14260.98428643  913.41608683
0.42700002 14203.05151246  1185.38673540
0.42800002 14147.25017684  1092.45071042
0.42900002 14095.47167134  1000.07376247
0.43000002 14045.91647600  1089.68225184
0.43100002 13998.25917189  1360.63085598
0.43200002 13954.34610681  1178.23526936
0.43300002 13912.81877039  1177.44190833
0.43400002 13873.89263668  1086.32584493
0.43500002 13837.10034285  995.44104584
0.43600002 13803.19991935  995.27977735
0.43700002 13770.97378159  904.75302033
0.43800002 13741.02211633  1266.78488894
0.43900002 13714.00389171  1448.19887959
0.44000002 13688.51390776  905.49523791
0.44100002 13665.56153424  1630.84819078
0.44200002 13644.31670741  1269.33084344
0.44300002 13625.10778758  1270.40511032
0.44400002 13608.25127264  999.18589705
0.44500002 13591.85290753  1454.87200417
0.44600002 13577.67923207  1365.57515348
0.44700002 13566.32862751  1002.82305967
0.44800002 13555.04997400  1551.98552032
0.44900002 13546.85273324  1188.73638368
0.45000002 13539.76268346  1282.35098452
0.45100002 13533.82218316  1284.63046251
0.45200002 13529.53660476  1011.26526145
0.45300002 13526.27999668  1013.25368257
0.45400002 13524.76318005  1107.67815694
0.45500002 13524.57961152  1110.09754712
0.45600002 13525.44811366  1019.88646335
0.45700002 13527.58004604  1115.21375185
0.45800002 13530.40888359  1397.35304368
0.45900002 13534.54223661  1214.04849616
0.46000002 13540.45420535  1217.21918848
0.46100002 13546.18471372  1126.50077418
0.46200002 13553.91108985  1317.84683773
0.46300002 13562.34279407  1227.12083417
0.46400002 13571.04559426  946.58047506
0.46500002 13581.15979266  1044.25542595
0.46600002 13591.79776114  1047.31602612
0.46700002 13602.91153504  1145.90932202
0.46800002 13615.76701623  1341.01695699
0.46900002 13628.16366667  1152.94270085
0.47000002 13641.67716243  1156.54144465
0.47100002 13655.72573000  1546.92068401
0.47200002 13670.70961323  1260.91796094
0.47300002 13686.19370732  1265.01494433
0.47400002 13701.47896959  1171.47650743
0.47500002 13717.67971490  1077.38661587
0.47600002 13734.92884321  1081.00762584
0.47700002 13751.53776038  1577.57648665
