# SAXS profile: number of points = 501, q_min = 0, q_max = 0.5, delta_q = 0.001
#    q    intensity    error
0.00000000 1682732.95097188 277.65093691
0.00100000 1682645.65455686 504.79370836
0.00200000 1682383.72317882 984.19450922
0.00300000 1681947.39262236 1110.08531868
0.00400000 1681336.51157100 1513.20291791
0.00500000 1680551.75972658 2117.49530107
0.00600000 1679592.96473943 1763.57268478
0.00700000 1678460.90249300 2215.56848337
0.00800000 1677155.32805749 2943.40772501
0.00900000 1675677.64669906 3016.21989299
0.01000000 1674027.30208156 3314.57420124
0.01100000 1672205.95870527 5116.95045643
0.01200000 1670213.23917390 4559.68234286
0.01300000 1668050.77964036 3853.19747091
0.01400000 1665718.59231732 4497.44039863
0.01500000 1663218.36864814 4390.89668875
0.01600000 1660549.63936263 6351.60265450
0.01700000 1657714.72854150 5370.99596141
0.01800000 1654714.14153701 5659.12261870
0.01900000 1651548.69468782 5450.11093839
0.02000000 1648219.44237518 6230.26977401
0.02100000 1644728.87701080 5427.60554022
0.02200000 1641075.78179474 6794.05404530
0.02300000 1637263.29922329 7662.39258914
0.02400000 1633292.06790529 7349.81464071
0.02500000 1629164.26156895 7624.48909236
0.02600000 1624880.60699998 6580.76675934
0.02700000 1620442.66723398 8167.03141692
0.02800000 1615851.39311200 7028.95388238
0.02900000 1611109.77864670 10874.99150518
0.03000000 1606218.56331285 8215.80832899
0.03100000 1601179.55610118 9222.79466751
0.03200000 1595993.70115259 8690.18610303
0.03300000 1590665.45144107 11357.35184687
0.03400000 1585193.14888982 12483.39662350
0.03500000 1579581.02335287 12794.60687999
0.03600000 1573829.52053259 10481.70509115
0.03700000 1567941.85802633 10724.72280489
0.03800000 1561919.61938394 9137.23019626
0.03900000 1555765.12580051 12134.96854321
0.04000000 1549478.70923129 10482.22395369
0.04100000 1543064.35299083 12637.69763696
0.04200000 1536523.86927850 12883.75324161
0.04300000 1529858.77886761 13126.18893197
0.04400000 1523071.72689628 13364.95502421
0.04500000 1516165.64458472 11507.69777710
0.04600000 1509140.96515326 12767.33315871
0.04700000 1502001.73596620 14058.73690249
0.04800000 1494749.36092028 13183.68997673
0.04900000 1487386.84173161 13386.48219869
0.05000000 1479915.74757642 12453.49159577
0.05100000 1472340.19047999 11484.25402073
0.05200000 1464659.21774079 16301.65785313
0.05300000 1456878.55570202 17701.07527697
0.05400000 1448998.86216825 17931.36175554
0.05500000 1441024.16340008 14525.52424468
0.05600000 1432954.73861050 13476.93994552
0.05700000 1424796.33598038 18593.59305247
0.05800000 1416547.77017748 17551.02769200
0.05900000 1408213.32278756 13941.31254674
0.06000000 1399796.53187617 12808.13886505
0.06100000 1391298.78598323 12939.07931430
0.06200000 1382723.03010478 14373.40656980
0.06300000 1374072.68876585 13191.09842891
0.06400000 1365346.90153606 17305.77278630
0.06500000 1356552.31197027 17458.82907174
0.06600000 1347690.09091940 16253.14325695
0.06700000 1338761.72861542 17751.98135221
0.06800000 1329770.93031506 19268.38168220
0.06900000 1320721.95579995 22188.12989626
0.07000000 1311613.72010697 23746.76751456
0.07100000 1302451.26150740 19693.06399637
0.07200000 1293236.20476348 18409.21823722
0.07300000 1283972.10248455 14252.09100537
0.07400000 1274661.84203899 15773.94103446
0.07500000 1265306.09517029 15866.93917716
0.07600000 1255908.14187943 17406.88766249
0.07700000 1246471.87676154 17500.46597030
0.07800000 1236998.61354114 16124.27768368
0.07900000 1227489.78512170 16202.86592358
0.08000000 1217951.28529746 19237.54145373
0.08100000 1208383.46107639 16349.42899545
0.08200000 1198788.05164322 17909.89433197
0.08300000 1189168.18593053 17980.22381512
0.08400000 1179527.30472422 16542.87122526
0.08500000 1169867.12064830 16600.41522131
0.08600000 1160190.00068513 16654.52824179
0.08700000 1150498.43252780 19742.55402924
0.08800000 1140793.88320352 25890.31839521
0.08900000 1131080.26017480 18323.50107548
0.09000000 1121359.43070448 16837.21264296
0.09100000 1111632.98660372 16874.58952943
0.09200000 1101903.35823357 16908.70782658
0.09300000 1092174.44411449 16939.62642425
0.09400000 1082444.99532581 21594.77867165
0.09500000 1072719.92061427 20081.31785777
0.09600000 1063000.31572601 21653.31744921
0.09700000 1053290.97614901 15483.37807731
0.09800000 1043590.72056095 24795.71668637
0.09900000 1033903.83415191 20161.12571399
0.10000000 1024229.40252296 20172.19903133
0.10100000 1014571.55135455 21732.12365212
0.10200000 1004932.32620102 21736.68723814
0.10300000 995312.96294107 21737.63613319
0.10400000 985716.09333118 18630.03504041
0.10500000 976144.97238042 21728.98810752
0.10600001 966596.24337617 17065.25747979
0.10700001 957077.94023577 27908.39405058
0.10800001 947586.91832592 24788.87495001
0.10900001 938128.27373156 17027.02896962
0.11000001 928702.40312578 17009.18531386
0.11100001 919310.28688965 27799.94438418
0.11200001 909955.14947960 15423.74050978
0.11300001 900636.59732780 21561.24115515
0.11400001 891357.85689132 19988.70088194
0.11500001 882119.95675070 19953.55436127
0.11600001 872924.36674386 15319.82335779
0.11700001 863772.51567492 21404.28394646
0.11800001 854664.50135506 16781.33827448
0.11900001 845602.54755188 19787.10054472
0.12000001 836587.89307385 18220.88516944
0.12100001 827623.38866574 15145.50872606
0.12200001 818708.47506944 16615.68928432
0.12300001 809845.08500158 21088.36700701
0.12400001 801033.45238549 15019.37793990
0.12500001 792274.78376795 17968.79294256
0.12600001 783572.15580730 17912.46032585
0.12700001 774924.22166490 17854.25490857
0.12800001 766332.66097291 16311.39145755
0.12900001 757798.99946638 25121.03801632
0.13000001 749323.57805325 14724.20900277
0.13100001 740906.64400013 16136.94746698
0.13200001 732549.72969670 20460.11491493
0.13300001 724254.82158285 21836.28390015
0.13400001 716020.08692564 15949.34818821
0.13500001 707848.96608415 20216.16742452
0.13600001 699739.73661118 14379.65226537
0.13700001 691694.84286107 14318.08392237
0.13800001 683712.69264306 18532.03340798
0.13900001 675796.87333683 17030.08201120
0.14000001 667945.59282665 19777.86993633
0.14100001 660160.10068560 18279.83405012
0.14200001 652440.37988583 23791.23957466
0.14300001 644788.62479768 20891.15242883
0.14400001 637201.10843054 20788.68714315
0.14500001 629683.04752315 15169.06533039
0.14600001 622231.94767673 19208.30113092
0.14700001 614850.67208041 15014.65412054
0.14800001 607534.24069476 16294.06910417
0.14900001 600287.77649416 17558.41829087
0.15000001 593109.28352244 16120.71108676
0.15100001 585999.74701715 18705.11280739
0.15200001 578959.40195394 15944.54268219
0.15300001 571988.92736808 21140.71175313
0.15400001 565084.84034249 19707.33473695
0.15500001 558251.46374596 16982.01032858
0.15600001 551484.57509540 15584.95482773
0.15700001 544790.26078425 18076.14170596
0.15800001 538160.97667759 15402.16787948
0.15900001 531602.79441986 17861.85473560
0.16000001 525111.06880956 19022.14936552
0.16100001 518690.87917691 17645.86454256
0.16200001 512337.58104831 17537.31622715
0.16300001 506052.13144053 16183.54792746
0.16400001 499835.11765952 18556.37961915
0.16500001 493685.33952995 14751.31864158
0.16600001 487603.87230086 13435.92533560
0.16700001 481588.09633895 13349.62266081
0.16800001 475638.82040769 16880.42253330
0.16900001 469758.29291157 20364.02295927
0.17000001 463942.29589379 11900.12045160
0.17100001 458192.26495479 17732.04149108
0.17200001 452508.31712767 12916.85052238
0.17300001 446889.39814024 17495.72076342
0.17400001 441335.19309526 12743.55430245
0.17500001 435845.12767059 16108.83667949
0.17600001 430417.55504729 11427.58662622
0.17700001 425055.25685198 13618.77107276
0.17800001 419754.00272178 12397.43505594
0.17900001 414516.23027094 11191.93874595
0.18000001 409340.11529880 11113.58465531
0.18100001 404227.13786029 12138.94152335
0.18200001 399172.26398318 15340.19082951
0.18300001 394179.02067568 10879.34148458
0.18400001 389245.02071969 12961.85980229
0.18500001 384371.89954725 11796.37415439
0.18600001 379555.73434180 14905.15439177
0.18700001 374797.65955507 13740.08284844
0.18800001 370097.26259563 11541.48367934
0.18900001 365455.47403393 11457.02965228
0.19000001 360866.09354517 11372.69547542
0.19100001 356337.25937677 14367.51897694
0.19200001 351860.06943238 14260.88928794
0.19300001 347440.20322390 11121.56143072
0.19400001 343071.86561643 13045.30830651
0.19500001 338758.18369165 13943.28749964
0.19600001 334496.75465410 13838.13139398
0.19700001 330287.49144333 12752.40064727
0.19800001 326129.83884959 12655.46899464
0.19900001 322023.50376419 13524.98779729
0.20000001 317965.89150041 10545.33929000
0.20100001 313959.67618928 13318.17009340
0.20200001 310000.67653051 11327.42525580
0.20300001 306091.85490093 9366.41120267
0.20400001 302229.74688056 13940.34773377
0.20500001 298414.83592309 11065.22263905
0.20600001 294646.53748550 9148.77542137
0.20700001 290924.44097322 9984.52728616
0.20800001 287246.33743388 12607.24234592
0.20900001 283615.18671334 11614.04244492
0.21000001 280026.20702588 9749.11285847
0.21100001 276481.35497118 11429.73975483
0.21200001 272978.89608614 9593.84375649
0.21300001 269517.85421326 10381.82823510
0.21400001 266099.76388193 11156.23312818
0.21500001 262723.35704014 10214.68460465
0.21600001 259386.32572448 9287.32783166
0.21700001 256089.42812349 8374.12469556
0.21800001 252832.00844815 11627.74461830
0.21900001 249612.30536866 9884.64775996
0.22000001 246430.64003789 12253.76415527
0.22100001 243288.17575633 11342.09529005
0.22200001 240182.91773613 8034.11897816
0.22300001 237112.61914088 11950.47656978
0.22400001 234077.81956820 11850.19017599
0.22500001 231081.09906966 10967.10948045
0.22600001 228117.10752583 9320.86545427
0.22700001 225189.67963181 10011.93362989
0.22800001 222294.60787148 10690.14819808
0.22900001 219432.43387512 8327.46125937
0.23000001 216604.39629003 8255.87695503
0.23100001 213809.42163252 8928.68186964
0.23200001 211044.59801472 8113.60995440
0.23300001 208312.17072380 8042.93329203
0.23400001 205611.55905564 9422.15013935
0.23500001 202939.49579463 12212.89943454
0.23600001 200299.53083899 10680.97298717
0.23700001 197688.47236813 8468.97455682
0.23800001 195106.91082505 11191.33293426
0.23900001 192553.84538498 7625.13263791
0.24000001 190029.24332254 9617.38045946
0.24100001 187533.94637979 8168.97909071
0.24200001 185065.37945373 7420.19674019
0.24300001 182624.82608488 8020.88274106
0.24400001 180210.48358981 8609.55626077
0.24500001 177822.69062754 6561.65759455
0.24600001 175461.81411592 8451.11867667
0.24700001 173126.62344043 7084.34176631
0.24800001 170816.81805458 8932.01183862
0.24900001 168531.53345373 7583.91936419
0.25000001 166272.05645633 6260.14322174
0.25100001 164036.01865181 9920.89887741
0.25200001 161826.00944832 7369.55681893
0.25300001 159639.51134116 7906.94537081
0.25400001 157476.38579919 6023.47204180
0.25500001 155336.24833518 6561.40344011
0.25600001 153219.74576483 7087.94577443
0.25700001 151125.35689732 8187.97222410
0.25800001 149054.54051590 7527.99992494
0.25900001 147005.75552199 5733.22473662
0.26000001 144978.91118016 6811.10956951
0.26100001 142973.40101288 8990.16788107
0.26200001 140990.37015777 6118.27740249
0.26300001 139027.92309912 7157.15781980
0.26400001 137087.03062496 5994.13069771
0.26500001 135167.36700799 9168.40293799
0.26600001 133267.43845072 6404.83339502
0.26700001 131389.15037697 6866.39732362
0.26800001 129531.34542624 7317.22604939
0.26900001 127692.52245248 5688.70214446
0.27000001 125874.53896175 5628.48027603
0.27100001 124075.84746101 6580.98326076
0.27200001 122298.23245014 5008.11285583
0.27300001 120538.92405874 4954.15001327
0.27400001 118797.08824244 6860.53217067
0.27500001 117077.33949832 7270.50312693
0.27600001 115374.16637758 6231.93589182
0.27700001 113691.50058367 5689.12295845
0.27800001 112026.41752422 4688.30579527
0.27900001 110381.05962098 6026.80614054
0.28000001 108752.53906800 5959.09566027
0.28100001 107143.01377866 4532.14969734
0.28200001 105552.21908561 5824.89948593
0.28300001 103978.89742768 4872.45136408
0.28400001 102423.25532293 5692.17268399
0.28500001 100885.72109981 4760.79740404
0.28600001 99365.60788859  5988.76547091
0.28700001 97863.02171294  5495.98755954
0.28800001 96377.17365489  6266.92601354
0.28900001 94910.32900049  6605.75921111
0.29000001 93459.05429070  4487.43670418
0.29100001 92025.96700102  6852.25382725
0.29200001 90609.40682838  4778.74034233
0.29300001 89209.98641626  7474.90511565
0.29400001 87826.69401589  4274.96453359
0.29500001 86461.16880198  4990.53889949
0.29600001 85111.43488062  5308.40044479
0.29700001 83778.41514113  4493.87440090
0.29800001 82461.49653464  4807.91778305
0.29900001 81161.73572329  3652.27828044
0.30000001 79877.39929804  3967.11122394
0.30100001 78610.16018214  3561.04042483
0.30200001 77357.52321544  3867.48955625
0.30300001 76122.11084396  4165.40210258
0.30400001 74902.50231134  3769.46860727
0.30500001 73698.48721165  4059.31286779
0.30600001 72509.24745859  4674.67140497
0.30700001 71336.80318773  3625.33650964
0.30800001 70179.53842570  4553.95046404
0.30900001 69037.73332464  3531.28022674
0.31000001 67911.59529321  4118.49889155
0.31100001 66799.80994423  3438.85437874
0.31200001 65704.04731482  3393.28568423
0.31300001 64622.76096214  3043.73218543
0.31400001 63557.81295435  3904.03884556
0.31500001 62506.66528361  4444.22411209
0.31600002 61470.80654796  4092.11178565
0.31700002 60449.58857108  2883.44551137
0.31800002 59443.12193114  3128.78887099
0.31900002 58451.37253007  4489.06562286
0.32000002 57474.48909200  4427.83484930
0.32100002 56511.25908152  2729.49394288
0.32200002 55563.62999816  2961.26380097
0.32300002 54628.39633827  3185.92822530
0.32400002 53708.22010018  4189.24136618
0.32500002 52801.99599700  3356.62304447
0.32600002 51910.24223794  3819.29625351
0.32700002 51031.65300028  3263.98468046
0.32800002 50167.57209817  2475.76980028
0.32900002 49316.60165222  2929.40627686
0.33000002 48480.31738734  2407.04787226
0.33100002 47654.91252774  3322.50065877
0.33200002 46846.01078139  2807.95001921
0.33300002 46048.93662408  2537.75701753
0.33400002 45265.58888332  2956.97473383
0.33500002 44494.17993139  3139.50948463
0.33600002 43737.15266795  2874.18712369
0.33700002 42991.72050535  2397.64836613
0.33800002 42260.27764095  2578.72226377
0.33900002 41540.38049794  2330.41545630
0.34000002 40833.68578156  2506.37175197
0.34100002 40139.34113929  2470.97795756
0.34200002 39457.97466410  2436.13547113
0.34300002 38787.52400844  2401.72360035
0.34400002 38130.78991254  2565.24901286
0.34500002 37485.00694158  2529.11353813
0.34600002 36852.30303120  2109.97870998
0.34700002 36229.60737541  2458.54127293
0.34800002 35620.26997073  2797.08183193
0.34900002 35021.72772222  1838.64079250
0.35000002 34434.76685620  2356.88772910
0.35100002 33859.80008786  1966.57728224
0.35200002 33294.66414505  2468.13356997
0.35300002 32741.24646377  1912.41629653
0.35400002 32199.20469149  1714.60773103
0.35500002 31668.12543448  1860.18577613
0.35600002 31146.71232119  1834.69717618
0.35700002 30636.44633795  1974.21269553
0.35800002 30137.43292635  1785.19092395
0.35900002 29648.37663530  1601.01241414
0.36000002 29169.91037966  2053.41593844
0.36100002 28700.75436084  1714.29613917
0.36200002 28242.96587064  2152.96139030
0.36300002 27793.84426216  1669.29836545
0.36400002 27354.72464610  1797.20549438
0.36500002 26925.02753520  2069.45771438
0.36600002 26505.45084710  1605.03765207
0.36700002 26094.55858030  1728.50364224
0.36800002 25694.51965427  1564.41090325
0.36900002 25302.50084617  1544.71774983
0.37000002 24919.31005592  1664.11160436
0.37100002 24544.92848710  1506.56778190
0.37200002 24180.27085667  1488.17484037
0.37300002 23823.53137948  2004.75026055
0.37400002 23475.39266244  1716.63816976
0.37500002 23136.22489760  1565.85977525
0.37600002 22805.30575877  1418.60411193
0.37700002 22482.10371593  1274.73534108
0.37800002 22166.97464002  1512.23108158
0.37900002 21860.41981926  1370.64838760
0.38000002 21561.42135195  1355.45881750
0.38100002 21269.24935242  1218.72804563
0.38200002 20985.70268644  1326.19154410
0.38300002 20708.83438030  1431.39470018
0.38400002 20440.31664402  1298.47117633
0.38500002 20177.54608314  1635.59196298
0.38600002 19923.36596742  1272.20659412
0.38700002 19675.19510093  1145.09640912
0.38800002 19434.09331747  1587.57115832
0.38900002 19199.28535686  1347.78989590
0.39000002 18972.18349355  1223.99047607
0.39100002 18750.42332906  1323.02993278
0.39200002 18535.71802007  1201.94869196
0.39300002 18326.88272916  1083.11882061
0.39400002 18125.53493774  1503.51319432
0.39500002 17929.02252419  1171.48238723
0.39600002 17738.44378406  1795.75144156
0.39700002 17553.79320538  1152.75765441
0.39800002 17374.95578337  1143.88026819
0.39900002 17201.56189025  1341.72189101
0.40000002 17033.54528633  1127.02457727
0.40100002 16871.11191514  1322.52652569
0.40200002 16714.33634917  1212.45801621
0.40300002 16561.88421490  1304.74530027
0.40400002 16415.10220980  1196.66100779
0.40500002 16273.29075313  1090.14779920
0.40600002 16136.24156497  1182.14111306
0.40700002 16003.84679039  1175.32256397
0.40800002 15876.41213943  974.01793090
0.40900002 15753.16141528  1065.70142024
0.41000002 15634.80046554  963.88549437
0.41100002 15520.54276255  1246.92046462
0.41200002 15410.25725357  1336.53167493
0.41300002 15304.79945792  1045.47090051
0.41400002 15203.03948546  1230.30602866
0.41500002 15105.42866842  1131.09455229
0.41600002 15011.13635811  1126.73594843
0.41700002 14921.13071471  1309.77691620
0.41800002 14835.61944370  1025.66059884
0.41900002 14751.76375488  1022.29727665
0.42000002 14672.94455123  1297.23508924
0.42100002 14597.52602859  1016.42578553
0.42200002 14525.67201417  1013.81932627
0.42300002 14456.43581167  1195.25816955
0.42400002 14390.36162794  1009.12415698
0.42500002 14327.82517461  1464.87691527
0.42600002 14267.52029400  1005.21818995
0.42700002 14211.36155214  1277.31723683
0.42800002 14157.10412151  1366.51454008
0.42900002 14106.93254012  1000.88691115
0.43000002 14058.83590882  1363.35567686
0.43100002 14012.50056179  998.81108738
0.43200002 13969.87000710  1179.54602995
0.43300002 13929.53535250  1269.53791219
0.43400002 13891.72175245  1540.93930841
0.43500002 13855.94050596  1087.41426244
0.43600002 13822.92108290  1268.52952789
0.43700002 13791.61568545  1268.55287086
0.43800002 13762.41051614  996.88025298
0.43900002 13736.06505221  1450.52853825
0.44000002 13711.18183375  1451.19155406
0.44100002 13688.72869406  998.31903097
0.44200002 13668.01145031  1453.18304626
0.44300002 13649.13227643  1272.64515377
0.44400002 13632.56705508  909.97389405
0.44500002 13616.39242857  1275.31137530
0.44600002 13602.36522608  1368.05794745
0.44700002 13591.11934466  1643.98187384
0.44800002 13579.80119197  1371.89948044
0.44900002 13571.57956403  1740.55516157
0.45000002 13564.33164008  1101.15249473
0.45100002 13558.14120557  1195.01462249
0.45200002 13553.59684308  1013.06364405
0.45300002 13550.02453822  1199.58372922
0.45400002 13548.10738516  924.65837286
0.45500002 13547.49076105  1389.97261796
0.45600002 13547.79639375  1021.57163549
0.45700002 13549.30847234  930.83753617
0.45800002 13551.55121173  1399.53651772
0.45900002 13555.00166516  935.29515922
0.46000002 13560.18600278  1218.99297849
0.46100002 13565.11502164  940.06251555
0.46200002 13572.01614309  942.57656581
0.46300002 13579.50535415  945.13361744
0.46400002 13587.22543389  1042.47992082
0.46500002 13596.33066103  1045.42191407
0.46600002 13605.94085549  1048.40582231
0.46700002 13615.94850383  1433.75944541
0.46800002 13627.65812916  1246.31753327
0.46900002 13638.87269471  961.54057055
0.47000002 13651.09087663  1350.22946260
0.47100002 13663.94856238  1160.88912488
0.47200002 13677.54358647  1164.50611615
0.47300002 13691.66138732  1070.82488786
0.47400002 13705.53716530  1757.73522476
0.47500002 13720.29441993  1273.51778842
0.47600002 13736.05816434  982.81500824
0.47700002 13751.17353678  1281.74694612
