# SAXS profile: number of points = 501, q_min = 0, q_max = 0.5, delta_q = 0.001
#    q    intensity    error
0.00000000 1664650.74656090 299.63713438
0.00100000 1664563.94577518 599.24303471
0.00200000 1664303.50366773 1048.51124051
0.00300000 1663869.65512784 1597.31492582
0.00400000 1663262.24531632 1746.42542394
0.00500000 1662481.95782109 2094.72734977
0.00600000 1661528.62049363 1919.06563480
0.00700000 1660402.99737879 2390.98041560
0.00800000 1659104.84920888 2463.77080510
0.00900000 1657635.59443900 2983.74419754
0.01000000 1655994.65500805 3278.86955850
0.01100000 1654183.70030551 4168.54310627
0.01200000 1652202.34947732 5154.87155638
0.01300000 1650052.23864700 4158.13182478
0.01400000 1647733.37209931 3707.40025158
0.01500000 1645247.48757426 5922.89121901
0.01600000 1642594.02535310 4188.61495190
0.01700000 1639775.37137669 5312.87244159
0.01800000 1636792.02449106 7930.25771550
0.01900000 1633644.76492584 5881.12141910
0.02000000 1630334.68965595 7703.33175709
0.02100000 1626864.21531104 5368.65215393
0.02200000 1623232.21045879 5600.15138051
0.02300000 1619441.76954619 6412.98969931
0.02400000 1615493.47384836 6058.10080317
0.02500000 1611389.65243488 10055.07189042
0.02600000 1607130.83818869 7810.65623084
0.02700000 1602718.75485782 10770.27052593
0.02800000 1598154.21410301 9037.56249521
0.02900000 1593440.26932128 7887.52969529
0.03000000 1588577.66930788 8864.26380219
0.03100000 1583568.20298836 8361.24049651
0.03200000 1578412.81998516 9375.77258254
0.03300000 1573115.96224479 10429.75931050
0.03400000 1567675.93356233 9053.32893405
0.03500000 1562097.00322735 9278.85662765
0.03600000 1556379.51029689 8637.90668134
0.03700000 1550526.84520152 9721.80376902
0.03800000 1544540.49904708 11746.23103886
0.03900000 1538422.72807420 11999.69783468
0.04000000 1532173.88470778 10365.15681036
0.04100000 1525798.11911139 9612.52859610
0.04200000 1519296.93128435 9799.46566141
0.04300000 1512672.03631394 14975.45385464
0.04400000 1505926.10045591 10165.00165016
0.04500000 1499061.97902480 12412.23376306
0.04600000 1492080.01751766 11571.08107375
0.04700000 1484984.39911861 16037.83225637
0.04800000 1477776.48199991 13033.98917769
0.04900000 1470459.11209111 15439.82139564
0.05000000 1463034.15852409 12311.43301728
0.05100000 1455505.47599601 12488.23756580
0.05200000 1447872.11512273 13812.70062196
0.05300000 1440139.92508219 16331.18751176
0.05400000 1432309.50126495 12998.20933014
0.05500000 1424384.74618873 14357.79891136
0.05600000 1416366.18276406 13320.92457051
0.05700000 1408259.25608010 15927.41292973
0.05800000 1400063.00702489 13629.61400979
0.05900000 1391781.70528789 15031.24311916
0.06000000 1383418.69080746 12658.28161227
0.06100000 1374975.41111155 16623.45349718
0.06200000 1366454.89382874 19369.49902542
0.06300000 1357860.55397266 14339.00812038
0.06400000 1349191.35987517 14470.07801138
0.06500000 1340454.20593576 13270.49725953
0.06600000 1331650.08867443 18736.31762429
0.06700000 1322780.40044670 14841.59678758
0.06800000 1313848.94517533 20397.50582864
0.06900000 1304860.00554498 15071.13376966
0.07000000 1295812.55787066 15180.44482633
0.07100000 1286711.55051896 16675.78247578
0.07200000 1277558.39086211 13989.26503529
0.07300000 1268357.01474845 14078.76352338
0.07400000 1259109.94691716 19830.98259331
0.07500000 1249818.15548260 15672.72040437
0.07600000 1240484.55682177 17193.11676357
0.07700000 1231113.41206073 18725.23587544
0.07800000 1221705.70831359 15924.93465469
0.07900000 1212263.05026910 16001.87301410
0.08000000 1202791.42446768 14613.91649284
0.08100000 1193290.80251999 20548.46858349
0.08200000 1183763.44167538 16211.64109448
0.08300000 1174211.86356001 22192.60526283
0.08400000 1164639.99409588 16334.07668389
0.08500000 1155049.19332408 19370.17588138
0.08600000 1145442.09254521 19432.42601241
0.08700000 1135820.80995801 19490.68601412
0.08800000 1126187.22565217 22551.90025281
0.08900000 1116545.04588196 21102.70235836
0.09000000 1106896.04795922 18130.95811728
0.09100000 1097241.86833531 15141.93849441
0.09200000 1087585.01723745 22757.71755500
0.09300000 1077929.30528036 15198.80391868
0.09400000 1068273.56316750 21312.05858680
0.09500000 1058622.47407604 19817.41364618
0.09600000 1048977.31942560 18315.14485813
0.09700000 1039342.71586224 21389.67409803
0.09800000 1029717.89582651 24466.09835518
0.09900000 1020106.38697163 16831.75617650
0.10000000 1010507.98783467 16840.11640921
0.10100000 1000926.49272664 21439.84648256
0.10200000 991363.83987742 21443.20086516
0.10300000 981821.48245732 16848.05743151
0.10400000 972302.09695394 19907.88637170
0.10500000 962808.51259569 16839.52167759
0.10600001 953337.64243647 18361.28385729
0.10700001 943897.49274507 15291.14010204
0.10800001 934484.96365465 19862.47883724
0.10900001 925105.07992845 24422.77525958
0.11000001 915758.27117948 19821.58871267
0.11100001 906445.40137051 16751.11180586
0.11200001 897169.72075584 21289.83847580
0.11300001 887931.00096124 21257.06916381
0.11400001 878732.22207707 19705.57100790
0.11500001 869574.50468122 19669.77622210
0.11600001 860459.32187169 16611.16799098
0.11700001 851387.91572092 15069.56681796
0.11800001 842360.74783330 22554.21008550
0.11900001 833379.62207653 22501.25085591
0.12000001 824445.96978492 16460.06456211
0.12100001 815562.86250385 20894.72152166
0.12200001 806729.31400870 17860.98785361
0.12300001 797947.25702743 16326.00164797
0.12400001 789217.34128425 17757.39101558
0.12500001 780540.41978518 16227.43609198
0.12600001 771919.53005862 22057.60161086
0.12700001 763353.55660654 20518.94456857
0.12800001 754844.03771182 17527.47938173
0.12900001 746392.24221908 18921.04423204
0.13000001 737999.03546982 15951.84990357
0.13100001 729664.16669358 20226.29165417
0.13200001 721389.58873689 15830.89527110
0.13300001 713176.89525976 20068.79877871
0.13400001 705024.55555908 18559.77230010
0.13500001 696935.62000591 15639.23605029
0.13600001 688908.64856777 19819.90275382
0.13700001 680946.10484249 21143.37755234
0.13800001 673046.39456380 14033.01798839
0.13900001 665212.53643971 16763.35670881
0.14000001 657443.50547806 19466.90311528
0.14100001 649740.24943096 20759.20194838
0.14200001 642102.61603427 19282.34246897
0.14300001 634532.89378465 13705.91115222
0.14400001 627027.43506053 20456.77103379
0.14500001 619591.21407005 21710.47716514
0.14600001 612221.87653707 18899.29022026
0.14700001 604922.34489633 13429.27669025
0.14800001 597687.48872961 14694.14760367
0.14900001 590522.41025887 23916.15874387
0.15000001 583425.37332417 14536.04386222
0.15100001 576397.23332434 14456.04329388
0.15200001 569437.80625435 18296.03757829
0.15300001 562548.32904078 16893.32711827
0.15400001 555725.01441363 19380.91079228
0.15500001 548972.28080035 16699.73757006
0.15600001 542285.94325111 15325.00147954
0.15700001 535671.76588215 16504.04788577
0.15800001 529122.58784020 15143.48917874
0.15900001 522644.39657123 15052.15933172
0.16000001 516232.43137169 16207.11794793
0.16100001 509891.78329171 17346.51928641
0.16200001 503617.78239461 14776.14643298
0.16300001 497411.43056174 17130.85047726
0.16400001 491273.15734403 14590.81346194
0.16500001 485202.01449911 13289.68380455
0.16600001 479198.91974742 16805.50690898
0.16700001 473261.18963301 14311.41905021
0.16800001 467389.77795662 13033.16457370
0.16900001 461586.86779321 14124.55882141
0.17000001 455848.04522972 12861.75320348
0.17100001 450175.15879401 16260.32750347
0.17200001 444567.85594161 13843.84368777
0.17300001 439025.45744841 19479.56046690
0.17400001 433547.32971434 13656.74153096
0.17500001 428133.14118177 12432.98700710
0.17600001 422781.19782412 16837.26199855
0.17700001 417494.13128253 11147.09383173
0.17800001 412267.58738565 11069.38524414
0.17900001 407104.51939076 13190.18705128
0.18000001 402002.58316521 15280.11890787
0.18100001 396963.61044924 11920.81778489
0.18200001 391982.16695220 13987.88428845
0.18300001 387062.10772507 12819.49761344
0.18400001 382201.11791137 14848.51413231
0.18500001 377400.42805650 13688.31417227
0.18600001 372656.28765526 12543.61123508
0.18700001 367970.08753988 13489.78404653
0.18800001 363340.93967590 12360.85935178
0.18900001 358770.16250167 12269.94013728
0.19000001 354251.55627436 13194.09983684
0.19100001 349792.86515091 11081.43849158
0.19200001 345385.51366328 14998.36663952
0.19300001 341035.05266707 11908.94460186
0.19400001 336735.71910533 10834.47227418
0.19500001 332490.79638559 12707.79883837
0.19600001 328297.56573920 10671.31287864
0.19700001 324156.06764391 12515.66636319
0.19800001 320065.85263515 11464.75938320
0.19900001 316026.36663982 12325.02888143
0.20000001 312035.42938833 11289.44236882
0.20100001 308095.27163236 10268.81588883
0.20200001 304202.03714666 10189.24771581
0.20300001 300358.36552831 10110.06306153
0.20400001 296561.16090753 9119.25612894
0.20500001 292810.65451649 9952.63461745
0.20600001 289106.23391965 9874.42388627
0.20700001 285447.57491087 11577.75418565
0.20800001 281832.63970800 9718.99903975
0.20900001 278264.18166699 14024.51541897
0.21000001 274737.28813108 10434.52269648
0.21100001 271254.15796741 12076.23568359
0.21200001 267812.95765312 9412.28684168
0.21300001 264412.65941405 9336.41144529
0.21400001 261054.87251637 13470.43205868
0.21500001 257738.27889404 10020.86475716
0.21600001 254460.63244463 9939.23277320
0.21700001 251222.87071954 9857.98591312
0.21800001 248023.74989263 11406.61279687
0.21900001 244861.97803451 9696.53478863
0.22000001 241738.01543202 11219.06182667
0.22100001 238652.60030972 10331.27155591
0.22200001 235603.89816597 13397.61630271
0.22300001 232589.55283516 10159.51214824
0.22400001 229610.72226866 10074.17091591
0.22500001 226668.92568745 11526.11541625
0.22600001 223759.51975607 9142.81440958
0.22700001 220886.31504530 9820.60603132
0.22800001 218045.10750454 10485.78971577
0.22900001 215236.14735785 8168.21217851
0.23000001 212460.83111938 8834.12177573
0.23100001 209718.10736825 8757.82857788
0.23200001 207005.12299843 10128.76114734
0.23300001 204323.91700970 8606.12379147
0.23400001 201674.25206146 8530.82126567
0.23500001 199052.56990242 8455.75356938
0.23600001 196462.44453505 9079.51230362
0.23700001 193900.87229833 6922.26146846
0.23800001 191368.11649528 8232.65676102
0.23900001 188863.59780898 6799.08984272
0.24000001 186386.95996030 8759.25559765
0.24100001 183939.10564109 7344.68883566
0.24200001 181517.66443470 7939.58301793
0.24300001 179123.69537506 9178.29858518
0.24400001 176755.38227216 6495.76060577
0.24500001 174413.23790025 7723.01853956
0.24600001 172097.44652577 8289.07390403
0.24700001 169806.90915863 6316.81731952
0.24800001 167541.30125310 11263.80221610
0.24900001 165299.72085590 8058.36177295
0.25000001 163083.48038078 7368.11199218
0.25100001 160890.12490450 9122.47051366
0.25200001 158722.66116882 6625.87780396
0.25300001 156577.92009981 7158.74284565
0.25400001 154456.18627918 5907.94940469
0.25500001 152357.07757771 7605.66567252
0.25600001 150280.99455631 6951.99913709
0.25700001 148226.56377196 8030.91560513
0.25800001 146195.31716076 7951.56367659
0.25900001 144185.60709500 6747.88673132
0.26000001 142197.40844056 7237.13744501
0.26100001 140230.11727349 5511.04386961
0.26200001 138284.94374176 6546.40954649
0.26300001 136359.80695611 6479.81833316
0.26400001 134455.72840727 6948.00009421
0.26500001 132572.55057850 8463.43202941
0.26600001 130708.55080385 7852.31656111
0.26700001 128865.84799409 5180.40733450
0.26800001 127043.18453495 6151.43128627
0.26900001 125239.09197069 8622.71189022
0.27000001 123455.39075946 5018.46187186
0.27100001 121690.58026501 5957.97109172
0.27200001 119946.38438626 6385.34607498
0.27300001 118219.97166313 4858.84106529
0.27400001 116510.82922310 5767.28631948
0.27500001 114823.20827969 6179.78536207
0.27600001 113151.72142297 6582.03594668
0.27700001 111500.50723432 5579.48564606
0.27800001 109866.39226244 5977.28135393
0.27900001 108251.55238330 4546.56541528
0.28000001 106653.22098069 5394.52017252
0.28100001 105073.44536036 5333.52833892
0.28200001 103511.97435550 6151.71692711
0.28300001 101967.53831045 5212.58080514
0.28400001 100440.49954881 6011.36418252
0.28500001 98931.13328176  4244.14581867
0.28600001 97438.86567074  6711.58938507
0.28700001 95963.68665303  4974.75775156
0.28800001 94504.92653024  5735.50426260
0.28900001 93064.71433594  5667.64137133
0.29000001 91639.82013878  5200.10183992
0.29100001 90232.64503206  3952.19003948
0.29200001 88841.71763974  4295.05304260
0.29300001 87467.53922973  3857.31866262
0.29400001 86109.06867629  3810.32646929
0.29500001 84768.04875969  4140.07169740
0.29600001 83442.51424269  3717.36418548
0.29700001 82133.33388347  4772.76825790
0.29800001 80840.03777813  5075.94621238
0.29900001 79563.37115126  4296.42224556
0.30000001 78301.89309166  4242.39676854
0.30100001 77057.05821963  4886.95886364
0.30200001 75826.53641963  5169.47436513
0.30300001 74613.02878152  4763.29598291
0.30400001 73414.92853450  3358.73313946
0.30500001 72232.19343732  3978.54940288
0.30600001 71063.77405952  6217.72520570
0.30700001 69911.95856727  3552.92590260
0.30800001 68774.98071465  4462.80870986
0.30900001 67653.13238645  3460.45788540
0.31000001 66546.64795238  3725.28152875
0.31100001 65454.25244927  3369.58507562
0.31200001 64377.60440184  3929.28727070
0.31300001 63315.12227567  2982.14240038
0.31400001 62268.71663501  3530.63640037
0.31500001 61235.73293686  3773.34604223
0.31600002 60217.88904317  4581.37721532
0.31700002 59214.33223027  3954.33329357
0.31800002 58225.35383554  2786.08331295
0.31900002 57250.69835875  2748.03365134
0.32000002 56290.73860201  2710.39919202
0.32100002 55344.08082861  3207.74307671
0.32200002 54412.86419781  2899.93373474
0.32300002 53493.71118133  2859.77393517
0.32400002 52589.54935378  4101.98504383
0.32500002 51698.98003838  2528.08024359
0.32600002 50822.57408872  2742.13211480
0.32700002 49959.14618149  2703.78911937
0.32800002 49110.06924501  2665.94023521
0.32900002 48273.71517038  2867.45881690
0.33000002 47451.91648790  2355.98776519
0.33100002 46640.69131063  2787.24784471
0.33200002 45845.82935338  3205.99899850
0.33300002 45062.55449425  2709.16090449
0.33400002 44292.79290719  2225.71294899
0.33500002 43534.78325251  2852.39913378
0.33600002 42790.89286601  3244.61960522
0.33700002 42058.53417185  3411.78845359
0.33800002 41339.79203610  3363.40563934
0.33900002 40632.47209945  2072.25617521
0.34000002 39938.16425925  2042.83719861
0.34100002 39255.99099929  3222.13189382
0.34200002 38586.59153605  2382.33627426
0.34300002 37928.05343842  2348.50518013
0.34400002 37282.94432698  2122.33170633
0.34500002 36648.60968900  2282.47551953
0.34600002 36027.18765064  2062.73672663
0.34700002 35415.58590763  2033.56303913
0.34800002 34817.22403228  2551.75447018
0.34900002 34229.48044023  1976.75258905
0.35000002 33653.14283564  1771.83805421
0.35100002 33088.61325846  2096.49463535
0.35200002 32533.77659872  2411.72897349
0.35300002 31990.55989706  2208.30845429
0.35400002 31458.53323267  3015.30055317
0.35500002 30937.23525529  2312.86781723
0.35600002 30425.57338498  1629.28953194
0.35700002 29924.90033459  2249.75411371
0.35800002 29435.29805093  2219.12722517
0.35900002 28955.49352177  2189.03541393
0.36000002 28486.20287511  1696.78075463
0.36100002 28026.09171341  1826.18022255
0.36200002 27577.20103273  1801.89440083
0.36300002 27136.85736937  2074.34147557
0.36400002 26706.38165079  1754.60935757
0.36500002 26285.21653877  1875.97599323
0.36600002 25874.05006338  1851.67648050
0.36700002 25471.51972440  1406.02795539
0.36800002 25079.62897897  1388.15752974
0.36900002 24695.62870476  1781.78969545
0.37000002 24320.45103869  2165.49306306
0.37100002 23954.00518806  1603.96026337
0.37200002 23597.04492582  1584.30567137
0.37300002 23248.00370428  1956.31960439
0.37400002 22907.41714377  1417.39650291
0.37500002 22575.71907600  1273.27061620
0.37600002 22252.14815770  1887.53855689
0.37700002 21936.21111105  1492.53987470
0.37800002 21628.35201940  1844.35780583
0.37900002 21328.81540646  1458.89104291
0.38000002 21036.87431590  1322.48316652
0.38100002 20751.59254531  1545.78620193
0.38200002 20474.92191459  1529.16961563
0.38300002 20204.80903021  1862.07528844
0.38400002 19942.95842980  1266.87649427
0.38500002 19686.85716778  1139.86908401
0.38600002 19439.18751293  1354.13386630
0.38700002 19197.49482810  1452.48252751
0.38800002 18962.80212696  1549.07137914
0.38900002 18734.31359497  1424.74461640
0.39000002 18513.46866758  1737.30398207
0.39100002 18297.88569409  1183.50730276
0.39200002 18089.30444313  1706.18327591
0.39300002 17886.57734175  1374.22580227
0.39400002 17691.22267713  1362.66649127
0.39500002 17500.63815689  1455.35313808
0.39600002 17316.00757435  1134.28512990
0.39700002 17137.19227471  1023.09042727
0.39800002 16964.06046076  1522.94860002
0.39900002 16796.43559334  1007.78618335
0.40000002 16634.11282600  1100.59612728
0.40100002 16477.37526380  993.58577548
0.40200002 16326.08614717  1381.67673610
0.40300002 16179.16435901  1176.54888793
0.40400002 16037.91215512  1266.59417246
0.40500002 15901.47517128  968.39988381
0.40600002 15769.90225375  1347.85360949
0.40700002 15642.80982724  1148.80800814
0.40800002 15520.66983838  1333.07039558
0.40900002 15402.64252812  1136.71507243
0.41000002 15289.51051175  1131.11804125
0.41100002 15180.42701341  938.15043388
0.41200002 15075.29446630  1120.69744373
0.41300002 14974.95393395  1208.92808837
0.41400002 14878.29094577  1296.64311736
0.41500002 14785.66735407  1199.41339259
0.41600002 14696.42806463  1286.96626660
0.41700002 14611.32931418  1282.58254797
0.41800002 14530.80110297  1004.58698186
0.41900002 14451.88038459  1365.70276106
0.42000002 14377.88920700  1180.35287038
0.42100002 14307.29762192  1449.04317181
0.42200002 14240.27066973  993.89973849
0.42300002 14175.81084473  1172.05609618
0.42400002 14114.42251004  1619.63005977
0.42500002 14056.68412980  1167.68880599
0.42600002 14001.05335861  1255.47451416
0.42700002 13949.61320951  1074.67825259
0.42800002 13899.91635014  983.90562547
0.42900002 13854.38486813  1072.32943961
0.43000002 13810.90821749  982.16278443
0.43100002 13769.14085312  1070.68844348
0.43200002 13731.05229617  1248.56464446
0.43300002 13695.21919635  1069.87057432
0.43400002 13661.87612442  1248.01244311
0.43500002 13630.55026609  891.43802965
0.43600002 13601.98395596  1337.41513585
0.43700002 13575.06280805  981.06983563
0.43800002 13550.30020490  1338.43096617
0.43900002 13528.33258017  1160.73099039
0.44000002 13507.78650072  1429.66419099
0.44100002 13489.68957962  1252.11304612
0.44200002 13473.23818584  895.29671988
0.44300002 13458.68279005  1523.79213770
0.44400002 13446.39585066  1256.56575179
0.44500002 13434.48545194  1617.78081479
0.44600002 13424.71202023  1440.20317378
0.44700002 13417.62681370  1262.33039046
0.44800002 13410.51518157  903.19824028
0.44900002 13406.40188911  1357.39825560
0.45000002 13403.34163152  1088.08332521
0.45100002 13401.29915016  999.46893799
0.45200002 13400.77744634  1547.99088008
0.45300002 13401.36339825  1186.42275787
0.45400002 13403.50678773  1097.74725794
0.45500002 13406.89686758  1192.14132596
0.45600002 13411.22248816  1011.27327965
0.45700002 13416.74725218  1474.76892785
0.45800002 13422.92499534  924.16842973
0.45900002 13430.38348278  1390.04475635
0.46000002 13439.45083062  1022.27187588
0.46100002 13448.31450886  1211.55871152
0.46200002 13459.10272446  934.73472852
0.46300002 13470.48653315  1312.56427000
0.46400002 13482.06845222  1128.44918293
0.46500002 13494.96948435  943.29841166
0.46600002 13508.40838605  1419.39607844
0.46700002 13522.27227054  1234.04262590
0.46800002 13537.71587541  1428.56753546
0.46900002 13552.65138133  1146.55436120
0.47000002 13568.62742226  1054.48593010
0.47100002 13585.19557060  1250.38145958
0.47200002 13602.45280227  1158.11288648
0.47300002 13620.25630563  968.40026923
0.47400002 13637.77969166  1360.36858872
0.47500002 13656.16388993  975.05014796
0.47600002 13675.49320932  1076.32974406
0.47700002 13694.16285198  1178.24582763
