# SAXS profile: number of points = 501, q_min = 0, q_max = 0.5, delta_q = 0.001
#    q    intensity    error
0.00000000 1664650.74656090 299.63713438
0.00100000 1664563.81704377 749.05373546
0.00200000 1664302.98425853 823.83000329
0.00300000 1663868.48750694 1297.81746649
0.00400000 1663260.16438751 1372.18968776
0.00500000 1662478.70366329 1795.47707102
0.00600000 1661523.94470450 2791.36034075
0.00700000 1660396.63938574 3387.20928512
0.00800000 1659096.53180075 2463.75845374
0.00900000 1657625.10044522 2983.72530835
0.01000000 1655981.73177141 4645.02895819
0.01100000 1654168.00477158 3275.25279205
0.01200000 1652183.70320730 4832.63754376
0.01300000 1650030.37643047 3811.57033766
0.01400000 1647708.06997956 4819.54631835
0.01500000 1645218.36990971 4343.37668997
0.01600000 1642560.99633955 6701.64916465
0.01700000 1639738.13239901 4427.29315608
0.01800000 1636750.27118949 5597.68617935
0.01900000 1633598.38901796 5390.87492701
0.02000000 1630283.26177276 6162.47100826
0.02100000 1626807.69496864 5905.31220047
0.02200000 1623170.13514651 6719.92466481
0.02300000 1619374.09908508 9327.59523531
0.02400000 1615419.89196176 10904.08476794
0.02500000 1611309.86147891 8797.75224547
0.02600000 1607044.66158923 8461.09053026
0.02700000 1602625.99498340 9423.44128211
0.02800000 1598054.57689667 6951.53772830
0.02900000 1593333.63806941 7887.00187057
0.03000000 1588463.83256546 8863.62859313
0.03100000 1583446.84349670 8360.59971836
0.03200000 1578283.75823324 8593.75545939
0.03300000 1572978.94704136 8824.41229971
0.03400000 1567530.70837338 10698.39757828
0.03500000 1561943.43289244 9277.94441982
0.03600000 1556217.47968426 10364.40889368
0.03700000 1550356.05340676 10604.43589573
0.03800000 1544360.68994399 10841.41254514
0.03900000 1538233.78103798 13844.10467046
0.04000000 1531975.56590811 12248.14521700
0.04100000 1525590.37184618 13455.70770358
0.04200000 1519079.42946351 11757.67532952
0.04300000 1512444.60027895 15971.41572031
0.04400000 1505688.72194380 12196.07921415
0.04500000 1498814.30204130 10341.81916462
0.04600000 1491821.92057010 11569.07953183
0.04700000 1484715.69417670 20310.91164096
0.04800000 1477497.00747674 11945.56386125
0.04900000 1470168.75913513 11026.26620676
0.05000000 1462732.64865851 11189.90528331
0.05100000 1455192.79424882 14755.65562106
0.05200000 1447548.17632170 19563.61451468
0.05300000 1439804.32430171 11662.41557052
0.05400000 1431962.17798127 15357.79507504
0.05500000 1424025.66581094 16746.54261115
0.05600000 1415995.20825534 14528.11151464
0.05700000 1407876.28151436 17147.93390929
0.05800000 1399667.71108051 14864.47178573
0.05900000 1391374.12239702 16279.07799237
0.06000000 1382998.77700883 12654.43940083
0.06100000 1374542.97072046 12783.25022508
0.06200000 1366009.86396473 14199.67319966
0.06300000 1357402.70932688 16940.38660445
0.06400000 1348720.64223183 15780.03225209
0.06500000 1339970.61059195 17245.42256502
0.06600000 1331153.34689648 13378.09176225
0.06700000 1322270.63779592 17533.30947771
0.06800000 1313326.06756305 16311.51052266
0.06900000 1304323.84445438 15064.94110877
0.07000000 1295263.11426077 16553.46337543
0.07100000 1286148.70941657 19446.56939721
0.07200000 1276981.90956656 13982.95256481
0.07300000 1267766.90355530 16886.65594659
0.07400000 1258506.36583368 15574.01700705
0.07500000 1249200.71803690 14240.88885313
0.07600000 1239853.57225898 14320.30943094
0.07700000 1230468.73126253 21594.72724620
0.07800000 1221047.19663815 17363.29195047
0.07900000 1211590.90031211 17446.90978282
0.08000000 1202105.40730138 17526.69766065
0.08100000 1192590.98327504 20536.41769553
0.08200000 1183049.66206082 22093.45347573
0.08300000 1173484.21234787 17743.08212342
0.08400000 1163898.20068034 17807.64330628
0.08500000 1154293.70455081 22335.58423161
0.08600000 1144672.58840956 20913.16917215
0.08700000 1135037.46586688 23971.99240478
0.08800000 1125390.02017026 19531.14471731
0.08900000 1115733.89459282 19581.13076982
0.09000000 1106070.94888726 18117.44299385
0.09100000 1096403.13368986 21182.50953807
0.09200000 1086732.36769791 18191.90069004
0.09300000 1077062.94139085 16705.24700599
0.09400000 1067393.32675509 16731.39118322
0.09500000 1057728.55822659 21323.80873612
0.09600000 1048069.63217274 18299.29663795
0.09700000 1038421.45301602 15264.79607698
0.09800000 1028782.78057983 27499.36501786
0.09900000 1019157.86735015 16816.10560201
0.10000000 1009546.14745505 19883.01230917
0.10100000 999951.05254898 22948.87773533
0.10200000 990374.98826230 18361.55314604
0.10300000 980819.40112352 16830.86171502
0.10400000 971286.57723010 22946.64646659
0.10500000 961779.93086472 18350.76194429
0.10600001 952296.08068795 15284.35281422
0.10700001 942842.82447342 18328.86537028
0.10800001 933417.51461694 15261.37708221
0.10900001 924024.92844643 18295.69444434
0.11000001 914665.26712419 21320.84838023
0.11100001 905339.76040718 18251.65042898
0.11200001 896051.74951531 22782.11680394
0.11300001 886800.31542800 21230.00055087
0.11400001 877589.29777953 18166.09931938
0.11500001 868419.34140134 18132.59670229
0.11600001 859291.99071438 15080.57514720
0.11700001 850208.72835830 15048.69520066
0.11800001 841169.76793244 16516.36917125
0.11900001 832176.86163810 17975.02105804
0.12000001 823231.65854656 19424.15189838
0.12100001 814336.84241438 19373.07439367
0.12200001 805491.82990661 14861.32496191
0.12300001 796698.79473738 23709.75724846
0.12400001 787957.68894728 20683.89030944
0.12500001 779269.88117701 16201.02159307
0.12600001 770638.16782389 14680.65778885
0.12700001 762061.44299700 27800.00275064
0.12800001 753541.34862466 17497.23093970
0.12900001 745079.30313493 15981.95180551
0.13000001 736675.94352270 15923.25126978
0.13100001 728331.04466383 18747.24197335
0.13200001 720046.36509693 20110.89592519
0.13300001 711823.97955354 18599.96146259
0.13400001 703661.94758653 18523.90164354
0.13500001 695563.71945362 14189.50054586
0.13600001 687527.39507911 18367.29522557
0.13700001 679555.66581785 16880.16353487
0.13800001 671646.92410275 18204.99073627
0.13900001 663804.52515543 19515.85395990
0.14000001 656026.61967093 19424.94912455
0.14100001 648315.04094265 13809.11102336
0.14200001 640669.11328306 15116.58844089
0.14300001 633091.35716760 20512.16093974
0.14400001 625577.83796346 20409.47792627
0.14500001 618133.82488323 14890.84454387
0.14600001 610757.00304768 14813.91180776
0.14700001 603449.87801648 18755.22309356
0.14800001 596207.76973590 23985.43970808
0.14900001 589035.78734945 15903.96700880
0.15000001 581931.79700646 15816.90698892
0.15100001 574896.98605200 14418.41709052
0.15200001 567931.05009371 13034.01821469
0.15300001 561035.14357713 14255.90367102
0.15400001 554205.70648051 16750.86826886
0.15500001 547447.02151980 15372.31308974
0.15600001 540754.78405489 20375.64122481
0.15700001 534135.02430869 18988.50101037
0.15800001 527580.42810603 18874.19070633
0.15900001 521097.13518281 17508.86456857
0.16000001 514679.95267208 17401.33002123
0.16100001 508334.20237195 14823.02604088
0.16200001 502055.50632519 15957.83502185
0.16300001 495844.61872056 18296.66729453
0.16400001 489701.91265160 13332.13520134
0.16500001 483626.70331648 13246.53602922
0.16600001 477619.53280749 13160.80684787
0.16700001 471678.03799597 16640.80196619
0.16800001 465802.88606060 18892.96595068
0.16900001 459996.39560870 12902.89950607
0.17000001 454254.43353969 13981.95212457
0.17100001 448578.40392341 15045.32037805
0.17200001 442968.17932239 14943.53223512
0.17300001 437422.93231531 12558.41297984
0.17400001 431942.14348880 14740.02634267
0.17500001 426525.66788862 12386.30598046
0.17600001 421171.25228389 14536.72645913
0.17700001 415882.07003572 15545.67251217
0.17800001 410653.95688897 11026.05926325
0.17900001 405488.90529009 16422.30143993
0.18000001 400385.59681998 11957.51641384
0.18100001 395344.92877162 14030.79218487
0.18200001 390362.42748141 11786.99405459
0.18300001 385441.14165351 11701.99361339
0.18400001 380579.12363819 10561.07117987
0.18500001 375777.67062602 12581.03700691
0.18600001 371033.00138123 12488.97141651
0.18700001 366346.31088834 13430.25639168
0.18800001 361716.95795389 10254.67624249
0.18900001 357145.92922390 12214.39135656
0.19000001 352627.30522423 13133.60460362
0.19100001 348168.71494946 11029.98541077
0.19200001 343761.62053132 12937.46920001
0.19300001 339411.71691175 9876.88142884
0.19400001 335113.08998678 18623.91085607
0.19500001 330868.69009362 9727.53994843
0.19600001 326676.42691758 12549.27553307
0.19700001 322535.89139334 14368.97464062
0.19800001 318446.84078194 9505.63864657
0.19900001 314408.70441372 11318.71389382
0.20000001 310419.08079323 12166.87644671
0.20100001 306480.57581509 10214.99807470
0.20200001 302588.91570513 11977.98279431
0.20300001 298747.15591173 10969.99608357
0.20400001 294951.83615910 10883.72326870
0.20500001 291203.29768593 9898.00055619
0.20600001 287501.10079067 9819.60056166
0.20700001 283844.75924857 10627.14828860
0.20800001 280232.11989418 9663.80511136
0.20900001 276665.99681053 8714.97931150
0.21000001 273141.91024442 11238.42442827
0.21100001 269661.57518028 8575.23849611
0.21200001 266223.07555919 12758.74149934
0.21300001 262825.96382504 10967.72798892
0.21400001 259471.25027303 8367.94821691
0.21500001 256157.74051930 9959.41342225
0.21600001 252883.35557901 9877.62433592
0.21700001 249648.70592287 10612.56699054
0.21800001 246453.20815375 9715.18592476
0.21900001 243295.05988660 8831.61109146
0.22000001 240174.61687349 9554.14671097
0.22100001 237092.88049294 9474.23195247
0.22200001 234047.98412219 9394.68652689
0.22300001 231037.62804998 12420.58347128
0.22400001 228062.45215816 8466.81893674
0.22500001 225125.00938700 10684.43345075
0.22600001 222219.77784537 11349.87569017
0.22700001 219350.64737251 9002.15099387
0.22800001 216513.67864795 8180.96973459
0.22900001 213709.04094572 9584.85093969
0.23000001 210938.09319877 9501.70685749
0.23100001 208199.85824848 7245.35540970
0.23200001 205491.60437272 7900.12510373
0.23300001 202815.00681988 8542.56849127
0.23400001 200169.86373279 7761.58683333
0.23500001 197552.99973719 6993.37652146
0.23600001 194967.63283757 9703.53954527
0.23700001 192410.83884620 10303.60090755
0.23800001 189883.10309265 7488.04052463
0.23900001 187383.45153921 8769.54594683
0.24000001 184911.85572668 8021.47668084
0.24100001 182468.99592983 7285.98735211
0.24200001 180052.54359005 7875.49862916
0.24300001 177663.65982220 6502.49025708
0.24400001 175300.59225746 7086.52677723
0.24500001 172963.66136854 9573.53910962
0.24600001 170653.09347482 10748.58560097
0.24700001 168367.85796066 8768.59845740
0.24800001 166107.51747828 6824.52767844
0.24900001 163871.24378391 6759.68912587
0.25000001 161660.42365593 7303.81828631
0.25100001 159472.66346468 6630.87366056
0.25200001 157310.30796682 6566.91911675
0.25300001 155171.20448011 7094.42780447
0.25400001 153054.89551968 9952.39505203
0.25500001 150961.28622356 6376.60503177
0.25600001 148890.88628381 8035.64151292
0.25700001 146841.94618999 8524.17537964
0.25800001 144816.24329022 6751.33358162
0.25900001 142812.11198332 8911.47620940
0.26000001 140829.59811883 5513.47902723
0.26100001 138867.98041455 6549.01426622
0.26200001 136928.36850918 5401.82439328
0.26300001 135008.89563184 8019.52878000
0.26400001 133110.49929174 6349.37111666
0.26500001 131232.94375460 6807.05311465
0.26600001 129374.67814752 5699.60171549
0.26700001 127537.73651580 5127.01725055
0.26800001 125720.91601770 6087.40704164
0.26900001 123922.34332772 5520.74065650
0.27000001 122144.48073407 5958.20805216
0.27100001 120385.27125037 5894.06315934
0.27200001 118646.76806468 4858.58538217
0.27300001 116926.29344665 6247.37215451
0.27400001 115222.89026066 6178.82778264
0.27500001 113541.08329607 5170.66117801
0.27600001 111875.46073090 6507.79585870
0.27700001 110229.86362724 5975.56119004
0.27800001 108601.38726722 4999.46509946
0.27900001 106992.52779085 6291.16093185
0.28000001 105399.89867698 5775.38772134
0.28100001 103825.89882874 4831.01930115
0.28200001 102270.20943700 7380.33001333
0.28300001 100731.67413936 5578.52037787
0.28400001 99210.32121634  4241.24143274
0.28500001 97706.81301289  6287.43371497
0.28600001 96220.28810154  4970.74031860
0.28700001 94750.94314571  7777.15778151
0.28800001 93297.85210803  6471.13932851
0.28900001 91863.47861769  4795.27381082
0.29000001 90444.43213803  3947.89964970
0.29100001 89042.96370578  3900.08199492
0.29200001 87657.87490097  4237.82016269
0.29300001 86289.41559971  4566.43608969
0.29400001 84936.71315841  5261.82962924
0.29500001 83601.46570074  4083.09577811
0.29600001 82281.76694508  4032.21818002
0.29700001 80978.26612808  4343.67440073
0.29800001 79690.75077674  3931.54337568
0.29900001 78419.77900671  4587.55728906
0.30000001 77164.05477810  3832.35296198
0.30100001 75925.20614845  3783.35320148
0.30200001 74700.34242713  5432.20915847
0.30300001 73492.55292908  4356.63874388
0.30400001 72300.37829337  3307.74246352
0.30500001 71123.33863870  3591.01753787
0.30600001 69960.65311989  3221.68822869
0.30700001 68814.64981350  4133.00806347
0.30800001 67683.42594267  4078.26502326
0.30900001 66567.40114982  3404.92273002
0.31000001 65466.72338050  5191.83874350
0.31100001 64380.06811524  3615.58479653
0.31200001 63309.28332820  3566.84519159
0.31300001 62252.49826873  3518.51136874
0.31400001 61211.79758374  2892.25757277
0.31500001 60184.73652539  3708.58364029
0.31600002 59172.70783569  3657.76110805
0.31700002 58175.06027912  4162.42576005
0.31800002 57191.77158333  3557.61431979
0.31900002 56222.98484214  2968.57374022
0.32000002 55268.82845711  3193.43305946
0.32100002 54328.13351536  2886.45387034
0.32200002 53402.63894090  4139.77276672
0.32300002 52489.62992856  3061.19536238
0.32400002 51591.09526155  2766.57261440
0.32500002 50706.38156620  2975.45061120
0.32600002 49835.94169014  2688.89836122
0.32700002 48978.40696223  4578.50169963
0.32800002 48135.26778721  2613.02313556
0.32900002 47304.88287781  3044.06935733
0.33000002 46488.99235810  3231.45001183
0.33100002 45683.68487794  2275.04761465
0.33200002 44894.87252852  3139.49858459
0.33300002 44117.64998142  2431.32380561
0.33400002 43353.85754248  2614.23773361
0.33500002 42601.94675077  3435.42114867
0.33600002 41864.09358247  3597.59105238
0.33700002 41137.69540091  3128.52188340
0.33800002 40424.97144783  2466.73187456
0.33900002 39723.85933965  3444.05876785
0.34000002 39035.59589724  2196.33790717
0.34100002 38359.65655598  3738.91590158
0.34200002 37696.35808538  2521.32102995
0.34300002 37043.95274807  1911.46805233
0.34400002 36404.97376425  1883.95748152
0.34500002 35776.96315437  2785.23671348
0.34600002 35161.80728291  2196.20658690
0.34700002 34556.48752360  3246.92772149
0.34800002 33964.38224397  1955.83904415
0.34900002 33382.97116768  1752.60606931
0.35000002 32812.88011925  2245.87768613
0.35100002 32254.86120060  2213.97377767
0.35200002 31706.33697528  2182.50580906
0.35300002 31169.49815980  1655.10043068
0.35400002 30643.90573149  2774.03969773
0.35500002 30129.03103340  1769.77936673
0.35600002 29623.79986221  2062.26092509
0.35700002 29129.68770869  1720.69073445
0.35800002 28646.61726528  1851.14449536
0.35900002 28173.40858434  2738.45544411
0.36000002 27710.65063516  1800.63816356
0.36100002 27257.21485605  1628.07352047
0.36200002 26814.86584741  2044.09732037
0.36300002 26381.27935237  2304.66867339
0.36400002 25957.41984857  1563.28568443
0.36500002 25543.05525835  1823.00794014
0.36600002 25138.60333820  1660.65621518
0.36700002 24742.71279274  1638.95737303
0.36800002 24357.66442928  1752.65582703
0.36900002 23980.58736043  1730.19946001
0.37000002 23612.21835371  1445.42201499
0.37100002 23252.51106946  1427.23919705
0.37200002 22902.54481208  1537.67693152
0.37300002 22560.46678939  2278.15604431
0.37400002 22226.79664209  1625.33458145
0.37500002 21902.07119314  2099.97068548
0.37600002 21585.56704216  2075.12858590
0.37700002 21276.67432004  1568.30373842
0.37800002 20975.70675240  1192.46898536
0.37900002 20683.31502304  1532.63371581
0.38000002 20398.43449435  1398.92470389
0.38100002 20120.36393980  1498.76598088
0.38200002 19850.83709502  1596.60290319
0.38300002 19587.93981373  1241.09192539
0.38400002 19333.20486020  1451.44042364
0.38500002 19084.33275286  1215.48121061
0.38600002 18843.76302813  1531.43269385
0.38700002 18609.43309424  1083.06905740
0.38800002 18381.99388844  1179.84833363
0.38900002 18160.83147479  1699.85390657
0.39000002 17947.27757095  1157.86866735
0.39100002 17739.07422689  1147.36337535
0.39200002 17537.82588796  1447.39683911
0.39300002 17342.48798193  1434.91752361
0.39400002 17154.52303830  1016.40553817
0.39500002 16971.30118790  1411.33347365
0.39600002 16794.03529254  1300.11030377
0.39700002 16622.63297171  1190.84548251
0.39800002 16457.02972379  984.95327563
0.39900002 16296.84750321  1466.71634478
0.40000002 16141.86037285  970.93294743
0.40100002 15992.64750164  1060.79235904
0.40200002 15848.83821506  1628.70593634
0.40300002 15709.45380918  1332.79012432
0.40400002 15575.63735873  1230.08601869
0.40500002 15446.70101426  940.70413634
0.40600002 15322.56858992  1403.16428511
0.40700002 15203.02160892  1023.46746321
0.40800002 15088.44030058  1203.37861319
0.40900002 14977.93747423  1013.25751814
0.41000002 14872.27620481  916.87587147
0.41100002 14770.78472147  1004.11799294
0.41200002 14673.10172377  1090.79843383
0.41300002 14580.30392543  995.98060834
0.41400002 14491.05874724  1262.89582966
0.41500002 14405.98701333  988.82699545
0.41600002 14324.22495369  985.57834464
0.41700002 14246.56011416  1250.56310608
0.41800002 14173.59507865  979.89154219
0.41900002 14102.12037108  977.27698802
0.42000002 14035.53826007  886.34428312
0.42100002 13972.48598599  972.90424531
0.42200002 13912.86989801  1412.43461897
0.42300002 13855.83626592  1233.72371958
0.42400002 13801.86607600  1055.84280485
0.42500002 13751.50266708  878.72106207
0.42600002 13703.17266595  1053.22590101
0.42700002 13659.15166341  1052.30109401
0.42800002 13616.75127362  1226.73318037
0.42900002 13578.54136067  963.39755519
0.43000002 13542.32041626  875.51105640
0.43100002 13507.75706789  1137.89350932
0.43200002 13476.86815523  1400.51620506
0.43300002 13448.29977642  963.03279263
0.43400002 13422.07228144  963.36928365
0.43500002 13397.96526287  1051.47236366
0.43600002 13376.45837554  1139.87495449
0.43700002 13356.67450924  1140.79362389
0.43800002 13338.92608980  878.36832464
0.43900002 13323.92701024  1231.13091409
0.44000002 13310.38389002  968.53012966
0.44100002 13299.17684968  1146.25610699
0.44200002 13289.63457322  971.40588516
0.44300002 13281.96692614  973.03694312
0.44400002 13276.41974963  974.82116631
0.44500002 13271.27804784  1686.91223261
0.44600002 13268.27576707  1334.45689851
0.44700002 13267.87196906  1159.08135015
0.44800002 13267.30223085  1161.61870187
0.44900002 13269.90232113  985.29029404
0.45000002 13273.28114884  1346.90626841
0.45100002 13277.69604135  990.25061769
0.45200002 13283.65784810  992.88705291
0.45300002 13290.57762817  1448.14140700
0.45400002 13299.09113551  998.42931432
0.45500002 13308.73322296  910.31739559
0.45600002 13319.25721622  1186.94566308
0.45700002 13330.91495027  1099.00068059
0.45800002 13343.23675913  1378.02284161
0.45900002 13356.71806642  1105.93630831
0.46000002 13371.78587457  1294.52265187
0.46100002 13386.62385697  1298.77030816
0.46200002 13403.20427647  930.85258112
0.46300002 13420.42827020  1027.46803706
0.46400002 13437.73648881  1124.73859742
0.46500002 13456.27431957  1410.89042928
0.46600002 13475.33539258  1321.52620458
0.46700002 13494.69535723  1136.79319077
0.46800002 13515.65076519  1426.23911460
0.46900002 13536.02815641  954.29003026
0.47000002 13557.28517778  1053.60446753
0.47100002 13579.14982966  1345.96539491
0.47200002 13601.55504803  1158.03645168
0.47300002 13624.44401949  1065.56781727
0.47400002 13647.01644593  972.34996786
0.47500002 13670.38790460  1073.67231692
0.47600002 13694.56827939  1567.75425093
0.47700002 13718.10693744  1377.02363965
0.47800002 13742.15849014  1184.84896118
