# SAXS profile: number of points = 501, q_min = 0, q_max = 0.5, delta_q = 0.001
#    q    intensity    error
0.00000000 1682732.95097188 328.13292544
0.00100000 1682645.46704105 555.27301731
0.00200000 1682382.97694938 757.07236360
0.00300000 1681945.70912838 1412.83444600
0.00400000 1681333.51951433 1387.10020631
0.00500000 1680547.08944249 1814.99092844
0.00600000 1679586.24351283 1939.92219024
0.00700000 1678451.75536450 2819.79906620
0.00800000 1677143.39096973 5660.35918350
0.00900000 1675662.57368765 4272.93974556
0.01000000 1674008.70530951 4143.17172454
0.01100000 1672183.41443234 3310.92330473
0.01200000 1670186.48762916 3908.23655240
0.01300000 1668019.37957437 4903.97719224
0.01400000 1665682.24642776 5621.67783091
0.01500000 1663176.60532878 5588.27364274
0.01600000 1660502.23682028 4234.28089318
0.01700000 1657661.27217899 4923.25419922
0.01800000 1654654.26976424 5187.34136913
0.01900000 1651482.10493147 8422.55911520
0.02000000 1648145.70743132 6229.99105591
0.02100000 1644647.75368273 7598.27296651
0.02200000 1640986.83309204 7359.82628079
0.02300000 1637166.23825607 11787.59745200
0.02400000 1633186.53294539 7961.78471115
0.02500000 1629049.99200520 6988.62478488
0.02600000 1624757.15126417 7896.32011631
0.02700000 1620309.85502093 7485.83187306
0.02800000 1615708.74283867 9136.83335976
0.02900000 1610957.07549505 8699.16860709
0.03000000 1606055.57704284 11202.23816479
0.03100000 1601005.85891970 11527.24271463
0.03200000 1595809.03330081 9479.10609440
0.03300000 1590469.49126212 12978.23164700
0.03400000 1584985.59578292 9985.40971416
0.03500000 1579361.56452177 9381.40812647
0.03600000 1573597.93808188 11353.50964795
0.03700000 1567697.91463736 12510.22993737
0.03800000 1561662.87348858 9135.72823271
0.03900000 1555495.42070008 13999.45943462
0.04000000 1549195.77091030 11433.06531911
0.04100000 1542767.99361703 11663.32657253
0.04200000 1536213.70340614 11890.29461599
0.04300000 1529534.70062719 15142.39423909
0.04400000 1522733.46656340 15417.67706498
0.04500000 1515812.96572302 12550.93193936
0.04600000 1508773.55144606 13827.91024182
0.04700000 1501619.34166237 16217.48964420
0.04800000 1494351.88747315 13180.18426076
0.04900000 1486974.00912722 16728.45838135
0.05000000 1479487.25895047 14713.50147541
0.05100000 1471896.01101452 18369.26307318
0.05200000 1464199.25815711 13968.46157377
0.05300000 1456402.34797664 14156.23148227
0.05400000 1448506.29275405 14340.21296700
0.05500000 1440515.22301982 15730.42696919
0.05600000 1432429.11602054 13471.99646483
0.05700000 1424253.96032567 12391.01003323
0.05800000 1415988.36582294 13784.64738492
0.05900000 1407636.81654572 13935.60513468
0.06000000 1399202.78788768 14082.97671803
0.06100000 1390687.75657414 20693.43478486
0.06200000 1382094.48255490 14366.87281772
0.06300000 1373426.53984194 13184.89539895
0.06400000 1364683.02340066 15966.79212050
0.06500000 1355870.56822086 14765.43117862
0.06600000 1346990.36275903 14890.97915703
0.06700000 1338043.97667538 15012.85412088
0.06800000 1329035.23219006 20633.27294558
0.06900000 1319968.03208420 22175.46397725
0.07000000 1310841.69455085 18148.60411093
0.07100000 1301660.81273873 16869.52492322
0.07200000 1292427.24534486 14152.07899951
0.07300000 1283144.67360627 22788.65047102
0.07400000 1273815.98348387 20062.60268009
0.07500000 1264441.69192196 17297.56315627
0.07600000 1255025.30035539 17394.65147840
0.07700000 1245570.53715202 24774.39914559
0.07800000 1236078.68166791 19041.79298408
0.07900000 1226551.27007319 16190.47752436
0.08000000 1216994.20579170 20701.07241163
0.08100000 1207408.00466680 16336.23106961
0.08200000 1197793.92877876 17895.04213568
0.08300000 1188155.56251223 20959.06510637
0.08400000 1178496.09944701 16528.40857057
0.08500000 1168817.45352424 19601.06961578
0.08600000 1159121.86517030 18151.84926082
0.08700000 1149412.07178765 18206.68807206
0.08800000 1139689.18646778 15214.85135389
0.08900000 1129957.24472741 16779.86587235
0.09000000 1120218.13313013 24465.56517684
0.09100000 1110473.80366576 15324.53921055
0.09200000 1100726.11930101 16890.64309431
0.09300000 1090979.39730231 15382.81022483
0.09400000 1081232.10411895 15407.55820781
0.09500000 1071489.23076506 23144.16847236
0.09600000 1061751.85807586 18538.18831344
0.09700000 1052025.29421034 15464.77255193
0.09800000 1042307.33411301 24765.22342293
0.09900000 1032603.31144230 17037.95543996
0.10000000 1022911.77458433 17046.82552511
0.10100000 1013236.77496246 17052.77572464
0.10200000 1003580.90242826 17055.85823901
0.10300000 993944.82824690 18606.64806005
0.10400000 984331.16234226 17053.53818986
0.10500000 974743.89525388 17048.27153010
0.10600001 965178.91749521 18589.34682565
0.10700001 955644.50199810 18577.72999307
0.10800001 946137.59883198 21657.09065648
0.10900001 936663.36866183 20091.43020341
0.11000001 927222.05832987 15438.24799786
0.11100001 917814.64992753 21587.00158247
0.11200001 908444.46253415 15398.13436485
0.11300001 899110.72132790 21524.71168199
0.11400001 889817.44213087 19954.15707931
0.11500001 880564.95316407 18386.19708783
0.11600001 871355.10490656 24467.65249799
0.11700001 862189.25087192 16786.82550505
0.11800001 853067.36084325 18272.70372988
0.11900001 843991.95074064 24306.96932623
0.12000001 834963.91688409 15154.59580530
0.12100001 825986.12475734 16627.10147464
0.12200001 817058.28925949 18089.67137643
0.12300001 808182.30161826 21045.06812567
0.12400001 799358.24805577 16486.76464296
0.12500001 790587.50483950 22413.15681832
0.12600001 781872.96257835 14894.68063901
0.12700001 773213.28900040 29691.39169686
0.12800001 764610.29581568 19233.77289772
0.12900001 756065.59722863 22114.91976126
0.13000001 747579.40227940 20565.91032608
0.13100001 739151.90140565 16098.72917147
0.13200001 730784.58487500 17494.98378663
0.13300001 722479.65555006 23234.94681785
0.13400001 714235.15936477 14463.26265902
0.13500001 706054.71558864 17284.22025253
0.13600001 697936.08081615 18645.36327815
0.13700001 689882.39952132 14280.56634347
0.13800001 681891.54286608 15639.18327311
0.13900001 673967.36537274 15568.64687430
0.14000001 666108.03135822 14088.18552763
0.14100001 658314.85568708 15424.31779620
0.14200001 650587.61756882 16746.12606606
0.14300001 642928.63474353 13887.25916549
0.14400001 635334.07821641 15200.36853833
0.14500001 627809.48732603 16498.83410521
0.14600001 620352.04345953 15046.63952393
0.14700001 612964.65692662 17690.16083346
0.14800001 605642.49828718 14889.72152287
0.14900001 598390.76728931 16156.55147909
0.15000001 591206.95973992 14729.92209692
0.15100001 584092.61727071 21307.69968344
0.15200001 577047.73987365 15891.89550601
0.15300001 570072.91447545 17119.29042954
0.15400001 563164.87372208 17021.65911152
0.15500001 556327.72944995 20828.91117358
0.15600001 549557.46743332 18118.91055640
0.15700001 542860.11532806 12865.78534050
0.15800001 536228.00031325 12789.03841110
0.15900001 529667.40414674 13983.22012949
0.16000001 523173.33855768 12634.63672255
0.16100001 516751.05699876 13812.75640560
0.16200001 510396.16006339 14975.02404317
0.16300001 504109.29925881 13641.19828191
0.16400001 497891.23596352 17251.93214059
0.16500001 491740.49202789 15917.64047844
0.16600001 485658.57855748 13382.32276397
0.16700001 479642.53394218 16921.78939644
0.16800001 473693.08976317 15610.55651022
0.16900001 467812.85299056 14315.07397744
0.17000001 461997.63661334 15405.31192031
0.17100001 456248.34302763 11771.20780596
0.17200001 450565.43008872 16369.04284812
0.17300001 444947.83883775 15097.08088472
0.17400001 439395.23494636 13840.95055446
0.17500001 433907.12332906 13746.17831626
0.17600001 428481.52498034 11376.18502551
0.17700001 423121.65421901 20335.22766221
0.17800001 417823.14799204 14584.11766950
0.17900001 412588.07010766 14481.84194481
0.18000001 407415.19383134 13273.58764200
0.18100001 402305.45121976 10982.93933709
0.18200001 397254.19415855 13085.55377372
0.18300001 392264.71510303 15157.10930759
0.18400001 387334.82062753 10748.54178018
0.18500001 382465.82975607 12804.95658517
0.18600001 377654.33432705 11652.52503617
0.18700001 372900.90194963 13670.54771134
0.18800001 368205.39302926 15657.93507835
0.18900001 363568.72176577 11397.87996588
0.19000001 358984.73418870 11313.40443250
0.19100001 354461.37834088 14291.88345000
0.19200001 349989.96459418 11145.43094914
0.19300001 345576.06802791 14078.76967672
0.19400001 341213.89436423 16966.86169901
0.19500001 336906.30811635 13867.06429736
0.19600001 332651.52932904 10812.83847182
0.19700001 328448.91736160 13656.90662929
0.19800001 324298.12885499 11616.35952456
0.19900001 320198.93895447 10566.56548487
0.20000001 316148.38813816 10485.06178814
0.20100001 312149.47698330 9458.12959961
0.20200001 308198.06004846 9384.63137203
0.20300001 304296.91776166 10242.63473597
0.20400001 300442.71087435 11086.33655527
0.20500001 296635.54784005 10082.64274766
0.20600001 292875.45926260 14550.05350392
0.20700001 289161.54457576 9021.84061722
0.20800001 285491.71274654 10740.19874122
0.20900001 281868.93115343 13318.30762657
0.21000001 278288.67330901 9688.62061926
0.21100001 274752.59769357 10484.55962363
0.21200001 271258.91088821 8666.72261259
0.21300001 267806.99762916 12894.90754546
0.21400001 264397.91213062 11084.88299013
0.21500001 261030.63172974 9303.13215468
0.21600001 257702.79723774 10065.87173601
0.21700001 254415.05561182 11647.12179658
0.21800001 251167.18068273 11551.17918574
0.21900001 247957.03558882 9819.09907358
0.22000001 244784.93502436 9737.54517568
0.22100001 241652.17601214 11265.82497837
0.22200001 238556.47628005 14363.48611599
0.22300001 235495.99548131 8703.93240456
0.22400001 232470.90220284 10199.66131645
0.22500001 229484.21079568 14781.07871631
0.22600001 226530.17215545 10027.35854464
0.22700001 223612.62587462 9941.81781653
0.22800001 220727.59892504 7581.99338163
0.22900001 217875.46519022 8268.37429499
0.23000001 215057.42639934 8196.91419486
0.23100001 212272.58109146 8125.79478847
0.23200001 209518.03660076 9519.45244316
0.23300001 206795.79382905 7984.38597736
0.23400001 204105.35844425 9353.12849307
0.23500001 201443.49610107 9270.43012903
0.23600001 198813.65306945 9188.17341118
0.23700001 196212.75501439 9106.23439092
0.23800001 193641.42681235 10413.06821936
0.23900001 191098.54876264 10319.32212128
0.24000001 188584.18211959 8862.51405791
0.24100001 186099.08131342 6755.39697122
0.24200001 183640.70584686 9371.18566264
0.24300001 181210.15832616 7958.75053016
0.24400001 178806.04747112 8542.45932202
0.24500001 176428.41218051 7161.22958916
0.24600001 174077.46952443 7094.52760608
0.24700001 171752.42338012 7028.10949719
0.24800001 169452.61271352 7594.86646111
0.24900001 167177.20507054 6269.14548672
0.25000001 164927.79887749 6830.48511365
0.25100001 162701.72306667 8610.17559203
0.25200001 160501.36357082 7918.33514638
0.25300001 158324.78014387 6635.39184975
0.25400001 156171.27901591 7168.26204597
0.25500001 154040.88510126 9464.27242839
0.25600001 151934.14422623 5857.06153703
0.25700001 149849.22382443 6958.99828366
0.25800001 147787.94972050 6315.71833013
0.25900001 145748.60582221 5684.19589601
0.26000001 143731.17874133 10128.73664515
0.26100001 141735.03535682 6127.20586839
0.26200001 139761.16295575 6616.29376739
0.26300001 137807.86989701 6002.91109676
0.26400001 135876.02500859 7561.50114952
0.26500001 133965.45527090 6414.26630189
0.26600001 132074.39495695 6876.45369882
0.26700001 130205.02801103 7327.93932322
0.26800001 128356.16677267 5179.17157436
0.26900001 126525.87727659 6661.58775385
0.27000001 124716.54899031 6083.67354764
0.27100001 122926.27664516 6018.47078936
0.27200001 121157.05125892 5457.51963223
0.27300001 119406.16067925 5398.35277978
0.27400001 117672.59784673 6310.19335816
0.27500001 115961.03805619 6721.10208382
0.27600001 114266.06546831 6646.85734286
0.27700001 112591.19916084 5164.55854993
0.27800001 110933.95959507 9749.43150043
0.27900001 109296.52518264 5508.54512991
0.28000001 107675.67633306 4538.52997224
0.28100001 106073.76966568 5832.99686999
0.28200001 104490.53327151 6653.43502097
0.28300001 102924.65939879 4823.04976770
0.28400001 101376.24555459 4767.21817284
0.28500001 99845.99639444  5996.75082728
0.28600001 98332.93565967  5079.87969662
0.28700001 96837.47871802  5020.05513435
0.28800001 95358.48237192  4547.16944714
0.28900001 93898.50015867  5309.96043531
0.29000001 92453.98199834  5246.30145683
0.29100001 91027.44053203  4385.70229243
0.29200001 89617.54284238  5120.29855267
0.29300001 88224.50383794  3890.70080342
0.29400001 86847.56209641  6148.80768749
0.29500001 85488.31514866  5693.52205841
0.29600001 84144.83412371  5622.97880649
0.29700001 82817.70634532  4442.34197865
0.29800001 81506.81770440  4386.69713651
0.29900001 80212.91085262  4331.49739109
0.30000001 78934.36315680  3920.27533177
0.30100001 77672.92710108  3518.58376425
0.30200001 76425.82617878  5905.04173925
0.30300001 75195.96046718  4457.61674752
0.30400001 73981.86588527  4061.60462938
0.30500001 72783.05044502  4342.96482566
0.30600001 71599.16758642  3956.57018814
0.30700001 70431.87579943  3579.34809759
0.30800001 69279.64749213  3853.33417594
0.30900001 68142.95036415  3802.37681034
0.31000001 67021.77144245  4064.53552156
0.31100001 65914.84019894  4318.74053431
0.31200001 64823.83742509  3652.17517344
0.31300001 63747.23695026  3903.24350327
0.31400001 62686.78688261  3554.34098453
0.31500001 61640.26042935  3213.92333096
0.31600002 60608.87812503  2881.95229130
0.31700002 59592.15309839  3979.56417234
0.31800002 58589.98846373  3083.88418881
0.31900002 57602.43769238  3870.88399621
0.32000002 56629.79257646  3544.74203417
0.32100002 55670.79144583  3495.56916040
0.32200002 54727.14260438  2916.68320321
0.32300002 53796.18792119  2875.94434245
0.32400002 52879.80136296  2577.89043851
0.32500002 51977.38325263  3304.20240983
0.32600002 51089.59842829  3758.91738235
0.32700002 50214.77187094  2717.62358234
0.32800002 49354.52777847  3897.03369792
0.32900002 48507.23972316  2881.33017600
0.33000002 47674.61132352  3313.86239002
0.33100002 46852.81211426  2566.59716916
0.33200002 46047.51736388  2300.07360125
0.33300002 45254.00304995  2947.39335822
0.33400002 44474.16248619  2234.82677076
0.33500002 43706.31326339  2423.07812207
0.33600002 42952.65957085  2171.25704413
0.33700002 42210.59713914  2568.09285156
0.33800002 41482.50947279  2531.26284790
0.33900002 40766.03374112  2286.97460118
0.34000002 40062.69024769  2868.88938450
0.34100002 39371.64318292  2221.74193003
0.34200002 38693.47251463  2189.85718068
0.34300002 38026.26372378  1962.15530107
0.34400002 37372.71962304  1934.03833209
0.34500002 36730.32049867  3240.71633108
0.34600002 36100.84849360  2066.95417839
0.34700002 35481.37090157  2222.55317854
0.34800002 34875.15931746  2008.28614441
0.34900002 34279.83577169  2339.59890223
0.35000002 33695.96818363  1774.09280889
0.35100002 33124.30029058  2973.23733490
0.35200002 32562.25125226  1896.58841402
0.35300002 32012.02613450  2549.75800238
0.35400002 31473.12375302  1843.53831115
0.35500002 30945.23401225  1982.97068943
0.35600002 30426.95225396  1792.29970741
0.35700002 29919.92531711  1928.04007876
0.35800002 29424.14698239  1742.93942906
0.35900002 28938.25896804  1718.93266412
0.36000002 28462.97402099  1695.39712786
0.36100002 27997.15859857  2128.34409747
0.36200002 27542.53606381  1649.66027568
0.36300002 27096.68463822  1775.37486159
0.36400002 26660.83332655  2043.55297128
0.36500002 26234.52940055  2016.38602524
0.36600002 25818.23228074  1563.42312982
0.36700002 25410.60408395  1542.93195306
0.36800002 25014.00647238  1661.43038860
0.36900002 24625.39253694  1640.05122065
0.37000002 24245.63719972  1349.26977408
0.37100002 23874.53689985  1865.07891096
0.37200002 23513.37526383  1447.13074916
0.37300002 23160.20961174  1819.00294907
0.37400002 22815.63822553  1411.71768208
0.37500002 22479.96616467  1648.23119727
0.37600002 22152.75739578  1503.28618809
0.37700002 21833.16150224  1609.32241057
0.37800002 21521.57906788  1590.55237636
0.37900002 21218.76121044  1814.20416944
0.38000002 20923.54649942  1315.35881300
0.38100002 20635.18852145  1418.87562995
0.38200002 20355.52649349  1403.31006294
0.38300002 20082.42982679  1966.47162180
0.38400002 19817.79674625  1602.26894284
0.38500002 19558.95014302  1358.95592032
0.38600002 19308.64810416  1232.95378310
0.38700002 19064.60411672  1664.34001824
0.38800002 18827.54436446  1208.44599228
0.38900002 18596.81163348  1196.70488531
0.39000002 18373.87381334  1185.39052523
0.39100002 18156.37066332  1494.63250381
0.39200002 17945.86596110  1057.90884853
0.39300002 17741.38430877  1153.36744856
0.39400002 17544.26723295  1455.29703592
0.39500002 17352.11113611  1030.71545032
0.39600002 17165.92125052  1328.89985657
0.39700002 16985.71165372  1115.45173715
0.39800002 16811.44455434  1308.01450552
0.39900002 16642.54313318  1198.26316236
0.40000002 16478.99631021  991.21167502
0.40100002 16321.28063114  1181.00792242
0.40200002 16169.14588934  977.42491532
0.40300002 16021.41124694  1747.61562162
0.40400002 15879.32962747  964.66932057
0.40500002 15742.36810661  1246.32334205
0.40600002 15610.07584136  1048.29469280
0.40700002 15482.61015555  947.53578641
0.40800002 15360.07464251  1225.04281116
0.40900002 15241.78769391  1406.05498138
0.41000002 15128.40847728  1119.19971218
0.41100002 15019.19509379  1113.82356093
0.41200002 14913.98264968  1108.70552271
0.41300002 14813.64952889  1103.91321520
0.41400002 14716.96976180  916.13141108
0.41500002 14624.57222186  1095.08801986
0.41600002 14535.51911339  1091.03611635
0.41700002 14450.71487399  1177.87782519
0.41800002 14370.57066289  903.19040896
0.41900002 14292.04717196  900.39901450
0.42000002 14218.44362100  1346.84213582
0.42100002 14148.58107026  1074.72626902
0.42200002 14082.13062459  1161.56459961
0.42300002 14018.28919668  1069.87588219
0.42400002 13957.72689888  1245.72718475
0.42500002 13900.68878050  888.25405516
0.42600002 13845.84328683  1064.19156545
0.42700002 13795.31979993  885.65957312
0.42800002 13746.65191982  1061.51651155
0.42900002 13702.08090126  1237.29796402
0.43000002 13659.59145017  1148.02041783
0.43100002 13618.85886002  970.75230554
0.43200002 13581.90780082  882.14495347
0.43300002 13547.32052132  970.12366850
0.43400002 13515.09765347  1322.79024552
0.43500002 13485.16508979  1146.50879027
0.43600002 13457.81751016  1323.23996939
0.43700002 13432.28025975  1147.25111135
0.43800002 13408.80633507  1236.15791461
0.43900002 13388.25245437  1148.71211502
0.44000002 13369.14400370  1149.67959308
0.44100002 13352.44835435  1062.32084142
0.44200002 13337.51297703  974.90555726
0.44300002 13324.49782117  1242.37623572
0.44400002 13313.62126782  977.55268792
0.44500002 13303.29015645  1156.98719974
0.44600002 13295.11160549  1158.86845801
0.44700002 13289.65350991  982.37123401
0.44800002 13284.06986566  1163.08679221
0.44900002 13281.82639772  1434.43731894
0.45000002 13280.24331931  1078.09020375
0.45100002 13279.80950890  990.40824011
0.45200002 13281.08457878  1443.91958384
0.45300002 13283.26172013  1356.88524902
0.45400002 13287.18836720  997.53571394
0.45500002 13292.28436403  1181.94998167
0.45600002 13298.33624652  1093.92119148
0.45700002 13305.59476493  1279.73216514
0.45800002 13313.57474386  1099.96759747
0.45900002 13322.67987748  1378.89743267
0.46000002 13333.55630847  1014.21700867
0.46100002 13344.21636720  1294.65593331
0.46200002 13356.71417312  1205.91099627
0.46300002 13369.86101386  1023.59660773
0.46400002 13383.21687607  1306.87118989
0.46500002 13397.83911214  1404.76349749
0.46600002 13413.04430616  1033.54217800
0.46700002 13428.54325771  1225.48891578
0.46800002 13445.77138514  945.91006178
0.46900002 13462.50922890  1044.01764018
0.47000002 13480.12807758  1047.60820320
0.47100002 13498.46954218  1337.96836444
0.47200002 13517.38345657  1054.96424187
0.47300002 13536.83741750  1347.45686040
0.47400002 13556.03911221  1159.04139903
0.47500002 13576.10700617  1260.13431204
0.47600002 13597.00706113  1556.58544214
0.47700002 13617.41543603  1171.64247965
