# SAXS profile: number of points = 501, q_min = 0, q_max = 0.5, delta_q = 0.001
#    q    intensity    error
0.00000000 1700912.83420644 280.65061764
0.00100000 1700824.87192956 561.27222107
0.00200000 1700560.94163384 918.30293756
0.00300000 1700121.27754728 1020.07280287
0.00400000 1699505.73304093 1529.55521786
0.00500000 1698714.99353719 1681.72791017
0.00600000 1697748.87465835 2673.95458645
0.00700000 1696608.16838583 2646.70885268
0.00800000 1695292.61341507 2517.50963721
0.00900000 1693803.64465190 3048.84669070
0.01000000 1692140.70538703 4188.04842667
0.01100000 1690305.38778931 4563.82474574
0.01200000 1688297.43412804 3950.61616907
0.01300000 1686118.41648447 3894.93371386
0.01400000 1683768.37899994 5682.71853105
0.01500000 1681248.91187623 5245.49683863
0.01600000 1678559.76237518 5564.42586102
0.01700000 1675703.09753210 6786.59784944
0.01800000 1672679.43788658 5720.56393498
0.01900000 1669489.71355108 6511.01017664
0.02000000 1666134.75237543 5773.15717813
0.02100000 1662617.38133622 7681.29265003
0.02200000 1658936.06813016 5723.32969507
0.02300000 1655094.21033524 7150.00731411
0.02400000 1651092.31390923 8668.23504327
0.02500000 1646932.52971775 7065.34087517
0.02600000 1642615.74215949 9313.63168403
0.02700000 1638143.38587522 7568.22278938
0.02800000 1633516.51527468 12079.85518443
0.02900000 1628738.10337932 8062.25398190
0.03000000 1623808.88773270 12836.20984755
0.03100000 1618730.62163436 8546.89807550
0.03200000 1613504.31407008 8785.53139476
0.03300000 1608134.42187400 9021.63452261
0.03400000 1602619.39111337 9255.12741071
0.03500000 1596963.23446076 9485.96205074
0.03600000 1591166.67993035 9714.07302990
0.03700000 1585232.73736785 11746.57512715
0.03800000 1579163.06179865 12009.53564077
0.03900000 1572960.12503719 9437.76118729
0.04000000 1566624.07443927 14452.10775640
0.04100000 1560159.01223109 13760.60312591
0.04200000 1553566.73944006 14028.70830798
0.04300000 1546848.82496454 13271.96353425
0.04400000 1540007.75887578 16632.08456828
0.04500000 1533046.70259564 13751.42956124
0.04600000 1525965.97827689 11833.86671166
0.04700000 1518769.62660719 16402.71273021
0.04800000 1511459.09081263 12220.14731780
0.04900000 1504037.47640111 14664.36607750
0.05000000 1496506.17534091 16027.58188424
0.05100000 1488869.62059348 17419.77537243
0.05200000 1481126.71631463 14129.94953212
0.05300000 1473282.96779670 11933.59259547
0.05400000 1465339.17938217 12089.04879366
0.05500000 1457299.70990539 15913.71357453
0.05600000 1449164.42154684 14868.42765889
0.05700000 1440939.40790169 13789.79077731
0.05800000 1432623.19307742 13946.58743581
0.05900000 1424220.24083861 15381.57931947
0.06000000 1415734.10386506 14249.36442112
0.06100000 1407166.32784615 13086.64746053
0.06200000 1398519.54645882 14537.61136498
0.06300000 1389797.33284269 14676.26052101
0.06400000 1380998.98606479 16157.68889260
0.06500000 1372130.98418175 14942.50711672
0.06600000 1363194.51829166 16440.12665981
0.06700000 1354191.27350550 13812.75163618
0.06800000 1345124.90300294 16706.45207731
0.06900000 1335999.64155471 19639.19565034
0.07000000 1326814.34101208 15543.63073284
0.07100000 1317574.05490254 24190.66078105
0.07200000 1308280.47628058 15758.23907502
0.07300000 1298937.10187671 15860.02275705
0.07400000 1289547.19753385 18859.62864777
0.07500000 1280110.87260639 16052.59109491
0.07600000 1270632.06149547 16143.38109811
0.07700000 1261114.16105209 16230.54001377
0.07800000 1251558.75567936 20763.36073044
0.07900000 1241967.20858306 17884.32864244
0.08000000 1232345.27119392 14972.99574741
0.08100000 1222693.73020401 16543.04694583
0.08200000 1213013.90194659 22653.03568185
0.08300000 1203309.18970688 22742.54475281
0.08400000 1193582.81791775 15218.18164277
0.08500000 1183836.93190123 15271.49713845
0.08600000 1174073.46885636 16853.82543675
0.08700000 1164295.34899734 16905.56926129
0.08800000 1154503.57847791 16953.88584617
0.08900000 1144702.29499235 16998.82987907
0.09000000 1134893.45475011 15491.29638505
0.09100000 1125078.97729084 17078.69967765
0.09200000 1115260.67914788 17113.67592564
0.09300000 1105442.85187567 18704.09393268
0.09400000 1095623.96103234 18735.17061416
0.09500000 1085809.27148510 15635.65424430
0.09600000 1075999.65936837 18786.95493570
0.09700000 1066200.26347231 17240.45907087
0.09800000 1056409.26338526 21962.74961842
0.09900000 1046631.80204108 18839.37332261
0.10000000 1036866.52414273 23562.79286924
0.10100000 1027117.33921602 20429.36483784
0.10200000 1017386.99028708 18862.35568714
0.10300000 1007676.14514000 20435.67318475
0.10400000 997987.12046826 18861.95746421
0.10500000 988324.35608404 22000.10120152
0.10600001 978683.69662927 18849.44888401
0.10700001 969073.36937305 15698.98932260
0.10800001 959490.04168427 21962.72808776
0.10900001 949939.05511455 17241.39466181
0.11000001 940420.84707429 26618.61332936
0.11100001 930936.32415560 20331.65027664
0.11200001 921488.83709000 21866.93113358
0.11300001 912077.40164141 17156.17673260
0.11400001 902706.32637351 15571.68486313
0.11500001 893375.70792615 15544.73804989
0.11600001 884087.62413492 15515.73853423
0.11700001 874843.44806539 18581.67571201
0.11800001 865642.87863052 23177.58916696
0.11900001 856488.63875473 16958.47584612
0.12000001 847381.63072688 21531.96825103
0.12100001 838324.61082128 18409.60932088
0.12200001 829317.45131361 26011.54308589
0.12300001 820362.11065134 19836.35677013
0.12400001 811458.29805296 19779.29694699
0.12500001 802607.99193228 16686.22093853
0.12600001 793813.68403269 18146.58167212
0.12700001 785074.18915838 19595.45268486
0.12800001 776391.14815291 16525.48636727
0.12900001 767766.55549515 20960.02795291
0.13000001 759200.11731956 20885.59621190
0.13100001 750692.39165513 22295.56508312
0.13200001 742244.70163373 20730.89549389
0.13300001 733859.49687415 17700.69189907
0.13400001 725534.51385349 16161.28205802
0.13500001 717273.86960899 19022.10391889
0.13600001 709074.74411577 16028.63534650
0.13700001 700940.80224488 17411.37034877
0.13800001 692869.35066335 21669.48996384
0.13900001 684865.00375433 20135.03205991
0.14000001 676925.22918220 21475.45390860
0.14100001 669051.63336493 14250.80046278
0.14200001 661244.09038933 19857.16097096
0.14300001 653505.04692663 22585.13548707
0.14400001 645829.99320658 19665.52422076
0.14500001 638225.44310910 22363.42058147
0.14600001 630687.88282200 15297.33531949
0.14700001 623220.51702730 19369.69458300
0.14800001 615818.40528406 15139.89620819
0.14900001 608486.85446117 19167.33681986
0.15000001 601223.26303045 13617.70755016
0.15100001 594029.29394124 14898.25539502
0.15200001 586905.07306118 13469.47206234
0.15300001 579851.01294605 20091.83854669
0.15400001 572863.70803633 14650.99002442
0.15500001 565947.44546575 17216.12210355
0.15600001 559098.09574890 13166.76077629
0.15700001 552322.10713440 14399.03801258
0.15800001 545611.36400363 18217.96430395
0.15900001 538972.14549043 14228.86531256
0.16000001 532399.94745702 14143.20527179
0.16100001 525899.61374450 14057.29733895
0.16200001 519466.89219767 12700.96611380
0.16300001 513102.19168116 15146.77741347
0.16400001 506806.65374699 17560.85138137
0.16500001 500578.61909539 12464.40820394
0.16600001 494419.81847715 13623.73874136
0.16700001 488326.75143617 13536.41818893
0.16800001 482300.93827506 15894.22817132
0.16900001 476344.23236578 12146.77849887
0.17000001 470452.87147477 13273.82839545
0.17100001 464627.90315570 14384.88056097
0.17200001 458869.28387619 16670.72187046
0.17300001 453176.44722022 18924.64932962
0.17400001 447548.85082337 12922.97367783
0.17500001 441985.96681288 14002.11608992
0.17600001 436485.71507377 12747.56591079
0.17700001 431051.85220742 12659.99349727
0.17800001 425679.40664317 12572.44186903
0.17900001 420370.71106668 13620.01168188
0.18000001 415124.58377447 12397.69628003
0.18100001 409941.79502096 13429.69383926
0.18200001 404817.96051150 12223.47889506
0.18300001 399756.29978333 14343.25671379
0.18400001 394754.22992041 10954.43039779
0.18500001 389813.48837179 10875.79683937
0.18600001 384930.73334881 10797.30758054
0.18700001 380106.35701166 13934.69970639
0.18800001 375340.35194126 11704.98942830
0.18900001 370633.27896432 11619.35384452
0.19000001 365979.28378529 10485.30697587
0.19100001 361386.40192702 13530.30752746
0.19200001 356845.81052779 10330.68670292
0.19300001 352363.17533354 11279.14577540
0.19400001 347932.41204052 11194.72588640
0.19500001 343556.82628531 11110.62828710
0.19600001 339234.24388342 12029.24685656
0.19700001 334964.39802970 11938.13170995
0.19800001 330746.77018973 9872.79155674
0.19900001 326580.97262550 10777.17260597
0.20000001 322464.22198586 12638.98577807
0.20100001 318399.66929923 9647.51043573
0.20200001 314382.84266808 10530.25381286
0.20300001 310416.79269069 13298.25602741
0.20400001 306497.85469521 12252.25232055
0.20500001 302626.73133938 10286.28308443
0.20600001 298803.05977462 15772.32025573
0.20700001 295025.93260242 12886.73334522
0.20800001 291293.15719547 10045.24500073
0.20900001 287607.81692799 10871.57599379
0.21000001 283965.55526273 10785.01229871
0.21100001 280368.01967584 10698.84413660
0.21200001 276813.09507366 15035.10396970
0.21300001 273300.39739216 14036.70907365
0.21400001 269831.11642300 10442.46469925
0.21500001 266403.89888442 10357.78407832
0.21600001 263016.69615305 11985.67141036
0.21700001 259669.95634159 11038.57036598
0.21800001 256363.64241439 9263.70065664
0.21900001 253095.35330926 9187.36175952
0.22000001 249865.45537143 14081.16840325
0.22100001 246675.54666096 12321.44413832
0.22200001 243523.15966007 9775.02009096
0.22300001 240406.30414810 9693.18264160
0.22400001 237325.10520274 9611.66721521
0.22500001 234283.18999742 10324.86067142
0.22600001 231274.34910521 9449.87035131
0.22700001 228302.28301555 10150.31998287
0.22800001 225362.93576463 7741.21720960
0.22900001 222457.20679809 9209.72879698
0.23000001 219586.13166423 10652.12375079
0.23100001 216748.48717859 7542.84771054
0.23200001 213941.62194110 7477.26004047
0.23300001 211167.75309873 8894.38618117
0.23400001 208426.00899771 10285.82403051
0.23500001 205713.12443336 7282.24494936
0.23600001 203032.87721040 8661.38295145
0.23700001 200382.03130294 7153.63885587
0.23800001 197761.22363587 7798.71422295
0.23900001 195169.20209185 9836.52825069
0.24000001 192606.14482864 7658.98371138
0.24100001 190072.95314928 7589.61337825
0.24200001 187566.63959482 8204.16520395
0.24300001 185088.99751802 8806.53491848
0.24400001 182638.11663778 8725.53643512
0.24500001 180214.02179413 7314.88749065
0.24600001 177817.45975548 7905.76463471
0.24700001 175446.76558214 8484.60598492
0.24800001 173101.87622626 8404.96199778
0.24900001 170781.94099406 8966.05232635
0.25000001 168488.37257459 7612.30503304
0.25100001 166218.55124993 7539.67384139
0.25200001 163974.93339197 8089.70372161
0.25300001 161755.55413494 7395.46428493
0.25400001 159559.82027300 6103.16341419
0.25500001 157387.44791994 7252.41394328
0.25600001 155239.20597288 8976.70751009
0.25700001 153113.23921500 9480.77222076
0.25800001 151011.31914679 7040.14803172
0.25900001 148931.87873870 8131.68096388
0.26000001 146874.57498398 7475.18184750
0.26100001 144839.25928343 6830.61979101
0.26200001 142826.41857233 10142.10446271
0.26300001 140834.66206665 6134.75816991
0.26400001 138864.91834514 7175.84499503
0.26500001 136916.58955881 5462.97218190
0.26600001 134988.32635344 6487.53927153
0.26700001 133082.14366293 6419.88291409
0.26800001 131196.96298057 6881.93701880
0.26900001 129330.77069769 5761.68610723
0.27000001 127485.74668654 5182.29584805
0.27100001 125660.37153263 6152.33208138
0.27200001 123856.49860970 6086.30862971
0.27300001 122071.14885235 5518.83690079
0.27400001 120303.65791093 4962.52612368
0.27500001 118558.55128631 7853.31880887
0.27600001 116830.46663707 5339.73673036
0.27700001 115122.80520348 6240.80756544
0.27800001 113433.16499264 5221.89599757
0.27900001 111763.81329895 5163.48841879
0.28000001 110111.38872994 6033.55383102
0.28100001 108478.27642750 6882.94696509
0.28200001 106864.05921426 7258.20724536
0.28300001 105267.90099749 5829.73663316
0.28400001 103689.40156040 5319.26655181
0.28500001 102129.38034291 5257.62074890
0.28600001 100586.95682078 4330.26869609
0.28700001 99062.58354035  4707.45419265
0.28800001 97554.92677752  6766.41004156
0.28900001 96066.71634701  4596.79259479
0.29000001 94594.23715180  4954.84637655
0.29100001 93140.18206147  5711.35623435
0.29200001 91703.03325451  4836.41820278
0.29300001 90283.10374544  3981.48506364
0.29400001 88879.70045954  3932.92693151
0.29500001 87494.20502267  3884.74288690
0.29600001 86124.93420814  4604.23920072
0.29700001 84772.17870906  4168.24822444
0.29800001 83436.12334419  6361.58752553
0.29900001 82117.35741359  4803.86563611
0.30000001 80814.39015554  4743.40085473
0.30100001 79528.65598804  3602.64828681
0.30200001 78257.73958641  4623.85876236
0.30300001 77004.21613973  3862.53166443
0.30400001 75766.78930716  4159.59692989
0.30500001 74545.00611805  4105.93913137
0.30600001 73338.50005072  4052.68570467
0.30700001 72148.81244765  5333.24046862
0.30800001 70974.53832694  5592.43901224
0.30900001 69816.05554090  4545.02543089
0.31000001 68673.30898357  3844.33201891
0.31100001 67545.20241543  4109.45030952
0.31200001 66433.29193135  4366.66048539
0.31300001 65336.02820481  3692.79248898
0.31400001 64255.26885221  3946.88007612
0.31500001 63188.58825404  2995.13922505
0.31600002 62137.42451481  3841.02507825
0.31700002 61101.07221353  3497.42553910
0.31800002 60079.66566247  3737.25577949
0.31900002 59072.94554101  2835.50152023
0.32000002 58081.66160964  3076.29535282
0.32100002 57104.07366290  3033.93957737
0.32200002 56142.21436450  4352.14466361
0.32300002 55193.19532657  2950.62836187
0.32400002 54258.83751484  2645.11845410
0.32500002 53338.93212519  4173.23824709
0.32600002 52433.86666927  2571.88128191
0.32700002 51541.93607774  3296.62238764
0.32800002 50664.73124553  2750.33506590
0.32900002 49800.87077553  3451.20050817
0.33000002 48951.90657626  2673.50850426
0.33100002 48113.89641399  2396.07215488
0.33200002 47292.55307473  2834.71576554
0.33300002 46483.26086256  3027.45492334
0.33400002 45687.97979241  3214.14953060
0.33500002 44904.66131658  2715.83404504
0.33600002 44135.94747389  2231.07225046
0.33700002 43378.85996857  3298.96245684
0.33800002 42636.05694300  2384.84795805
0.33900002 41904.94331431  2350.86743126
0.34000002 41187.18891066  2528.06977506
0.34100002 40482.07619120  2492.07672835
0.34200002 39789.92643172  2047.19181187
0.34300002 39108.80175890  2421.61711960
0.34400002 38441.68358529  1989.35721975
0.34500002 37785.73227921  2157.18755798
0.34600002 37143.02059756  1933.29431367
0.34700002 36510.38396619  2477.59477329
0.34800002 35891.21584810  2254.68628636
0.34900002 35283.08879558  2037.59847445
0.35000002 34686.57700885  1826.24836601
0.35100002 34102.37687261  2160.72670099
0.35200002 33528.09482575  1775.31270511
0.35300002 32965.65202966  2100.57144682
0.35400002 32414.73978025  2761.73596008
0.35500002 31875.02547816  2723.40230585
0.35600002 31344.96630597  2182.07993274
0.35700002 30826.26297188  2151.98152000
0.35800002 30319.12104052  2122.49016897
0.35900002 29821.87942618  1932.45787835
0.36000002 29335.37780473  2382.76617505
0.36100002 28858.45884313  2193.82014517
0.36200002 28392.98113747  1545.99789616
0.36300002 27936.29710667  1830.38627313
0.36400002 27489.80730979  1806.08042580
0.36500002 27052.85031048  1485.20155240
0.36600002 26626.14569896  1905.50020721
0.36700002 26208.09085613  2314.69869406
0.36800002 25801.33739590  1428.10409251
0.36900002 25402.61161448  1973.78301594
0.37000002 25012.86091546  2087.94866382
0.37100002 24631.79877863  1649.34532435
0.37200002 24260.97058492  2307.58232649
0.37300002 23898.07210220  2413.22743520
0.37400002 23543.87109936  1986.51421811
0.37500002 23198.70707454  1308.40714098
0.37600002 22862.07832697  1551.42070876
0.37700002 22533.19163474  1660.92163408
0.37800002 22212.36753485  1767.88241585
0.37900002 21900.46832078  2246.98815616
0.38000002 21596.18070735  1357.64396448
0.38100002 21298.88099538  1464.51112662
0.38200002 21010.38835280  1569.16092847
0.38300002 20728.44443712  2268.52106667
0.38400002 20455.16903571  1181.28606777
0.38500002 20187.57490751  1168.86064252
0.38600002 19928.86037385  1503.93151936
0.38700002 19676.23318338  1145.15682552
0.38800002 19430.76141159  1587.29897491
0.38900002 19191.74898461  1122.71736879
0.39000002 18960.56627990  1223.24099150
0.39100002 18734.75018380  1321.92403560
0.39200002 18516.12078649  1309.83044649
0.39300002 18303.52438071  1514.43367901
0.39400002 18098.46560967  1608.50120727
0.39500002 17898.35656829  1275.79491663
0.39600002 17704.20364838  1370.57099037
0.39700002 17516.18119684  1254.85928039
0.39800002 17334.18466161  1452.43140161
0.39900002 17157.50358836  1647.12042252
0.40000002 16986.29124952  1226.07056048
0.40100002 16820.87439068  1420.01828334
0.40200002 16661.31634228  1208.61194473
0.40300002 16506.00850895  1300.34341195
0.40400002 16356.50892623  1192.38955722
0.40500002 16212.10371304  1480.97574436
0.40600002 16072.39798825  1373.70792114
0.40700002 15937.62232131  1072.92078551
0.40800002 15807.88322366  1454.72052258
0.40900002 15682.38992349  1060.91372859
0.41000002 15561.81098128  1055.32426170
0.41100002 15445.39857355  1049.97824478
0.41200002 15333.11567722  949.88656121
0.41300002 15225.62026471  1134.61327589
0.41400002 15121.96524776  1035.47661940
0.41500002 15022.67106599  1031.15619083
0.41600002 14926.57327374  1307.12008352
0.41700002 14834.85178879  1395.21787685
0.41800002 14747.83304232  1019.59148569
0.41900002 14662.43045352  1108.47979481
0.42000002 14582.12875856  1197.11991716
0.42100002 14505.39860998  1377.28766328
0.42200002 14432.22607567  1282.01470305
0.42300002 14361.69316772  1004.74410162
0.42400002 14294.48512496  1093.52816388
0.42500002 14230.73573936  1091.21286820
0.42600002 14169.29633337  1179.80651510
0.42700002 14112.15046480  1540.20017471
0.42800002 14056.90579503  1175.93051001
0.42900002 14005.79834855  993.71143992
0.43000002 13956.81542617  902.30816006
0.43100002 13909.63021726  991.47848887
0.43200002 13866.23415580  1080.73434132
0.43300002 13825.20899685  1170.02749285
0.43400002 13786.68086926  1619.24574483
0.43500002 13750.31001384  1169.05141278
0.43600002 13716.62583982  1348.68729961
0.43700002 13684.82568327  989.00239900
0.43800002 13655.01691754  899.18290663
0.43900002 13628.21483276  1169.30088806
0.44000002 13602.91970004  1079.79981696
0.44100002 13579.98859195  990.38861495
0.44200002 13558.95814144  900.99281120
0.44300002 13539.72462502  991.92027304
0.44400002 13522.74228784  1173.43601764
0.44500002 13506.34456848  903.57449445
0.44600002 13492.02958204  1085.56875162
0.44700002 13480.58825541  996.48513106
0.44800002 13468.88014300  1088.55494475
0.44900002 13460.59218142  908.59001531
0.45000002 13453.10414510  1365.15380782
0.45100002 13446.68780623  1367.52821470
0.45200002 13442.06741604  1187.40508147
0.45300002 13438.29980110  1281.20756376
0.45400002 13436.31076708  1100.43390398
0.45500002 13435.58127850  1470.39008481
0.45600002 13435.74524528  1565.73464636
0.45700002 13437.18457947  1107.76154923
0.45800002 13439.41278138  1202.89469801
0.45900002 13442.74024309  1205.81385695
0.46000002 13447.93138836  929.92449958
0.46100002 13452.80335465  1305.19104333
0.46200002 13459.70933952  1402.16528690
0.46300002 13467.11553578  1031.04241429
0.46400002 13474.86434791  1221.83338266
0.46500002 13483.84391235  1131.02488097
0.46600002 13493.52505498  1228.78791737
0.46700002 13503.38342158  1232.31882946
0.46800002 13515.12138412  1045.86771788
0.46900002 13526.34900519  1144.32918008
0.47000002 13538.45638962  1243.43958604
0.47100002 13551.32368505  1151.32051485
0.47200002 13564.86192631  1058.66969922
0.47300002 13578.90344561  1158.55209689
0.47400002 13592.67538206  1646.41288369
0.47500002 13607.39002986  1457.35154127
0.47600002 13623.06521371  1267.14947091
0.47700002 13638.13499522  1368.99605571
