# SAXS profile: number of points = 501, q_min = 0, q_max = 0.5, delta_q = 0.001
#    q    intensity    error
0.00000000 1682732.95097188 302.89193117
0.00100000 1682645.58477986 555.27305616
0.00200000 1682383.45022352 908.48709189
0.00300000 1681946.77117581 1211.00171839
0.00400000 1681335.41759617 1387.10177222
0.00500000 1680550.04121657 2268.74264544
0.00600000 1679590.51274866 2468.99815426
0.00700000 1678457.54965158 2416.97897195
0.00800000 1677150.94876193 3849.06158992
0.00900000 1675672.15115756 3267.56083444
0.01000000 1674020.50928332 3314.56075150
0.01100000 1672197.69863659 4213.93838404
0.01200000 1670203.47213945 3582.58660481
0.01300000 1668039.29692208 3853.17094583
0.01400000 1665705.30929508 4872.18824568
0.01500000 1663203.07607972 3991.68756034
0.01600000 1660532.32600158 5504.66490677
0.01700000 1657695.18128312 5370.93262829
0.01800000 1654692.23134527 7073.80960731
0.01900000 1651524.39589544 7431.86011687
0.02000000 1648192.50456968 6230.16794910
0.02100000 1644699.30166770 5970.25873574
0.02200000 1641043.31220975 7360.07958965
0.02300000 1637227.90220234 9430.43314594
0.02400000 1633253.53994098 9187.05158108
0.02500000 1629122.64253942 6988.93645568
0.02600000 1624835.54500701 6580.58425826
0.02700000 1620394.31828832 7486.22209337
0.02800000 1615799.39769762 7731.60047255
0.02900000 1611054.16307720 7974.71847338
0.03000000 1606159.31569768 9709.23350968
0.03100000 1601116.35939258 11528.03831807
0.03200000 1595926.59443553 8689.82070694
0.03300000 1590594.33381710 8923.23462408
0.03400000 1585117.77815252 8321.86871927
0.03500000 1579501.35660108 11941.03080732
0.03600000 1573745.54107411 10481.14578793
0.03700000 1567853.50893200 9830.44195564
0.03800000 1561826.59082548 10050.35457709
0.03900000 1555667.53405913 10267.40620027
0.04000000 1549376.32064576 14292.99722028
0.04100000 1542957.27555131 12636.82067269
0.04200000 1536411.79224894 12882.81347568
0.04300000 1529741.75366044 15144.44406421
0.04400000 1522949.78420461 13363.88497704
0.04500000 1516038.61204793 14644.93367286
0.04600000 1509008.66413194 15957.76736502
0.04700000 1501864.12642480 14057.44887712
0.04800000 1494606.48504613 15379.50144670
0.04900000 1487238.53877189 11154.28955999
0.05000000 1479761.91811179 13584.21504083
0.05100000 1472180.84078446 14927.91442096
0.05200000 1464494.48834300 11642.73172489
0.05300000 1456708.03261106 12979.26917563
0.05400000 1448822.68249161 13148.06645676
0.05500000 1440842.19839166 13313.38253420
0.05600000 1432767.20113538 13475.17615549
0.05700000 1424602.97607868 13633.45111746
0.05800000 1416348.47855060 13788.15308249
0.05900000 1408008.16447077 13939.28147931
0.06000000 1399585.52894958 16648.07064463
0.06100000 1391081.81990303 18111.88614153
0.06200000 1382500.11682039 14371.08938610
0.06300000 1373843.87407732 21102.24289247
0.06400000 1365112.02389961 13309.84285548
0.06500000 1356311.48656802 17455.72964867
0.06600000 1347443.12031564 13541.80399277
0.06700000 1338508.65864932 15018.06785288
0.06800000 1329512.04398242 22016.72047893
0.06900000 1320456.93809692 16637.75819898
0.07000000 1311342.72917417 15362.38079167
0.07100000 1302174.09836640 22501.56947369
0.07200000 1292952.85249463 18405.18471749
0.07300000 1283682.76909537 19948.43116644
0.07400000 1274366.46043693 17203.94802215
0.07500000 1265004.71106059 20189.47613486
0.07600000 1255600.73370525 24653.72156208
0.07700000 1246158.67676930 16038.06292202
0.07800000 1236679.23534126 20516.50947646
0.07900000 1227164.65209629 14725.97651586
0.08000000 1217620.27900559 14794.08708392
0.08100000 1208046.65429665 20802.56436301
0.08200000 1198445.39609321 14920.64588151
0.08300000 1188819.74071162 19472.86826676
0.08400000 1179172.93565497 19544.79232589
0.08500000 1169507.05406838 19612.63421744
0.08600000 1159824.31175335 21189.99117064
0.08700000 1150127.13079948 21254.35037523
0.08800000 1140417.07432311 18269.48238866
0.08900000 1130697.98526419 18317.30822164
0.09000000 1120971.54486715 18361.51476747
0.09100000 1111240.03988533 24536.18123341
0.09200000 1101505.01868861 19975.79445252
0.09300000 1091770.96699445 26169.75130863
0.09400000 1082036.32309017 15419.01832869
0.09500000 1072306.19416431 21617.69389044
0.09600000 1062581.45187691 18552.67302189
0.09700000 1052867.35804183 23215.72633626
0.09800000 1043161.99739325 17040.05202860
0.09900000 1033470.48961160 17052.26388043
0.10000000 1023791.35070540 21714.61556964
0.10100000 1014128.82732844 20171.02332424
0.10200000 1004485.18651728 23278.94529249
0.10300000 994861.33665163 17071.82134001
0.10400000 985260.14092810 24828.55671945
0.10500000 975684.95358419 17064.73064107
0.10600001 966132.08031687 20158.34680433
0.10700001 956609.65300682 15497.07710797
0.10800001 947114.84458580 27873.59118794
0.10900001 937652.52922919 23206.90119067
0.11000001 928223.00689370 21636.87930913
0.11100001 918827.31589422 21610.81948713
0.11200001 909468.61428279 16957.04311159
0.11300001 900146.60797073 16931.75849309
0.11400001 890864.67267159 23051.12449073
0.11500001 881623.78733762 24544.40739523
0.11600001 872425.06358343 21435.48482167
0.11700001 863270.40090062 21391.84154176
0.11800001 854159.62206444 15246.74997195
0.11900001 845095.12129343 19775.22676971
0.12000001 836077.95559690 24279.70497423
0.12100001 827111.11267536 21190.58770499
0.12200001 818193.79093815 18114.81138478
0.12300001 809328.44210020 18064.21167876
0.12400001 800514.94540775 15009.65593361
0.12500001 791754.32277880 25439.06758958
0.12600001 783049.95351830 22375.65347620
0.12700001 774400.48049580 20815.88589670
0.12800001 765807.42964592 17782.04935443
0.12900001 757272.34852569 16243.49264147
0.13000001 748795.99416673 25013.53136415
0.13100001 740377.99709941 20523.27904701
0.13200001 732020.13187942 17524.56278331
0.13300001 723724.57804151 21820.29705663
0.13400001 715489.41020681 26079.59023158
0.13500001 707317.86756804 20200.99925018
0.13600001 699208.15666444 15805.60112665
0.13700001 691163.04639251 18599.19845544
0.13800001 683180.85222384 18517.61787274
0.13900001 675265.18829547 15598.62658523
0.14000001 667414.24076276 19762.13660098
0.14100001 659629.16521316 16860.12225802
0.14200001 651910.06737270 15381.81876515
0.14300001 644258.75376247 20873.98460648
0.14400001 636672.28428853 16617.14740376
0.14500001 629155.07095356 15156.34637423
0.14600001 621705.06902484 15079.45716056
0.14700001 614324.91816055 15001.81520921
0.14800001 607010.01866183 14923.34201286
0.14900001 599765.13622229 24290.48916305
0.15000001 592588.18503131 17448.75993153
0.15100001 585480.68025857 14683.85615374
0.15200001 578442.08407184 15930.29574704
0.15300001 571473.62241024 15841.24956074
0.15400001 564571.72520030 17064.18119946
0.15500001 557740.77448813 15661.36168673
0.15600001 550976.45859572 18165.69469723
0.15700001 544284.61880711 15479.45528946
0.15800001 537658.05776361 16670.08886777
0.15900001 531102.97090161 19119.70785492
0.16000001 524614.14974111 17737.20523999
0.16100001 518196.91577043 16369.84134191
0.16200001 511846.96877033 20023.45436352
0.16300001 505564.94524825 13680.58806425
0.16400001 499351.40309401 18538.42171506
0.16500001 493205.20680609 17193.13432097
0.16600001 487127.48624076 12202.54410645
0.16700001 481115.75210539 16973.76453569
0.16800001 475170.40099332 14454.68428071
0.16900001 469293.88587019 15557.09305117
0.17000001 463482.34269920 13077.15491676
0.17100001 457736.56494846 12990.56432667
0.17200001 452056.93001686 19942.49240944
0.17300001 446442.54452223 12817.36605853
0.17400001 440893.05242934 12730.78749012
0.17500001 435407.77082413 12644.24226189
0.17600001 429984.97156622 14840.93199453
0.17700001 424627.63679160 19273.84934429
0.17800001 419331.57073778 25895.82237403
0.17900001 414098.98508342 14534.87506296
0.18000001 408928.06102004 12212.63711923
0.18100001 403820.33188062 12126.72513920
0.18200001 398770.86407828 13135.51288323
0.18300001 393782.99715224 13042.09348178
0.18400001 388854.68754683 12948.86170702
0.18500001 383987.23791488 13927.21777712
0.18600001 379176.77930920 11699.50007831
0.18700001 374424.57015892 12670.52805279
0.18800001 369729.93049026 11530.02842709
0.18900001 365094.17011663 11445.70277394
0.19000001 360510.74951522 14460.08684628
0.19100001 355987.92480492 14353.43380634
0.19200001 351516.85832322 12211.69623517
0.19300001 347103.16080364 10100.70245667
0.19400001 342741.16031823 13032.73323695
0.19500001 338433.57407679 11939.93705765
0.19600001 334178.74686320 10862.48068011
0.19700001 329975.74281364 9800.28002470
0.19800001 325824.51507545 9725.86223463
0.19900001 321724.63489451 10616.91345327
0.20000001 317673.47389933 11493.42682887
0.20100001 313673.76588128 10454.74711094
0.20200001 309721.43561080 10374.11997610
0.20300001 305819.20326890 11229.68167480
0.20400001 301963.76583427 11142.46348594
0.20500001 298155.37040088 11976.90179511
0.20600001 294393.66132056 13711.38542411
0.20700001 290678.28958416 15417.57720832
0.20800001 287006.74617246 8997.66191783
0.20900001 283382.40160950 8926.54607267
0.21000001 279800.05334349 9741.23931764
0.21100001 276261.95801244 13177.69602015
0.21200001 272766.11235681 9586.36547197
0.21300001 269311.91979713 8644.91303418
0.21400001 265900.44084254 10290.34754710
0.21500001 262530.75188796 10207.19611597
0.21600001 259200.23000235 15186.54219384
0.21700001 255909.93918289 13389.20865109
0.21800001 252659.15790213 12449.78059426
0.21900001 249446.13757619 10701.23980799
0.22000001 246271.08868567 8163.88697594
0.22100001 243135.19063452 9715.68267715
0.22200001 240036.31812310 11240.90130922
0.22300001 236972.51940168 13535.87094827
0.22400001 233944.19064008 8685.17848820
0.22500001 230953.92654850 8612.27232824
0.22600001 227996.21500398 12421.23438080
0.22700001 225075.14087040 10006.84123631
0.22800001 222186.33034023 7632.10080811
0.22900001 219330.34368466 8323.58693646
0.23000001 216508.47440298 12003.23038856
0.23100001 213719.59972288 7437.44242209
0.23200001 210960.94742350 8110.39400727
0.23300001 208234.46895529 8770.83624721
0.23400001 205539.78141548 8694.33316508
0.23500001 202873.57483888 7181.72488896
0.23600001 200239.37637305 9965.91423344
0.23700001 197634.00219314 9172.19447561
0.23800001 195058.00880586 6992.82994644
0.23900001 192510.56222669 7623.41862476
0.24000001 189991.43728528 9615.46709582
0.24100001 187501.47259086 10209.45566549
0.24200001 185038.33635504 8768.04198293
0.24300001 182602.81680812 8688.24243471
0.24400001 180193.67683542 11919.81228651
0.24500001 177811.02322187 9185.71789417
0.24600001 175454.92064903 10400.96818809
0.24700001 173124.54355412 10948.39665229
0.24800001 170819.56455308 7018.12214167
0.24900001 168538.95384647 8216.27438871
0.25000001 166284.07451849 7512.71484216
0.25100001 164052.50437910 6821.30345479
0.25200001 161846.73749936 6756.29237655
0.25300001 159664.60657368 6691.54397808
0.25400001 157505.48017970 7229.50188228
0.25500001 155369.32726981 8352.65542921
0.25600001 153256.86433308 7089.66287948
0.25700001 151166.29237751 8775.20368770
0.25800001 149099.10702761 8109.50081493
0.25900001 147053.77310586 6308.60716473
0.26000001 145030.51781790 9084.71206596
0.26100001 143028.32292050 7307.31736376
0.26200001 141048.51157990 8346.54606767
0.26300001 139089.12131606 8261.89419711
0.26400001 137151.13444316 5451.75785208
0.26500001 135234.37085902 5935.43681786
0.26600001 133337.14093672 6408.18329665
0.26700001 131461.42669406 7927.12440477
0.26800001 129606.24962262 6275.53490369
0.26900001 127769.61515645 5174.66965871
0.27000001 125953.90071535 6144.03156764
0.27100001 124157.33691741 7091.86742033
0.27200001 122381.57792661 5512.67843858
0.27300001 120624.20102374 4957.65489669
0.27400001 118884.14042949 5394.36812728
0.27500001 117166.04064162 6790.94403697
0.27600001 115464.25871039 5277.29419411
0.27700001 113782.98239845 5693.70070868
0.27800001 112118.95550049 6099.83206269
0.27900001 110474.77075838 6031.92276889
0.28000001 108847.22943626 6881.86640682
0.28100001 107238.56004704 6804.28695703
0.28200001 105648.41271999 4484.77533223
0.28300001 104075.65195589 5320.34757980
0.28400001 102520.40684531 4382.74760008
0.28500001 100983.23794704 6931.48978076
0.28600001 99463.28013808  5566.46273640
0.28700001 97960.76445948  5924.66731494
0.28800001 96474.72085487  6691.48695522
0.28900001 95007.78696988  5372.69060746
0.29000001 93556.19547144  4900.47375075
0.29100001 92122.58418544  6052.45406747
0.29200001 90705.51653178  4385.15840430
0.29300001 89305.39728758  4726.04184817
0.29400001 87921.24295609  4279.56670347
0.29500001 86554.83356705  4227.33827152
0.29600001 85204.02947002  4555.00763109
0.29700001 83869.74038202  4873.67084431
0.29800001 82551.57524519  4813.16982252
0.29900001 81250.40292113  5484.40245680
0.30000001 79964.43808576  5054.55237068
0.30100001 78695.65078625  3921.40446432
0.30200001 77441.21145814  3871.67355014
0.30300001 76203.99125974  3822.39238255
0.30400001 74982.42026267  5145.66883413
0.30500001 73776.23567523  3386.32937781
0.30600001 72584.82633167  4679.54397515
0.30700001 71410.10452142  3958.97638210
0.30800001 70250.42739606  3907.32895676
0.30900001 69106.13024121  3534.77872919
0.31000001 67977.48509390  3805.37979572
0.31100001 66863.00089728  4380.86402620
0.31200001 65764.39322710  4631.45761230
0.31300001 64680.23468744  3046.43919802
0.31400001 63612.23440830  4207.94950534
0.31500001 62557.91523839  3558.29438723
0.31600002 61518.97858495  4095.31859830
0.31700002 60494.57367953  3751.26869148
0.31800002 59484.78477566  4269.52062943
0.31900002 58489.60882765  3369.00162799
0.32000002 57509.18801649  3599.78779434
0.32100002 56542.39178623  4096.49647888
0.32200002 55591.11122739  3770.74525310
0.32300002 54652.24354282  4249.75865912
0.32400002 53728.19528317  3928.87446612
0.32500002 52818.13422391  3615.92964019
0.32600002 51922.49986189  3310.83836047
0.32700002 51039.83649017  2762.27608165
0.32800002 50171.77554839  2971.17268867
0.32900002 49316.63925497  2441.17375872
0.33000002 48476.15864506  3610.26208605
0.33100002 47646.57751198  2847.35960695
0.33200002 46833.36395773  3275.05729665
0.33300002 46032.04272168  2998.06708444
0.33400002 45244.24391880  2728.22803750
0.33500002 44468.53367601  2465.33562375
0.33600002 43707.00720754  2430.32825087
0.33700002 42957.04307774  2613.50662462
0.33800002 42221.12066064  3005.72172217
0.33900002 41496.66651579  2327.96310178
0.34000002 40785.42717288  2294.79216856
0.34100002 40086.41556004  2467.71985874
0.34200002 39400.32617455  2432.57625322
0.34300002 38725.19437015  2198.04213655
0.34400002 38063.84422613  2363.76483839
0.34500002 37413.41632555  2718.45895896
0.34600002 36775.89216545  2297.02233344
0.34700002 36148.52761454  3207.82049244
0.34800002 35534.36528883  2790.33616646
0.34900002 34931.02487519  2017.26678208
0.35000002 34339.36951772  2531.15504703
0.35100002 33759.58896589  2852.01021092
0.35200002 33189.72958672  1933.13589134
0.35300002 32631.55991060  2252.55668732
0.35400002 32084.66315740  3075.31510929
0.35500002 31548.83608555  2021.64951212
0.35600002 31022.66244922  2325.76911398
0.35700002 30507.69328182  1965.91584820
0.35800002 30003.85168166  2100.41973646
0.35900002 29510.12250043  1912.25602860
0.36000002 29027.00226072  2043.35592093
0.36100002 28553.21701257  1550.43975722
0.36200002 28090.70301716  1835.44662208
0.36300002 27637.05656778  1659.88169608
0.36400002 27193.27564504  2531.01425055
0.36500002 26759.04058001  1615.97853717
0.36600002 26334.90181010  1594.71005465
0.36700002 25919.54051003  2003.06218550
0.36800002 25515.01147512  1694.70714245
0.36900002 25118.63417455  2091.12639409
0.37000002 24731.02681947  1651.53804924
0.37100002 24352.27784371  1630.62860166
0.37200002 23983.29218755  1476.05178760
0.37300002 23622.38476300  1325.21584798
0.37400002 23270.08154125  1439.83636357
0.37500002 22926.72941774  1551.68112050
0.37600002 22591.75975559  1277.56407470
0.37700002 22264.50201617  1767.35625377
0.37800002 21945.37045644  1497.11324346
0.37900002 21634.94575652  1726.46875316
0.38000002 21332.09868527  1341.04244738
0.38100002 21036.15601764  1566.98333599
0.38200002 20748.88282504  1430.42804972
0.38300002 20468.33917645  1296.87403166
0.38400002 20196.17611359  1282.96214839
0.38500002 19929.97032610  1615.52347117
0.38600002 19672.26818976  1598.76531152
0.38700002 19420.69624374  1243.31303243
0.38800002 19176.35148898  1342.72819487
0.38900002 18938.24514118  1218.67613257
0.39000002 18708.01751646  1316.67033519
0.39100002 18483.27218678  1521.54303850
0.39200002 18265.49701385  1184.42620998
0.39300002 18053.77637248  1387.07170441
0.39400002 17849.57136960  1163.34586913
0.39500002 17650.33259769  1677.48768956
0.39600002 17457.07803039  1143.52595056
0.39700002 17269.79444072  1237.20813235
0.39800002 17088.55697416  1227.30022003
0.39900002 16912.72005581  1217.71590171
0.40000002 16742.31209145  1107.75513202
0.40100002 16577.76332498  1099.60309344
0.40200002 16418.76240748  1488.77135184
0.40300002 16264.29033902  1084.17764537
0.40400002 16115.52322269  1272.72350681
0.40500002 15971.85330360  1167.22309473
0.40600002 15832.96202472  1159.92285289
0.40700002 15698.99158357  1152.93399652
0.40800002 15569.88166812  1050.73351416
0.40900002 15445.16999805  1329.82919984
0.41000002 15325.43820695  1039.29464125
0.41100002 15209.84317854  1127.96202357
0.41200002 15098.35881422  1028.87771015
0.41300002 14991.86244657  1117.19364245
0.41400002 14888.97321172  1204.89021425
0.41500002 14790.43107985  1107.50753174
0.41600002 14695.32532001  1011.11190655
0.41700002 14604.52538333  1098.84454191
0.41800002 14518.46236228  1277.47956379
0.41900002 14434.10042032  1091.21804348
0.42000002 14354.75349781  1087.80327161
0.42100002 14279.06554824  1175.02435964
0.42200002 14206.94604726  1171.86000024
0.42300002 14137.51428133  1078.97514108
0.42400002 14071.40825207  1524.98894158
0.42500002 14008.88300884  1253.23473336
0.42600002 13948.67003351  893.41235798
0.42700002 13892.79890772  1070.30127857
0.42800002 13838.94465932  1068.64335723
0.42900002 13789.12184512  978.33824127
0.43000002 13741.56098077  977.23115546
0.43100002 13695.82569447  1153.73641117
0.43200002 13653.89180864  1064.18437799
0.43300002 13614.33622860  1063.55199658
0.43400002 13577.30674546  974.51123784
0.43500002 13542.61368265  1239.96176754
0.43600002 13510.68616589  885.62552014
0.43700002 13480.55981350  1062.80738606
0.43800002 13452.53471200  1151.60428859
0.43900002 13427.51018487  1240.70199988
0.44000002 13404.07890697  1152.68382023
0.44100002 13383.09781508  1330.94914078
0.44200002 13363.95996612  976.83870002
0.44300002 13346.80658470  1155.56656887
0.44400002 13331.93766862  1067.88825786
0.44500002 13317.59221303  1514.60983417
0.44600002 13305.57203276  1248.99410591
0.44700002 13296.29281684  1340.26637945
0.44800002 13287.07800872  1342.32711945
0.44900002 13281.14941801  1075.77315384
0.45000002 13276.05679739  1167.56287038
0.45100002 13272.19162772  1079.82556201
0.45200002 13270.06248283  1082.04094613
0.45300002 13268.97381382  1355.42573932
0.45400002 13269.68148678  1086.78696527
0.45500002 13271.63912937  1089.33619137
0.45600002 13274.71789513  909.98195484
0.45700002 13279.01219688  912.26818116
0.45800002 13284.14168485  1646.30375703
0.45900002 13290.43908126  1008.74437408
0.46000002 13298.61565231  919.59931594
0.46100002 13306.66406517  1291.01260879
0.46200002 13316.60416595  1109.80584379
0.46300002 13327.34050310  1113.09953157
0.46400002 13338.34751910  1209.45471862
0.46500002 13350.67730246  1306.49734274
0.46600002 13363.68848185  1029.73906477
0.46700002 13377.09653250  939.07222109
0.46800002 13392.32734925  1130.58032841
0.46900002 13407.11649926  1039.72193380
0.47000002 13422.92814802  1896.65983721
0.47100002 13439.41705396  1046.66184977
0.47200002 13456.74517409  1241.18294996
0.47300002 13474.64487530  1245.46148485
0.47400002 13492.32727634  1153.59403680
0.47500002 13510.97605957  964.68373638
0.47600002 13530.53885624  1161.73212126
0.47700002 13549.69512792  971.51318672
