# SAXS profile: number of points = 501, q_min = 0, q_max = 0.5, delta_q = 0.001
#    q    intensity    error
0.00000000 1664650.74656090 399.51617917
0.00100000 1664563.82515210 649.17990723
0.00200000 1664303.01795780 898.72365816
0.00300000 1663868.56532192 1397.64964466
0.00400000 1663260.30506026 1496.93433143
0.00500000 1662478.92777509 1795.47731306
0.00600000 1661524.25694891 2442.44075715
0.00700000 1660397.05859751 1992.47655312
0.00800000 1659097.10399593 2463.75930345
0.00900000 1657625.80197645 2486.43880925
0.01000000 1655982.57745306 2732.37137078
0.01100000 1654169.07018931 3275.25490158
0.01200000 1652184.98916476 3543.93695714
0.01300000 1650031.84907532 3811.57373947
0.01400000 1647709.78352848 4448.81661275
0.01500000 1645220.34905772 8291.91092848
0.01600000 1642563.25228227 4607.39012862
0.01700000 1639740.63689219 6198.21988550
0.01800000 1636753.11716289 6064.17057196
0.01900000 1633601.48764247 7351.20702610
0.02000000 1630286.72753085 6676.02445123
0.02100000 1626811.48048539 7515.86938060
0.02200000 1623174.34629769 7839.93244880
0.02300000 1619378.60475674 6412.73956673
0.02400000 1615424.80230656 6663.62761336
0.02500000 1611315.26661284 6912.54280947
0.02600000 1607050.45181047 7159.41009027
0.02700000 1602632.21295983 10769.68896435
0.02800000 1598061.21965182 6951.56662428
0.02900000 1593340.71345653 7887.03689374
0.03000000 1588471.37161091 8125.03143926
0.03100000 1583454.87112904 9880.75885049
0.03200000 1578292.26658144 10156.31120323
0.03300000 1572987.99126838 8824.46303783
0.03400000 1567540.26600977 9052.54545389
0.03500000 1561953.52030353 10121.45927896
0.03600000 1556228.11212343 12091.89299001
0.03700000 1550367.27754275 10604.51266882
0.03800000 1544372.39759330 9938.03683844
0.03900000 1538246.09296608 10152.42468374
0.04000000 1531988.53076662 13190.42186113
0.04100000 1525603.85025261 11533.56564268
0.04200000 1519093.49792744 11757.78421944
0.04300000 1512459.37260136 12976.90201928
0.04400000 1505703.98031899 11179.85257308
0.04500000 1498830.23628088 10341.92911087
0.04600000 1491838.47097902 11569.20788026
0.04700000 1484732.87656565 14966.10809182
0.04800000 1477514.86206840 16289.60211223
0.04900000 1470187.26319427 19847.52897698
0.05000000 1462751.72944821 13428.06150163
0.05100000 1455212.51308896 15890.92138319
0.05200000 1447568.62733573 14960.62246070
0.05300000 1439825.46023549 17493.88015739
0.05400000 1431983.94764734 12995.25493092
0.05500000 1424048.18767511 14354.40640139
0.05600000 1416018.34118324 14528.34885849
0.05700000 1407900.09771160 18373.09713277
0.05800000 1399692.25537942 16103.46015005
0.05900000 1391399.25483983 12522.59387844
0.06000000 1383024.58233524 13920.14307154
0.06100000 1374569.46963153 15340.19599796
0.06200000 1366036.96279946 18072.66986262
0.06300000 1357430.55003484 16940.73405650
0.06400000 1348749.21773539 19725.45823188
0.06500000 1339999.79124866 14592.59840931
0.06600000 1331183.22126150 16054.07039956
0.06700000 1322301.04493914 14836.21841854
0.06800000 1313357.24668784 16311.89776741
0.06900000 1304355.63991929 16434.88183245
0.07000000 1295295.61993194 15174.38889810
0.07100000 1286181.75022552 16668.91626366
0.07200000 1277015.67161543 18178.31893704
0.07300000 1267801.34123994 16887.11465657
0.07400000 1258541.37702466 15574.45027056
0.07500000 1249236.48113191 17089.55586291
0.07600000 1239889.91674700 17184.87505175
0.07700000 1230505.68038446 14396.91713555
0.07800000 1221084.77039158 17363.82624927
0.07900000 1211628.91076044 15993.50237219
0.08000000 1202144.01421547 18987.86559527
0.08100000 1192630.23364326 16136.28781828
0.08200000 1183089.43333551 17675.35696345
0.08300000 1173524.56117763 17743.69219775
0.08400000 1163939.13938063 17808.26966842
0.08500000 1154334.98798500 19358.19865728
0.08600000 1144714.41065084 20913.93326453
0.08700000 1135079.93114878 26969.50043052
0.08800000 1125432.88575960 24039.24756880
0.08900000 1115777.31404459 19581.89278124
0.09000000 1106114.79873673 24157.54833922
0.09100000 1096447.37998482 16644.07201013
0.09200000 1086777.06954718 21224.75716554
0.09300000 1077108.06957722 16705.94694419
0.09400000 1067438.88231680 18253.20574547
0.09500000 1057774.53148834 19801.54016019
0.09600000 1048115.87977730 21350.12147469
0.09700000 1038468.25652784 18318.58090636
0.09800000 1028829.77912652 15278.12293837
0.09900000 1019205.41150197 16816.89008055
0.10000000 1009593.78915621 27531.62392502
0.10100000 999998.92622444 18359.98114898
0.10200000 990423.28754239 15302.04051228
0.10300000 980867.87803143 24482.46338734
0.10400000 971335.32536955 19888.09172258
0.10500000 961829.05720149 19881.00754774
0.10600001 952345.33599895 16813.65769820
0.10700001 942892.29772661 18329.82713036
0.10800001 933467.09621972 18314.62528975
0.10900001 924074.63937136 22870.84840087
0.11000001 914715.25399048 16753.01066539
0.11100001 905389.78007810 19773.71372772
0.11200001 896101.83620480 16707.81952259
0.11300001 886850.57267377 18198.17460805
0.11400001 877639.53652545 16653.21098968
0.11500001 868469.64275197 22667.05874317
0.11600001 859342.37159084 16589.60526479
0.11700001 850259.02180212 19564.46101305
0.11800001 841220.00723420 16517.35561998
0.11900001 832227.15736132 22470.13430714
0.12000001 823281.84603406 23908.10593502
0.12100001 814387.00330652 19374.26772135
0.12200001 805541.94969874 16348.47463933
0.12300001 796748.66526518 19265.38363379
0.12400001 788007.56805453 17730.17111663
0.12500001 779319.48072776 20620.79443172
0.12600001 770687.62454630 20554.23991524
0.12700001 762110.60685987 17559.02920954
0.12800001 753590.31623695 18956.56529835
0.12900001 745128.01924946 21794.99559029
0.13000001 736724.39377676 17371.96202408
0.13100001 728379.21453331 20190.67277860
0.13200001 720094.32165299 14365.88239419
0.13300001 711871.59072009 17170.34357763
0.13400001 703709.31966626 15675.12583458
0.13500001 695610.59631880 15609.50251735
0.13600001 687573.94440153 19781.50331314
0.13700001 679601.78773283 16881.30920329
0.13800001 671692.54905289 18206.22740061
0.13900001 663849.67522370 13940.84383712
0.14000001 656071.52315187 22201.46139049
0.14100001 648359.33617690 15191.05996308
0.14200001 640712.89743243 15117.62152795
0.14300001 633134.49560600 21881.12920022
0.14400001 625620.46991651 17689.41962130
0.14500001 618175.94755801 16245.66466817
0.14600001 610798.48718228 17508.53946103
0.14700001 603490.92291437 17416.74885697
0.14800001 596248.14783722 27984.90813903
0.14900001 589075.61642468 23857.56359082
0.15000001 581970.92049057 14499.80616817
0.15100001 574935.36417904 14419.37961399
0.15200001 567968.84969017 14338.37428701
0.15300001 561072.12418691 16848.99668442
0.15400001 554242.04809793 15463.35387166
0.15500001 547482.56897380 14092.20199044
0.15600001 540789.64468922 24197.63379362
0.15700001 534169.16199991 17723.73363166
0.15800001 527613.74446979 12583.58839953
0.15900001 521129.57786874 18760.66568879
0.16000001 514711.61871290 14916.34341439
0.16100001 508365.08847876 17294.58112643
0.16200001 502085.54808352 12275.99223014
0.16300001 495873.86145250 12198.49756760
0.16400001 489730.31901658 14544.99116146
0.16500001 483654.10855663 21677.37816893
0.16600001 477646.07747691 14358.04176684
0.16700001 471703.76801829 19019.09682448
0.16800001 465827.57488263 14170.47549701
0.16900001 460020.23581347 16422.72319399
0.17000001 454277.41659053 18643.54605722
0.17100001 448600.32199171 15046.05551010
0.17200001 442989.19804727 11495.57023218
0.17300001 437442.91410663 11417.26059736
0.17400001 431961.21669002 12472.88072097
0.17500001 426543.69495168 13512.90489425
0.17600001 421188.38065466 14537.31764488
0.17700001 415898.23708597 16656.72518200
0.17800001 410668.97260666 13231.75492235
0.17900001 405503.01109470 15328.01454338
0.18000001 400398.60326354 13044.98711051
0.18100001 395356.99050619 14031.22025585
0.18200001 390373.38396710 15002.04985452
0.18300001 385451.04942302 11702.29441329
0.18400001 380588.12648534 10561.32100889
0.18500001 375785.55340508 14678.18440943
0.18600001 371039.83856472 11448.43475978
0.18700001 366352.09655102 11364.24257191
0.18800001 361721.68308997 15382.21530015
0.18900001 357149.61244424 11196.64087914
0.19000001 352629.81859433 13133.69821410
0.19100001 348170.29585332 11030.03549380
0.19200001 343762.15337849 11942.29777266
0.19300001 339411.14948810 11852.23790017
0.19400001 335111.40857053 11762.41099665
0.19500001 330865.91045402 10700.20404972
0.19600001 326672.70180211 11583.81455331
0.19700001 322531.04048936 19158.34471044
0.19800001 318440.94541832 15208.74027193
0.19900001 314401.77694845 9432.05375421
0.20000001 310411.01866044 12166.56045140
0.20100001 306471.42533497 13000.51847714
0.20200001 302578.80607798 11056.23009665
0.20300001 298735.99902714 9141.32200229
0.20400001 294939.65953067 9976.33445516
0.20500001 291190.03196424 12596.88137819
0.20600001 287486.81866430 13389.69921219
0.20700001 283829.40575062 12397.66902921
0.20800001 280215.78272568 13177.14780556
0.20900001 276648.67006735 11328.76357478
0.21000001 273123.53709741 12102.10450088
0.21100001 269642.14845323 10289.54487140
0.21200001 266202.71225826 9355.69476460
0.21300001 262804.56694418 10123.23239727
0.21400001 259448.86731242 9203.94900304
0.21500001 256134.43774857 9958.50741048
0.21600001 252859.03937034 9053.61833270
0.21700001 249623.50231132 8978.95780266
0.21800001 246427.05247861 8095.12905666
0.21900001 243267.91608482 8830.62577140
0.22000001 240146.63985275 11941.29223129
0.22100001 237064.00631041 11841.34767511
0.22200001 234018.11985434 9393.48777512
0.22300001 231006.92698475 10090.38304782
0.22400001 228030.95413928 9235.25407934
0.22500001 225092.54829516 11445.95662206
0.22600001 222186.44378173 9835.08339908
0.22700001 219316.53948362 8250.68860554
0.22800001 216478.73614597 9666.85841974
0.22900001 213673.29057078 8108.90176064
0.23000001 210901.53700548 7307.73860284
0.23100001 208162.53153116 7244.05643988
0.23200001 205453.42259325 7898.65720515
0.23300001 202776.09427821 7117.44124578
0.23400001 200130.33081695 7760.05394444
0.23500001 197512.67452646 9089.53371161
0.23600001 194926.59304166 9008.53292350
0.23700001 192369.12298474 8241.09361845
0.23800001 189840.64181001 8847.52353003
0.23900001 187340.35738888 8093.10382200
0.24000001 184868.13173466 7351.28160615
0.24100001 182424.64026756 7284.21623044
0.24200001 180007.66036196 7873.53543667
0.24300001 177618.11774554 7150.90575869
0.24400001 175254.46639620 6440.60194472
0.24500001 172916.96097464 7656.76339416
0.24600001 170605.85248340 8217.23127358
0.24700001 168320.08732517 10644.56282599
0.24800001 166059.24790434 6822.54452290
0.24900001 163822.52848232 6757.67961958
0.25000001 161611.25032994 7910.06302161
0.25100001 159422.95377999 6628.80673177
0.25200001 157260.22571402 7161.63101783
0.25300001 155120.69875028 6501.10879219
0.25400001 153003.93868894 7608.12121126
0.25500001 150909.95610418 6374.43684743
0.25600001 148839.20044228 8032.85202793
0.25700001 146789.85639075 10225.38187998
0.25800001 144763.92748019 6186.48673357
0.25900001 142759.49559378 6681.14470991
0.26000001 140776.71029367 6062.54931565
0.26100001 138814.76009065 8728.67252751
0.26200001 136874.88499520 6479.65736227
0.26300001 134955.23844454 6413.07323434
0.26400001 133056.58887212 5817.89962373
0.26500001 131178.87891233 5234.03751627
0.26600001 129320.39727490 6215.13858713
0.26700001 127483.28029699 5124.82811045
0.26800001 125666.28755608 5577.69843712
0.26900001 123867.70138184 7023.29900070
0.27000001 122089.65377955 5459.23912710
0.27100001 120330.47543996 9818.96726056
0.27200001 118591.85467260 5827.60401439
0.27300001 116871.24313181 5283.74915204
0.27400001 115167.78975088 4750.67155205
0.27500001 113486.02858929 5168.15398654
0.27600001 111820.38083629 6039.97815672
0.27700001 110174.80786684 5053.71867603
0.27800001 108546.40521427 4542.66727321
0.27900001 106937.59710080 5838.79307804
0.28000001 105345.06420334 6660.44199948
0.28100001 103771.18288053 4828.47336796
0.28200001 102215.63610075 4772.95935363
0.28300001 100677.13450934 5146.61535971
0.28400001 99155.95994227  5510.59273461
0.28500001 97652.62981492  5027.15762081
0.28600001 96166.21966226  4553.95154765
0.28700001 94697.12152142  5318.19059637
0.28800001 93244.28924485  5658.99618213
0.28900001 91810.07733068  5191.86011880
0.29000001 90391.24299283  5523.80912076
0.29100001 88990.04356857  5846.64613921
0.29200001 87605.22151407  4235.27463458
0.29300001 86237.05889870  5324.27626844
0.29400001 84884.67011507  4131.76151343
0.29500001 83549.77843953  5193.45447364
0.29600001 82230.39538684  5495.04643185
0.29700001 80927.22836482  3617.44727915
0.29800001 79640.02091353  4286.22612847
0.29900001 78369.49052224  3526.62724045
0.30000001 77114.10550603  3829.87223126
0.30100001 75875.59808585  3437.16475601
0.30200001 74651.20763361  3732.18730233
0.30300001 73443.91364702  4018.85114502
0.30400001 72252.08667764  3636.08643419
0.30500001 71075.47609114  3914.83740844
0.30600001 69913.33384268  4185.36192864
0.30700001 68767.76131806  5083.31315729
0.30800001 67636.98593734  4702.46166993
0.30900001 66521.50698073  3711.90026526
0.31000001 65421.40292817  3051.90859109
0.31100001 64335.26358828  4215.24666988
0.31200001 63264.90458641  4158.40237535
0.31300001 62208.68912358  2930.02939645
0.31400001 61168.54410343  2890.21384573
0.31500001 60142.06055670  4846.24746912
0.31600002 59130.56957987  5060.98568997
0.31700002 58133.49210859  5823.23218024
0.31800002 57150.82050789  2734.66689078
0.31900002 56182.60718867  4045.14790912
0.32000002 55229.02647854  2659.27775086
0.32100002 54288.96257296  2622.15701643
0.32200002 53364.08170072  2844.03886891
0.32300002 52451.68084395  3823.72771458
0.32400002 51553.77391357  2513.24659729
0.32500002 50669.62965484  2725.51950819
0.32600002 49799.88881615  2686.95312831
0.32700002 48942.98788876  2889.59414178
0.32800002 48100.46171103  2373.75789784
0.32900002 47270.70289300  2573.88989441
0.33000002 46455.52483584  2537.16860905
0.33100002 45650.91117284  2728.09858088
0.33200002 44862.72680967  2240.89331026
0.33300002 44086.19701378  2429.59043248
0.33400002 43323.03751433  3265.47410728
0.33500002 42571.82541605  2360.18211283
0.33600002 41834.64262108  2960.63779850
0.33700002 41108.92085065  2292.64462441
0.33800002 40396.96491032  2875.86006816
0.33900002 39696.50809558  2024.52200875
0.34000002 39008.97273503  1995.30904989
0.34100002 38333.66143547  1966.51692477
0.34200002 37671.06441616  2325.81162720
0.34300002 37019.34486106  1910.19828530
0.34400002 36381.06161500  2070.99203052
0.34500002 35753.80405461  2968.99602931
0.34600002 35139.32119422  1829.00175478
0.34700002 34534.71390848  2523.79701196
0.34800002 33943.26463789  2665.39498193
0.34900002 33362.53533751  1926.68650699
0.35000002 32793.13751448  1726.55877191
0.35100002 32235.78113213  2212.66412171
0.35200002 31687.91932446  2181.23803001
0.35300002 31151.78452596  1984.99180401
0.35400002 30626.87501763  1793.96928913
0.35500002 30112.76675056  1608.02182064
0.35600002 29608.15153589  1902.61990781
0.35700002 29114.74683897  2814.23156275
0.35800002 28632.35287585  1696.03750293
0.35900002 28159.81079316  1824.75582583
0.36000002 27697.69619180  2399.72851172
0.36100002 27244.94632763  1479.40065566
0.36200002 26803.24158335  1897.26754534
0.36300002 26370.25846110  1583.79779819
0.36400002 25947.07988877  1704.72322944
0.36500002 25533.34631074  1541.95885674
0.36600002 25129.55543748  2351.74955701
0.36700002 24734.36878280  1774.93838793
0.36800002 24349.91259848  1482.54449878
0.36900002 23973.44354947  1463.57879802
0.37000002 23605.69179788  2101.85089725
0.37100002 23246.60575759  1686.30886154
0.37200002 22897.18571511  1665.42688188
0.37300002 22555.71458846  1265.37564835
0.37400002 22222.67277143  1750.03556365
0.37500002 21898.50449773  1235.07571218
0.37600002 21582.62172637  1342.54704809
0.37700002 21274.27107928  1568.12659554
0.37800002 20973.85854499  1669.30948067
0.37900002 20682.04008254  1650.42687677
0.38000002 20397.71374407  1748.59409355
0.38100002 20120.16777558  1268.17423497
0.38200002 19851.18356391  1140.45054977
0.38300002 19588.74516541  1466.80530747
0.38400002 19334.59733843  1451.54496395
0.38500002 19086.22891288  1436.62051833
0.38600002 18846.18544856  1312.82534054
0.38700002 18612.30366983  1733.17779984
0.38800002 18385.37358608  1287.34391949
0.38900002 18164.62110806  1487.68253923
0.39000002 17951.59085496  1474.00519493
0.39100002 17743.85303386  1565.00791173
0.39200002 17543.00259634  1344.40806766
0.39300002 17348.16987185  1025.27688800
0.39400002 17160.56894740  1220.11650997
0.39500002 16977.81517263  1008.48226903
0.39600002 16800.95836076  1800.89481201
0.39700002 16629.97611940  1191.37154564
0.39800002 16464.75939300  1182.49907563
0.39900002 16304.95186836  1271.78630599
0.40000002 16150.34447801  1165.73191965
0.40100002 16001.48754396  2026.26846369
0.40200002 15858.01959283  1246.20252875
0.40300002 15718.95964970  1238.33969988
0.40400002 15585.44736879  1325.54236152
0.40500002 15456.93537326  1129.59289060
0.40600002 15333.09610232  1123.30267368
0.40700002 15213.83087332  1024.19514292
0.40800002 15099.51550239  1111.62638396
0.40900002 14989.32076269  1290.58057882
0.41000002 14883.96705504  1192.87559615
0.41100002 14782.69800616  1187.64201409
0.41200002 14685.31260207  1455.60825409
0.41300002 14592.73039500  1268.69204066
0.41400002 14503.69636997  902.85514181
0.41500002 14418.86591547  989.71100333
0.41600002 14337.34805724  986.48127982
0.41700002 14259.92103543  1072.91650954
0.41800002 14187.11730422  980.82640130
0.41900002 14115.82486101  1067.15641006
0.42000002 14049.40060033  1330.82953493
0.42100002 13986.51715646  1328.01986693
0.42200002 13927.08073953  883.67331480
0.42300002 13870.15768388  1146.78469164
0.42400002 13816.35161119  1233.10943973
0.42500002 13766.07420104  1055.58261976
0.42600002 13717.89838305  1317.94714960
0.42700002 13673.95704598  1141.22850914
0.42800002 13631.70322816  1228.08020202
0.42900002 13593.56498986  1315.17747509
0.43000002 13557.38960648  1139.43086347
0.43100002 13522.93610233  963.91493105
0.43200002 13492.14423686  1051.57777165
0.43300002 13463.60404452  964.12873132
0.43400002 13437.38524295  1052.14731438
0.43500002 13413.37609604  1228.12877355
0.43600002 13391.87418365  965.62113377
0.43700002 13372.09184923  1142.11041897
0.43800002 13354.33267602  1055.25941807
0.43900002 13339.37418310  1232.55823293
0.44000002 13325.79763202  1410.40248821
0.44100002 13314.57808709  882.75656901
0.44200002 13304.98496553  1237.76281000
0.44300002 13297.27361101  885.59846446
0.44400002 13291.72290474  1330.83381891
0.44500002 13286.49959671  1155.52692469
0.44600002 13283.45703774  1068.78700391
0.44700002 13282.97217300  1249.66208126
0.44800002 13282.39345960  1162.94001447
0.44900002 13284.91813736  986.40521845
0.45000002 13288.16322696  988.83871340
0.45100002 13292.48296966  991.35342686
0.45200002 13298.32077980  1265.06931574
0.45300002 13305.15026702  1177.90500896
0.45400002 13313.54401827  999.51436454
0.45500002 13323.05461214  1002.42667653
0.45600002 13333.48866752  1005.41176062
0.45700002 13344.99874166  1466.88233120
0.45800002 13357.18980197  1011.60681760
0.45900002 13370.49515313  1660.61557672
0.46000002 13385.43094459  925.60259369
0.46100002 13400.10923972  1114.35313719
0.46200002 13416.51680571  931.77713632
0.46300002 13433.52620331  1215.46550848
0.46400002 13450.67802783  1313.45877167
0.46500002 13469.03089575  1318.07942593
0.46600002 13487.92271350  1228.27774012
0.46700002 13507.09046434  1043.01757509
0.46800002 13527.83197776  951.68302474
0.46900002 13547.99505660  955.13369676
0.47000002 13569.04223227  1054.51816706
0.47100002 13590.72022954  1058.44534164
0.47200002 13612.91427068  1641.92173258
0.47300002 13635.58518636  1260.33719851
0.47400002 13657.92080712  1167.75228436
0.47500002 13681.08471259  1269.87834321
0.47600002 13704.99591148  1078.65175434
0.47700002 13728.32489993  1378.04931877
