# SAXS profile: number of points = 501, q_min = 0, q_max = 0.5, delta_q = 0.001
#    q    intensity    error
0.00000000 1646666.22097350 271.69992646
0.00100000 1646580.02464636 740.96102869
0.00200000 1646321.40399325 1037.18251736
0.00300000 1645890.58431344 1086.28782434
0.00400000 1645287.41128545 1357.36216589
0.00500000 1644512.57002797 1776.07364593
0.00600000 1643565.89026024 2416.04195704
0.00700000 1642448.14284186 2168.03163866
0.00800000 1641159.06175819 2215.56482691
0.00900000 1639700.11153910 2951.46032694
0.01000000 1638070.65624289 4324.50671921
0.01100000 1636272.29723075 3828.87734223
0.01200000 1634304.84614859 4142.96296663
0.01300000 1632169.76947481 4113.06800048
0.01400000 1629867.18253153 5134.08185257
0.01500000 1627398.63301722 5077.48396111
0.01600000 1624763.82648910 4971.77753131
0.01700000 1621964.91962031 6568.95821914
0.01800000 1619002.46985746 4614.15724672
0.01900000 1615877.37202186 5332.39556828
0.02000000 1612590.46378759 7111.52426700
0.02100000 1609144.46665004 6903.23007491
0.02200000 1605537.91898886 6093.01667938
0.02300000 1601774.19202001 9226.21976600
0.02400000 1597853.67412072 7190.34186141
0.02500000 1593778.73652943 6837.31109198
0.02600000 1589549.92419486 7725.21298493
0.02700000 1585169.02320030 8655.02326308
0.02800000 1580636.63886612 8250.92363327
0.02900000 1575956.05610276 10637.70386712
0.03000000 1571127.91731059 8766.89418157
0.03100000 1566153.86915929 8269.29280966
0.03200000 1561035.13010982 7727.12424994
0.03300000 1555775.77491755 13488.57659036
0.03400000 1550374.29024713 11395.25155910
0.03500000 1544835.06617433 10844.74266533
0.03600000 1539158.29314314 8542.32892172
0.03700000 1533347.34944346 12236.11241445
0.03800000 1527403.63358344 10722.37400398
0.03900000 1521329.54931777 11866.37103421
0.04000000 1515125.29149541 16772.43775407
0.04100000 1508795.26609061 17109.73911079
0.04200000 1502340.52099355 11628.11617195
0.04300000 1495763.10982694 12833.64807803
0.04400000 1489065.87065780 12061.43411248
0.04500000 1482251.03509722 10227.53261739
0.04600000 1475319.33942629 10401.00182647
0.04700000 1468274.79844801 12685.89484859
0.04800000 1461118.98833315 10739.22506392
0.04900000 1453854.59183064 13084.69193554
0.05000000 1446483.36189882 12172.15805719
0.05100000 1439009.24728523 12346.69991687
0.05200000 1431431.45728949 15931.83286208
0.05300000 1423755.33657827 20758.35377502
0.05400000 1415981.97713463 16354.59259858
0.05500000 1408115.06791106 13010.98383445
0.05600000 1400155.15863056 14365.59259791
0.05700000 1392107.53003780 16955.87050734
0.05800000 1383971.29925205 19597.03451244
0.05900000 1375750.81529090 14858.10949910
0.06000000 1367449.42571596 13763.37911284
0.06100000 1359068.33970652 18959.00422489
0.06200000 1350610.83921305 16592.25493531
0.06300000 1342079.99740803 20614.34972402
0.06400000 1333475.04439066 13001.38229084
0.06500000 1324802.74142101 17050.21207966
0.06600000 1316064.17173820 18517.02376274
0.06700000 1307260.47020749 13334.05742014
0.06800000 1298395.93057329 20157.59776571
0.06900000 1289474.13978725 20309.21865250
0.07000000 1280494.58707900 16364.72158920
0.07100000 1271461.96144480 19224.50575748
0.07200000 1262377.47269218 17969.94416561
0.07300000 1253245.51060480 13911.02581952
0.07400000 1244068.41826695 22393.23257824
0.07500000 1234846.81394976 16892.70520664
0.07600000 1225584.14715053 22648.79610113
0.07700000 1216284.32711272 18499.68548281
0.07800000 1206948.20288011 14302.33687485
0.07900000 1197577.87733678 17245.12224251
0.08000000 1188178.77772810 21654.55923993
0.08100000 1178751.12838779 15948.50351536
0.08200000 1169296.78475860 17469.29478404
0.08300000 1159818.96011933 18997.83545836
0.08400000 1150320.88682384 17599.91039452
0.08500000 1140804.36519943 20602.92780271
0.08600000 1131271.82875326 16239.40786422
0.08700000 1121725.42606768 14806.77631939
0.08800000 1112167.14883095 19301.66177444
0.08900000 1102600.24766154 20839.14565961
0.09000000 1093026.78196564 22379.72441205
0.09100000 1083448.62630061 16446.75091993
0.09200000 1073867.69480419 19474.59156032
0.09300000 1064288.25782880 21009.05119680
0.09400000 1054709.07520116 21041.44703916
0.09500000 1045134.58987881 18059.92656197
0.09600000 1035565.96223538 19587.73109646
0.09700000 1026008.31477554 16590.55522989
0.09800000 1016460.32884803 22641.65488965
0.09900000 1006925.97360389 19635.05740856
0.10000000 997404.84564003 18132.82094647
0.10100000 987900.59792988 21160.83180289
0.10200000 978415.03246775 24186.42074024
0.10300000 968950.07394920 22673.43279699
0.10400000 959508.02325881 16623.47728501
0.10500000 950091.92619709 16617.10857101
0.10600001 940698.51143708 18117.85418279
0.10700001 931335.43306924 19613.92514342
0.10800001 922000.41233187 16582.17819617
0.10900001 912697.79326082 21083.32001663
0.11000001 903428.14464174 19554.70311120
0.11100001 894192.49451787 21031.40846108
0.11200001 884993.92618128 19500.84208145
0.11300001 875832.19266593 17972.07743964
0.11400001 866710.16811301 23921.20176624
0.11500001 857629.14234429 14922.74777947
0.11600001 848590.59012833 20849.87178130
0.11700001 839595.61644513 20805.18035533
0.11800001 830644.92936229 20757.81776242
0.11900001 821739.89937452 19228.71455107
0.12000001 812882.23250441 17704.57585792
0.12100001 804074.70304740 17657.48131073
0.12200001 795316.62277334 19075.67009590
0.12300001 786610.00724730 23409.51491861
0.12400001 777955.30288034 18962.66140118
0.12500001 769353.12163939 20357.08455781
0.12600001 760806.86035469 15942.70851001
0.12700001 752315.12717548 15888.89623473
0.12800001 743879.72254050 17272.88797145
0.12900001 735501.71257478 17210.74088543
0.13000001 727182.11774785 14289.12928726
0.13100001 718920.53437041 15658.08997667
0.13200001 710718.78372484 17014.60848445
0.13300001 702578.57430023 14121.83000918
0.13400001 694498.65548665 18282.67796763
0.13500001 686481.55742912 16805.06931819
0.13600001 678526.19987000 15338.08547126
0.13700001 670634.80425417 13882.14110265
0.13800001 662806.05070639 13819.50680890
0.13900001 655042.72534115 15131.48766895
0.14000001 647343.66279669 15060.45102522
0.14100001 639710.20660034 13625.82804322
0.14200001 632142.02812704 17627.28128572
0.14300001 624641.22123897 20238.37652274
0.14400001 617204.31747195 16109.03344588
0.14500001 609836.17534180 13355.41286999
0.14600001 602534.63819801 18600.24515863
0.14700001 595302.22398161 18501.99399421
0.14800001 588134.32111409 13144.80269705
0.14900001 581035.78569192 15687.96695385
0.15000001 574004.73359351 15601.44939519
0.15100001 567042.21994493 14221.41954726
0.15200001 560147.76883319 15426.47028160
0.15300001 553322.92443337 15338.11218908
0.15400001 546563.81211708 20332.17477025
0.15500001 539874.94373211 17686.30399133
0.15600001 533251.89686775 15069.69931670
0.15700001 526700.54528580 13731.08386366
0.15800001 520213.71865814 16129.22710827
0.15900001 513797.61763272 17263.60076731
0.16000001 507446.87034034 12254.84249718
0.16100001 501166.98212841 13396.19406465
0.16200001 494953.40171732 15732.09461624
0.16300001 488807.15182197 15632.05345322
0.16400001 482728.22692433 15531.78143454
0.16500001 476716.15514762 15431.30267066
0.16600001 470771.49761211 12972.10922915
0.16700001 464891.93598416 17572.91600990
0.16800001 459077.93621806 12801.38885588
0.16900001 453331.95573227 17339.94812552
0.17000001 447649.86472721 11482.21957244
0.17100001 442032.91402933 15966.22960869
0.17200001 436481.37545971 14724.69989648
0.17300001 430993.78554311 20248.08900102
0.17400001 425570.14105301 12288.33840324
0.17500001 420210.15644275 16640.32298101
0.17600001 414911.60984367 15422.26526627
0.17700001 409677.53872756 20782.94252124
0.17800001 404504.04725347 14119.21443626
0.17900001 399392.87019681 12940.32960559
0.18000001 394342.72579482 14988.96771547
0.18100001 389354.67973232 15944.07488818
0.18200001 384424.04379328 10552.44050060
0.18300001 379553.95435287 18856.24134301
0.18400001 374742.66031339 14558.75304094
0.18500001 369991.23815697 13419.58284192
0.18600001 365295.89551838 10246.55035337
0.18700001 360657.81354298 11187.60590466
0.18800001 356076.45361249 12113.72152422
0.18900001 351553.03011324 12023.11419793
0.19000001 347081.29307238 9943.87951636
0.19100001 342668.97717746 11842.64041082
0.19200001 338307.65045386 13711.60972079
0.19300001 334002.59283605 14579.21386620
0.19400001 329748.37131411 11574.16838005
0.19500001 325547.96847860 14356.66608833
0.19600001 321398.97461974 13296.27620835
0.19700001 317301.01634821 10366.22469398
0.19800001 313254.03237936 14961.01329348
0.19900001 309257.57762071 10205.50054379
0.20000001 305308.92078420 9205.06439669
0.20100001 301410.91290436 16438.95196675
0.20200001 297559.12999503 11778.87871756
0.20300001 293756.69179676 9887.85071322
0.20400001 290000.31766116 11592.76324645
0.20500001 286290.02789233 14154.17964802
0.20600001 282625.48586578 8775.52175093
0.20700001 279006.44398482 13928.00234209
0.20800001 275430.58565307 10361.69912207
0.20900001 271900.84334730 10277.85236438
0.21000001 268412.47348545 9344.78070615
0.21100001 264967.29626914 11796.34458756
0.21200001 261563.69147668 10028.35240530
0.21300001 258200.96510558 8288.25137172
0.21400001 254880.13959323 9041.87337954
0.21500001 251600.04891056 11412.57875814
0.21600001 248358.61269094 9700.88787035
0.21700001 245156.68972666 9619.94895970
0.21800001 241993.23007383 8744.42578216
0.21900001 238866.80719203 12612.16801606
0.22000001 235777.79176296 10160.84441646
0.22100001 232726.90876231 11624.70964233
0.22200001 229712.44810334 7683.88175238
0.22300001 226732.27495253 9141.84575836
0.22400001 223787.06505976 9818.65794379
0.22500001 220878.77494453 7487.79082470
0.22600001 218002.48961686 10392.17917146
0.22700001 215161.99681568 11037.81095861
0.22800001 212353.56062520 9482.64869815
0.22900001 209576.89314059 10845.60473292
0.23000001 206833.55171683 10033.49606829
0.23100001 204122.70733322 9944.85877159
0.23200001 201441.52247905 7744.41969797
0.23300001 198791.48041179 7675.33942170
0.23400001 196172.76468755 7606.59931052
0.23500001 193582.10327192 7538.08745793
0.23600001 191022.53586374 11544.44750094
0.23700001 188491.31610206 7402.05433343
0.23800001 185988.91627144 8668.01385282
0.23900001 183514.40467931 7927.82265713
0.24000001 181067.54927926 10472.94754569
0.24100001 178649.20392710 7781.95969116
0.24200001 176257.37941792 7067.03996205
0.24300001 173892.43581529 9546.69517784
0.24400001 171553.19919712 10087.32858996
0.24500001 169240.11454647 8742.94473105
0.24600001 166952.79348785 7422.72154960
0.24700001 164690.85992139 6739.15030679
0.24800001 162453.67274780 6067.64496417
0.24900001 160240.38255406 9013.52194507
0.25000001 158052.31267531 7140.80382449
0.25100001 155887.08058907 8249.54469505
0.25200001 153747.24503918 6418.17904780
0.25300001 151630.41972179 6932.54311766
0.25400001 149536.20377889 9151.61610424
0.25500001 147464.51775227 6795.16529952
0.25600001 145415.98459750 7848.10106004
0.25700001 143388.82526942 6104.06258052
0.25800001 141384.67072717 7140.63313293
0.25900001 139402.07278892 6524.01731520
0.26000001 137441.08174678 5380.81860498
0.26100001 135500.50998601 5325.17029442
0.26200001 133582.17587250 5796.79879627
0.26300001 131683.79054611 6257.61402285
0.26400001 129806.31140378 5675.78123470
0.26500001 127949.76740922 5615.71555732
0.26600001 126112.34657625 6566.03963519
0.26700001 124296.11792029 5496.37459452
0.26800001 122500.03430785 5931.45194187
0.26900001 120722.11629546 5378.17053547
0.27000001 118964.91051178 4835.92384115
0.27100001 117226.28031821 5739.39895598
0.27200001 115508.21031558 5676.07372352
0.27300001 113808.19552810 5613.02046908
0.27400001 112125.23431469 6475.23258811
0.27500001 110463.91230543 6402.48866022
0.27600001 108818.59761262 5877.83682822
0.27700001 107193.35202990 6704.94448679
0.27800001 105585.25406321 4860.61740084
0.27900001 103996.63081872 4367.85870111
0.28000001 102424.32713781 4748.90415250
0.28100001 100870.65766643 5546.87772761
0.28200001 99335.27606081  4638.46093520
0.28300001 97816.93290312  4583.70169279
0.28400001 96315.82405769  5352.75217536
0.28500001 94832.70152396  4068.32308794
0.28600001 93366.33189901  5627.18908990
0.28700001 91917.23301711  4367.90711972
0.28800001 90484.49935870  5099.25420272
0.28900001 89070.41720503  4649.47599818
0.29000001 87671.70285303  4974.93101388
0.29100001 86290.53324636  4157.47808860
0.29200001 84925.84000582  4478.98901392
0.29300001 83577.74226747  5160.09005185
0.29400001 82245.35247031  5095.09982672
0.29500001 80930.54893344  3952.64819702
0.29600001 79631.26011657  4966.60192858
0.29700001 78348.26114367  5603.46790225
0.29800001 77081.20899732  4839.92934206
0.29900001 75830.71127833  4777.33503669
0.30000001 74595.44261583  4378.37971161
0.30100001 73377.13694618  4321.17979933
0.30200001 72172.77089815  3936.30311113
0.30300001 70985.72143778  4531.72867113
0.30400001 69814.16975754  3193.99841762
0.30500001 68657.77143426  3466.53104383
0.30600001 67515.74082461  3420.01001338
0.30700001 66390.47545294  3680.68813337
0.30800001 65279.93643152  4538.58779527
0.30900001 64184.67501032  4476.88129392
0.31000001 63104.95958386  4121.38510555
0.31100001 62039.03494362  2903.42697282
0.31200001 60989.09857828  3149.78214520
0.31300001 59953.18141524  3388.55397402
0.31400001 58933.29354265  3063.05807690
0.31500001 57927.16396882  3294.89724255
0.31600002 56936.10214994  3248.77414250
0.31700002 55959.41378538  3203.11699674
0.31800002 54997.09208303  4473.73866732
0.31900002 54049.38691228  2853.80776409
0.32000002 53116.13228989  3069.05026903
0.32100002 52196.45748200  3025.30681891
0.32200002 51291.98152399  3727.64493376
0.32300002 50400.05647522  3429.22000495
0.32400002 49522.62675342  2897.07380226
0.32500002 48659.00731383  2379.42557032
0.32600002 47809.57411967  2345.05972161
0.32700002 46973.08609283  3235.50632328
0.32800002 46151.14653276  3644.09470279
0.32900002 45341.78818163  2693.30234553
0.33000002 44546.91023889  2654.10503772
0.33100002 43762.64924913  2833.19404655
0.33200002 42994.99986691  2577.12041406
0.33300002 42238.82049624  2327.78150778
0.33400002 41496.00403841  2919.24402234
0.33500002 40765.22465074  2054.56741969
0.33600002 40048.30138121  3036.66259604
0.33700002 39343.00717588  3390.97394908
0.33800002 38651.26322514  2751.58355931
0.33900002 37971.11246974  2517.48487597
0.34000002 37303.86836891  2862.13943615
0.34100002 36648.70252068  2068.08638118
0.34200002 36006.21370783  1852.51978300
0.34300002 35374.80230105  2738.00982777
0.34400002 34756.58019980  2158.38373263
0.34500002 34149.42242342  2304.06164003
0.34600002 33554.93594773  2095.84139856
0.34700002 32970.32372528  1721.05097997
0.34800002 32398.79963198  1865.68496517
0.34900002 31837.96187613  1838.64238543
0.35000002 31288.44952195  1812.07063989
0.35100002 30750.85944521  1948.37454673
0.35200002 30222.76055855  2080.38382158
0.35300002 29706.32111627  1892.88687118
0.35400002 29200.95997165  1554.95119214
0.35500002 28706.27184550  1992.78948590
0.35600002 28221.18998895  2115.74271368
0.35700002 27747.24820703  1788.03275915
0.35800002 27284.09719395  1616.17357383
0.35900002 26830.88998550  1593.75494063
0.36000002 26387.97029870  1714.69039123
0.36100002 25954.31292437  1550.25118440
0.36200002 25531.59300975  3475.48826307
0.36300002 25117.63956103  2057.13477749
0.36400002 24713.26836115  1488.35665755
0.36500002 24318.37145581  1335.07865616
0.36600002 23933.17299212  1712.77760631
0.36700002 23556.60533328  1820.45454639
0.36800002 23190.57488437  1540.31805678
0.36900002 22832.51839393  1520.64579707
0.37000002 22483.03101122  2127.00724957
0.37100002 22142.20769025  1976.85639623
0.37200002 21810.73689275  1342.34186565
0.37300002 21487.29321096  1205.43720624
0.37400002 21172.11394865  1190.93146603
0.37500002 20865.69871796  1765.23819516
0.37600002 20567.44603699  2326.17825698
0.37700002 20276.59169923  1379.61936457
0.37800002 19993.55044797  1136.63339681
0.37900002 19718.94707644  1123.98003660
0.38000002 19451.85476892  1556.34297379
0.38100002 19191.33025928  1209.62960355
0.38200002 18939.17584607  1196.86127429
0.38300002 18693.64025898  1399.77984891
0.38400002 18456.02522339  1172.41905786
0.38500002 18224.30712598  1477.26240562
0.38600002 18000.50577033  1044.92940947
0.38700002 17782.93494547  1138.46354914
0.38800002 17572.14717969  1743.06922207
0.38900002 17367.34838306  1625.58388567
0.39000002 17170.13147871  1309.13673662
0.39100002 16978.15879144  1297.81051950
0.39200002 16792.88424018  1286.92274472
0.39300002 16613.43834813  1374.59595405
0.39400002 16441.13258143  1461.20572740
0.39500002 16273.42733915  1063.30579272
0.39600002 16111.66133057  959.44947769
0.39700002 15955.44481225  952.54010042
0.39800002 15804.98922331  1324.30010976
0.39900002 15659.76060269  1221.46138488
0.40000002 15519.55350985  1213.55154420
0.40100002 15384.99205534  1113.25807787
0.40200002 15255.55685009  1106.63814634
0.40300002 15130.42407603  1191.97486519
0.40400002 15010.72095197  1094.28160925
0.40500002 14895.83016226  997.87170985
0.40600002 14785.56291218  1353.98798784
0.40700002 14679.63763457  1347.59079870
0.40800002 14578.43667087  983.82584535
0.40900002 14481.28363695  1157.77868163
0.41000002 14388.83940525  975.77919050
0.41100002 14300.28823923  1148.88521158
0.41200002 14215.46853621  1232.90764456
0.41300002 14135.40882853  1404.49428775
0.41400002 14058.56462952  1050.17482759
0.41500002 13985.83207642  1047.25915551
0.41600002 13916.29538328  1044.55718096
0.41700002 13850.65234536  955.27953752
0.41800002 13789.53652594  1300.00861758
0.41900002 13729.79724877  1210.96817472
0.42000002 13674.60623782  863.55142484
0.42100002 13623.02084113  1034.80471213
0.42200002 13574.55901646  1119.69755353
0.42300002 13528.57605865  946.45922591
0.42400002 13485.48419245  945.66962381
0.42500002 13445.88975168  945.11163543
0.42600002 13408.08746521  944.66684713
0.42700002 13374.50278627  1030.37174348
0.42800002 13342.38239535  1116.15705217
0.42900002 13314.26454204  858.77010366
0.43000002 13287.96415797  1116.78700058
0.43100002 13263.21265141  859.45622054
0.43200002 13241.95326177  1204.09086715
0.43300002 13222.87484290  860.80919306
0.43400002 13205.92981977  1034.02435389
0.43500002 13191.06715120  948.96541583
0.43600002 13178.57008535  1209.39743404
0.43700002 13167.62597083  951.62437401
0.43800002 13158.66550011  953.14798067
0.43900002 13152.25366262  954.85366116
0.44000002 13147.14326461  956.65192498
0.44100002 13144.24317214  1045.75603633
0.44200002 13142.81405792  1222.67604975
0.44300002 13143.25242451  1225.47691414
0.44400002 13145.55881055  877.46609219
0.44500002 13148.13669275  1231.45454100
0.44600002 13152.81796035  1058.27578324
0.44700002 13159.82662787  1149.64250869
0.44800002 13166.70308237  886.77749462
0.44900002 13176.56027035  978.35964644
0.45000002 13186.99755699  1159.73055511
0.45100002 13198.40765087  1073.82249737
0.45200002 13211.14468689  1256.77625363
0.45300002 13224.82272838  1080.73256458
0.45400002 13239.97862070  1445.80573390
0.45500002 13256.06650820  997.38649135
0.45600002 13272.98381375  1182.82200862
0.45700002 13290.89023895  1552.24314457
0.45800002 13309.35085213  916.34884960
0.45900002 13328.87229886  919.69223221
0.46000002 13349.81103815  1292.39526786
0.46100002 13370.51257630  926.57656545
0.46200002 13392.70603136  1116.14817355
0.46300002 13415.60321553  933.72602805
0.46400002 13438.35149677  1405.98759199
0.46500002 13462.34236753  1035.11955370
0.46600002 13486.64048017  944.73921041
0.46700002 13511.26972194  1138.18941532
0.46800002 13537.26804300  1047.58153716
0.46900002 13562.63568193  1243.01561916
0.47000002 13588.82418065  1344.07066341
0.47100002 13615.55053752  1445.97153562
0.47200002 13642.66485645  1258.33125268
0.47300002 13670.23249975  1263.53964984
0.47400002 13697.39193560  1171.12706600
0.47500002 13725.27951994  1763.97300751
0.47600002 13753.76829693  984.08216829
0.47700002 13781.70331289  1383.40744412
