# SAXS profile: number of points = 501, q_min = 0, q_max = 0.5, delta_q = 0.001
#    q    intensity    error
0.00000000 1664650.74656089 249.69761198
0.00100000 1664564.05542103 599.24307418
0.00200000 1664303.94936706 748.93680093
0.00300000 1663870.65009715 1297.81915331
0.00400000 1663264.01168661 1621.68247302
0.00500000 1662484.71343701 1795.48356158
0.00600000 1661532.58755588 2093.53114555
0.00700000 1660408.40929697 2191.73919136
0.00800000 1659111.91335976 3135.72164864
0.00900000 1657644.55372048 3232.40701793
0.01000000 1656005.70685099 3005.65048772
0.01100000 1654196.97990644 4168.57657086
0.01200000 1652218.18162881 4188.37327406
0.01300000 1650070.77923885 7969.84221523
0.01400000 1647754.88669203 4078.19352535
0.01500000 1645272.02298093 5133.24894028
0.01600000 1642621.97015987 4188.68621116
0.01700000 1639806.84112947 4427.47866966
0.01800000 1636827.17199222 6530.94071013
0.01900000 1633683.91682622 7841.68315460
0.02000000 1630377.87624953 6676.39770525
0.02100000 1626911.81197600 7516.33291211
0.02200000 1623284.20983589 7280.43001188
0.02300000 1619498.47677187 6413.21425994
0.02400000 1615555.06356210 7875.83129398
0.02500000 1611456.17797774 6284.67938114
0.02600000 1607202.56596913 10414.67310383
0.02700000 1602795.86066424 8078.09150773
0.02800000 1598236.79235323 11123.72858491
0.02900000 1593528.56478974 7170.87887080
0.03000000 1588671.87248946 11080.98681995
0.03100000 1583668.33342465 9121.93002025
0.03200000 1578519.17951423 9376.40435817
0.03300000 1573228.49895000 8825.81228598
0.03400000 1567794.77139209 13169.47668734
0.03500000 1562222.42129964 12654.00219686
0.03600000 1556511.69915112 9502.50436246
0.03700000 1550665.80875834 10606.55462243
0.03800000 1544686.26241551 11747.33956933
0.03900000 1538575.53023484 10154.59896981
0.04000000 1532333.75207290 11308.62361433
0.04100000 1525965.21014269 9613.58126965
0.04200000 1519471.21448816 12740.76672456
0.04300000 1512853.71912564 10983.31851068
0.04400000 1506115.42131938 12199.53547926
0.04500000 1499258.67459213 13448.35093597
0.04600000 1492284.35625199 11572.66572071
0.04700000 1485196.29412900 13901.43795957
0.04800000 1477996.07372399 13035.92597678
0.04900000 1470686.62140874 14339.19522619
0.05000000 1463269.34079074 14552.21427180
0.05100000 1455748.38880262 18167.74073858
0.05200000 1448123.12206484 19571.38490676
0.05300000 1440398.60274671 14000.67507138
0.05400000 1432576.06543783 15364.37901832
0.05500000 1424659.31476987 14360.56656279
0.05600000 1416648.59851189 12112.34608249
0.05700000 1408549.57814372 12254.38190187
0.05800000 1400361.13785366 14871.83597841
0.05900000 1392087.62511850 21298.94165910
0.06000000 1383732.54728748 20257.84543871
0.06100000 1375297.08387752 17906.36886887
0.06200000 1366784.45760299 12916.11372809
0.06300000 1358197.68401882 19558.04756431
0.06400000 1349536.22974250 14473.77674088
0.06500000 1340806.61951135 21238.37784654
0.06600000 1332010.01905094 16064.04158137
0.06700000 1323147.76726763 18894.55100083
0.06800000 1314224.01237297 19043.10683067
0.06900000 1305242.26337202 20557.56661059
0.07000000 1296202.07895432 20706.82918096
0.07100000 1287108.07720073 16680.92146182
0.07200000 1277961.80612291 18191.78716239
0.07300000 1268767.22175378 15491.64850348
0.07400000 1259527.07773325 18420.58437511
0.07500000 1250241.61794344 17103.30613514
0.07600000 1240914.73124981 14332.56581785
0.07700000 1231549.89342545 20172.78820018
0.07800000 1222148.35546972 20275.44216808
0.07900000 1212711.95413371 16007.79854539
0.08000000 1203246.10332312 16081.38492531
0.08100000 1193751.37386415 20556.39962241
0.08200000 1184229.12512195 16218.01862958
0.08300000 1174683.17587222 16281.10958169
0.08400000 1165116.27842974 22282.84987090
0.08500000 1155530.43325112 19378.24627534
0.08600000 1145928.04000095 19440.67011138
0.08700000 1136311.44473798 22498.96766231
0.08800000 1126682.35152555 21057.69413896
0.08900000 1117044.14793756 19604.12571710
0.09000000 1107399.00837194 24185.59547897
0.09100000 1097748.73331074 16663.82655454
0.09200000 1088095.10915515 19732.60573170
0.09300000 1078442.61515415 16726.64574706
0.09400000 1068789.88286906 18276.30785600
0.09500000 1059141.55577555 18301.96694404
0.09600000 1049498.62326424 19851.26739221
0.09700000 1039866.36153887 15286.03623326
0.09800000 1030243.14427701 16829.02255303
0.09900000 1020633.50536109 21433.30462043
0.10000000 1011036.54330053 21444.08609186
0.10100000 1001456.07050939 18386.73431931
0.10200000 991894.14159128 19922.19477093
0.10300000 982352.31570860 19922.10589972
0.10400000 972832.91868563 19918.75494717
0.10500000 963339.46168669 21443.93742607
0.10600001 953868.35283108 16840.54656164
0.10700001 944427.22618331 19889.63831938
0.10800001 935013.91846269 21402.46960085
0.10900001 925632.66035244 16800.23357611
0.11000001 916284.12824817 21358.58403480
0.11100001 906969.41899556 18284.50434766
0.11200001 897691.48311967 18259.04562624
0.11300001 888450.18573509 24307.99822615
0.11400001 879248.39427426 18200.44261843
0.11500001 870087.30785924 16653.47185660
0.11600001 860968.54111964 18131.99832984
0.11700001 851893.28328113 30157.02364840
0.11800001 842861.89170323 15045.08547550
0.11900001 833876.23976276 19512.70492953
0.12000001 824937.73186520 16469.88259250
0.12100001 816048.95480667 17920.43589175
0.12200001 807209.71192075 16382.32187522
0.12300001 798421.93533925 14850.64869699
0.12400001 789685.68016330 16287.26792078
0.12500001 781001.95687517 17713.12521658
0.12600001 772374.14980654 20599.21954605
0.12700001 763800.65200082 16131.47053048
0.12800001 755283.33996598 24845.04663911
0.12900001 746823.67503318 16019.36858449
0.13000001 738421.99854311 20313.99013742
0.13100001 730078.53555561 14455.55568540
0.13200001 721794.72460303 15839.78597811
0.13300001 713572.41872224 14342.80629248
0.13400001 705410.31873682 17141.47155345
0.13500001 697311.24957173 19915.21022673
0.13600001 689273.79647356 21246.86577810
0.13700001 681300.23944769 14102.91562157
0.13800001 673389.25903632 15444.18338428
0.13900001 665544.13337047 13976.42745988
0.14000001 657763.07064232 18085.19648022
0.14100001 650047.65664125 19384.42203527
0.14200001 642397.48577348 16535.31206370
0.14300001 634814.86841736 20568.00270687
0.14400001 627296.02944212 16372.42714072
0.14500001 619846.36254341 16289.56317605
0.14600001 612463.14130239 16205.77548336
0.14700001 605149.22855373 13434.31350768
0.14800001 597899.98054745 18708.29127396
0.14900001 590720.25980328 17278.56841446
0.15000001 583607.96218207 17184.33725726
0.15100001 576564.24842967 15774.79858137
0.15200001 569589.07902422 23529.72596479
0.15300001 562683.42248080 19496.98150900
0.15400001 555843.77682371 14215.70526312
0.15500001 549074.41315065 12848.34187408
0.15600001 542371.09185147 12772.83981592
0.15700001 535739.77481072 16506.14324096
0.15800001 529173.03199901 12620.77740886
0.15900001 522677.14470340 12544.25206498
0.16000001 516246.84845398 14960.83437438
0.16100001 509887.66566936 14868.32503277
0.16200001 503595.05660917 14775.47965841
0.16300001 497369.89366408 14682.35995409
0.16400001 491212.51489602 15804.76341292
0.16500001 485121.95765651 13287.49104753
0.16600001 479099.13450717 13201.57727463
0.16700001 473141.81175904 15500.12648506
0.16800001 467250.06886958 14213.74776613
0.16900001 461426.69821143 14119.65763197
0.17000001 455667.66608662 16363.02666183
0.17100001 449973.75826783 13931.18821382
0.17200001 444345.73964362 13836.92698592
0.17300001 438782.01861162 11452.21122659
0.17400001 433282.48948974 12511.03247486
0.17500001 427846.78852114 12424.67132544
0.17600001 422472.90462016 13459.98737690
0.17700001 417163.85444749 11138.27543982
0.17800001 411915.76990673 12165.93283882
0.17900001 406730.18924275 15374.40187956
0.18000001 401606.06687092 10903.60523058
0.18100001 396544.24232914 16238.48749043
0.18200001 391540.36107916 15046.89678706
0.18300001 386597.35541864 11737.09626496
0.18400001 381713.37595337 11651.80135142
0.18500001 376889.62405168 10515.22100780
0.18600001 372122.60208888 11481.84342989
0.18700001 367412.79955023 10361.04143682
0.18800001 362760.41774529 14397.96166056
0.18900001 358166.21912174 12249.28527271
0.19000001 353623.97099128 14183.85814663
0.19100001 349141.72616155 10055.28218857
0.19200001 344710.81923396 11975.25442603
0.19300001 340336.61311592 10894.17550062
0.19400001 336013.59463315 9828.39810745
0.19500001 331744.59665619 11703.94992310
0.19600001 327527.66325583 11614.13148789
0.19700001 323362.23510829 14405.78825486
0.19800001 319248.01703729 13341.37526249
0.19900001 315185.02501750 10401.10631713
0.20000001 311169.85327051 10319.94867145
0.20100001 307205.95002636 14893.34516117
0.20200001 303288.73118252 11082.17076119
0.20300001 299421.33959669 12827.21079460
0.20400001 295600.34424554 13634.56652277
0.20500001 291825.90194633 10820.90495564
0.20600001 288097.64548700 10734.51877824
0.20700001 284415.38010331 11535.88836228
0.20800001 280776.67851789 9682.58421639
0.20900001 277184.47606378 8731.31140875
0.21000001 273634.27326996 12124.73522176
0.21100001 270127.60375006 9449.06402587
0.21200001 266663.05188934 9371.87340170
0.21300001 263239.71894347 12674.99306634
0.21400001 259858.84667523 10894.58266192
0.21500001 256519.19249495 9142.34445275
0.21600001 253218.60202463 12363.39882838
0.21700001 249957.80073349 13077.79275269
0.21800001 246736.29725718 11347.40284737
0.21900001 243552.10575234 12859.55179174
0.22000001 240405.79084326 11157.23328058
0.22100001 237298.12916208 11062.83930463
0.22200001 234227.29112589 10968.86456208
0.22300001 231191.40979052 10098.44125716
0.22400001 228190.60222130 11552.14978371
0.22500001 225227.48623164 11452.81821645
0.22600001 222296.86163357 9839.97104552
0.22700001 219402.41696895 8253.91931669
0.22800001 216540.41237788 12644.87797878
0.22900001 213710.79054444 8110.32488471
0.23000001 210914.92589030 8039.02278049
0.23100001 208152.10519987 9416.80168459
0.23200001 205419.25560908 10051.16465231
0.23300001 202718.24899493 9961.57522674
0.23400001 200048.93019396 9167.24265971
0.23500001 197408.12396009 11880.02146180
0.23600001 194798.95001857 7617.61330077
0.23700001 192218.48034836 8234.64008760
0.23800001 189667.40840014 8839.44998658
0.23900001 187144.63686370 7410.92797034
0.24000001 184650.10533728 8677.63211078
0.24100001 182184.57206797 7274.63030677
0.24200001 179745.92893510 9172.43518743
0.24300001 177334.61611513 7139.49198251
0.24400001 174949.63202616 8358.21906542
0.24500001 172591.14893783 8916.05917590
0.24600001 170258.92626916 6938.90286835
0.24700001 167952.60722417 8122.18846959
0.24800001 165671.52262337 8662.96432779
0.24900001 163414.71071933 7966.46752444
0.25000001 161183.71129308 8495.99382419
0.25100001 158975.97900781 7812.07997803
0.25200001 156793.98295972 7735.43151528
0.25300001 154635.58469249 6480.77766107
0.25400001 152500.20481190 6416.44642103
0.25500001 150387.80114076 9239.82693924
0.25600001 148299.09633585 6288.62347765
0.25700001 146232.18840993 7922.86034291
0.25800001 144188.77880889 6722.08118612
0.25900001 142167.33239185 8316.78933843
0.26000001 140167.94200994 6036.33270827
0.26100001 138189.44056671 5430.84527124
0.26200001 136233.46428478 5911.85146237
0.26300001 134298.03077031 6381.84272418
0.26400001 132383.93057795 7367.16608526
0.26500001 130491.26193768 5727.26175745
0.26600001 128618.09170146 6181.38577967
0.26700001 126766.54070481 6624.81973072
0.26800001 124935.58170824 5041.15096048
0.26900001 123123.24926332 5485.14101425
0.27000001 121331.95917517 6905.00212342
0.27100001 119559.74128247 5853.64521020
0.27200001 117808.55762111 6271.53886175
0.27300001 116075.78205561 6679.00081556
0.27400001 114360.44102173 6132.57894001
0.27500001 112667.24092079 7929.52079127
0.27600001 110990.45726866 5995.14983309
0.27700001 109334.04043455 6382.92158265
0.27800001 107695.29311614 4957.75305324
0.27900001 106076.30929819 6682.80780207
0.28000001 104474.10656478 5284.30056014
0.28100001 102890.94171298 4352.28704045
0.28200001 101326.54569378 4731.44327511
0.28300001 99779.52093283  5100.72935150
0.28400001 98250.06268226  7980.36171908
0.28500001 96739.01194571  4565.11418979
0.28600001 95245.02512751  4920.35823098
0.28700001 93768.83375146  4050.81380980
0.28800001 92309.25790431  4801.92782347
0.28900001 90868.78476783  5533.90925430
0.29000001 89443.91870178  5075.49540698
0.29100001 88037.07616683  4627.22894236
0.29200001 86647.03992034  5331.39261866
0.29300001 85273.94499265  5264.81361306
0.29400001 83917.01681389  3713.32816979
0.29500001 82577.95993599  5133.04623260
0.29600001 81254.75197993  4343.87924648
0.29700001 79948.12153080  4645.78556208
0.29800001 78657.75982613  3527.80069520
0.29900001 77384.40426753  5571.67737102
0.30000001 76126.56445014  3780.82600240
0.30100001 74886.02342254  3392.33702163
0.30200001 73659.82578411  3682.62316441
0.30300001 72451.16161767  4294.90506402
0.30400001 71258.38266709  3260.07116136
0.30500001 70080.88158627  4503.39766393
0.30600001 68918.32999077  3808.42709559
0.30700001 67772.68039291  3757.31757887
0.30800001 66642.10006220  3706.63378095
0.30900001 65527.15365730  3351.71406826
0.31000001 64428.01795390  3306.12389783
0.31100001 63343.02688048  3557.34455803
0.31200001 62274.18129451  3800.90483527
0.31300001 61219.77077849  3460.14160822
0.31400001 60181.55211119  4834.08340221
0.31500001 59157.51316494  3084.47288246
0.31600002 58148.64487557  3594.45865317
0.31700002 57154.53509051  2726.27145290
0.31800002 56175.06163657  3763.16755721
0.31900002 55210.44579554  2650.10152367
0.32000002 54260.58863572  2873.91221317
0.32100002 53324.51059313  2833.13138196
0.32200002 52403.91281365  2538.96969604
0.32300002 51496.12716427  3754.06784803
0.32400002 50602.99921397  3700.34449274
0.32500002 49723.98807784  3160.95407179
0.32600002 48859.43366395  3594.83300205
0.32700002 48008.00963735  2834.39302321
0.32800002 47171.36331286  3026.27895664
0.32900002 46347.59847325  2753.04747968
0.33000002 45538.51100047  2939.28333171
0.33100002 44740.31710119  2673.68147658
0.33200002 43958.90908958  2415.32237430
0.33300002 43189.13252191  2596.53077018
0.33400002 42432.98212503  2771.93468858
0.33500002 41689.07448794  2731.46828980
0.33600002 40959.24228399  3105.73469326
0.33700002 40241.15070537  2244.24908112
0.33800002 39536.95511615  2010.45426287
0.33900002 38844.50244255  2377.28366207
0.34000002 38165.12037994  2342.57519986
0.34100002 37498.02170725  2116.01346515
0.34200002 36843.79915007  2464.29762286
0.34300002 36200.74908261  2428.34636347
0.34400002 35571.16318436  3129.37322935
0.34500002 34952.79336048  2176.86007359
0.34600002 34347.27858709  2145.33112215
0.34700002 33751.80797817  2642.76668985
0.34800002 33169.55892068  2083.71179008
0.34900002 32598.18110941  1711.40458930
0.35000002 32038.32001525  2024.18115443
0.35100002 31490.49102138  1995.23760561
0.35200002 30952.37463579  1802.82114605
0.35300002 30426.00532245  2423.43143871
0.35400002 29910.84964524  1752.02810095
0.35500002 29406.62550020  1727.34526370
0.35600002 28912.08259914  1857.89051582
0.35700002 28428.73328146  1679.28535447
0.35800002 27956.46035958  2258.18319250
0.35900002 27494.18808388  1484.68622685
0.36000002 27042.36186287  2196.51594635
0.36100002 26599.95066654  1444.37738961
0.36200002 26168.57441126  1994.83052186
0.36300002 25746.06643610  1405.73529400
0.36400002 25333.30619505  1941.79801183
0.36500002 24930.12585592  1642.39676918
0.36600002 24536.74610649  2026.12190572
0.36700002 24152.09173834  1466.51507982
0.36800002 23778.19202997  1974.18448680
0.36900002 23412.28879167  1559.25850739
0.37000002 23055.06927095  2181.12493170
0.37100002 22706.54104029  1520.43006008
0.37200002 22367.57847162  1376.61268225
0.37300002 22036.72752324  1730.76466166
0.37400002 21714.22257957  1221.42507796
0.37500002 21400.58978318  1931.18931352
0.37600002 21095.24969895  1431.52371238
0.37700002 20797.36065603  1768.81560759
0.37800002 20507.32398506  1399.00970853
0.37900002 20225.89064473  1844.60131418
0.38000002 19952.04092548  1482.33695078
0.38100002 19684.85033440  1466.32457087
0.38200002 19426.09543645  1339.23508283
0.38300002 19173.99163223  1325.30636440
0.38400002 18929.94910306  1421.16599624
0.38500002 18691.79530933  1623.38249952
0.38600002 18461.75002713  1286.04556782
0.38700002 18237.95394434  1698.31835176
0.38800002 18020.98682575  1366.98202043
0.38900002 17810.12187802  1041.89217922
0.39000002 17606.88888208  1342.43730641
0.39100002 17408.96616099  1433.10616227
0.39200002 17217.80685269  1217.98771446
0.39300002 17032.53684829  1610.59676068
0.39400002 16854.44401013  1398.07619688
0.39500002 16681.04036638  1288.10999812
0.39600002 16513.59906754  1180.06184528
0.39700002 16351.77489652  2050.02211590
0.39800002 16195.84651395  1357.05004370
0.39900002 16045.04980620  1540.32485437
0.40000002 15899.42780704  1338.89087907
0.40100002 15759.43262857  1140.35259903
0.40200002 15624.70711203  1133.41630761
0.40300002 15494.30216083  1220.64118206
0.40400002 15369.30797915  1027.05405437
0.40500002 15249.29561237  1207.28679083
0.40600002 15133.76953307  1108.70000852
0.40700002 15022.80577839  1011.33533292
0.40800002 14916.53752767  1372.69443102
0.40900002 14814.36094310  1093.29988940
0.41000002 14716.93524109  998.02901066
0.41100002 14623.43114705  1174.84651402
0.41200002 14533.70155025  900.36285370
0.41300002 14448.73572746  1076.71983743
0.41400002 14367.09870205  983.78713024
0.41500002 14289.56903790  1248.33681030
0.41600002 14215.25137744  978.08041737
0.41700002 14144.89955927  886.88524439
0.41800002 14079.02634789  973.35353268
0.41900002 14014.60759608  1324.38048058
0.42000002 13954.79329056  969.36976186
0.42100002 13898.65734984  967.76355713
0.42200002 13845.59927194  1054.20397852
0.42300002 13795.02761582  877.36379794
0.42400002 13747.45578544  964.04038264
0.42500002 13703.33263216  1313.46449503
0.42600002 13661.08241446  1399.98779217
0.42700002 13623.03400712  1049.51858964
0.42800002 13586.59515031  961.72718329
0.42900002 13554.05234861  1136.50734329
0.43000002 13523.35735658  1311.42764180
0.43100002 13494.27701813  961.87211143
0.43200002 13468.71549195  962.27242392
0.43300002 13445.37894602  875.29421086
0.43400002 13424.15827761  1138.70427986
0.43500002 13405.07057445  964.36082283
0.43600002 13388.35004490  1228.64894185
0.43700002 13373.22983166  1054.34548989
0.43800002 13360.05388188  967.73554879
0.43900002 13349.52012219  1057.28204378
0.44000002 13340.30145532  1058.95317971
0.44100002 13333.26987345  1060.79500140
0.44200002 13327.74940184  1151.31768664
0.44300002 13324.12401453  1064.86404171
0.44400002 13322.34739464  1244.97342303
0.44500002 13320.93393997  1425.87283651
0.44600002 13321.56426401  1071.85311148
0.44700002 13324.61476715  1164.03840122
0.44800002 13327.51952903  1077.13017938
0.44900002 13333.49260150  990.01187258
0.45000002 13339.95260490  1082.93740379
0.45100002 13347.44449610  1085.94813567
0.45200002 13356.37833688  1179.83573630
0.45300002 13366.09680842  1092.27748295
0.45400002 13377.42684889  913.00942571
0.45500002 13389.71760969  1190.61374628
0.45600002 13402.84015992  1194.39415746
0.45700002 13416.98522919  1474.79508629
0.45800002 13431.71079923  1017.25066559
0.45900002 13447.41492654  1020.65884130
0.46000002 13464.66454229  1024.18975695
0.46100002 13481.69058875  1027.70932229
0.46200002 13500.20707610  1125.10731105
0.46300002 13519.42878479  1317.33320323
0.46400002 13538.56644742  1038.74655991
0.46500002 13558.93559036  1232.10053549
0.46600002 13579.63444809  1046.37878199
0.46700002 13600.59966650  1050.23835602
0.46800002 13623.08998033  1054.22286809
0.46900002 13644.95466472  1539.15095913
0.47000002 13667.60953834  1158.73999158
0.47100002 13690.85311783  1066.24369135
0.47200002 13714.47885088  1070.34655265
0.47300002 13738.58866135  1269.85781016
0.47400002 13762.30887372  1176.67746447
0.47500002 13786.77998562  1082.81375139
0.47600002 13811.91541981  988.24259513
0.47700002 13836.50838338  1091.28546792
