# SAXS profile: number of points = 501, q_min = 0, q_max = 0.5, delta_q = 0.001
#    q    intensity    error
0.00000000 1646666.22097350 370.49989972
0.00100000 1646580.00600741 592.76881624
0.00200000 1646321.33435702 963.09801110
0.00300000 1645890.42356800 1382.54800505
0.00400000 1645287.12621785 1357.36193071
0.00500000 1644512.11963072 1924.07925613
0.00600000 1643565.24998407 1725.74358274
0.00700000 1642447.25998732 2365.12415268
0.00800000 1641157.93021587 2658.67595920
0.00900000 1639698.69039310 2459.54814073
0.01000000 1638068.88793712 2702.81378180
0.01100000 1636270.14217563 3828.87229940
0.01200000 1634302.31579340 3824.26758663
0.01300000 1632166.78129405 5484.08062702
0.01400000 1629863.74200730 5134.07101492
0.01500000 1627394.65670466 5077.47155501
0.01600000 1624759.32537237 5386.07740439
0.01700000 1621959.84743620 7006.86685524
0.01800000 1618996.75954147 5075.55506955
0.01900000 1615871.00865852 7756.18119154
0.02000000 1612583.43968020 6095.56567773
0.02100000 1609136.72587752 5310.15143615
0.02200000 1605529.43655787 7200.79985011
0.02300000 1601764.90004193 6342.98929289
0.02400000 1597843.57956959 7789.48780558
0.02500000 1593767.82841300 9945.11170350
0.02600000 1589538.09468570 7081.39253572
0.02700000 1585156.33928318 8654.95400889
0.02800000 1580622.94806193 8250.85216726
0.02900000 1575941.36433076 9928.43105114
0.03000000 1571112.26725130 10958.50856779
0.03100000 1566137.16037752 7517.45871571
0.03200000 1561017.35789396 10817.85078846
0.03300000 1555756.89930301 10314.66871789
0.03400000 1550354.24133239 11395.10419957
0.03500000 1544813.85897139 15015.59140259
0.03600000 1539135.93192916 11959.08674376
0.03700000 1533323.85389757 10487.93564570
0.03800000 1527378.76499125 10722.19942646
0.03900000 1521303.41014909 10040.60297196
0.04000000 1515097.87940057 10249.63762910
0.04100000 1508766.48647074 12356.79809714
0.04200000 1502310.31445613 9689.90197778
0.04300000 1495731.57633080 12833.37752062
0.04400000 1489032.93280492 10050.97276322
0.04500000 1482216.59282558 15340.94244856
0.04600000 1475283.38896405 12480.89805083
0.04700000 1468237.29437893 11628.43991230
0.04800000 1461080.02306709 13960.62026997
0.04900000 1453814.11157809 13084.32761325
0.05000000 1446441.22428828 13278.33105729
0.05100000 1438965.42733352 11223.93085606
0.05200000 1431386.13971022 13655.42440920
0.05300000 1423708.19835191 14991.64802752
0.05400000 1415933.24018480 17522.17466441
0.05500000 1408064.66027839 13010.51806790
0.05600000 1400103.03495017 19153.41041190
0.05700000 1392053.63657854 16955.21408497
0.05800000 1383915.59451418 13472.41894166
0.05900000 1375693.25334389 18571.85978756
0.06000000 1367390.09243176 21269.75388147
0.06100000 1359007.18998411 17694.27444047
0.06200000 1350547.78856906 15315.21263826
0.06300000 1342015.09047372 15460.01456509
0.06400000 1333408.26729031 15600.87745690
0.06500000 1324733.97092717 14426.35361823
0.06600000 1315993.40866984 18516.02812632
0.06700000 1307187.73597791 15999.97863715
0.06800000 1298321.35165599 14781.38928051
0.06900000 1289397.51259465 25723.48158061
0.07000000 1280416.04765515 17727.36100993
0.07100000 1271381.20602633 16477.10120185
0.07200000 1262294.69065934 15204.34026127
0.07300000 1253160.68715680 19474.11799089
0.07400000 1243981.43920655 16793.75021631
0.07500000 1234757.76719338 16891.48704695
0.07600000 1225493.07129155 16985.33476438
0.07700000 1216191.13785756 17075.32437616
0.07800000 1206852.84080044 18591.56888441
0.07900000 1197480.33878226 15806.74121332
0.08000000 1188079.03888092 21652.74149936
0.08100000 1178649.35629454 21746.08164392
0.08200000 1169192.70938000 17467.73989781
0.08300000 1159712.73720523 23379.80987932
0.08400000 1150212.41636529 20531.29259583
0.08500000 1140693.62679663 19129.43301941
0.08600000 1131158.75349870 19190.10915411
0.08700000 1121610.21586881 14805.25554469
0.08800000 1112049.72030953 16330.45090968
0.08900000 1102480.58531167 16371.83746086
0.09000000 1092904.79499148 19393.59649815
0.09100000 1083324.38663495 16444.86496172
0.09200000 1073741.17122835 16476.55904668
0.09300000 1064159.44137194 16505.11371129
0.09400000 1054578.05342256 16530.51176429
0.09500000 1045001.15531875 15048.01734389
0.09600000 1035430.12515075 22598.26354371
0.09700000 1025870.42824017 18096.35520492
0.09800000 1016319.94609160 21129.29267269
0.09900000 1006783.40653567 19632.27735060
0.10000000 997259.84316766 18130.18480140
0.10100000 987753.23947868 16623.88780228
0.10200000 978265.52363643 21159.88427154
0.10300000 968798.11359884 22669.87692462
0.10400000 959353.73533302 21153.75085927
0.10500000 949935.39673358 16614.37087057
0.10600001 940539.70424123 19624.36185239
0.10700001 931174.13203587 22627.53247327
0.10800001 921836.87999232 16579.23706691
0.10900001 912531.98298695 16562.45627074
0.11000001 903260.07908102 18047.13722951
0.11100001 894022.20833923 15019.57380712
0.11200001 884821.15228886 17997.26308481
0.11300001 875657.14768992 16471.11172352
0.11400001 866532.84796570 19432.00003058
0.11500001 857449.52341296 17903.54689190
0.11600001 848408.63366017 17867.48666629
0.11700001 839411.32901624 17829.09746797
0.11800001 830458.32982245 20753.15463970
0.11900001 821551.15404329 20703.09005704
0.12000001 812691.21015329 22125.51923864
0.12100001 803881.39004179 17653.23615693
0.12200001 795121.02331828 14669.98357134
0.12300001 786412.21307048 17552.72142272
0.12400001 777755.33680717 16041.20457747
0.12500001 769150.74452924 20351.72965923
0.12600001 760602.42337714 17387.37221775
0.12700001 752108.37557624 18772.62593907
0.12800001 743670.80669971 24463.05233931
0.12900001 735290.60557350 20073.43447826
0.13000001 726968.81812646 15713.43174445
0.13100001 718705.16190588 18499.47173948
0.13200001 710501.19562728 15591.94947305
0.13300001 702358.84874067 18352.63758279
0.13400001 694276.92005394 14059.10829392
0.13500001 686257.63965932 16799.58781093
0.13600001 678300.20169684 15332.97678232
0.13700001 670406.57983865 16652.90022843
0.13800001 662575.71052888 15196.17463757
0.13900001 654810.49384782 19251.42942699
0.14000001 647109.47338145 15055.00260822
0.14100001 639473.94557681 17707.03438814
0.14200001 631903.72461698 14909.76908556
0.14300001 624400.83367515 17533.17623660
0.14400001 616962.03606127 16102.70990076
0.14500001 609592.04697357 14685.07310432
0.14600001 602288.46850332 14608.50749269
0.14700001 595054.09118322 17173.26188172
0.14800001 587884.36019569 15767.05928432
0.14900001 580784.17549278 16987.93793467
0.15000001 573751.06298331 18193.64706563
0.15100001 566786.71537644 19384.10658051
0.15200001 559890.47846476 21844.12804806
0.15300001 553063.66167097 14053.34830622
0.15400001 546302.85563103 19052.31298923
0.15500001 539612.23331066 12626.92685537
0.15600001 532987.53399146 13807.04271967
0.15700001 526434.46882202 12476.49749993
0.15800001 519945.93506803 22321.28004601
0.15900001 513528.13857906 14789.61108916
0.16000001 507175.62153682 18372.43775740
0.16100001 500894.08835246 13388.89961367
0.16200001 494678.92685489 14513.88039907
0.16300001 488531.15986838 13219.65381011
0.16400001 482450.77048913 14328.78855998
0.16500001 476436.98933596 11863.28159455
0.16600001 470490.85043967 14142.95563195
0.16700001 464609.93196099 15220.62208968
0.16800001 458794.29333135 17445.65382765
0.16900001 453046.88339899 13863.23528660
0.17000001 447363.61628033 13769.85275932
0.17100001 441745.08438708 14816.13082998
0.17200001 436192.26483208 14714.94674899
0.17300001 430703.21503039 12365.48988748
0.17400001 425278.32938444 11163.55667355
0.17500001 419916.99591926 15520.13290215
0.17600001 414617.26161377 13209.70657890
0.17700001 409381.83735163 13116.59468825
0.17800001 404207.22447247 11938.26093866
0.17900001 399094.82929385 15085.78525986
0.18000001 394043.56861610 12837.94007191
0.18100001 389054.27717170 12745.41872219
0.18200001 384122.58426896 13707.41506715
0.18300001 379251.43352437 11514.07406572
0.18400001 374439.09373392 12468.82241038
0.18500001 369686.61799932 12377.10855534
0.18600001 364990.30187351 13309.37198660
0.18700001 360351.18002907 12194.28450830
0.18800001 355768.84405875 10086.04720559
0.18900001 351244.57304381 17017.80036802
0.19000001 346771.89162811 10928.51668102
0.19100001 342358.68951821 11831.91686881
0.19200001 337996.65611443 21527.00804511
0.19300001 333690.67658672 12623.51889177
0.19400001 329435.78169180 13490.39589775
0.19500001 325234.40963878 13386.64893332
0.19600001 321084.84884690 10436.86350498
0.19700001 316986.15102322 9414.48913030
0.19800001 312938.54499087 12143.58081226
0.19900001 308941.41079989 10195.06703821
0.20000001 304992.14554262 12873.71907178
0.20100001 301093.38276999 15509.32087949
0.20200001 297241.24910600 9050.99646306
0.20300001 293438.25540139 10775.05324762
0.20400001 289681.53596405 15143.10300827
0.20500001 285970.58106649 10603.78964715
0.20600001 282305.50002651 11395.26204720
0.20700001 278686.13242507 11303.51006547
0.20800001 275109.82565881 8624.69344209
0.20900001 271579.81175428 9410.24092212
0.21000001 268091.11577161 9333.59263681
0.21100001 264645.58955897 11782.02220414
0.21200001 261241.75829034 14189.34677233
0.21300001 257878.67382346 10761.27756740
0.21400001 254557.63693661 9030.43259725
0.21500001 251277.45718571 8955.52899749
0.21600001 248035.71497280 11302.98806570
0.21700001 244833.63587395 10407.87835308
0.21800001 241670.03402850 8732.74709251
0.21900001 238543.57905016 11807.90772128
0.22000001 235454.51465223 10146.91278871
0.22100001 232403.65077336 10060.75451769
0.22200001 229389.08658987 10742.29143295
0.22300001 226409.05133513 11411.01672686
0.22400001 223463.90295897 10558.66991409
0.22500001 220555.58513717 9719.88509662
0.22600001 217679.42403481 8153.18321277
0.22700001 214839.01438621 13225.49035104
0.22800001 212030.74141556 8739.90757446
0.22900001 209254.33010245 8663.12967593
0.23000001 206511.11587085 10733.41575499
0.23100001 203800.58791811 9219.93903345
0.23200001 201119.66824098 7029.13273746
0.23300001 198469.85359442 9752.80906688
0.23400001 195851.42151381 8284.51552185
0.23500001 193261.20715720 8893.88117402
0.23600001 190701.94480198 8813.29079587
0.23700001 188171.07112133 9404.79057947
0.23800001 185669.12237688 8653.10985766
0.23900001 183195.05209197 9233.03106215
0.24000001 180748.66849114 9147.69054503
0.24100001 178330.85921624 7120.75154532
0.24200001 175939.63947270 6413.00016213
0.24300001 173575.01340790 8893.98410773
0.24400001 171236.42013745 10697.99585414
0.24500001 168923.96513556 6233.29460836
0.24600001 166637.10376200 8643.46698102
0.24700001 164375.82778210 8560.69351586
0.24800001 162139.35543144 6661.49573303
0.24900001 159926.75135472 7796.42949737
0.25000001 157739.39501712 6532.77735369
0.25100001 155574.92810396 5880.73256054
0.25200001 153435.69577579 6987.46191620
0.25300001 151319.72602184 7494.86638445
0.25400001 149226.16252687 7420.27128271
0.25500001 147155.34774702 10171.37811750
0.25600001 145107.62035311 6153.28893220
0.25700001 143081.39606854 7752.15040577
0.25800001 141078.08484623 6577.06062672
0.25900001 139096.39207632 6509.71145718
0.26000001 137136.38209012 6442.66753543
0.26100001 135196.60156642 8501.16270874
0.26200001 133279.27621424 6835.22800407
0.26300001 131381.90241772 7283.81301469
0.26400001 129505.35030586 5662.62171007
0.26500001 127649.84602518 5093.22909741
0.26600001 125813.50600800 5542.71426946
0.26700001 123998.29826326 5981.67819127
0.26800001 122203.32650123 6410.17579496
0.26900001 120426.43523740 7803.63337266
0.27000001 118670.36006281 4823.95036483
0.27100001 116932.83625945 5725.03193419
0.27200001 115215.90930659 5661.71005126
0.27300001 113517.07668380 5132.10727975
0.27400001 111835.27535640 5535.84639212
0.27500001 110175.21901215 5929.63056786
0.27600001 108531.19053616 4509.47118019
0.27700001 106907.07097176 4458.02507051
0.27800001 105300.14328286 5288.17344594
0.27900001 103712.86178279 6533.91060155
0.28000001 102141.81906250 4735.80566497
0.28100001 100589.47540521 7658.88301984
0.28200001 99055.50133193  6727.84996889
0.28300001 97538.46521037  4986.16657755
0.28400001 96038.66354710  4926.78367315
0.28500001 94556.93601309  5679.08984575
0.28600001 93091.91290292  4007.60704016
0.28700001 91644.19742170  3959.02951601
0.28800001 90212.81898720  4301.79847702
0.28900001 88800.20202858  4635.37076530
0.29000001 87402.95589052  4196.65312573
0.29100001 86023.11018414  4521.37488530
0.29200001 84659.95546690  4837.04678456
0.29300001 83313.31221978  5511.17586421
0.29400001 81982.45377058  4353.26850129
0.29500001 80669.12169014  3939.88008985
0.29600001 79371.39225469  3535.99569233
0.29700001 78089.82794504  5584.98475901
0.29800001 76824.30480060  3790.12725676
0.29900001 75575.39791614  5441.42890755
0.30000001 74341.60803130  4363.48088996
0.30100001 73124.90527066  4968.83754837
0.30200001 71922.09624193  3922.63131473
0.30300001 70736.71466291  3870.71320960
0.30400001 69566.73359991  4137.48167673
0.30500001 68411.86797008  4082.13635503
0.30600001 67271.52374743  3717.42457828
0.30700001 66147.86121458  3667.23759936
0.30800001 65038.85913784  3316.00639014
0.30900001 63945.34462503  3568.15039901
0.31000001 62867.27693997  3226.03446891
0.31100001 61803.11570628  3760.10173759
0.31200001 60754.81046609  3993.41388101
0.31300001 59720.60482699  3656.69280669
0.31400001 58702.24163833  3605.78536336
0.31500001 57697.86536666  3008.36684266
0.31600002 56708.54777769  2696.49157450
0.31700002 55733.58680120  2924.34143792
0.31800002 54772.98542274  2620.88747657
0.31900002 53826.98660479  3100.43457524
0.32000002 52895.45621107  3310.99123831
0.32100002 51977.52745935  3514.72057322
0.32200002 51074.80553454  2722.03188985
0.32300002 50184.72305883  2682.87542176
0.32400002 49308.95310918  3124.95505127
0.32500002 48447.08837176  2605.96900691
0.32600002 47599.40961494  3502.12672825
0.32700002 46764.66970077  3451.23278734
0.32800002 45944.53790639  2267.36305305
0.32900002 45136.99251376  3127.99372933
0.33000002 44343.85009445  2862.17393988
0.33100002 43561.44102687  3037.10381221
0.33200002 42795.57696319  2137.63917054
0.33300002 42041.25382927  2527.52029991
0.33400002 41300.14119902  2905.46507094
0.33500002 40571.27715360  2249.27171191
0.33600002 39856.08634469  2014.72526013
0.33700002 39152.61429907  2580.54893066
0.33800002 38462.72782220  2738.16172333
0.33900002 37784.43239108  3468.61105777
0.34000002 37119.02788081  1898.63836602
0.34100002 36465.67018303  2618.96455658
0.34200002 35825.00105383  2949.11422642
0.34300002 35195.47272399  1997.69512642
0.34400002 34579.08900530  1968.41473485
0.34500002 33973.76965964  2292.21034750
0.34600002 33381.12305557  1911.23629106
0.34700002 32798.39590310  2054.49161667
0.34800002 32228.63269746  2024.60280194
0.34900002 31669.66866815  2826.51806250
0.35000002 31122.05822371  1802.43408739
0.35100002 30586.27032424  1937.94617953
0.35200002 30060.05827857  1910.01619348
0.35300002 29545.47098458  2196.41041702
0.35400002 29041.93464537  1701.13140242
0.35500002 28549.13344378  1676.97617792
0.35600002 28065.89311674  3005.85729517
0.35700002 27593.88912827  1481.79191637
0.35800002 27132.50903698  1607.19424893
0.35900002 26681.17364737  2161.17516780
0.36000002 26240.14208345  1705.08451335
0.36100002 25808.39645057  2242.23358983
0.36200002 25387.42041983  2488.22119321
0.36300002 24975.38888131  1636.38755701
0.36400002 24572.88141113  1748.97491728
0.36500002 24179.88766249  1725.71866421
0.36600002 23796.52255138  1440.99849136
0.36700002 23421.84296966  2585.77158633
0.36800002 23057.66921592  1531.49046187
0.36900002 22701.48920955  1511.91925297
0.37000002 22353.84944900  1368.39095884
0.37100002 22014.86679796  1596.95851317
0.37200002 21685.22948752  1698.60410622
0.37300002 21363.62216635  1318.34918634
0.37400002 21050.34396383  1184.08190406
0.37500002 20745.71880756  1521.07617503
0.37600002 20449.40039416  1734.62047061
0.37700002 20160.36026084  1600.32947332
0.37800002 19879.15065284  1130.12976815
0.37900002 19606.44917768  1341.08118728
0.38000002 19341.17893071  1215.88327108
0.38100002 19082.48648725  1093.42652752
0.38200002 18832.17232941  1622.86252737
0.38300002 18588.49351698  1177.76700503
0.38400002 18352.67627935  1377.82723695
0.38500002 18122.88114226  1259.17784142
0.38600002 17900.85968417  1246.97394467
0.38700002 17685.09995717  1235.12743952
0.38800002 17476.13663866  1121.70588329
0.38900002 17273.13446235  1111.52625531
0.39000002 17077.75791265  1001.61054903
0.39100002 16887.69575838  1390.19518069
0.39200002 16704.20696914  1575.54087597
0.39300002 16526.65406495  1172.07036182
0.39400002 16356.07561814  1066.00727892
0.39500002 16190.18632233  1154.03653573
0.39600002 16030.22719147  1431.90011172
0.39700002 15875.77227764  947.78364988
0.39800002 15727.23651122  1035.40266477
0.39900002 15583.75045915  1028.52757903
0.40000002 15445.33904669  1114.84462521
0.40100002 15312.60089642  1108.01985336
0.40200002 15184.91124736  1009.72072123
0.40300002 15061.58768024  1551.64483633
0.40400002 14943.59822181  1180.17072548
0.40500002 14830.61866535  1083.82166342
0.40600002 14722.05662714  1078.53791961
0.40700002 14617.99076589  1699.78004679
0.40800002 14518.45153041  1336.06056539
0.40900002 14423.11941870  1064.42626353
0.41000002 14332.48212321  971.95732124
0.41100002 14245.67424921  1056.45925238
0.41200002 14162.62946463  1052.84992429
0.41300002 14084.32463060  1311.95490150
0.41400002 14009.23026606  959.28208792
0.41500002 13938.20292350  1130.66707473
0.41600002 13870.42653225  867.59522070
0.41700002 13806.54714692  952.23760184
0.41800002 13747.17522058  864.01000355
0.41900002 13689.15619951  1121.14194586
0.42000002 13635.61672523  947.19816070
0.42100002 13585.86459429  945.98379653
0.42200002 13539.06047487  944.95877062
0.42300002 13494.76146555  858.26686988
0.42400002 13453.43688276  943.42230611
0.42500002 13415.55254421  1028.70461784
0.42600002 13379.41194669  856.95137579
0.42700002 13347.56215345  942.60488394
0.42800002 13317.22917345  942.66011171
0.42900002 13290.74877094  1285.88000452
0.43000002 13266.15656624  943.42276891
0.43100002 13243.11901530  943.96956814
0.43200002 13223.51862656  944.75433304
0.43300002 13206.14292593  945.69193974
0.43400002 13190.78323158  1118.90824064
0.43500002 13177.64783860  1120.36367233
0.43600002 13166.83161390  1122.01160915
0.43700002 13157.57576779  864.45276891
0.43800002 13150.22079202  1039.13049623
0.43900002 13145.48159564  1301.40273964
0.44000002 13142.02882883  956.27977305
0.44100002 13140.76007028  958.35567734
0.44200002 13140.95336281  1047.85967081
0.44300002 13143.06392187  1225.45933815
0.44400002 13146.92653150  877.55738757
0.44500002 13151.10716989  1319.71366704
0.44600002 13157.46452050  1058.64964549
0.44700002 13166.04513438  1238.66158494
0.44800002 13174.58814970  1153.50112011
0.44900002 13186.11724334  1335.09443416
0.45000002 13198.04744688  1160.70233772
0.45100002 13211.05879803  985.28081185
0.45200002 13225.45420855  1168.27055288
0.45300002 13240.68943785  1082.02919214
0.45400002 13257.46807168  904.82223877
0.45500002 13275.12979741  1271.22648965
0.45600002 13293.65915144  1366.92056703
0.45700002 13313.10962095  1006.07174174
0.45800002 13333.16400807  1285.18373965
0.45900002 13354.17754261  1013.58212352
0.46000002 13376.72631799  1110.00080247
0.46100002 13399.01293272  1207.11713232
0.46200002 13422.69609172  1584.75068918
0.46300002 13447.16119834  1310.29144927
0.46400002 13471.44704143  1503.41356108
0.46500002 13496.99072419  1603.84748377
0.46600002 13522.75646069  1420.90370245
0.46700002 13548.90514126  951.13318600
0.46800002 13576.44074397  955.10265161
0.46900002 13603.32574634  1342.64831480
0.47000002 13630.98800568  1444.54402237
0.47100002 13659.19994650  1353.89996287
0.47200002 13687.82598513  1165.38155961
0.47300002 13716.90591854  1755.48970266
0.47400002 13745.55444034  979.37080029
0.47500002 13774.93782687  1081.88366820
0.47600002 13804.82921911  1481.60336617
0.47700002 13834.26072177  1091.10819484
