# SAXS profile: number of points = 501, q_min = 0, q_max = 0.5, delta_q = 0.001
#    q    intensity    error
0.00000000 1682732.95097187 302.89193117
0.00100000 1682645.83454723 555.27313859
0.00200000 1682384.45609102 757.07302921
0.00300000 1681949.03504839 1311.92029407
0.00400000 1681339.43815216 1387.10508918
0.00500000 1680556.32874867 1512.50075574
0.00600000 1679599.54170100 2292.65346776
0.00700000 1678469.85352066 2416.99668952
0.00800000 1677167.01511164 2490.59312259
0.00900000 1675692.47587474 3518.95434976
0.01000000 1674045.56951072 3867.04543255
0.01100000 1672228.00240885 3311.01158893
0.01200000 1670239.49683393 4885.45074244
0.01300000 1668081.52232450 5955.05129734
0.01400000 1665754.23241844 6371.51022146
0.01500000 1663259.20237959 5987.73339519
0.01600000 1660596.08896560 5928.32830262
0.01700000 1657767.07911929 6266.35984017
0.01800000 1654772.72556067 6130.93322408
0.01900000 1651613.91936259 7432.26297249
0.02000000 1648291.54848449 6230.54233511
0.02100000 1644808.28815296 7599.01463579
0.02200000 1641162.78789938 5662.01187549
0.02300000 1637358.20992365 8252.28575365
0.02400000 1633395.16187348 8575.32499085
0.02500000 1629275.99439393 6354.17666834
0.02600000 1625001.13847190 7239.38040301
0.02700000 1620572.45046133 8167.68552441
0.02800000 1615990.56915356 9841.38301747
0.02900000 1611258.75393604 10875.99708843
0.03000000 1606377.66847456 9710.55345228
0.03100000 1601348.96334253 7686.47537772
0.03200000 1596173.85883600 9481.27315818
0.03300000 1590856.53520118 8113.36870356
0.03400000 1585395.50566146 14149.65554090
0.03500000 1579794.80838933 15355.60624664
0.03600000 1574055.05424070 8736.00595476
0.03700000 1568179.45381218 9832.48563013
0.03800000 1562169.43387970 11880.29909447
0.03900000 1556027.47761896 11203.39835769
0.04000000 1549753.78457542 12390.28208183
0.04100000 1543352.49614420 12640.05752950
0.04200000 1536825.10562384 16851.28806494
0.04300000 1530173.51011944 15148.71845336
0.04400000 1523400.19514171 12339.54215372
0.04500000 1516508.06812654 11510.29677191
0.04600000 1509497.46294934 12770.34913020
0.04700000 1502372.34429404 11898.78952020
0.04800000 1495134.57117246 12088.16357037
0.04900000 1487786.67320454 12274.24062527
0.05000000 1480330.38124670 11324.52794388
0.05100000 1472769.84754286 14933.88694977
0.05200000 1465104.11090550 11647.57822449
0.05300000 1457338.68621023 14165.33269032
0.05400000 1449474.48645425 15545.61459217
0.05500000 1441515.50159458 14530.47693391
0.05600000 1433461.89720153 12256.09979299
0.05700000 1425319.31614710 16120.36221810
0.05800000 1417086.71949547 13795.33985843
0.05900000 1408768.33638336 29161.50592515
0.06000000 1400367.76250246 19220.04843828
0.06100000 1391886.44851491 15533.45349133
0.06200000 1383327.07679174 14379.68563541
0.06300000 1374693.30915549 15836.46766191
0.06400000 1365984.12429429 14650.18041820
0.06500000 1357206.05200486 18810.87676072
0.06600000 1348360.65709739 14906.12776165
0.06700000 1339448.83234151 16394.85447512
0.06800000 1330475.11956958 15147.45994534
0.06900000 1321442.96125578 13875.15174281
0.07000000 1312351.70323256 15374.20092332
0.07100000 1303205.93489530 14074.62475609
0.07200000 1294007.68131152 19837.13868381
0.07300000 1284760.60973882 17113.01212356
0.07400000 1275467.28960904 14349.00768056
0.07500000 1266128.35887190 18764.02315800
0.07600000 1256747.24755387 20321.60394564
0.07700000 1247327.89133985 17512.48441555
0.07800000 1237871.35052448 24936.91952576
0.07900000 1228379.45966988 16214.60962817
0.08000000 1218857.58842570 22213.68059113
0.08100000 1209306.60629783 17849.36634642
0.08200000 1199727.65658555 17923.93203047
0.08300000 1190124.35610484 19494.23786790
0.08400000 1180499.89862268 19566.78673811
0.08500000 1170855.94149592 15104.04235436
0.08600000 1161195.12157112 18184.31645758
0.08700000 1151519.70722654 21280.08518881
0.08800000 1141831.38891506 18292.13970949
0.08900000 1132133.51689593 16812.18351557
0.09000000 1122428.42391695 15321.14870619
0.09100000 1112717.88535797 18426.60904723
0.09200000 1103003.74585846 16925.59327548
0.09300000 1093290.27094068 18498.47225360
0.09400000 1083576.17514176 16985.05734360
0.09500000 1073866.09258903 17010.03970613
0.09600000 1064161.29918892 15483.54763105
0.09700000 1054466.80465178 21700.92785995
0.09800000 1044781.02690784 17066.49887697
0.09900000 1035108.52693179 18631.95436089
0.10000000 1025448.15045714 18642.64825202
0.10100000 1015804.32512801 18650.16828650
0.10200000 1006179.11636232 17100.01488690
0.10300000 996573.08286061 18655.84898874
0.10400000 986989.65690630 17099.59661035
0.10500000 977431.65939551 17095.28052715
0.10600001 967895.88192304 20195.14852658
0.10700001 958390.07272497 15525.91990876
0.10800001 948911.60071405 15514.70540182
0.10900001 939464.91776392 17051.28905995
0.11000001 930051.07184631 17033.88618264
0.11100001 920670.70134590 18560.72221285
0.11200001 911326.87498781 16991.69038407
0.11300001 902019.33842469 16966.98455459
0.11400001 892751.41375381 15399.96261235
0.11500001 883524.17692384 16910.65354261
0.11600001 874338.68272340 23016.96690660
0.11700001 865196.78065695 18376.78048661
0.11800001 856098.56756812 15281.36015082
0.11900001 847046.11270059 16771.51382144
0.12000001 838040.48148477 22815.65318315
0.12100001 829084.82055279 16689.47822394
0.12200001 820178.20462539 18158.74630589
0.12300001 811323.02384308 18108.73074536
0.12400001 802519.19386010 16551.95915325
0.12500001 793767.93416057 18002.65759506
0.12600001 785072.47804889 16451.19455275
0.12700001 776431.42695201 17888.98092002
0.12800001 767846.43317565 16343.61210041
0.12900001 759318.85108747 14806.71829408
0.13000001 750849.40639580 16229.61068423
0.13100001 742437.86769737 20580.37866268
0.13200001 734086.10329421 14645.01845109
0.13300001 725796.01951759 14588.50068005
0.13400001 717565.86791579 21796.06426553
0.13500001 709398.90833200 17366.08609475
0.13600001 701293.16704730 17293.89031481
0.13700001 693251.85457288 18655.40828622
0.13800001 685272.80911757 20003.11424140
0.13900001 677359.49769468 19914.37017135
0.14000001 669510.78037410 14160.15367271
0.14100001 661727.27981222 16913.75006970
0.14200001 654009.15430944 16834.19642591
0.14300001 646358.62914444 20942.02057206
0.14400001 638772.04568022 16671.95117867
0.14500001 631254.54435600 15206.92269088
0.14600001 623803.52769356 15130.35527797
0.14700001 616421.92489000 15053.02411596
0.14800001 609105.02611820 16336.19757121
0.14900001 601857.71515366 14895.97915286
0.15000001 594677.84405391 24245.01684603
0.15100001 587566.66265974 16075.82464891
0.15200001 580524.29724071 14655.33657538
0.15300001 573551.50108118 15898.84836022
0.15400001 566644.56228216 17126.83270321
0.15500001 559808.03862103 17029.36133852
0.15600001 553037.83482809 18233.65827482
0.15700001 546339.73582898 15537.90282032
0.15800001 539706.24958199 14159.19412608
0.15900001 533143.58438034 16634.08061781
0.16000001 526646.83721570 17805.93040675
0.16100001 520221.36703323 18962.06972345
0.16200001 513862.51713240 15076.72696438
0.16300001 507571.12674540 14983.50036886
0.16400001 501347.78032705 12408.35814889
0.16500001 495191.25521217 17262.36797168
0.16600001 489102.92208650 18378.04316508
0.16700001 483079.82662664 12173.61220576
0.16800001 477122.81504511 13304.57032573
0.16900001 471234.35123653 15621.41948110
0.17000001 465410.18601487 13131.54901848
0.17100001 459651.41410175 17788.51056573
0.17200001 453958.42030672 12958.24371958
0.17300001 448330.16795860 14041.70152358
0.17400001 442766.42273617 11622.61914571
0.17500001 437266.42423457 15006.98438847
0.17600001 431828.45377637 19490.57818172
0.17700001 426455.57163832 12525.00073058
0.17800001 421143.59481211 12438.47666027
0.17900001 415894.49868322 12352.06719432
0.18000001 410707.00784396 12265.76536863
0.18100001 405582.17710665 13286.87274964
0.18200001 400515.26058366 12093.55886460
0.18300001 395509.75683887 10916.06980442
0.18400001 390563.10875708 10838.12678001
0.18500001 385677.09666079 11836.43065570
0.18600001 380847.83083805 13887.61680761
0.18700001 376076.29888948 11665.88734270
0.18800001 371362.07697750 15792.17306959
0.18900001 366706.40362120 12541.35959639
0.19000001 362102.78642231 12449.09438540
0.19100001 357559.45822250 12357.25546005
0.19200001 353067.77773656 12265.57517813
0.19300001 348632.79942437 12174.25793116
0.19400001 344249.34258302 16110.86999419
0.19500001 339920.16702240 15989.84541234
0.19600001 335643.26598245 10910.08487633
0.19700001 331418.06984608 10827.42885355
0.19800001 327244.47631171 15629.19692726
0.19900001 323121.94979534 12601.75663758
0.20000001 319047.85019528 14428.93970701
0.20100001 315024.92584973 12408.83241569
0.20200001 311049.22944644 10418.59443273
0.20300001 307123.24298465 12217.36318338
0.20400001 303244.16681245 14919.61371236
0.20500001 299411.75583806 13877.73553905
0.20600001 295625.96110393 11932.94248401
0.20700001 291886.17976782 10928.21908707
0.20800001 288190.13214128 12648.66549759
0.20900001 284541.15270355 10755.65608063
0.21000001 280934.01550549 14226.49921772
0.21100001 277370.86340223 8820.39387316
0.21200001 273850.00086749 9624.45873548
0.21300001 270370.62204671 8678.89737800
0.21400001 266933.76657741 9469.47581702
0.21500001 263538.61055021 11100.24680117
0.21600001 260182.69561339 10162.73657114
0.21700001 256866.95557535 11759.36978222
0.21800001 253590.47664785 8330.44755175
0.21900001 250351.73078069 9913.92900766
0.22000001 247150.84935658 12289.57656534
0.22100001 243989.11000380 9749.80529676
0.22200001 240864.36864450 9668.29621455
0.22300001 237774.71760849 7989.23088942
0.22400001 234720.42300779 7921.81465111
0.22500001 231704.23417152 8640.25130083
0.22600001 228720.70343523 8566.73435227
0.22700001 225773.69637194 10810.04509349
0.22800001 222859.01105117 10717.29034827
0.22900001 219977.22569151 10624.90050336
0.23000001 217129.41236878 10532.94829213
0.23100001 214314.79286010 7458.15514425
0.23200001 211530.39185486 7392.98754497
0.23300001 208778.19891838 9526.54966720
0.23400001 206057.90736068 7263.54157800
0.23500001 203366.17664965 7919.07929328
0.23600001 200706.46621439 9989.16129595
0.23700001 198075.75996132 8485.56595809
0.23800001 195474.53451502 7708.53863320
0.23900001 192901.90268187 10416.70323753
0.24000001 190357.70702817 8257.71772148
0.24100001 187842.89419891 7500.56712015
0.24200001 185355.02224239 9458.66723244
0.24300001 182894.78697291 8702.13437581
0.24400001 180461.19950922 7295.14433525
0.24500001 178054.26623978 7884.24328206
0.24600001 175673.87754644 7810.46096519
0.24700001 173319.58732510 7736.98674420
0.24800001 170990.81540827 7025.15798339
0.24900001 168686.50761618 6958.31876835
0.25000001 166408.17630801 8144.84857471
0.25100001 164153.32934854 6825.49575722
0.25200001 161924.56099796 6759.54111865
0.25300001 159719.56138793 6693.84713446
0.25400001 157537.82095018 6628.40413008
0.25500001 155379.32678097 7756.53635988
0.25600001 153244.61533485 5907.58020066
0.25700001 151132.12433624 7018.57618625
0.25800001 149043.23203548 7527.42879011
0.25900001 146976.56729310 8598.12959347
0.26000001 144932.10838163 7376.32000510
0.26100001 142908.93197153 9547.74619678
0.26200001 140908.44846389 6114.72241042
0.26300001 138928.61312705 7152.04534220
0.26400001 136970.60931172 6533.49837332
0.26500001 135034.06329808 6465.43125665
0.26600001 133117.18409638 8530.14956054
0.26700001 131222.29562434 5802.65018709
0.26800001 129348.13199471 7828.79605945
0.26900001 127492.74912277 6196.14790058
0.27000001 125658.68928030 5618.82855706
0.27100001 123843.97557772 8084.53510830
0.27200001 122050.54183036 4997.96992447
0.27300001 120275.67351391 4943.33041536
0.27400001 118518.48402617 6844.44277642
0.27500001 116783.53405611 6768.77395423
0.27600001 115065.34255264 5737.15825119
0.27700001 113367.79120189 6618.41196359
0.27800001 111688.08864924 5608.97607742
0.27900001 110028.32899096 4621.19003633
0.28000001 108385.54897211 6395.83154755
0.28100001 106762.10664784 5870.84852243
0.28200001 105157.49381842 6695.90373580
0.28300001 103570.56008249 5294.52728201
0.28400001 102001.49603623 6104.78982671
0.28500001 100450.85962997 5602.14470672
0.28600001 98917.72032990  5535.93048029
0.28700001 97402.40146221  5049.34073080
0.28800001 95904.01647590  5820.41503542
0.28900001 94424.99386073  7804.22611199
0.29000001 92961.72344913  6492.44707300
0.29100001 91516.71461751  4409.27551898
0.29200001 90088.61724013  6335.03186420
0.29300001 88677.85777064  4692.83245536
0.29400001 87283.39364908  5407.20649252
0.29500001 85906.93832271  5721.40236313
0.29600001 84546.59196086  3766.55085016
0.29700001 83203.07864378  4834.93112887
0.29800001 81875.99759301  4039.35253247
0.29900001 80566.30490086  6163.32261668
0.30000001 79272.22435159  5368.71164836
0.30100001 77995.54092459  4946.47743960
0.30200001 76733.61183622  4185.05138767
0.30300001 75489.29693471  5163.46815478
0.30400001 74260.92040829  4416.66845038
0.30500001 73048.25756699  3352.91518106
0.30600001 71850.78317737  3970.47446635
0.30700001 70670.31682043  3264.96879168
0.30800001 69505.24016892  4510.19524809
0.30900001 68355.92510275  3178.55066776
0.31000001 67222.57818020  4076.71344675
0.31100001 66103.65219269  4021.74638981
0.31200001 65001.02349103  4882.87711583
0.31300001 63913.19492216  3612.37394803
0.31400001 62841.77502942  3563.12881287
0.31500001 61784.48741578  4685.73574747
0.31600002 60742.77147771  3754.81459668
0.31700002 59715.97579523  3133.29739833
0.31800002 58704.09847550  2808.99124505
0.31900002 57707.18064052  2769.94480190
0.32000002 56725.33464545  3550.72249026
0.32100002 55757.44500410  3501.01013758
0.32200002 54805.31572282  2920.84943975
0.32300002 53865.95390557  2879.67403215
0.32400002 52941.70124280  2580.90805780
0.32500002 52031.77089365  2798.78908890
0.32600002 51136.47038281  3260.71718836
0.32700002 50254.58399051  3461.53590918
0.32800002 49387.46396409  3168.45290065
0.32900002 48533.58181200  2882.89489615
0.33000002 47694.56719041  2368.03537314
0.33100002 46866.84862045  3734.35067492
0.33200002 46055.75771553  2530.53372751
0.33300002 45256.68327012  2494.09593313
0.33400002 44471.60569224  2905.10777942
0.33500002 43698.72140892  3083.38192863
0.33600002 42940.26612593  2387.69361101
0.33700002 42193.76515074  2994.91359223
0.33800002 41461.45564187  2319.14663116
0.33900002 40740.85219578  2701.11862850
0.34000002 40033.80154253  2866.82066423
0.34100002 39339.06793638  2421.71313685
0.34200002 38657.53863280  2386.71654822
0.34300002 37987.25940656  3136.22828514
0.34400002 37330.87854406  2318.24766738
0.34500002 36685.64586807  2094.38362180
0.34600002 36053.57383156  2439.56518885
0.34700002 35431.80518771  2219.44838207
0.34800002 34823.52925865  2369.91539594
0.34900002 34226.26649209  1796.87907594
0.35000002 33640.78441752  2833.89981355
0.35100002 33067.42702486  1920.55625257
0.35200002 32504.11737564  2581.63964483
0.35300002 31952.74259684  1866.35978348
0.35400002 31412.79989126  1840.00484078
0.35500002 30884.03576507  1814.12834676
0.35600002 30365.14913091  1788.65919428
0.35700002 29857.55165412  2244.69083968
0.35800002 29361.27422466  1739.21516108
0.35900002 28875.27876866  1715.19164010
0.36000002 28399.97887447  1999.21660756
0.36100002 27934.16158204  1820.19005490
0.36200002 27479.71877108  1645.89783375
0.36300002 27034.29656437  1918.89446103
0.36400002 26598.86606815  1456.28798621
0.36500002 26173.17657582  1580.59820828
0.36600002 25757.55772587  1985.13506796
0.36700002 25350.82382573  1539.30209561
0.36800002 24955.12449434  1657.51944743
0.36900002 24567.55196139  1636.19903813
0.37000002 24188.95397700  1749.94995836
0.37100002 23819.26013383  2126.58364548
0.37200002 23459.38954571  1443.80819798
0.37300002 23107.64055377  1555.60643577
0.37400002 22764.60206073  1408.55981923
0.37500002 22430.51713073  1518.09747132
0.37600002 22104.99890529  1750.05284623
0.37700002 21787.17506841  1605.93275037
0.37800002 21477.48573998  1587.29365881
0.37900002 21176.59301267  1327.77244479
0.38000002 20883.33889495  1790.22431158
0.38100002 20596.96010757  1652.28821810
0.38200002 20319.35268144  1284.08155353
0.38300002 20048.52918421  1963.15207072
0.38400002 19786.03097275  2056.75801705
0.38500002 19529.52955596  1356.91177783
0.38600002 19281.48730805  1455.07750864
0.38700002 19039.67274669  1218.91990699
0.38800002 18805.10939232  1536.18945904
0.38900002 18576.71601415  1738.78070130
0.39000002 18356.26917106  1184.25476168
0.39100002 18141.16352284  1066.70046568
0.39200002 17933.14826163  1585.73871016
0.39300002 17731.13418198  1257.49209576
0.39400002 17536.63636582  1039.04575390
0.39500002 17346.98788652  1339.53446806
0.39600002 17163.46470483  1226.50124592
0.39700002 16985.75685747  1419.66962541
0.39800002 16814.05531532  1106.95338413
0.39900002 16647.77332730  1098.75309166
0.40000002 16486.88348467  1190.02330631
0.40100002 16331.79349693  1083.28791398
0.40200002 16182.17266254  1076.03362218
0.40300002 16037.06498905  971.84618438
0.40400002 15897.54988878  1062.35382165
0.40500002 15763.19101867  1151.97405423
0.40600002 15633.46124227  1240.74971028
0.40700002 15508.61271363  949.12714304
0.40800002 15388.54286397  1227.31329427
0.40900002 15272.79640377  1127.13242800
0.41000002 15161.98391041  1121.68362284
0.41100002 15055.21482215  1023.45355210
0.41200002 14952.49738484  1296.83015963
0.41300002 14854.66400147  1106.96961384
0.41400002 14760.39919160  1194.48536118
0.41500002 14670.38100470  1190.06136349
0.41600002 14583.71040736  912.21112920
0.41700002 14501.31343731  1363.84859340
0.41800002 14423.41559681  1087.81405586
0.41900002 14347.26928426  1175.04141006
0.42000002 14275.95778349  1171.98480977
0.42100002 14208.29020596  989.32329392
0.42200002 14144.00091252  1346.15535064
0.42300002 14082.36193281  895.63826137
0.42400002 14023.92433373  1251.63530610
0.42500002 13968.97075400  1071.14072817
0.42600002 13916.23238491  1158.73514444
0.42700002 13867.68730525  979.33612390
0.42800002 13821.04803737  1067.26138002
0.42900002 13778.43237656  977.57982344
0.43000002 13737.82841411  1154.59584378
0.43100002 13699.00710516  1154.00441322
0.43200002 13663.88232736  1508.69763867
0.43300002 13631.05494417  976.11989081
0.43400002 13600.64871171  1153.67508164
0.43500002 13572.39200044  887.63447889
0.43600002 13546.74696475  1243.18502787
0.43700002 13522.79056720  977.29212060
0.43800002 13500.93659194  1066.84406005
0.43900002 13481.93446078  1067.76925989
0.44000002 13464.37947232  1246.93624202
0.44100002 13449.14422648  1248.34962626
0.44200002 13435.61576285  1428.47473560
0.44300002 13423.99801072  1072.84597186
0.44400002 13414.49217180  984.95913439
0.44500002 13405.48243161  986.50949889
0.44600002 13398.59010713  1078.05061111
0.44700002 13394.31805938  1260.13750275
0.44800002 13389.95339290  1082.17608450
0.44900002 13388.84345424  1084.49637119
0.45000002 13388.42157321  1177.44479106
0.45100002 13389.17922146  907.78639424
0.45200002 13391.47336927  1273.93092199
0.45300002 13394.61326016  1277.04248875
0.45400002 13399.52914113  1097.42148867
0.45500002 13405.53591120  1008.63256976
0.45600002 13412.52651567  919.42873622
0.45700002 13420.68872989  1106.40163133
0.45800002 13429.49306577  1017.08270554
0.45900002 13439.40467573  1020.05086323
0.46000002 13451.05976022  1395.21123975
0.46100002 13462.42767523  1212.83016674
0.46200002 13475.62156705  1123.05835463
0.46300002 13489.51594548  1220.53146059
0.46400002 13503.51236088  1130.24403817
0.46500002 13518.83559274  1039.46331799
0.46600002 13534.52724680  1137.71241429
0.46700002 13550.64620455  1141.50649037
0.46800002 13568.45966076  954.54118238
0.46900002 13585.69393928  1436.68720217
0.47000002 13603.84423098  961.11164047
0.47100002 13622.61036490  1639.61746123
0.47200002 13642.01777109  1064.69132741
0.47300002 13661.94378355  1262.77352377
0.47400002 13681.55574103  1364.73524985
0.47500002 13702.02145671  978.32437838
0.47600002 13723.32592293  1571.04642612
0.47700002 13744.10458040  1773.81422122
