# SAXS profile: number of points = 501, q_min = 0, q_max = 0.5, delta_q = 0.001
#    q    intensity    error
0.00000000 1664650.74656090 349.57665678
0.00100000 1664563.99847902 749.05381710
0.00200000 1664303.73050700 823.83037269
0.00300000 1663870.15481826 998.32212845
0.00400000 1663263.13660478 1621.68161981
0.00500000 1662483.34973473 1496.23507398
0.00600000 1661530.62248878 2093.52866957
0.00700000 1660405.72158584 1992.48694871
0.00800000 1659108.43066714 2239.79647596
0.00900000 1657640.14631000 2486.46032576
0.01000000 1656000.24854115 3005.64058088
0.01100000 1654190.38928061 4168.55996248
0.01200000 1652210.37628577 3221.81037501
0.01300000 1650061.59914410 3811.64246213
0.01400000 1647744.26573966 4448.90971472
0.01500000 1645259.85323633 5528.07335303
0.01600000 1642608.14243317 4607.51604550
0.01700000 1639791.25521685 4870.18024646
0.01800000 1636809.75777068 5131.39882151
0.01900000 1633664.48357367 4900.99367187
0.02000000 1630356.43216938 7189.87219111
0.02100000 1626888.15302822 7516.22360776
0.02200000 1623258.37080616 5600.24163371
0.02300000 1619470.20807515 6413.10231589
0.02400000 1615524.34961235 7875.68156347
0.02500000 1611423.03058174 8798.37014880
0.02600000 1607166.74565094 7159.92817936
0.02700000 1602757.36711352 8751.05562525
0.02800000 1598195.44582220 8342.58060978
0.02900000 1593484.29911264 9321.88357782
0.03000000 1588624.66167810 8864.52601962
0.03100000 1583618.05449109 9881.77711472
0.03200000 1578465.74657399 9376.08696649
0.03300000 1573171.84248803 8825.49444322
0.03400000 1567734.91155912 8230.60866545
0.03500000 1562159.12330154 14340.62141413
0.03600000 1556444.88535283 9502.09646421
0.03700000 1550595.58764730 11489.91383585
0.03800000 1544612.40362210 15361.17106493
0.03900000 1538497.98361991 9230.98832921
0.04000000 1532252.51695639 14135.03012393
0.04100000 1525880.17097268 15380.87283656
0.04200000 1519382.29486108 9800.01625650
0.04300000 1512760.96894516 13977.91200188
0.04400000 1506018.56168372 12198.75091617
0.04500000 1499157.95124085 13447.44744746
0.04600000 1492179.46772966 14727.81203114
0.04700000 1485087.21291252 11761.89127329
0.04800000 1477882.92007471 18466.14794553
0.04900000 1470569.15148507 17646.83063924
0.05000000 1463147.55857392 14551.00314760
0.05100000 1455622.35736827 11353.85491638
0.05200000 1447992.69382818 12662.69669763
0.05300000 1440263.81149135 18665.81986709
0.05400000 1432436.85513745 14181.12552718
0.05500000 1424515.67408361 15555.71188666
0.05600000 1416500.49308952 12111.07978107
0.05700000 1408396.92477392 13478.35919924
0.05800000 1400203.99265375 14870.16709631
0.05900000 1391925.82387319 13780.06629995
0.06000000 1383566.14672046 12659.63083394
0.06100000 1375126.20054413 23019.61367285
0.06200000 1366608.78577713 15497.34435511
0.06300000 1358017.53873905 14340.66587959
0.06400000 1349351.50559175 18418.64891271
0.06500000 1340617.13830702 15926.53234810
0.06600000 1331815.94793425 16061.70108359
0.06700000 1322948.93179878 21590.52757737
0.06800000 1314020.55968580 14960.12477229
0.06900000 1305034.16252892 17813.71715254
0.07000000 1295989.48341283 16562.74637362
0.07100000 1286890.69853754 13898.42019518
0.07200000 1277739.86656326 16789.50263318
0.07300000 1268540.72272877 15488.88295026
0.07400000 1259295.83602527 18417.20246498
0.07500000 1250005.96840172 17100.08244926
0.07600000 1240674.47790505 18628.72815907
0.07700000 1231305.11452568 18728.15167007
0.07800000 1221899.10504986 14479.50507387
0.07900000 1212458.12298171 18914.34760567
0.08000000 1202987.82518291 19001.19359013
0.08100000 1193488.81619185 19083.88706629
0.08200000 1183962.20132105 19162.42912758
0.08300000 1174411.79637825 16277.34826173
0.08400000 1164840.76004237 25247.92465902
0.08500000 1155250.60460975 22354.10024862
0.08600000 1145643.94251832 14950.65415182
0.08700000 1136023.29227423 19494.16061083
0.08800000 1126390.05671432 15037.30796334
0.08900000 1116747.77889897 21106.53401256
0.09000000 1107098.60813945 19645.46572429
0.09100000 1097444.39924702 16659.20676324
0.09200000 1087787.06746909 15174.63030420
0.09300000 1078130.77965699 16721.80917827
0.09400000 1068474.39546126 18270.91302107
0.09500000 1058822.18569280 18296.44822875
0.09600000 1049175.64207038 15265.50630972
0.09700000 1039540.09133293 24449.98409761
0.09800000 1029913.34534800 18353.05667702
0.09900000 1020300.31617078 15304.50546222
0.10000000 1010699.86404187 22968.15549048
0.10100000 1001116.18908768 16848.78625477
0.10200000 991551.33582417 15319.46885905
0.10300000 982006.37003188 16851.23010244
0.10400000 972484.00990633 16848.28626426
0.10500000 962987.70950186 16842.65583162
0.10600001 953513.73886326 27547.01321194
0.10700001 944070.00407802 19882.11522149
0.10800001 934653.92057723 19866.07001680
0.10900001 925270.14365147 19847.04551544
0.11000001 915919.38637653 21350.08190138
0.11100001 906602.39990088 16754.01313884
0.11200001 897322.14764065 21293.45556595
0.11300001 888078.53690138 18223.37243519
0.11400001 878874.87281714 16676.65149692
0.11500001 869711.83341497 15132.98661400
0.11600001 860591.21206620 15103.37648300
0.11700001 851514.21168583 16578.98248231
0.11800001 842481.22559689 19549.77776074
0.11900001 833494.17124802 15002.89578913
0.12000001 824554.17093507 14965.65890743
0.12100001 815664.28483997 17911.98853889
0.12200001 806823.88111856 16374.49143872
0.12300001 798034.93326874 22265.17568721
0.12400001 789297.70526205 17759.19920516
0.12500001 780613.11606075 16228.94744762
0.12600001 771984.66417556 17647.57025467
0.12700001 763410.54798458 16123.23153326
0.12800001 754892.76204454 14607.17563399
0.12900001 746432.69757568 17466.52594650
0.13000001 738030.80926718 26104.15095420
0.13100001 729687.12247595 17337.36684727
0.13200001 721403.23192085 20148.79321737
0.13300001 713181.15937599 14334.94197925
0.13400001 705019.28568468 15704.30532902
0.13500001 696920.54048953 14217.17969630
0.13600001 688883.39384810 15572.20985218
0.13700001 680910.58588418 16913.81975090
0.13800001 673000.31085751 23854.49714322
0.13900001 665155.81551434 15365.10006297
0.14000001 657375.88828499 15293.85076222
0.14100001 649661.38434563 22140.46102271
0.14200001 642012.45147211 16525.40128032
0.14300001 634430.97191121 15074.08060362
0.14400001 626913.59611425 17725.98276626
0.14500001 619465.49958008 14922.92458883
0.14600001 612083.88501758 18895.03042185
0.14700001 604771.79132627 16111.12128100
0.14800001 597524.34225090 17361.07058317
0.14900001 590346.72106706 14611.08203577
0.15000001 583236.37077469 18494.42618989
0.15100001 576194.81650114 13137.24243611
0.15200001 569222.11638316 16982.74264366
0.15300001 562318.88194747 12989.56678595
0.15400001 555481.75803876 14206.44663226
0.15500001 548714.99524572 14123.92464417
0.15600001 542014.50199839 14040.88633693
0.15700001 535386.11165468 15226.38173410
0.15800001 528822.35404693 21441.10335683
0.15900001 522329.52623568 13789.50014349
0.16000001 515902.42628633 13704.94860120
0.16100001 509546.62495366 13620.18192794
0.16200001 503257.40781342 13535.10862208
0.16300001 497035.72699005 17117.91124564
0.16400001 490881.98358376 18223.99450089
0.16500001 484795.03215760 16899.95561888
0.16600001 478776.21878490 17990.01727021
0.16700001 472822.60862982 16681.18242006
0.16800001 466934.84773089 15387.83863353
0.16900001 461115.77355168 15285.98861501
0.17000001 455360.93691337 14016.01030003
0.17100001 449671.33173599 16242.12926928
0.17200001 444047.64606683 12675.34065554
0.17300001 438488.27785730 16022.36242955
0.17400001 432993.40897645 14775.90077913
0.17500001 427562.35225818 12416.41129597
0.17600001 422193.23098745 14572.00005575
0.17700001 416888.96871352 13357.12318845
0.17800001 411645.60623549 12157.95355441
0.17900001 406464.95590983 15364.37605911
0.18000001 401345.91103375 13075.85039912
0.18100001 396289.28516626 15146.17719451
0.18200001 391290.48678296 11815.01680653
0.18300001 386352.84647699 10663.33906649
0.18400001 381474.09897816 13761.67877075
0.18500001 376655.68820053 12610.43303670
0.18600001 371894.07492561 11474.79222394
0.18700001 367189.89406196 10354.75550176
0.18800001 362542.91064995 13361.51960328
0.18900001 357954.30839915 12242.03792566
0.19000001 353417.83302473 12150.50567349
0.19100001 348941.15989361 11054.45646775
0.19200001 344516.16599694 11968.49217226
0.19300001 340147.62518608 10888.12599670
0.19400001 335830.45688924 11787.64959382
0.19500001 331567.36387422 11697.69715026
0.19600001 327356.42749720 14510.07433451
0.19700001 323196.91869858 17278.10809015
0.19800001 319088.81318511 10477.28167608
0.19900001 315031.67946896 15121.52132915
0.20000001 311022.77755850 12190.53834254
0.20100001 307064.75062657 9304.06238372
0.20200001 303153.82630567 10154.13789203
0.20300001 299292.49007539 10074.18569209
0.20400001 295477.81010544 10903.13170824
0.20500001 291709.37898893 13520.73035522
0.20600001 287987.46851772 8942.01132015
0.20700001 284311.43112531 10644.62048449
0.20800001 280678.84058692 11439.06668885
0.20900001 277093.00299638 9601.27300769
0.21000001 273548.98949633 12120.95629757
0.21100001 270048.56656292 11163.80826946
0.21200001 266590.33241448 11924.58613263
0.21300001 263173.21302803 10982.21869885
0.21400001 259798.51020636 10054.20282031
0.21500001 256465.17314319 10802.31360350
0.21600001 253170.80121700 11536.99395691
0.21700001 249916.33217521 9806.71733821
0.21800001 246700.91860670 8914.53811534
0.21900001 243522.99679744 8839.88520171
0.22000001 240382.76447983 8765.55792121
0.22100001 237281.35264386 8691.61635831
0.22200001 234216.64165223 10184.91114384
0.22300001 231186.79370909 8544.66429953
0.22400001 228192.15105276 13092.52528575
0.22500001 225235.09255723 12216.75199800
0.22600001 222310.51009679 9840.57519478
0.22700001 219422.08483324 9755.50635302
0.22800001 216566.00373235 8926.85109600
0.22900001 213742.37910157 8111.52367051
0.23000001 210952.32585545 8771.39812388
0.23100001 208195.37119124 10143.27896414
0.23200001 205468.36487660 9335.45559968
0.23300001 202773.12124648 7829.07058160
0.23400001 200109.52502379 9875.40552698
0.23500001 197474.36449038 8388.71140031
0.23600001 194870.76183741 8313.18709317
0.23700001 192295.92549869 8237.95783800
0.23800001 189750.37694065 8843.31673560
0.23900001 187233.05438536 7414.42930436
0.24000001 184743.90925342 7346.34189895
0.24100001 182283.77021010 8601.97152310
0.24200001 179850.34610314 9177.76359577
0.24300001 177444.20435173 9741.68727972
0.24400001 175064.38625508 7076.97814913
0.24500001 172711.01534601 7647.64412129
0.24600001 170383.77459527 6943.99106212
0.24700001 168082.47390528 9379.00248760
0.24800001 165806.25247526 9289.29573437
0.24900001 163554.18629635 8586.59518677
0.25000001 161327.88972320 7288.79440251
0.25100001 159124.81023422 7217.90173370
0.25200001 156947.29017623 6551.76493837
0.25300001 154793.42442296 7077.15569944
0.25400001 152662.36526873 8175.07004691
0.25500001 150554.38706857 8671.93310544
0.25600001 148469.85312602 6868.21573056
0.25700001 146407.10829778 5665.95535920
0.25800001 144367.72711175 9534.76698822
0.25900001 142350.31479521 7217.16130160
0.26000001 140354.74117454 6044.37721467
0.26100001 138380.07733004 8701.33967423
0.26200001 136427.87332875 6996.70381473
0.26300001 134496.03715155 5326.04332322
0.26400001 132585.48925551 7905.41017093
0.26500001 130696.25215169 6257.73684913
0.26600001 128826.42050976 6707.34790123
0.26700001 126978.17335472 6125.42737249
0.26800001 125150.40639834 5554.80105085
0.26900001 123341.04886146 5994.37525833
0.27000001 121552.73913788 5435.23098776
0.27100001 119783.34266782 6842.02485697
0.27200001 118034.96469142 6283.59164271
0.27300001 116304.89975959 6214.17108824
0.27400001 114592.14439846 6617.69665219
0.27500001 112901.32629851 6076.34966895
0.27600001 111227.03019783 6007.92832047
0.27700001 109572.85291062 5483.02581914
0.27800001 107936.27261072 5872.27318930
0.27900001 106319.45966650 4465.41751733
0.28000001 104719.19906575 5296.69733943
0.28100001 103137.95749974 6544.10371308
0.28200001 101575.31667104 5605.43411579
0.28300001 100029.99394090 6391.91691535
0.28400001 98502.11042731  5474.25504610
0.28500001 96992.48026984  4577.07536057
0.28600001 95499.96948335  4111.27388085
0.28700001 94025.02397986  6499.00996510
0.28800001 92566.63329883  6420.42198951
0.28900001 91127.27250441  3964.03654157
0.29000001 89703.42331360  5090.22099687
0.29100001 88297.40278829  5027.65435275
0.29200001 86908.19184981  6111.38434016
0.29300001 85535.80030209  4903.76766344
0.29400001 84179.45114515  4842.42315635
0.29500001 82840.82240752  5149.38576461
0.29600001 81518.06533767  4357.95597925
0.29700001 80211.66111315  3944.00756364
0.29800001 78921.57895818  4955.48617737
0.29900001 77648.39530167  4891.84913558
0.30000001 76390.60369240  5173.55387998
0.30100001 75149.96142953  4766.01077948
0.30200001 73923.60228065  3359.82788271
0.30300001 72714.68583380  6631.57966199
0.30400001 71521.43495610  3272.10580415
0.30500001 70343.56743908  4520.27785764
0.30600001 69180.51145085  3185.76270313
0.30700001 68034.22330896  5343.40815166
0.30800001 66902.91749173  4651.42555883
0.30900001 65787.25926205  3059.10770052
0.31000001 64687.12612492  3319.42003426
0.31100001 63601.20379372  3869.49742201
0.31200001 62531.30627308  3229.42946537
0.31300001 61475.78639010  2895.50967606
0.31400001 60436.32803941  3712.30162559
0.31500001 59410.97827336  5632.16100698
0.31600002 58400.73871454  3054.65078309
0.31700002 57405.16298790  3559.69432542
0.31800002 56424.16546832  2969.88609004
0.31900002 55457.85971448  2928.17513157
0.32000002 54506.35472594  3411.82543562
0.32100002 53568.58090677  3104.83509637
0.32200002 52646.14535365  4081.12938106
0.32300002 51736.46137728  2765.83135619
0.32400002 50841.33619655  2974.21830833
0.32500002 49960.24847583  2687.36189277
0.32600002 49093.59489131  2408.04094344
0.32700002 48240.03528810  3560.11477284
0.32800002 47401.10086791  3508.86665790
0.32900002 46575.07108307  2536.01274056
0.33000002 45763.58523569  3635.45938328
0.33100002 44963.02090273  2463.07440169
0.33200002 44179.02108564  2427.41642850
0.33300002 43406.73087779  3262.01597994
0.33400002 42648.03159447  3000.28916475
0.33500002 41901.42023994  2956.56435214
0.33600002 41168.84839225  2289.19392326
0.33700002 40448.05910880  2255.78836333
0.33800002 39741.00578727  2424.99628798
0.33900002 39045.65634513  2389.59428149
0.34000002 38363.44466878  2158.51931651
0.34100002 37693.35836515  1933.66937571
0.34200002 37036.16076920  2286.61267418
0.34300002 36390.03806298  1877.72605298
0.34400002 35757.37467380  1850.44422701
0.34500002 35135.85688162  2005.90616437
0.34600002 34527.19611947  1976.85470745
0.34700002 33928.50798895  2125.28184108
0.34800002 33343.04623508  2094.61026369
0.34900002 32768.43256525  2408.47990762
0.35000002 32205.26774619  2034.72891257
0.35100002 31654.14330547  2005.60661483
0.35200002 31112.58167134  2141.63466078
0.35300002 30582.87860959  1948.74111730
0.35400002 30064.34356212  2081.20428166
0.35500002 29556.65552150  1893.99057552
0.35600002 29058.68754144  1867.31134986
0.35700002 28571.88723033  1534.31041694
0.35800002 28096.10047500  1664.27259047
0.35900002 27630.26779211  1939.64489088
0.36000002 27174.93999592  2501.58921981
0.36100002 26728.98387725  2177.07583992
0.36200002 26294.01767011  1574.88026295
0.36300002 25867.91805259  1836.10491034
0.36400002 25451.57836098  1811.51617565
0.36500002 25044.86076230  1374.96292098
0.36600002 24647.84761174  1628.23689036
0.36700002 24259.54513755  1740.86504153
0.36800002 23882.07554806  1321.87294420
0.36900002 23512.51534416  1435.43912976
0.37000002 23151.70119000  1546.07067870
0.37100002 22799.55338337  1399.43665296
0.37200002 22457.01581532  1256.47009439
0.37300002 22122.49686774  1613.39377299
0.37400002 21796.40161646  1471.25717881
0.37500002 21479.10647865  1211.42166278
0.37600002 21170.17169039  1676.04257212
0.37700002 20868.69682585  1893.20826573
0.37800002 20575.08555512  1403.63240306
0.37900002 20290.09321142  1272.18890462
0.38000002 20012.63310000  1143.72203585
0.38100002 19741.85811545  1244.32937596
0.38200002 19479.61949778  1790.56670906
0.38300002 19223.97190298  1439.49108429
0.38400002 18976.41741442  1643.83223640
0.38500002 18734.75726335  1410.16524602
0.38600002 18501.17736182  1073.99339673
0.38700002 18273.94328508  1488.96096941
0.38800002 18053.54096662  1369.45141490
0.38900002 17839.23181982  1565.39266635
0.39000002 17632.58455468  1551.22669969
0.39100002 17431.28315806  1434.94329755
0.39200002 17236.76940007  1524.16140641
0.39300002 17048.18849835  1108.30278679
0.39400002 16866.75109353  1399.09706949
0.39500002 16690.13208598  991.39389288
0.39600002 16519.40901336  1573.96936536
0.39700002 16354.34624867  1269.26087249
0.39800002 16195.21337217  1163.14027950
0.39900002 16041.24127664  1251.21687886
0.40000002 15892.47303691  1242.71198800
0.40100002 15749.38724925  1139.62571535
0.40200002 15611.60005772  1132.46552184
0.40300002 15478.16038949  937.97656404
0.40400002 15350.17010535  1119.02745370
0.40500002 15227.19759454  1205.53729068
0.40600002 15108.70010467  1014.62480360
0.40700002 14994.85553358  1009.45372235
0.40800002 14885.70198707  913.23786018
0.40900002 14780.70049405  999.91443580
0.41000002 14680.46154795  905.05049731
0.41100002 14584.20112377  1081.56440659
0.41200002 14491.78593386  987.54279925
0.41300002 14404.14700054  1252.29659956
0.41400002 14319.87436341  1158.83588777
0.41500002 14239.71989213  1243.98198872
0.41600002 14162.84728387  1240.24059542
0.41700002 14089.99662342  1060.13139618
0.41800002 14021.66919238  1233.76673070
0.41900002 13954.80871456  967.06828974
0.42000002 13892.58175576  965.04823739
0.42100002 13834.11005743  963.26912894
0.42200002 13778.74084060  1311.39172164
0.42300002 13725.91481417  1134.85869061
0.42400002 13676.16656931  2092.45358426
0.42500002 13629.83081026  1132.23009906
0.42600002 13585.45983455  1044.17849236
0.42700002 13545.30458231  1130.49117401
0.42800002 13506.76874826  1042.99273216
0.42900002 13472.28377514  955.85857914
0.43000002 13439.65012164  955.76076369
0.43100002 13408.62628768  1129.54273200
0.43200002 13381.20658470  956.02034975
0.43300002 13356.05237287  1391.16648108
0.43400002 13333.05402264  956.97999782
0.43500002 13312.21295313  1044.74252207
0.43600002 13293.80181945  1219.97225078
0.43700002 13277.03711659  872.30137990
0.43800002 13262.26642957  1135.31637150
0.43900002 13250.20081521  961.96462477
0.44000002 13239.46811672  1313.68628614
0.44100002 13230.96195764  1140.37666517
0.44200002 13224.03208549  966.61067110
0.44300002 13219.01949189  968.42541387
0.44400002 13215.91310725  1235.02713840
0.44500002 13213.23315772  1149.15494219
0.44600002 13212.64012344  974.49831849
0.44700002 13214.48854283  976.81503938
0.44800002 13216.18110346  1246.15377530
0.44900002 13221.07982914  1070.90751691
0.45000002 13226.45483983  984.24668355
0.45100002 13232.94919922  1166.35219770
0.45200002 13240.93722879  1169.63824554
0.45300002 13249.71295083  902.30549471
0.45400002 13260.17413753  1267.00969889
0.45500002 13271.60071967  1089.33303870
0.45600002 13283.91613457  1001.67374360
0.45700002 13297.30268544  1004.87721156
0.45800002 13311.29775516  916.48289388
0.45900002 13326.33067828  1103.42023246
0.46000002 13342.96718995  1014.93284741
0.46100002 13359.35848426  1296.12502157
0.46200002 13377.32991222  1393.58340965
0.46300002 13396.03644933  1212.07343538
0.46400002 13414.72347363  1122.81240796
0.46500002 13434.67968566  1690.35147817
0.46600002 13454.94051597  1319.52607894
0.46700002 13475.57771623  945.98560052
0.46800002 13497.77204323  1329.39563155
0.46900002 13519.35076911  1143.73712928
0.47000002 13541.76353449  1243.74333077
0.47100002 13564.81447067  1440.58336506
0.47200002 13588.31727122  1156.90938731
0.47300002 13612.29063327  1161.40069188
0.47400002 13635.92290070  971.55955272
0.47500002 13660.37005165  1365.49065508
0.47600002 13685.48593013  1175.03587766
0.47700002 13710.11442676  983.01525099
