# SAXS profile: number of points = 501, q_min = 0, q_max = 0.5, delta_q = 0.001
#    q    intensity    error
0.00000000 1682732.95097188 252.40994265
0.00100000 1682645.72606141 504.79372981
0.00200000 1682384.02298104 1135.60925147
0.00300000 1681948.05809860 1412.83641913
0.00400000 1681337.69748428 1639.30431734
0.00500000 1680553.61641486 1966.24780903
0.00600000 1679595.63183106 2645.36322783
0.00700000 1678464.53799948 2618.40478810
0.00800000 1677160.08085325 3849.08254807
0.00900000 1675683.67078607 2513.52561363
0.01000000 1674034.72888368 3038.37316412
0.01100000 1672214.88157190 4514.98037682
0.01200000 1670223.88773868 4559.71141344
0.01300000 1668063.23723298 4203.51954322
0.01400000 1665733.04476951 4497.47942026
0.01500000 1663234.85224095 6386.82211700
0.01600000 1660568.41352861 4657.89460817
0.01700000 1657735.86925933 5818.65316212
0.01800000 1654737.77338463 8017.20487280
0.01900000 1651575.00213539 5945.67027597
0.02000000 1648248.46057012 6749.57775136
0.02100000 1644760.83006461 6513.25318236
0.02200000 1641110.72273629 6228.01547574
0.02300000 1637301.36648515 9430.85630023
0.02400000 1633333.39280781 7350.00060278
0.02500000 1629208.92401230 8895.48113137
0.02600000 1624928.75278443 8555.25027471
0.02700000 1620494.41360370 7486.68453375
0.02800000 1615906.81716628 8435.03397244
0.02900000 1611169.01197207 7975.28697544
0.03000000 1606281.76161823 9709.97369530
0.03100000 1601246.70497884 8454.58299131
0.03200000 1596065.03133340 9480.62672278
0.03300000 1590740.88179872 11357.89041965
0.03400000 1585272.89516780 10819.48800874
0.03500000 1579665.11261695 11942.26880286
0.03600000 1573918.06270853 12229.34391241
0.03700000 1568034.94102148 8937.79957717
0.03800000 1562017.26959624 13706.70217505
0.03900000 1555867.45844196 11202.24621956
0.04000000 1549585.73894022 9529.95273609
0.04100000 1543176.21711138 13610.81486601
0.04200000 1536640.49881219 9911.33167715
0.04300000 1529980.40950567 14137.01964004
0.04400000 1523198.31394524 16450.54255460
0.04500000 1516297.28156572 13601.18724762
0.04600000 1509277.64623161 10640.40790057
0.04700000 1502143.40457137 12978.51961910
0.04800000 1494896.17419240 12086.23613070
0.04900000 1487538.81827926 11156.54165640
0.05000000 1480072.82299452 12454.81338547
0.05100000 1472502.45541473 13782.62362473
0.05200000 1464826.80846654 12809.91103700
0.05300000 1457051.28578522 14162.53915806
0.05400000 1449176.73140688 15542.42116914
0.05500000 1441207.35961510 14527.37086261
0.05600000 1433143.08068988 17154.72347637
0.05700000 1424989.86233931 12397.41238104
0.05800000 1416746.49470603 15045.84847630
0.05900000 1408417.12719100 12675.75473675
0.06000000 1400005.52413006 12810.05114426
0.06100000 1391513.00154854 15529.28582299
0.06200000 1382942.30355666 16989.44699334
0.06300000 1374296.95722865 17151.22682812
0.06400000 1365576.27575098 15977.24317349
0.06500000 1356786.56330504 14775.40636555
0.06600000 1347929.32431239 14901.35937749
0.06700000 1339005.67841603 20486.78783853
0.06800000 1330019.87789773 13765.70638060
0.06900000 1320975.57617005 22192.39071868
0.07000000 1311872.15623527 15368.58302998
0.07100000 1302714.17393712 16883.17648500
0.07200000 1293503.54507825 18413.02382678
0.07300000 1284243.80718885 15680.61762050
0.07400000 1274937.96988787 17211.66340010
0.07500000 1265586.27344627 17313.22103226
0.07600000 1256192.55077358 18861.73203411
0.07700000 1246760.28917495 18963.22488751
0.07800000 1237290.97066990 16128.08855903
0.07900000 1227786.07221967 19153.46362500
0.08000000 1218251.15114268 16281.92739882
0.08100000 1208687.06826672 19326.90712837
0.08200000 1199094.87743500 14928.73192460
0.08300000 1189478.42700986 19483.65754883
0.08400000 1179840.71977857 19555.86084826
0.08500000 1170183.49837776 15095.36783773
0.08600000 1160509.25135429 15144.64644124
0.08700000 1150820.50336234 16709.91449348
0.08800000 1141118.65058151 18280.72164085
0.08900000 1131407.28153034 15273.99901807
0.09000000 1121688.68660707 16842.15642057
0.09100000 1111964.54000082 16879.62251024
0.09200000 1102236.82925654 19989.06583779
0.09300000 1092509.71184342 20025.70395914
0.09400000 1082781.94428987 18515.57211754
0.09500000 1073058.21295077 26268.46628772
0.09600000 1063339.74973277 17018.75349449
0.09700000 1053631.59773010 15488.38521478
0.09800000 1043932.02668246 15502.39132512
0.09900000 1034245.86285715 17065.05753958
0.10000000 1024571.95222626 20178.94554805
0.10100000 1014914.35006419 20186.64737219
0.10200000 1005275.31735703 20190.95569882
0.10300000 995655.86017821 17085.45536437
0.10400000 986058.42500752 23295.63138675
0.10500000 976486.91839948 18631.37127966
0.10600001 966937.50466472 23279.02152016
0.10700001 957418.14459427 17061.19213953
0.10800001 947925.95581782 17048.44911771
0.10900001 938465.74516945 23227.02828614
0.11000001 929038.32404344 18562.18658810
0.11100001 919644.43128080 21630.03804192
0.11200001 910287.25861613 15429.36975991
0.11300001 900966.26629435 20028.48104268
0.11400001 891685.10203645 15381.56873436
0.11500001 882444.20580943 16889.98289451
0.11600001 873245.63872027 15325.46168124
0.11700001 864090.62229848 16823.84520847
0.11800001 854979.20789003 15261.37957962
0.11900001 845913.63240102 21317.02454057
0.12000001 836894.95553976 15189.64415855
0.12100001 827926.11819354 19696.36327968
0.12200001 819006.70866994 19643.87683290
0.12300001 810138.71918421 18082.29706413
0.12400001 801322.08819854 19532.22682015
0.12500001 792558.23104199 17975.22152703
0.12600001 783850.27195597 16425.58322287
0.12700001 775196.65583966 14883.77649354
0.12800001 766599.11871401 25217.27919857
0.12900001 758059.44637705 19216.80787139
0.13000001 749577.63642366 17675.04149998
0.13100001 741154.07884814 22012.27717940
0.13200001 732790.18826147 14619.16494497
0.13300001 724488.09304961 17474.65362816
0.13400001 716246.03483596 17404.77946707
0.13500001 708067.40537618 17333.49090085
0.13600001 699950.14092784 18699.16889657
0.13700001 691897.31163051 17186.73003131
0.13800001 683906.82947008 17111.34968024
0.13900001 675982.41059191 17034.75755024
0.14000001 668122.37427714 21196.18332357
0.14100001 660327.82253386 16877.97993998
0.14200001 652598.88240991 16797.89602551
0.14300001 644937.65282316 16716.78474967
0.14400001 637340.13966575 24951.86764489
0.14500001 629812.27478693 13792.88946847
0.14600001 622350.91459922 13722.83831428
0.14700001 614959.19037797 13652.09467045
0.14800001 607632.12597038 19012.81011861
0.14900001 600374.93816766 20262.65511917
0.15000001 593185.25528961 13435.64666624
0.15100001 586064.34185040 13362.26762469
0.15200001 579012.58696289 13288.33949784
0.15300001 572030.42830832 25106.41668320
0.15400001 565114.36166450 17080.58238736
0.15500001 558268.80562492 14369.83973494
0.15600001 551489.57734670 15585.09619136
0.15700001 544782.83659898 14202.48922045
0.15800001 538140.75013524 12834.65749650
0.15900001 531569.70940529 19136.51044184
0.16000001 525064.78166239 15216.37809083
0.16100001 518631.22985586 12602.73948040
0.16200001 512264.46525610 13777.35344344
0.16300001 505965.29135458 14936.09610589
0.16400001 499734.42609566 18552.64144466
0.16500001 493570.56446083 13518.89839883
0.16600001 487475.03623605 17095.75032794
0.16700001 481444.87356689 15772.13480273
0.16800001 475480.97498698 15669.47627055
0.16900001 469585.76541980 16764.21261706
0.17000001 463755.12686934 14274.38347907
0.17100001 457990.03883105 12997.75791580
0.17200001 452291.03699538 12910.64826071
0.17300001 446656.82947991 12823.51817995
0.17400001 441087.25307532 16209.95731605
0.17500001 435581.72428370 16099.10128985
0.17600001 430138.30159856 11420.17244681
0.17700001 424760.31281613 12475.21097662
0.17800001 419443.40611109 11262.05598601
0.17900001 414189.43292536 14538.04978236
0.18000001 408997.41539613 15545.99249352
0.18100001 403868.13100139 13230.72059658
0.18200001 398797.03296837 10946.97907209
0.18300001 393787.45487964 16302.80140215
0.18400001 388836.89013030 19422.40357954
0.18500001 383947.08862698 11783.33670663
0.18600001 379114.54967416 11697.57998283
0.18700001 374339.65343257 12667.65447064
0.18800001 369622.54991738 14670.31969934
0.18900001 364963.86334430 13521.91177578
0.19000001 360357.67269223 12389.09737253
0.19100001 355811.82095531 11272.11902047
0.19200001 351317.84706821 12204.78258384
0.19300001 346880.96384147 13122.50748220
0.19400001 342495.52394226 13023.39291331
0.19500001 338164.69410650 12924.65521951
0.19600001 333886.28325414 10852.97415005
0.19700001 329659.89024288 10769.98912320
0.19800001 325485.14675281 14573.59813459
0.19900001 321361.82290031 10604.94065690
0.20000001 317286.94193791 12436.06227700
0.20100001 313263.65175153 10441.07800635
0.20200001 309287.53654555 9417.80593293
0.20300001 305361.65348662 14016.10055750
0.20400001 301482.52625801 11124.70574474
0.20500001 297650.42974924 11956.61832818
0.20600001 293865.19073140 10036.96606386
0.20700001 290126.16654503 13577.90523612
0.20800001 286431.01966304 12571.45804727
0.20900001 282782.87350312 9798.42703007
0.21000001 279177.18547484 9719.55417177
0.21100001 275615.58802025 9641.03372471
0.21200001 272096.39210673 10432.17616655
0.21300001 268618.83315610 12071.73093273
0.21400001 265184.19786650 9407.40986406
0.21500001 261791.22473949 13571.25773211
0.21600001 258437.80356258 11777.01126515
0.21700001 255124.50592095 9176.82891185
0.21800001 251851.04037886 8273.30706761
0.21900001 248615.19759783 9845.16229037
0.22000001 245417.52318062 8949.15040592
0.22100001 242259.20370581 10487.40142431
0.22200001 239138.07379034 10398.91963048
0.22300001 236052.18621893 8724.48921519
0.22400001 233001.72232635 11009.33190051
0.22500001 229989.68586452 10915.31100729
0.22600001 227010.50137091 10048.62031836
0.22700001 224067.88094300 8429.43407970
0.22800001 221157.83412202 8356.44915748
0.22900001 218280.81919761 8283.75748030
0.23000001 215438.00913703 9704.40558052
0.23100001 212628.55086393 8879.36870401
0.23200001 209849.45976479 11001.35844846
0.23300001 207102.84452802 12357.82731744
0.23400001 204388.19148661 10086.55772691
0.23500001 201702.29430601 7854.28771175
0.23600001 199048.57652735 11321.88356837
0.23700001 196423.99760057 8414.80445521
0.23800001 193829.18084114 6948.77646182
0.23900001 191262.96706887 7574.01385417
0.24000001 188725.43828437 8869.15239169
0.24100001 186217.45758360 8111.63283603
0.24200001 183736.38533393 7366.91071843
0.24300001 181283.38368623 7961.96658812
0.24400001 178857.02342767 6572.99592189
0.24500001 176457.43066777 9115.79129951
0.24600001 174084.74203166 6449.83999738
0.24700001 171738.09130555 6388.65729879
0.24800001 169417.02966938 7593.27162899
0.24900001 167120.68188625 9400.53880082
0.25000001 164850.49003900 8068.60761667
0.25100001 162603.92435794 6761.07149466
0.25200001 160383.41945476 6695.20616189
0.25300001 158186.96947574 7232.30858659
0.25400001 156013.90772075 8354.54515371
0.25500001 153864.15108318 5908.38368113
0.25600001 151738.38492450 5849.51501560
0.25700001 149634.82104598 6949.04141816
0.25800001 147555.08103574 6305.76668641
0.25900001 145497.73314618 6241.85304730
0.26000001 143462.53906582 5616.55867018
0.26100001 141448.93680315 7782.52087115
0.26200001 139457.93309481 6601.93886509
0.26300001 137487.86790190 5444.51982654
0.26400001 135539.59592868 5926.46911241
0.26500001 133612.90877311 5331.15531231
0.26600001 131706.04674833 6857.27564844
0.26700001 129821.20913888 5740.69413977
0.26800001 127957.28963156 6711.99994524
0.26900001 126112.27747756 6639.81172340
0.27000001 124288.51149541 6568.02670079
0.27100001 122484.24307414 5497.09308931
0.27200001 120701.37600475 5436.99373943
0.27300001 118937.07220737 7332.47084859
0.27400001 117190.60603889 4834.11272788
0.27500001 115466.42850826 5736.37243977
0.27600001 113759.21443185 7090.04337501
0.27700001 112072.45678302 6542.79033664
0.27800001 110403.75297244 6468.55619279
0.27900001 108755.10468659 6394.80045822
0.28000001 107123.51939396 7224.41048985
0.28100001 105511.19511501 7140.99802336
0.28200001 103917.85517326 5293.57579307
0.28300001 102342.36536407 7411.63445046
0.28400001 100784.60541765 5170.25050264
0.28500001 99245.41098815  5960.67966608
0.28600001 97723.71249193  4207.00602190
0.28700001 96220.04170588  5403.71779797
0.28800001 94733.20975785  6570.69573982
0.28900001 93265.78402135  4462.76797666
0.29000001 91814.13181075  4809.22445189
0.29100001 90380.79829729  4750.41498337
0.29200001 88964.51714294  3909.99071351
0.29300001 87565.39513531  4247.79751909
0.29400001 86182.76626520  4194.94634653
0.29500001 84818.12042519  5272.29461520
0.29600001 83469.70421278  4462.29059845
0.29700001 82137.91256774  4038.72135214
0.29800001 80822.79127701  3624.90236037
0.29900001 79524.92444928  4652.20830051
0.30000001 78242.82192111  3885.92993467
0.30100001 76978.10985982  5230.66281260
0.30200001 75728.09144759  5851.13126269
0.30300001 74495.65502615  4416.10263901
0.30400001 73279.33926584  5028.79489519
0.30500001 72078.61309007  3308.40849746
0.30600001 70893.08789011  3264.62685190
0.30700001 69724.55799872  5154.03957127
0.30800001 68571.37636327  5085.25351185
0.30900001 67434.06624368  3762.82107455
0.31000001 66312.57041083  3712.17786735
0.31100001 65205.60869039  3051.62263119
0.31200001 64114.92096958  3913.25438665
0.31300001 63038.89917117  3266.04552069
0.31400001 61979.31365431  3514.22725059
0.31500001 60933.96398164  6354.19406486
0.31600002 59904.05902537  3133.28195568
0.31700002 58889.05880890  3932.61153346
0.31800002 57888.92803269  2769.98533752
0.31900002 56903.66322467  2731.37596411
0.32000002 55933.63103819  3501.16580061
0.32100002 54977.41494416  2920.95019429
0.32200002 54036.87325254  2618.08663305
0.32300002 53109.27912009  3871.66663118
0.32400002 52196.36879221  2799.03040902
0.32500002 51297.92275019  3511.85595777
0.32600002 50414.11039799  2967.37467854
0.32700002 49543.59391867  2681.29942984
0.32800002 48687.86027984  3604.11902788
0.32900002 47845.36417408  2605.18020264
0.33000002 47017.68118986  3034.75637611
0.33100002 46201.04585000  2991.05584997
0.33200002 45401.18749361  3401.68413404
0.33300002 44613.21075194  2905.65855387
0.33400002 43839.20316758  3084.08808889
0.33500002 43077.27141201  2388.20404018
0.33600002 42329.77986596  2781.70161562
0.33700002 41594.07393396  2319.70161315
0.33800002 40872.45283065  2909.71005481
0.33900002 40162.60819756  3891.75691865
0.34000002 39466.11520311  2220.56107706
0.34100002 38782.06651680  2785.32814915
0.34200002 38111.03257506  1960.81271885
0.34300002 37451.09761199  2898.71509245
0.34400002 36804.99845420  1904.65876021
0.34500002 36170.08027172  2252.67270601
0.34600002 35548.29066399  2035.31747836
0.34700002 34936.58064135  2188.42751502
0.34800002 34338.29803525  1977.37098601
0.34900002 33750.98186367  1949.11929494
0.35000002 33175.30188327  2794.68756301
0.35100002 32611.78798633  2238.47323340
0.35200002 32058.11523253  2206.72046655
0.35300002 31516.31360391  1840.86796479
0.35400002 30985.87314890  2309.99695266
0.35500002 30466.48064975  1952.29217250
0.35600002 29956.85962702  1925.02789081
0.35700002 29458.48111817  2056.49666426
0.35800002 28971.48234942  2184.16015778
0.35900002 28494.42008049  1692.56863295
0.36000002 28027.99372816  1821.25911872
0.36100002 27571.06226933  1796.53050256
0.36200002 27125.35278274  1624.67308188
0.36300002 26688.53882883  1748.63314689
0.36400002 26261.66938652  1581.60911372
0.36500002 25844.41200898  1702.62994380
0.36600002 25437.11251560  1960.43835444
0.36700002 25038.52478911  1658.55196059
0.36800002 24651.00659644  2592.42323151
0.36900002 24271.44430447  1616.47826725
0.37000002 23900.75633910  1862.10801459
0.37100002 23538.76100052  1576.15551126
0.37200002 23186.64105011  1686.48041667
0.37300002 22842.52571506  1537.75890398
0.37400002 22506.91557373  2025.62249759
0.37500002 22180.25355627  1250.96635983
0.37600002 21862.00733314  1854.44485988
0.37700002 21551.39300995  1221.96404155
0.37800002 21248.64142432  1691.17945108
0.37900002 20954.67006809  1552.74112560
0.38000002 20668.28339366  1653.66943267
0.38100002 20388.67790177  1401.92555894
0.38200002 20117.70353673  1386.91454752
0.38300002 19853.33252485  1257.90720837
0.38400002 19597.24054766  1358.08883429
0.38500002 19346.95249592  1232.20746284
0.38600002 19105.06283981  1219.95384543
0.38700002 18869.39994771  1976.75843217
0.38800002 18640.67628887  1413.98856688
0.38900002 18418.22107016  1185.21258202
0.39000002 18203.42008138  1067.63063835
0.39100002 17993.93827542  1269.65234487
0.39200002 17791.42792967  1258.56567137
0.39300002 17594.83068430  1143.83999698
0.39400002 17405.58387841  1650.04942985
0.39500002 17221.12029058  1329.81497184
0.39600002 17042.57110335  1420.83922020
0.39700002 16869.79670394  1510.69036641
0.39800002 16703.04744246  999.67743679
0.39900002 16541.42475800  1190.98263900
0.40000002 16385.10967400  985.56439359
0.40100002 16234.45205781  978.93750547
0.40200002 16089.33770070  972.60051009
0.40300002 15948.46131234  1063.12448145
0.40400002 15813.18014310  1056.71581313
0.40500002 15682.86132021  1050.59492962
0.40600002 15557.09872000  1234.68919841
0.40700002 15436.05127489  1039.15502106
0.40800002 15319.82563307  1409.80702068
0.40900002 15207.71924258  1496.43964437
0.41000002 15100.39818680  1210.22147002
0.41100002 14997.07504951  1112.18313837
0.41200002 14897.70345195  1015.20404984
0.41300002 14803.04147380  1011.19581099
0.41400002 14711.89789467  1098.97882480
0.41500002 14624.98234625  1186.37862414
0.41600002 14541.21037486  1000.50802725
0.41700002 14461.55648358  906.73963449
0.41800002 14386.45163573  904.18852815
0.41900002 14312.85234856  991.88071476
0.42000002 14244.05598416  1169.36583143
0.42100002 14178.86466908  1077.02661130
0.42200002 14116.89235874  1074.86023513
0.42300002 14057.50112455  1519.89709361
0.42400002 14001.20865109  1338.86564070
0.42500002 13948.32236183  1158.68719350
0.42600002 13897.49704533  979.14820073
0.42700002 13850.85841647  978.14766772
0.42800002 13805.89120236  1066.09096916
0.42900002 13765.00656973  887.84296582
0.43000002 13725.99013338  1064.86236501
0.43100002 13688.62802733  1064.42776585
0.43200002 13654.91562552  975.57549310
0.43300002 13623.45395107  1330.33034136
0.43400002 13594.29282843  1064.43317891
0.43500002 13567.16519263  1330.93896847
0.43600002 13542.55091046  976.48567967
0.43700002 13519.66254044  1510.01118070
0.43800002 13498.69279234  888.88896250
0.43900002 13480.53532006  1067.65844794
0.44000002 13463.73585042  979.68878558
0.44100002 13449.13861822  891.67793264
0.44200002 13436.23967969  1249.97343664
0.44300002 13425.15636441  1072.93854749
0.44400002 13416.09244209  1074.62905554
0.44500002 13407.50162156  1255.74666139
0.44600002 13400.89806653  1347.79538692
0.44700002 13396.91529514  1170.35457565
0.44800002 13392.63753802  1352.99127140
0.44900002 13391.65793695  1084.72434430
0.45000002 13391.24732693  996.50971706
0.45100002 13391.92224376  1271.16131962
0.45200002 13394.13897486  1274.18450107
0.45300002 13397.11498405  1094.81228838
0.45400002 13401.81604767  1097.60878632
0.45500002 13407.54780643  1467.32210148
0.45600002 13414.16708827  1103.44943698
0.45700002 13421.89845550  1014.29291435
0.45800002 13430.28002807  1294.54475326
0.45900002 13439.69176686  1298.27428621
0.46000002 13450.77502982  1023.13325113
0.46100002 13461.56104301  1119.46346939
0.46200002 13474.08234183  1216.50758189
0.46300002 13487.22225156  938.71071320
0.46400002 13500.45739601  1129.98833760
0.46500002 13514.92488357  1700.44792944
0.46600002 13529.82887566  1516.42329226
0.46700002 13544.99176982  1236.11600750
0.46800002 13561.84407858  1144.89093138
0.46900002 13578.10638016  1627.33612679
0.47000002 13595.17065592  960.49885237
0.47100002 13612.91185167  1349.31188669
0.47200002 13631.17347764  1160.55816489
0.47300002 13649.90813519  1261.66106873
0.47400002 13668.29211243  1168.63903100
0.47500002 13687.54038685  1270.47755892
0.47600002 13707.60225598  1569.24638064
0.47700002 13727.06413775  1082.65359986
