# SAXS profile: number of points = 501, q_min = 0, q_max = 0.5, delta_q = 0.001
#    q    intensity    error
0.00000000 1664650.74656090 299.63713438
0.00100000 1664564.13404666 998.73850415
0.00200000 1664304.26863845 973.61802798
0.00300000 1663871.36780046 1098.15514187
0.00400000 1663265.30181656 1496.93882852
0.00500000 1662486.72237472 1945.10954217
0.00600000 1661535.48940556 2267.99603537
0.00700000 1660412.34285827 2789.49285193
0.00800000 1659117.04993112 2911.75054556
0.00900000 1657651.05093085 3232.41968749
0.01000000 1656013.71261734 3552.14956694
0.01100000 1654206.68956270 3870.84382211
0.01200000 1652229.72492494 3866.21772583
0.01300000 1650084.31462776 4158.21265626
0.01400000 1647770.55323120 5931.97425460
0.01500000 1645290.05513605 4343.56593897
0.01600000 1642642.44930745 5864.23380618
0.01700000 1639829.92053706 4870.29508247
0.01800000 1636853.06899078 5598.03774785
0.01900000 1633712.74230020 6371.47998247
0.02000000 1630409.80495560 5649.37022972
0.02100000 1626946.95738541 5905.81772307
0.02200000 1623322.79625266 6720.55668182
0.02300000 1619540.60141878 6996.41571659
0.02400000 1615600.82380451 6664.35370207
0.02500000 1611505.89343828 9427.30990717
0.02600000 1607256.21195563 7160.32675176
0.02700000 1602853.69018993 8078.38296856
0.02800000 1598298.93577910 8343.12082738
0.02900000 1593595.13793442 8605.41413996
0.03000000 1588743.04241935 7387.65548683
0.03100000 1583744.18313094 8362.16967170
0.03200000 1578599.95516383 9376.88416555
0.03300000 1573314.34558541 8826.29388563
0.03400000 1567885.88273176 9877.68151697
0.03500000 1562318.77094554 10123.82610323
0.03600000 1556613.42705019 12958.80737907
0.03700000 1550773.16828433 10607.28896163
0.03800000 1544799.36077591 11748.19968240
0.03900000 1538694.57899523 9232.16790151
0.04000000 1532458.72633608 10367.08376406
0.04100000 1526096.36621839 14421.61132944
0.04200000 1519608.62525171 12741.91891387
0.04300000 1512997.54536104 10984.36268919
0.04400000 1506265.71311295 11184.02343927
0.04500000 1499415.80734774 13449.76041685
0.04600000 1492448.19240100 13678.28831922
0.04700000 1485367.04742196 12833.57188659
0.04800000 1478173.97009449 14123.95294141
0.04900000 1470871.51259201 15444.15160110
0.05000000 1463461.64001143 14554.12668764
0.05100000 1455948.16979269 12492.03587875
0.05200000 1448330.30860283 13817.07178796
0.05300000 1440613.59181597 12835.86770146
0.05400000 1432798.82394382 16548.82718829
0.05500000 1424889.78382053 11969.07474244
0.05600000 1416887.30612338 14537.26443920
0.05700000 1408796.30829055 13482.18129967
0.05800000 1400616.19040105 13634.99925021
0.05900000 1392350.96359528 16290.50703493
0.06000000 1384004.31210658 15196.36805689
0.06100000 1375577.39742039 19189.30559076
0.06200000 1367073.33949691 14210.72802833
0.06300000 1358495.50924739 20866.49199766
0.06400000 1349842.88299949 19741.45308711
0.06500000 1341122.25353724 13277.11093109
0.06600000 1332334.77780178 13389.96514340
0.06700000 1323481.55989096 13499.51254265
0.06800000 1314567.00985314 21769.23070217
0.06900000 1305594.59566606 19192.24145485
0.07000000 1296563.81062264 15189.24575273
0.07100000 1287479.38023033 15295.25575353
0.07200000 1278342.72863484 22396.56565489
0.07300000 1269157.97167091 14087.65414563
0.07400000 1259927.42647242 17009.02105449
0.07500000 1250652.07572847 18534.66463106
0.07600000 1241334.86143525 18638.64381824
0.07700000 1231980.15333557 17297.00216386
0.07800000 1222588.59228380 18833.97814737
0.07900000 1213162.42923312 26204.30970052
0.08000000 1203706.87503799 19012.55098312
0.08100000 1194222.25697813 22033.40167501
0.08200000 1184710.69269337 16224.61369778
0.08300000 1175174.96985888 20730.08744122
0.08400000 1165618.65101020 16347.80234776
0.08500000 1156043.35092212 25352.03187588
0.08600000 1146451.71044432 14961.19552375
0.08700000 1136845.65439698 21008.90867979
0.08800000 1127227.28062728 16553.33339342
0.08900000 1117599.94567426 18105.11997032
0.09000000 1107965.56676469 21173.22297550
0.09100000 1098326.28061122 18188.28406143
0.09200000 1088683.68328893 18224.56571457
0.09300000 1079042.16917073 19778.84389035
0.09400000 1069400.47117770 19810.64465962
0.09500000 1059763.29054653 19838.76973151
0.09600000 1050131.54539734 21391.18058530
0.09700000 1040510.32245206 19884.15319687
0.09800000 1030898.51338768 18370.61237231
0.09900000 1021299.99654092 15319.50066847
0.10000000 1011714.17519829 21458.45866509
0.10100000 1002145.16302489 22999.23257312
0.10200000 992594.54616467 15335.58645957
0.10300000 983064.09617451 19936.54080825
0.10400000 973556.33929848 26066.97221104
0.10500000 964074.15975873 18394.53583365
0.10600001 954614.30433805 16853.71633612
0.10700001 945184.88555543 24499.19338647
0.10800001 935782.93459355 16830.05687072
0.10900001 926413.20142663 19871.56410587
0.11000001 917076.24127093 19850.11617665
0.11100001 907772.99060821 21350.82174416
0.11200001 898506.47506016 18275.62256309
0.11300001 889276.69432621 19768.62184559
0.11400001 880086.49656798 15181.49278061
0.11500001 870937.10615660 18185.16763285
0.11600001 861829.83272922 19662.64855966
0.11700001 852766.09740371 18112.75276187
0.11800001 843746.29035583 18073.04639063
0.11900001 834772.18648031 18031.08007727
0.12000001 825845.11605165 16487.99851864
0.12100001 816968.17385909 17940.62194309
0.12200001 808140.39306780 16401.21004999
0.12300001 799364.05738857 22302.25825190
0.12400001 790639.36227926 19271.83536360
0.12500001 781967.09855085 17735.01463082
0.12600001 773350.66488548 17678.79703237
0.12700001 764788.86906389 24962.70986265
0.12800001 756282.93102068 17560.89048593
0.12900001 747834.52224240 16041.05125815
0.13000001 739444.40515300 20342.11654458
0.13100001 731112.16570125 21714.03234487
0.13200001 722839.72638858 18746.84918762
0.13300001 714628.89669537 20109.65810104
0.13400001 706478.17315425 17167.42041702
0.13500001 698390.25226570 18521.31036333
0.13600001 690363.88167442 15605.67628107
0.13700001 682401.72985577 18363.43141631
0.13800001 674501.98820637 18282.37725245
0.13900001 666667.69803452 16800.02678273
0.14000001 658897.89384647 18116.39844569
0.14100001 651193.33814076 15257.46063222
0.14200001 643554.32763890 15184.66507683
0.14300001 635982.43497128 15110.94336766
0.14400001 628474.82533833 15036.26090548
0.14500001 621035.75952361 19040.95728520
0.14600001 613663.40740074 17590.66240297
0.14700001 606360.28566983 18845.67856769
0.14800001 599121.70160279 18746.51892759
0.14900001 591952.40574055 14650.82273332
0.15000001 584850.71700412 14571.55630169
0.15100001 577817.65697072 14491.66752061
0.15200001 570852.74854206 17031.39255641
0.15300001 563957.62755269 16935.64835458
0.15400001 557128.18449170 18134.52326099
0.15500001 550369.17503819 18030.09502514
0.15600001 543676.01231755 15364.28483321
0.15700001 537054.71515050 17819.47628972
0.15800001 530497.93421258 15182.85159378
0.15900001 524012.16472780 15091.55105649
0.16000001 517591.84349306 13749.82797142
0.16100001 511242.53050634 13665.51348550
0.16200001 504959.59107022 19754.02013518
0.16300001 498744.06337351 15949.83589964
0.16400001 492596.13521851 19506.80787556
0.16500001 486515.13933146 15748.49580367
0.16600001 480501.80984165 15647.54217626
0.16700001 474553.70630705 13154.62935992
0.16800001 468671.46670649 17821.23336297
0.16900001 462857.31710397 14163.43457215
0.17000001 457107.17395032 11724.79956547
0.17100001 451422.34878627 15140.70629326
0.17200001 445803.11432690 12725.45049939
0.17300001 440248.12953843 12639.52439594
0.17400001 434757.47287702 12553.62262218
0.17500001 429330.31696190 17001.48135463
0.17600001 423965.00860358 13507.52581206
0.17700001 418664.46219111 11178.34166846
0.17800001 413424.45693738 14430.58135099
0.17900001 408247.30301227 12124.94547217
0.18000001 403131.06369017 10945.00889618
0.18100001 398077.51990550 10867.51680676
0.18200001 393081.29496610 14027.10667348
0.18300001 388146.20480902 10712.83575880
0.18400001 383269.90583757 18080.75866204
0.18500001 378453.86018614 12670.63583762
0.18600001 373694.05977128 11530.33075898
0.18700001 368991.89977566 12486.68647834
0.18800001 364346.56238183 11362.14808470
0.18900001 359759.59482342 12303.77872428
0.19000001 355224.40459937 13230.33357442
0.19100001 350749.07369766 15152.36069969
0.19200001 346324.82756660 14036.54592452
0.19300001 341957.25302839 10946.05218667
0.19400001 337640.76901150 15801.58873642
0.19500001 333378.42889245 9801.32627260
0.19600001 329167.77374065 11672.28980843
0.19700001 325008.45097065 9652.75144999
0.19800001 320900.33946422 12452.53826140
0.19900001 316843.01732632 16158.99464732
0.20000001 312833.93478115 11318.33229530
0.20100001 308875.64596935 14974.29202431
0.20200001 304964.05176355 14857.84930415
0.20300001 301101.93783088 11056.46367973
0.20400001 297286.30096868 14626.48669899
0.20500001 293517.02935258 9976.64429926
0.20600001 289793.88335359 11697.53065449
0.20700001 286116.51129569 14282.93691902
0.20800001 282482.49295331 10626.99188724
0.20900001 278895.20485104 13177.79905214
0.21000001 275349.28412529 12200.72735635
0.21100001 271847.04985439 9509.21025344
0.21200001 268386.70137759 9432.45106583
0.21300001 264967.47008625 11057.09304943
0.21400001 261590.38889012 9279.91948460
0.21500001 258254.65677488 11714.43178514
0.21600001 254957.68743173 11618.42236557
0.21700001 251700.63330263 13992.03886683
0.21800001 248482.28857075 10611.43663513
0.21900001 245301.41353783 12142.42054424
0.22000001 242158.15883341 10435.80634836
0.22100001 239053.46528291 11940.72115548
0.22200001 235985.49902844 11051.20144205
0.22300001 232952.10297932 10175.34833928
0.22400001 229954.00929770 9313.13781694
0.22500001 226993.19007408 9234.08340887
0.22600001 224064.71319961 10681.16538332
0.22700001 221172.46159243 9076.91825299
0.22800001 218312.31043467 9748.73668348
0.22900001 215484.42656686 8921.05568175
0.23000001 212690.27888104 8843.66221411
0.23100001 209928.85279133 10958.28663395
0.23200001 207197.28381388 9414.00903531
0.23300001 204497.44671477 8613.43286299
0.23400001 201829.24908190 8537.37763994
0.23500001 199189.15409466 9166.68530499
0.23600001 196580.77290779 7687.29148815
0.23700001 194000.94598799 6925.83409935
0.23800001 191450.17316921 11667.93135568
0.23900001 188927.74145071 8841.81871811
0.24000001 186433.25129161 8087.47482357
0.24100001 183967.64634404 8681.43364162
0.24200001 181528.74979538 8601.74021593
0.24300001 179117.13086511 6555.68729977
0.24400001 176731.60227742 7144.37536002
0.24500001 174372.42276017 7721.21124507
0.24600001 172039.47097914 7648.87524156
0.24700001 169732.08113905 6945.43708877
0.24800001 167449.88700138 7505.10429044
0.24900001 165191.79481514 6814.16185849
0.25000001 162959.26568113 8589.58330041
0.25100001 160749.78143408 9114.51303851
0.25200001 158566.18131293 10229.89767138
0.25300001 156405.81575277 5959.06186211
0.25400001 154268.34894572 6490.84108898
0.25500001 152153.70678655 6426.97287874
0.25600001 150062.52205248 6363.40154870
0.25700001 147993.09817948 7445.53312168
0.25800001 145946.91123521 9072.06043162
0.25900001 143922.54978273 5612.97970710
0.26000001 141920.07451144 6111.78829802
0.26100001 139938.42035474 6599.49621619
0.26200001 137979.19555703 6531.93542674
0.26300001 136040.19519993 5925.91118331
0.26400001 134122.54484022 6930.78283257
0.26500001 132226.02317711 6330.98228929
0.26600001 130348.85054144 7308.66039570
0.26700001 128493.19701589 6715.05479381
0.26800001 126657.89559638 5621.71096207
0.26900001 124841.16634220 7078.49446657
0.27000001 123045.26438179 6502.32730396
0.27100001 121268.39232715 4947.75064109
0.27200001 119512.28926646 5872.83417248
0.27300001 117774.48533244 6776.74420673
0.27400001 116054.00364377 6702.11902760
0.27500001 114355.36546441 6154.60606056
0.27600001 112672.96212389 6554.18651693
0.27700001 111011.13116559 5092.08082756
0.27800001 109366.52257577 5034.68810505
0.27900001 107741.59438139 4977.66189600
0.28000001 106133.35723240 5368.22546288
0.28100001 104543.96804726 7075.53609232
0.28200001 102973.02347476 6993.92808543
0.28300001 101419.44769679 4320.46867637
0.28400001 99883.41466612  4697.01779699
0.28500001 98365.42942347  6329.81568300
0.28600001 96864.65731792  4587.02606440
0.28700001 95381.23531909  6180.70434123
0.28800001 93914.40630819  4478.30867678
0.28900001 92466.56232563  4826.75478187
0.29000001 91034.20839624  3973.64338459
0.29100001 89619.75348352  4710.41446606
0.29200001 88221.83910102  4265.08501323
0.29300001 86840.83948911  4978.58556358
0.29400001 85475.79149150  5295.22553356
0.29500001 84128.54805062  3735.30771027
0.29600001 82796.95904234  3688.60469995
0.29700001 81481.90885843  5099.13809774
0.29800001 80182.93938763  3955.82550195
0.29900001 78900.94225848  4260.65108365
0.30000001 77634.25979270  3855.70569513
0.30100001 76384.62999968  4152.26868335
0.30200001 75149.37487264  4781.75494952
0.30300001 73931.48978019  4045.53131229
0.30400001 72729.17841349  3327.36006994
0.30500001 71542.40573536  3283.79657872
0.30600001 70370.18826364  4536.76625214
0.30700001 69214.87222285  3197.72724809
0.30800001 68074.54206403  3470.78069145
0.30900001 66949.55475796  3735.78533236
0.31000001 65840.35574222  3378.59801487
0.31100001 64745.14156406  3636.08732239
0.31200001 63666.06580707  4483.68289675
0.31300001 62601.28192550  4127.92872561
0.31400001 61552.72210201  3199.20288272
0.31500001 60517.89905992  3155.40340638
0.31600002 59498.40907483  3677.89433110
0.31700002 58493.42042486  2790.13628637
0.31800002 57503.11861443  3576.98166278
0.31900002 56527.48234154  3255.98313704
0.32000002 55566.57203833  4013.29585550
0.32100002 54619.23232056  3165.73085520
0.32200002 53687.48323017  3901.73802850
0.32300002 52768.10749376  2820.98316019
0.32400002 51863.68984582  4298.20349950
0.32500002 50973.16428541  2991.10542190
0.32600002 50096.99864574  2948.70947992
0.32700002 49233.88733122  3148.99958282
0.32800002 48385.40313011  2626.60173330
0.32900002 47549.72740875  2589.08278001
0.33000002 46728.75053817  3480.12386113
0.33100002 45918.60299359  2515.42119111
0.33200002 45124.91011826  2930.18617729
0.33300002 44342.99354149  2665.90089796
0.33400002 43574.70054056  3065.48032820
0.33500002 42818.42098954  3021.26792810
0.33600002 42076.22814913  2552.34412040
0.33700002 41345.76909659  2515.47671096
0.33800002 40629.16676951  2065.99322807
0.33900002 39923.98839054  2036.12350434
0.34000002 39232.08959141  2608.73792093
0.34100002 38552.30451614  2768.82664148
0.34200002 37885.46462102  2339.04869648
0.34300002 37229.60994180  2113.15276037
0.34400002 36587.33055218  2650.75222404
0.34500002 35956.04247744  2052.73056225
0.34600002 35337.59083811  2207.18602828
0.34700002 34729.18407299  2356.72254281
0.34800002 34134.06424339  2144.30201733
0.34900002 33549.61979041  2642.03268363
0.35000002 32976.82487488  2430.72187665
0.35100002 32415.85448152  2738.49151630
0.35200002 31864.71802111  1855.96058904
0.35300002 31325.23350173  2162.38097104
0.35400002 30796.96833292  2131.92023382
0.35500002 30279.62259903  1778.62511571
0.35600002 29771.92034910  2232.00097429
0.35700002 29275.40340561  1886.50708481
0.35800002 28789.81016080  2015.43075577
0.35900002 28314.35007181  1987.66746919
0.36000002 27849.37162155  1658.84789921
0.36100002 27393.62933390  1933.71638627
0.36200002 26949.10534505  1760.85462665
0.36300002 26513.30065651  1881.91416974
0.36400002 26087.33133000  1713.93774957
0.36500002 25670.83590187  2113.99343665
0.36600002 25264.28911562  1668.95901803
0.36700002 24866.43052452  1647.15243597
0.36800002 24479.25946511  1625.91249069
0.36900002 24100.16790416  1471.31532024
0.37000002 23729.75848680  1452.61723458
0.37100002 23368.16783279  1434.33820952
0.37200002 23016.04767475  2189.17147829
0.37300002 22671.98016683  1780.65740665
0.37400002 22336.43594045  1382.06703929
0.37500002 22009.72811256  1241.34872435
0.37600002 21691.21264298  1349.30194638
0.37700002 21380.33042626  1212.26479260
0.37800002 21077.44936523  1557.72896913
0.37900002 20783.04645396  1540.02381519
0.38000002 20496.24791992  1405.63274894
0.38100002 20216.10472435  1621.73599781
0.38200002 19944.53199673  1489.55744274
0.38300002 19679.64120940  1246.90212610
0.38400002 19422.88385104  1570.34023375
0.38500002 19172.02500776  1332.07236065
0.38600002 18929.40994611  1428.50798926
0.38700002 18692.87384770  1196.71784042
0.38800002 18463.45092509  1185.07665377
0.38900002 18240.04402594  1280.45115128
0.39000002 18024.37356242  1162.84251547
0.39100002 17814.06480721  1152.21376632
0.39200002 17610.57533215  1038.14346501
0.39300002 17412.98459528  1234.92892600
0.39400002 17222.77087555  1938.85352317
0.39500002 17037.33447410  1214.42125885
0.39600002 16857.88734492  1104.27596285
0.39700002 16684.07664265  1095.64336503
0.39800002 16516.17771716  1186.19193985
0.39900002 16353.58061184  1275.57934816
0.40000002 16196.26744073  1071.62608599
0.40100002 16044.61865681  1354.48677118
0.40200002 15898.32318428  1345.47515483
0.40300002 15756.43211053  1050.32381425
0.40400002 15620.10737028  1233.59803802
0.40500002 15488.64388061  1509.21353123
0.40600002 15361.96224244  1312.98697507
0.40700002 15239.82551674  1119.21283898
0.40800002 15122.51921318  1113.31991722
0.40900002 15009.40358572  1200.00187354
0.41000002 14901.13553125  1010.52055393
0.41100002 14796.79096686  1097.33007010
0.41200002 14696.43414792  1092.53296632
0.41300002 14600.92300436  1269.40430615
0.41400002 14508.83670038  993.49264013
0.41500002 14420.92033777  1079.83856606
0.41600002 14336.32646967  1076.08471580
0.41700002 14255.84272942  893.84138149
0.41800002 14179.89602341  1069.44780876
0.41900002 14105.58333436  1066.38215061
0.42000002 14036.06175456  975.01507598
0.42100002 13970.00891994  1414.88257046
0.42200002 13907.42511307  970.66878176
0.42300002 13847.36503558  1144.90019539
0.42400002 13790.38958505  967.05111548
0.42500002 13737.00328115  1141.13291664
0.42600002 13685.63968763  1051.87831624
0.42700002 13638.51793627  1225.83005020
0.42800002 13593.16431090  962.19218134
0.42900002 13551.80473265  1311.13717001
0.43000002 13512.50096668  960.94155178
0.43100002 13474.86682403  1484.39139968
0.43200002 13440.90668513  1222.18170280
0.43300002 13409.16057136  872.93639456
0.43400002 13379.83284759  1396.85461548
0.43500002 13352.63194915  873.26217086
0.43600002 13328.02608273  1048.38258135
0.43700002 13305.04435784  1573.45462032
0.43800002 13284.20570004  1224.67098152
0.43900002 13266.12926455  1313.34685943
0.44000002 13249.46607305  1051.74266672
0.44100002 13235.14399292  877.49008831
0.44200002 13222.49596355  1317.95234763
0.44300002 13211.73932765  967.89206901
0.44400002 13203.16859438  881.31154544
0.44500002 13194.96861245  1147.56647461
0.44600002 13188.93699938  1061.18192126
0.44700002 13185.43894049  1240.48615431
0.44800002 13181.99177774  1242.93006363
0.44900002 13181.60166069  1067.70978512
0.45000002 13182.04595560  891.76545116
0.45100002 13183.56565881  983.23037343
0.45200002 13186.58734051  1075.23438270
0.45300002 13190.62759950  1257.59449494
0.45400002 13196.26589203  1350.96778472
0.45500002 13203.09546178  993.40094963
0.45600002 13210.92740337  1086.73093971
0.45700002 13219.87916580  1089.84689008
0.45800002 13229.49727522  1457.36148891
0.45900002 13240.28016851  913.57937493
0.46000002 13252.71660096  1008.06793603
0.46100002 13264.97556439  1195.04170523
0.46200002 13279.02555392  1014.45120527
0.46300002 13293.78232695  1017.77202319
0.46400002 13308.66535185  1578.07506889
0.46500002 13324.85116328  931.40714046
0.46600002 13341.52440152  1028.03121148
0.46700002 13358.64588959  1125.33238308
0.46800002 13377.34791944  1223.42541196
0.46900002 13395.55459103  1133.26397211
0.47000002 13414.74691672  1042.52710605
0.47100002 13434.54319742  951.16570346
0.47200002 13454.99576385  1145.55839363
0.47300002 13475.98421548  1437.21378470
0.47400002 13496.73221423  1057.80643743
0.47500002 13518.29831236  965.20654525
0.47600002 13540.75721621  1550.14595959
0.47700002 13562.66729183  1069.68762001
