# SAXS profile: number of points = 501, q_min = 0, q_max = 0.5, delta_q = 0.001
#    q    intensity    error
0.00000000 1664650.74656090 324.60689558
0.00100000 1664564.11538913 599.24309577
0.00200000 1664304.19847525 1273.19275215
0.00300000 1663871.20587184 1098.15503500
0.00400000 1663265.01573740 1746.42833288
0.00500000 1662486.27200583 1645.86147443
0.00600000 1661534.84763367 2093.53399325
0.00700000 1660411.45945105 3187.99013464
0.00800000 1659115.91429270 2911.74855252
0.00900000 1657649.62489588 2486.47454363
0.01000000 1656011.93796265 2732.41981562
0.01100000 1654204.52950890 3275.32511103
0.01200000 1652227.18803183 3221.84315792
0.01300000 1650081.31322375 3465.17091060
0.01400000 1647767.09650612 4448.97135779
0.01500000 1645286.06172561 4738.42406877
0.01600000 1642637.93101353 4607.59960247
0.01700000 1639824.82041699 6641.29082061
0.01800000 1636847.33653050 7464.02419044
0.01900000 1633706.34810561 6861.56697166
0.02000000 1630402.74634598 7190.07643663
0.02100000 1626939.18368627 9664.01918925
0.02200000 1623314.27752074 7840.60831664
0.02300000 1619531.26555644 6413.34410353
0.02400000 1615590.68000571 9087.69798941
0.02500000 1611494.94399193 7541.79668232
0.02600000 1607244.34454389 8462.14186107
0.02700000 1602840.96583932 7405.12560134
0.02800000 1598285.19087687 7647.79498907
0.02900000 1593580.40083223 10756.66819950
0.03000000 1588727.32860870 9603.85714288
0.03100000 1583727.41219705 9882.45950683
0.03200000 1578582.09976058 13283.76898131
0.03300000 1573295.40313091 10430.94900363
0.03400000 1567865.74863849 10700.68422819
0.03500000 1562297.48269490 10967.32883497
0.03600000 1556590.96887086 10366.89633177
0.03700000 1550749.58448057 10607.12764840
0.03800000 1544774.39707374 13555.39596166
0.03900000 1538668.32959862 12001.61352666
0.04000000 1532431.20120464 12251.78802137
0.04100000 1526067.46011022 10575.64798892
0.04200000 1519578.32180699 14701.92094555
0.04300000 1512965.87010005 11982.69024740
0.04400000 1506232.63721134 14233.89908270
0.04500000 1499381.21936567 13449.45016264
0.04600000 1492412.08749549 12625.80684715
0.04700000 1485329.38178882 18180.43247863
0.04800000 1478134.81754006 14123.57883874
0.04900000 1470830.87166680 11031.23205098
0.05000000 1463419.32093747 12314.67415914
0.05100000 1455904.16870882 12491.65834943
0.05200000 1448284.79132139 13816.63755308
0.05300000 1440566.24589475 12835.44584928
0.05400000 1432749.84529647 13002.20545241
0.05500000 1424839.15905908 11968.64949443
0.05600000 1416834.95040035 18170.90908681
0.05700000 1408742.18681988 15932.87487666
0.05800000 1400560.22944451 16113.44619213
0.05900000 1392293.14084718 15036.76662345
0.06000000 1383944.71581253 18994.64211193
0.06100000 1375515.97766824 14071.52910913
0.06200000 1367009.99718013 18085.54310808
0.06300000 1358430.29410387 19561.39714969
0.06400000 1349775.80520854 17108.40913112
0.06500000 1341053.15981176 14604.06959350
0.06600000 1332263.69200532 17406.02595045
0.06700000 1323408.47959989 17548.39726074
0.06800000 1314492.08252648 14965.49306008
0.06900000 1305517.62852075 15078.72931538
0.07000000 1296484.88482845 17949.83407101
0.07100000 1287398.24569666 18075.07221618
0.07200000 1278259.54064615 16796.33115094
0.07300000 1269072.72029988 16904.04942644
0.07400000 1259840.02994158 15590.52110116
0.07500000 1250562.59109559 14256.41420672
0.07600000 1241243.34652489 20070.90585424
0.07700000 1231886.52097680 20178.30215973
0.07800000 1222492.76140429 18832.50187261
0.07900000 1213064.43133701 14556.77385881
0.08000000 1203606.64965128 16086.20362721
0.08100000 1194120.02042561 19093.98002246
0.08200000 1184606.07687948 16223.18098414
0.08300000 1175068.22333801 19247.61840161
0.08400000 1165509.64034839 14860.24861196
0.08500000 1155932.03883779 16402.67640113
0.08600000 1146338.04822636 16455.68345491
0.08700000 1136729.88107979 16505.31864833
0.08800000 1127109.26340699 15046.90937314
0.08900000 1117479.63973293 21120.36618297
0.09000000 1107842.96370202 16634.26288139
0.09100000 1098201.39204572 18186.21590669
0.09200000 1088556.51687580 19740.97336111
0.09300000 1078912.68998173 16733.93660798
0.09400000 1069268.76081812 15237.08055776
0.09500000 1059629.16049945 21362.12487975
0.09600000 1049994.99990695 24443.88474689
0.09700000 1040371.71373012 19881.50438407
0.09800000 1030757.36586967 19898.77188371
0.09900000 1021156.67571520 18380.82102719
0.10000000 1011568.37905620 16857.78782975
0.10100000 1001997.00900774 18396.66595061
0.10200000 992444.18062521 19933.24230544
0.10300000 982911.27483599 26066.80823485
0.10400000 973401.13212160 21463.49597303
0.10500000 963916.74385745 21456.78772779
0.10600001 954454.60464161 16850.89683784
0.10700001 945022.66599251 19902.17828235
0.10800001 935618.46837325 18356.83521339
0.10900001 926246.41775614 15283.06661228
0.11000001 916907.18922177 18319.80650296
0.11100001 907601.71840629 18297.25150438
0.11200001 898332.69529073 16749.41389221
0.11300001 889100.63511391 15203.62157625
0.11400001 879908.08470256 21249.78124610
0.11500001 870756.39822404 18181.39445104
0.11600001 861646.76457301 22682.85214555
0.11700001 852580.70356269 16599.74708013
0.11800001 843558.56623004 16563.27322803
0.11900001 834582.24148752 18026.97726523
0.12000001 825652.90466050 17982.72111058
0.12100001 816773.69333532 17936.35115059
0.12200001 807943.54752721 19378.52690039
0.12300001 799164.98826976 17837.36337858
0.12400001 790438.12004790 19266.93008398
0.12500001 781763.45212706 14775.32994142
0.12600001 773144.92888348 14728.41158928
0.12700001 764580.77673833 14679.95160519
0.12800001 756072.66786415 21945.01021901
0.12900001 747622.00321470 21867.94462471
0.13000001 739229.71997453 15978.45115039
0.13100001 730895.33009092 15918.90103976
0.13200001 722620.66400481 20182.79609708
0.13300001 714407.69020268 18667.47382504
0.13400001 706254.89386412 14301.66227501
0.13500001 698164.81628757 18515.33180091
0.13600001 690136.36555261 17018.76357697
0.13700001 682171.94364298 14120.95989926
0.13800001 674270.03690057 19681.94330524
0.13900001 666433.81695323 13995.11081600
0.14000001 658662.01216969 13930.70221437
0.14100001 650955.36219682 13865.34986872
0.14200001 643314.29936943 13799.09237231
0.14300001 635740.35601894 13731.99233771
0.14400001 628230.74910260 15030.42138126
0.14500001 620789.80708446 17673.88664141
0.14600001 613415.41713811 21641.29693755
0.14700001 606110.29729513 14801.21415822
0.14800001 598869.84800907 13384.74173448
0.14900001 591698.85136244 18638.51469730
0.15000001 584595.08089245 13241.07920697
0.15100001 577560.14190813 14485.20904254
0.15200001 570593.44323447 13095.12014015
0.15300001 563696.34577240 14323.52482199
0.15400001 556865.13720269 14241.82655604
0.15500001 550104.32560177 14159.68600923
0.15600001 543409.51983288 17916.21271444
0.15700001 536786.43890179 17810.57488336
0.15800001 530227.95747651 18968.90607403
0.15900001 523740.39675872 16340.70115016
0.16000001 517318.30628331 14991.88522374
0.16100001 510967.32687303 21108.06126952
0.16200001 504682.75079440 13573.44322336
0.16300001 498465.66253014 18393.38381567
0.16400001 492316.23213023 13403.31005251
0.16500001 486233.56567792 15739.38126407
0.16600001 480218.70881736 13232.42714621
0.16700001 474269.17806456 11951.58385152
0.16800001 468385.25750420 15435.63688987
0.16900001 462569.64567014 16513.73713017
0.17000001 456818.27194468 12889.12815154
0.17100001 451131.91542044 12803.12436421
0.17200001 445511.29311375 13873.22232270
0.17300001 439954.87709419 13779.38740131
0.17400001 434462.87209659 15966.51130358
0.17500001 429034.36198769 12459.15846054
0.17600001 423667.77077234 12373.21782978
0.17700001 418365.88644692 15638.51757400
0.17800001 413124.72699219 16638.59916549
0.17900001 407946.32488005 12116.00642122
0.18000001 402828.96191910 13124.16819924
0.18100001 397774.08616368 14117.00298479
0.18200001 392776.82784299 15094.41420703
0.18300001 387840.59302212 11774.84096039
0.18400001 382963.20157402 11689.95228029
0.18500001 378146.07982500 15825.41418830
0.18600001 373385.28442180 15710.18658425
0.18700001 368682.04269621 12476.20091428
0.18800001 364035.68265048 14448.57692704
0.18900001 359447.82904817 13317.54269545
0.19000001 354911.63825813 13218.68459149
0.19100001 350435.35141808 12111.04631726
0.19200001 346010.43562801 14023.80361865
0.19300001 341641.85368948 10935.95625335
0.19400001 337324.60514626 11840.09420012
0.19500001 333061.29436050 11750.40302031
0.19600001 328850.06714757 13604.52792080
0.19700001 324689.92605567 13500.60776340
0.19800001 320581.16761790 9569.34830563
0.19900001 316523.15919519 11394.83426955
0.20000001 312513.39288192 10364.50716477
0.20100001 308554.32940444 10284.11628510
0.20200001 304642.32056567 11131.63091959
0.20300001 300779.63561912 10124.24301346
0.20400001 296963.51474197 10044.79136092
0.20500001 293193.62432980 11777.58844602
0.20600001 289469.88567536 15279.66863761
0.20700001 285792.18746768 12483.40333867
0.20800001 282157.63890923 11499.33511732
0.20900001 278570.03763790 14039.93056064
0.21000001 275023.69648503 11315.85052680
0.21100001 271521.06373244 11224.68130533
0.21200001 268060.44113977 10277.43779916
0.21300001 264640.85399142 9344.46899620
0.21400001 261263.55074186 9268.32490074
0.21500001 257927.59752364 8356.85455486
0.21600001 254630.33705106 10774.68322173
0.21700001 251373.07821557 10685.87006017
0.21800001 248154.56643144 11412.62904978
0.21900001 244973.58206842 8892.54144954
0.22000001 241830.22806661 8818.33968340
0.22100001 238725.48646251 9539.47089010
0.22200001 235657.36184364 11824.10868960
0.22300001 232624.04303360 10942.63550173
0.22400001 229625.94538540 10849.82643251
0.22500001 226665.13396354 9220.73808566
0.22600001 223736.70427724 14474.64676770
0.22700001 220844.52321429 9063.45966132
0.22800001 217984.45969430 8236.54319906
0.22900001 215156.77478279 8165.19998915
0.23000001 212362.77026999 9565.88143920
0.23100001 209601.58468279 10941.20323788
0.23200001 206870.29761182 10122.16414086
0.23300001 204170.63469034 7883.02857822
0.23400001 201502.63426889 9233.85865209
0.23500001 198862.94565457 8447.69833095
0.23600001 196254.78493694 9069.91531484
0.23700001 193675.31751955 11062.73465996
0.23800001 191124.94024455 7537.01237503
0.23900001 188602.87919730 9505.58556115
0.24000001 186108.79104510 8746.18304886
0.24100001 183643.64523123 9999.39695582
0.24200001 181205.33738884 7265.42834627
0.24300001 178793.99955704 7852.63283200
0.24400001 176409.02172825 7779.63822622
0.24500001 174050.46613251 7064.70875451
0.24600001 171717.91557454 6998.36398030
0.24700001 169411.13679593 10083.35133910
0.24800001 167129.60221812 6242.29093815
0.24900001 164872.16921034 7419.24796545
0.25000001 162640.25928343 7348.08726205
0.25100001 160431.52985271 7883.60574993
0.25200001 158248.47309306 6606.08282180
0.25300001 156088.93361072 7136.38638231
0.25400001 153952.10138322 7655.26860346
0.25500001 151838.21676654 6413.64657966
0.25600001 149747.82169347 7504.61243923
0.25700001 147679.30403217 6286.70827009
0.25800001 145633.85525569 7921.02576213
0.25900001 143610.37478758 6720.96585806
0.26000001 141608.81867766 6652.78261626
0.26100001 139627.95697087 6036.11686546
0.26200001 137669.69092701 7060.39043327
0.26300001 135731.63549581 7524.96222795
0.26400001 133814.87133289 5319.14138717
0.26500001 131919.30315284 5789.93848935
0.26600001 130043.18800321 5208.22992598
0.26700001 128188.47083110 8245.08283402
0.26800001 126354.27534112 5608.23477640
0.26900001 124538.47360114 6556.95094538
0.27000001 122743.67223567 7983.24881999
0.27100001 120967.89306413 5922.58832469
0.27200001 119212.84682426 7322.64946271
0.27300001 117476.19684247 7242.40787808
0.27400001 115756.81769514 4774.96895590
0.27500001 114059.41683256 5666.47209641
0.27600001 112378.21575827 5136.24659431
0.27700001 110717.50368994 4616.92012237
0.27800001 109074.04013750 5477.69855495
0.27900001 107450.39028405 5866.79158717
0.28000001 105843.37256695 5799.68787430
0.28100001 104255.26633673 4850.99777224
0.28200001 102685.66268114 6538.50988069
0.28300001 101133.35719500 5600.76558654
0.28400001 99598.58031186  4683.62346085
0.28500001 98081.95696437  4207.71615293
0.28600001 96582.43872682  5821.02385759
0.28700001 95100.36098030  4519.16936769
0.28800001 93634.89868869  4870.88766034
0.28900001 92188.47842129  4812.23880137
0.29000001 90757.49963935  4753.87805613
0.29100001 89344.34279298  6652.58007926
0.29200001 87947.91346365  3865.31097969
0.29300001 86568.36861025  5726.49785464
0.29400001 85204.78705635  5278.43680800
0.29500001 83858.94550029  4095.67109211
0.29600001 82528.84621462  5147.32438207
0.29700001 81215.19893065  3993.35152046
0.29800001 79917.73101075  5376.46560826
0.29900001 78637.28428053  4954.14914420
0.30000001 77372.02374980  4890.68585275
0.30100001 76123.96992287  4482.94080098
0.30200001 74890.23942750  5446.01846899
0.30300001 73673.94757648  4031.43860224
0.30400001 72473.18583562  4641.90777253
0.30500001 71287.87797636  3599.32512943
0.30600001 70117.31583659  3228.90254714
0.30700001 68963.57142806  3823.34058098
0.30800001 67824.76182654  3458.04564544
0.30900001 66701.47439583  4032.10431812
0.31000001 65593.88730291  3671.94598506
0.31100001 64500.36205557  5433.51075681
0.31200001 63422.85623777  3275.47356548
0.31300001 62359.75650513  4112.00253864
0.31400001 61312.71566840  3766.13373825
0.31500001 60279.57005688  4571.60280957
0.31600002 59261.80415895  3663.26859753
0.31700002 58258.52722365  3890.50463220
0.31800002 57269.91408210  3562.47517416
0.31900002 56295.95373847  3242.64708887
0.32000002 55336.65097316  3197.35184462
0.32100002 54391.08238986  3152.50728459
0.32200002 53461.04135518  2849.20633394
0.32300002 52543.47221363  2553.61287050
0.32400002 51640.67222691  2769.23117929
0.32500002 50751.87880694  2729.94369029
0.32600002 49877.44640078  3180.43552035
0.32700002 49016.02284675  2411.58843826
0.32800002 48169.34331577  3803.45152832
0.32900002 47335.42979400  3748.96621721
0.33000002 46516.13415383  2771.43140412
0.33100002 45707.79599002  2503.87318290
0.33200002 44915.87736713  3365.32227110
0.33300002 44135.81214364  2653.44515173
0.33400002 43369.18254728  2615.16183144
0.33500002 42614.78698145  3221.67804836
0.33600002 41874.28680248  2328.41982792
0.33700002 41145.63495701  2711.90892844
0.33800002 40430.83059428  2261.49861639
0.33900002 39727.48582121  2228.71206012
0.34000002 39037.46190419  2795.47277935
0.34100002 38359.42589435  2558.19023405
0.34200002 37694.33033913  1939.37338780
0.34300002 37040.34927108  1911.28211290
0.34400002 36399.88357150  2072.06347044
0.34500002 35770.44256822  1856.48605721
0.34600002 35153.77284013  2927.60634078
0.34700002 34547.25615211  1983.70354220
0.34800002 33953.85875392  2843.97534392
0.34900002 33371.27220264  2452.78862306
0.35000002 32800.33147472  1899.63128733
0.35100002 32241.15994229  1872.56665814
0.35200002 31691.87690272  1845.89345763
0.35300002 31154.22543118  1985.14733850
0.35400002 30627.76116966  1957.11403144
0.35500002 30112.26106639  1768.79429882
0.35600002 29606.39849699  1743.96498607
0.35700002 29111.79068130  1563.30323363
0.35800002 28627.95902731  1541.61566664
0.35900002 28154.37563339  1672.36999184
0.36000002 27691.22073018  2249.21951035
0.36100002 27237.37922332  1626.88873807
0.36200002 26794.60392135  1896.65612841
0.36300002 26360.73980587  1871.08540005
0.36400002 25936.61133929  1562.03249190
0.36500002 25521.97909420  1821.50373423
0.36600002 25117.21954108  1520.97330136
0.36700002 24721.26001174  1773.99770247
0.36800002 24335.93190218  1481.69328405
0.36900002 23958.71640398  1329.70882341
0.37000002 23590.14543547  1444.07082124
0.37100002 23230.37493745  1814.75697608
0.37200002 22880.07850830  1408.15449850
0.37300002 22537.86291988  1643.68642061
0.37400002 22204.20011218  1373.88494702
0.37500002 21879.27436193  1480.78935896
0.37600002 21562.69781158  1341.30768091
0.37700002 21253.61300999  1566.60388918
0.37800002 20952.52356044  1548.49632709
0.37900002 20660.00551802  1295.38240735
0.38000002 20375.05365297  1397.32124572
0.38100002 20096.77600553  1381.85438360
0.38200002 19827.01849217  1594.68717287
0.38300002 19563.98513340  1239.57415678
0.38400002 19309.00296612  1338.11396894
0.38500002 19060.06519830  1213.93560999
0.38600002 18819.24698355  1420.19454089
0.38700002 18584.52209359  1297.94308451
0.38800002 18356.95787920  1178.24139730
0.38900002 18135.31647306  1591.37409590
0.39000002 17921.51824609  1156.20680442
0.39100002 17713.10255710  1353.98962361
0.39200002 17511.39737037  1135.52661628
0.39300002 17315.69463350  1637.37216212
0.39400002 17127.23514686  1217.74647664
0.39500002 16943.61115225  1409.03077018
0.39600002 16765.97964400  998.41413510
0.39700002 16593.93466039  1287.85533001
0.39800002 16427.96772293  1179.85669776
0.39900002 16267.15987898  1171.23556678
0.40000002 16111.61611433  1356.75925727
0.40100002 15961.79792624  1251.24539872
0.40200002 15817.24312779  1051.76763161
0.40300002 15677.17131195  1425.05493977
0.40400002 15542.59684875  1227.47664429
0.40500002 15413.06053518  1314.11760349
0.40600002 15288.07597884  933.33708273
0.40700002 15167.84321267  1021.09925346
0.40800002 15052.20472334  1015.79808388
0.40900002 14940.91460384  1010.75292084
0.41000002 14834.47092496  914.54517586
0.41100002 14731.90021993  1092.51777208
0.41200002 14633.35351604  1359.80443991
0.41300002 14539.63971969  1083.49400325
0.41400002 14449.26408298  1079.36007814
0.41500002 14363.09628135  985.88297547
0.41600002 14280.29361808  1071.87888976
0.41700002 14201.57865293  979.48292610
0.41800002 14127.43688133  887.90945006
0.41900002 14054.87475973  885.45715182
0.42000002 13987.01708227  883.28017060
0.42100002 13922.82824125  1233.84109720
0.42200002 13861.92270486  1143.40074849
0.42300002 13803.61610362  1053.49203095
0.42400002 13748.42697032  964.10848698
0.42500002 13696.74212180  1225.31060828
0.42600002 13647.09273595  1048.91559739
0.42700002 13601.72431334  1047.87689076
0.42800002 13558.15148049  1134.20721585
0.42900002 13518.52162420  1133.52809190
0.43000002 13480.93946646  1045.85133337
0.43100002 13445.06106264  1132.61199759
0.43200002 13412.80631125  1393.85889792
0.43300002 13382.78978389  1219.70751870
0.43400002 13355.09429944  958.56193877
0.43500002 13329.65335006  1133.28718153
0.43600002 13306.77810216  1221.16308430
0.43700002 13285.53217043  960.14545546
0.43800002 13266.31964209  1135.66334678
0.43900002 13249.95094221  961.94648399
0.44000002 13234.99672480  1225.69310477
0.44100002 13222.35472805  1051.97059202
0.44200002 13211.37648852  1229.05441297
0.44300002 13202.34835773  1318.91466344
0.44400002 13195.36773169  880.79083783
0.44500002 13188.80391878  882.33102398
0.44600002 13184.49523010  1060.82453649
0.44700002 13182.63595200  1063.04781355
0.44800002 13180.89633694  1242.82677451
0.44900002 13182.23031142  978.78064701
0.45000002 13184.23719533  1427.06190165
0.45100002 13187.41586475  894.10683800
0.45200002 13192.10513391  1254.96502086
0.45300002 13197.78030170  1438.03020983
0.45400002 13205.12958411  991.37515051
0.45500002 13213.56803009  1084.56971531
0.45600002 13223.05487905  997.08450041
0.45700002 13233.59177736  909.14779819
0.45800002 13244.89642391  1003.10227821
0.45900002 13257.23056676  914.74895246
0.46000002 13271.31243841  1651.88033750
0.46100002 13285.22509175  1380.99921374
0.46200002 13300.81202360  1385.61215823
0.46300002 13317.20198625  1483.00368348
0.46400002 13333.68149331  1023.02676106
0.46500002 13351.48115999  1306.57600824
0.46600002 13369.69802134  1030.20212986
0.46700002 13388.39795987  1127.83869759
0.46800002 13408.68759018  1131.96146001
0.46900002 13428.48336476  1041.37893430
0.47000002 13449.22750854  1330.26315592
0.47100002 13470.58005849  1716.69080402
0.47200002 13492.63201353  1244.49297275
0.47300002 13515.19864155  1153.11680275
0.47400002 13537.48284171  1350.36397746
0.47500002 13560.63561716  1161.87531475
0.47600002 13584.52254981  1263.56442486
0.47700002 13608.05359807  1365.97648492
