# SAXS profile: number of points = 501, q_min = 0, q_max = 0.5, delta_q = 0.001
#    q    intensity    error
0.00000000 1646666.22097350 296.39991978
0.00100000 1646580.03262859 543.37142367
0.00200000 1646321.43905624 1037.18253945
0.00300000 1645890.66350786 1086.28787661
0.00400000 1645287.55468144 1357.36228419
0.00500000 1644512.79345149 1776.07388723
0.00600000 1643566.20956400 2070.89350836
0.00700000 1642448.56271628 2365.12602861
0.00800000 1641159.63950133 2437.12216755
0.00900000 1639700.82418010 2705.50647555
0.01000000 1638071.51455760 3783.94536202
0.01100000 1636273.37181776 3828.87985676
0.01200000 1634306.14086168 4142.96624873
0.01300000 1632171.25494348 4113.07174386
0.01400000 1629868.91596994 3667.20522350
0.01500000 1627400.63045705 6249.21869923
0.01600000 1624766.10012193 5386.09986268
0.01700000 1621967.46898833 5693.10607153
0.01800000 1619005.34719231 5075.58199184
0.01900000 1615880.50289034 5332.40590015
0.02000000 1612593.97883418 6603.57264204
0.02100000 1609148.29364850 5841.20857078
0.02200000 1605542.17716630 7754.76906803
0.02300000 1601778.75149324 6343.04414464
0.02400000 1597858.64504442 7190.36423056
0.02500000 1593784.20271454 6837.33454191
0.02600000 1589555.79750104 7725.24152919
0.02700000 1585175.31907801 7323.51030957
0.02800000 1580643.36845644 7563.37886492
0.02900000 1575963.21986618 7801.01829652
0.03000000 1571135.55873038 9497.51488908
0.03100000 1566162.01205612 10524.60920529
0.03200000 1561043.74602248 10045.31696832
0.03300000 1555784.92299948 11901.75520962
0.03400000 1550383.97613330 9767.41950031
0.03500000 1544845.26134695 12513.24719475
0.03600000 1539169.05053496 10250.86635029
0.03700000 1533358.73628138 8740.14520101
0.03800000 1527415.50041363 10722.45730913
0.03900000 1521342.01797855 12779.27354283
0.04000000 1515138.43880632 13977.15274568
0.04100000 1508808.91767344 9505.49662208
0.04200000 1502354.76956329 14535.28306986
0.04300000 1495778.10321289 12833.77672128
0.04400000 1489081.28815481 16082.07865895
0.04500000 1482267.17521219 13295.93717945
0.04600000 1475336.08885635 13521.45588294
0.04700000 1468292.18549219 11628.87464993
0.04800000 1461137.07527761 11813.29380327
0.04900000 1453873.33788485 13084.86065003
0.05000000 1446502.69045719 15492.04453620
0.05100000 1439029.24464032 11224.42863107
0.05200000 1431452.16291438 15932.06331569
0.05300000 1423776.72298198 11532.59199378
0.05400000 1416004.04326555 14018.44068206
0.05500000 1408137.89774436 13011.19478212
0.05600000 1400178.64620866 15562.98637884
0.05700000 1392131.69532187 15745.01020904
0.05800000 1383996.19734520 14698.04030209
0.05900000 1375776.27270973 18572.98054905
0.06000000 1367475.61020515 15014.88290153
0.06100000 1359095.29281568 20223.33890216
0.06200000 1350638.31743758 20421.65231424
0.06300000 1342108.25994556 19326.35984683
0.06400000 1333504.06879415 13001.66527879
0.06500000 1324832.34961524 14427.42496219
0.06600000 1316094.47119660 15872.10006526
0.06700000 1307291.37570794 13334.37265626
0.06800000 1298427.54786984 14782.59832446
0.06900000 1289506.42749154 13539.81812258
0.07000000 1280527.66926052 20456.43047438
0.07100000 1271495.51492634 19225.01308614
0.07200000 1262411.81938174 22117.45611170
0.07300000 1253280.54859791 13911.41474126
0.07400000 1244104.00826007 15395.78782373
0.07500000 1234883.13893814 25339.80319875
0.07600000 1225621.11431203 15571.51698734
0.07700000 1216321.86513836 17077.15978727
0.07800000 1206986.38260169 17163.34716549
0.07900000 1197616.57983567 18682.81952173
0.08000000 1188218.02946602 15880.53470879
0.08100000 1178791.09049505 20298.78353071
0.08200000 1169337.34647089 14558.25064671
0.08300000 1159859.98665929 14614.23651778
0.08400000 1150362.58390949 16133.83599663
0.08500000 1140846.49429664 14716.92046731
0.08600000 1131314.40937767 17716.38448267
0.08700000 1121768.70603157 14807.34761494
0.08800000 1112210.83786891 14848.01538287
0.08900000 1102644.49900209 20839.98200999
0.09000000 1093071.48881835 19396.55448024
0.09100000 1083493.77065775 17942.65768506
0.09200000 1073913.38070543 16479.20160123
0.09300000 1064334.32367483 18008.53760284
0.09400000 1054755.60409341 19539.34848413
0.09500000 1045181.48266989 16555.67546365
0.09600000 1035613.22135745 15068.17307907
0.09700000 1026056.14562179 18099.63125968
0.09800000 1016508.43295032 18114.18112686
0.09900000 1006974.60286587 21146.46765454
0.10000000 997453.58652163 15111.42254645
0.10100000 987949.56122135 19650.31769688
0.10200000 978464.49844836 19652.46037571
0.10300000 968999.73751360 16628.03627793
0.10400000 959557.98032028 15113.03890104
0.10500000 950142.21220906 19639.44045038
0.10600001 940749.01966787 15099.02247613
0.10700001 931386.18073153 18106.14820545
0.10800001 922051.29059027 18090.64717276
0.10900001 912748.83585645 19578.46345059
0.11000001 903479.49252457 18051.52111032
0.11100001 894243.99103427 18027.95970789
0.11200001 885045.44813602 18001.82526256
0.11300001 875883.82548583 19470.89835726
0.11400001 866761.92864918 19437.13716514
0.11500001 857680.97015900 17908.37950019
0.11600001 848642.43959331 16383.04306785
0.11700001 839647.45114745 14861.76058522
0.11800001 830696.75514697 19276.31911107
0.11900001 821791.83046793 16271.47900968
0.12000001 812934.05485524 14754.75379064
0.12100001 804126.53872083 16187.06798699
0.12200001 795368.43567979 20544.36766148
0.12300001 786661.67857057 16095.09870186
0.12400001 778006.86120216 24798.96986928
0.12500001 769404.48761055 26175.14190190
0.12600001 760858.20561926 17393.21940008
0.12700001 752366.22629456 14445.43222562
0.12800001 743930.61138624 20153.08121225
0.12900001 735552.39178796 15777.59954748
0.13000001 727232.56649299 17148.14472618
0.13100001 718970.71062950 18506.30696395
0.13200001 710768.69403319 15597.81972584
0.13300001 702628.27018810 15535.11178623
0.13400001 694548.14594013 22503.36098939
0.13500001 686530.59371223 16806.26972646
0.13600001 678574.87680436 16733.65725100
0.13700001 670683.10514381 16659.76911733
0.13800001 662853.88580711 13820.50417079
0.13900001 655090.16189793 15132.58345347
0.14000001 647390.88594807 17800.01324860
0.14100001 639756.81307709 16352.18491347
0.14200001 632188.20081157 18984.61256579
0.14300001 624686.75121560 18890.52824778
0.14400001 617249.39392498 14767.69244625
0.14500001 609880.83929269 16027.66921267
0.14600001 602578.71580722 14615.54744138
0.14700001 595345.83823512 15860.01387880
0.14800001 588177.29566496 14460.33949614
0.14900001 581078.33425043 13074.26313749
0.15000001 574046.55440389 14302.37057780
0.15100001 567083.29422196 14222.44969017
0.15200001 560188.39389717 17998.85394523
0.15300001 553362.70227732 15339.21483097
0.15400001 546603.04232253 16521.07773384
0.15500001 539913.40780126 15160.76920654
0.15600001 533289.68484118 18838.45900609
0.15700001 526737.71399670 12483.68441091
0.15800001 520250.11883635 13648.76251188
0.15900001 513833.10761070 18497.99274710
0.16000001 507481.60231624 15932.38565677
0.16100001 501201.08078322 17050.86157312
0.16200001 494986.61269513 13312.66557687
0.16300001 488839.63006414 12025.45546727
0.16400001 482759.92908506 14337.97057072
0.16500001 476746.90353948 13058.09830444
0.16600001 470801.49159366 15331.65129760
0.16700001 464921.09316523 14059.21452112
0.16800001 459106.05610059 13966.00688600
0.16900001 453359.37140277 13872.79741997
0.17000001 447676.44417876 17224.35200311
0.17100001 442058.48245636 11405.10938594
0.17200001 436506.07257592 15858.26636556
0.17300001 431017.50490541 12374.51315021
0.17400001 425593.00936843 16757.72553528
0.17500001 420232.02071504 13312.95104499
0.17600001 414932.65724042 12118.10882703
0.17700001 409697.65538560 10938.92791545
0.17800001 404522.98710241 13033.73126005
0.17900001 399410.93402365 14019.32444641
0.18000001 394359.88311579 12848.24559880
0.18100001 389370.85503925 12755.78981362
0.18200001 384439.20211317 14773.99923510
0.18300001 379568.21869619 12571.29999708
0.18400001 374755.91399207 12479.37252547
0.18500001 370003.42294956 13420.02478437
0.18600001 365307.13960807 15370.29862516
0.18700001 360668.12705517 11187.92582982
0.18800001 356085.73141676 11104.53405888
0.18900001 351561.23710228 10019.49573081
0.19000001 347088.42644427 13921.71744246
0.19100001 342675.15664106 14803.56746636
0.19200001 338312.94077696 13711.82413759
0.19300001 334006.78365729 12635.47722281
0.19400001 329751.57794226 9645.23411059
0.19500001 325550.07476547 14356.75897559
0.19600001 321400.19319022 9497.37615758
0.19700001 317301.18467920 11308.61475638
0.19800001 313253.24167012 10285.67067633
0.19900001 309255.77372531 11133.20838027
0.20000001 305306.13747130 13807.47071970
0.20100001 301406.96462774 10959.15775182
0.20200001 297554.37022773 14496.84960267
0.20300001 293750.90186130 13483.16703271
0.20400001 289993.61957203 8917.30422332
0.20500001 286282.26211500 11499.95901273
0.20600001 282616.80728102 11407.82796512
0.20700001 278996.77794507 9575.16987168
0.20800001 275419.94658678 9497.85730701
0.20900001 271889.28513937 9420.96417542
0.21000001 268399.92836962 9344.34394792
0.21100001 264953.79932905 11795.74370375
0.21200001 261549.35370537 11699.10314431
0.21300001 258185.56411191 9116.53269978
0.21400001 254863.82577375 10685.16640072
0.21500001 251582.88842353 13042.05755247
0.21600001 248340.53940055 8083.48493966
0.21700001 245137.81719185 9619.20840140
0.21800001 241973.41926274 9538.59263833
0.21900001 238846.05030529 9458.30403929
0.22000001 235756.24775755 9378.38397923
0.22100001 232704.55011238 10848.68663920
0.22200001 229689.20081345 7683.10413050
0.22300001 226708.22029274 10664.35518684
0.22400001 223762.31027815 10572.76966059
0.22500001 220853.10402461 8984.30469656
0.22600001 217976.07458192 8906.50282859
0.22700001 215134.82115488 9564.89460086
0.22800001 212325.59890096 10940.07700073
0.22900001 209548.23703485 7229.41451959
0.23000001 206804.15392713 7882.34069970
0.23100001 204092.58713325 8522.90684176
0.23200001 201410.63094860 7743.23207302
0.23300001 198759.94519634 10464.71160951
0.23400001 196140.61656809 10370.93559153
0.23500001 193549.29653516 8221.97450568
0.23600001 190989.04897085 8147.59321445
0.23700001 188457.25953546 7400.71693200
0.23800001 185954.20939439 7999.75046652
0.23900001 183479.07602788 7926.29645931
0.24000001 181031.69546966 9162.01454109
0.24100001 178612.82333161 7132.01037298
0.24200001 176220.46180367 8350.20697755
0.24300001 173854.93109868 6363.09077920
0.24400001 171515.21115626 6933.50273897
0.24500001 169201.65026252 6867.89530904
0.24600001 166913.86815206 8657.82275061
0.24700001 164651.52554931 6737.54074420
0.24800001 162413.96306560 6672.77798822
0.24900001 160200.18680891 6007.50728953
0.25000001 158011.70533927 8328.79738245
0.25100001 155846.07414375 6480.08006946
0.25200001 153705.82767476 7583.07736709
0.25300001 151588.72240183 6353.08365643
0.25400001 149494.07412690 6289.96346648
0.25500001 147422.16132910 6227.11238916
0.25600001 145373.30492332 6164.55528693
0.25700001 143345.82685540 8875.97401884
0.25800001 141341.46488312 9334.89748988
0.25900001 139358.69281051 7608.98498747
0.26000001 137397.42175444 5917.02024782
0.26100001 135456.64192876 6388.13553562
0.26200001 133538.14323475 6321.69599986
0.26300001 131639.63986180 6255.51598223
0.26400001 129762.02607360 5673.84485854
0.26500001 127905.31728360 8165.47584177
0.26600001 126067.81439855 5553.91782614
0.26700001 124251.51324297 6493.38438935
0.26800001 122455.32724050 5435.17995677
0.26900001 120677.40007611 7819.89589498
0.27000001 118920.11531502 6767.74408284
0.27100001 117181.51768433 5737.20737733
0.27200001 115463.48202108 5673.87577502
0.27300001 113763.41412606 6078.37950441
0.27400001 112080.51098121 5085.65342645
0.27500001 110419.23285480 5028.49210218
0.27600001 108774.02224919 6779.34125752
0.27700001 107148.83793110 5361.72810382
0.27800001 105540.86239640 5300.26236039
0.27900001 103952.42505256 6549.00308826
0.28000001 102380.22969467 6041.45764022
0.28100001 100826.76236473 6397.45837483
0.28200001 99291.59867087  6743.88570091
0.28300001 97773.40945470  4998.17692789
0.28400001 96272.54201059  4527.21650232
0.28500001 94789.56152513  6099.70857285
0.28600001 93323.47684654  4821.09104208
0.28700001 91874.67777240  5159.68214792
0.28800001 90442.27575445  5488.94197535
0.28900001 89028.41001225  3872.73601884
0.29000001 87630.01421379  7267.59557283
0.29100001 86249.14072177  4533.25505092
0.29200001 84884.77765283  4849.89200077
0.29300001 83537.08143368  5525.97819842
0.29400001 82205.08447818  5092.60522449
0.29500001 80890.61817103  5746.46978689
0.29600001 79591.76541294  3900.39464870
0.29700001 78309.10705757  5250.62587676
0.29800001 77042.47566945  3800.89071708
0.29900001 75792.51012912  4774.92836418
0.30000001 74557.71838845  4376.16548798
0.30100001 73339.78267814  3654.52154386
0.30200001 72135.94950251  4590.01068414
0.30300001 70949.40291226  3235.29292596
0.30400001 69778.26434365  3511.59131934
0.30500001 68622.38753885  3464.74451087
0.30600001 67480.97175141  3107.49889627
0.30700001 66356.20694327  4598.48535888
0.30800001 65246.16701299  3931.40797950
0.30900001 64151.55361987  4176.26633838
0.31000001 63072.36379815  3530.79109258
0.31100001 62007.05744288  3482.31651086
0.31200001 60957.66301708  3720.55113840
0.31300001 59922.39540126  2822.34495703
0.31400001 58903.07783498  3896.43878327
0.31500001 57897.58053858  3018.77999221
0.31600002 56907.09780874  4058.89894339
0.31700002 55931.02135316  2934.70082935
0.31800002 54969.43385526  3156.34504142
0.31900002 54022.29946945  3630.29869624
0.32000002 53089.69021008  3323.14931605
0.32100002 52170.72176503  3275.79977474
0.32200002 51266.94281493  2483.88349700
0.32300002 50375.66494349  2693.08317540
0.32400002 49498.89868519  3136.99285271
0.32500002 48635.91510039  2853.95563323
0.32600002 47787.23180630  3281.54936353
0.32700002 46951.44773418  2541.01247170
0.32800002 46130.12398790  2731.82607192
0.32900002 45321.50984524  2243.41484357
0.33000002 44527.33501472  3537.25166107
0.33100002 43743.87778453  3049.82330356
0.33200002 42976.85811260  2361.36358082
0.33300002 42221.42357596  2538.35210559
0.33400002 41479.33282275  3543.37217418
0.33500002 40749.27714865  2875.26913177
0.33600002 40033.02784614  2226.03661880
0.33700002 39328.50105829  1993.95509808
0.33800002 38637.49530172  2750.60342079
0.33900002 37958.05503340  2323.03307806
0.34000002 37291.59616500  2098.21175759
0.34100002 36637.11325181  2443.32919848
0.34200002 35995.37880301  2407.55102526
0.34300002 35364.68083285  2554.74466436
0.34400002 34747.17846656  2337.61654205
0.34500002 34140.72876113  2480.66546927
0.34600002 33547.01052922  2095.34637689
0.34700002 32963.10154333  1720.67398205
0.34800002 32392.31482132  1695.73776121
0.34900002 31832.17184001  1838.30801083
0.35000002 31283.41767208  2141.19362398
0.35100002 30746.53002137  1623.41686202
0.35200002 30219.11633337  2560.16365702
0.35300002 29703.38464034  3312.22457812
0.35400002 29198.78277099  1554.83525620
0.35500002 28704.80755114  1992.68783458
0.35600002 28220.45896098  1662.32621383
0.35700002 27747.23998608  1937.03491518
0.35800002 27284.74495799  1763.14030270
0.35900002 26832.20530746  1883.62090180
0.36000002 26389.97278858  2000.62393186
0.36100002 25956.99585803  1973.25091859
0.36200002 25534.94349409  1807.49106084
0.36300002 25121.62646058  1371.64086972
0.36400002 24717.95529552  1623.96973984
0.36500002 24323.71750092  1335.37215405
0.36600002 23939.16222168  1976.77641409
0.36700002 23563.26625197  1430.76159459
0.36800002 23197.88688146  1540.80371965
0.36900002 22840.43824356  1901.46657385
0.37000002 22491.56465597  1752.31788535
0.37100002 22151.37789628  1483.25633420
0.37200002 21820.51908504  1587.11553083
0.37300002 21497.63689512  1929.62797911
0.37400002 21183.08070540  1549.01284996
0.37500002 20877.24569976  1177.47671324
0.37600002 20579.60313407  1745.66491854
0.37700002 20289.30878320  1380.48463501
0.37800002 20006.80989401  1478.60335526
0.37900002 19732.80181341  1799.63161064
0.38000002 19466.20609531  1223.74310415
0.38100002 19206.22276715  1540.72326337
0.38200002 18954.63173567  1197.83800928
0.38300002 18709.58866606  1185.43959404
0.38400002 18472.47973539  1066.78575526
0.38500002 18241.25940602  1373.01966054
0.38600002 18017.93227053  1359.72332321
0.38700002 17800.84693363  1139.61027468
0.38800002 17590.54995601  1334.33123013
0.38900002 17386.14922868  1118.79875587
0.39000002 17189.40458306  1108.97448921
0.39100002 16997.87564017  1199.37016199
0.39200002 16813.00643958  1090.23945423
0.39300002 16634.02697935  1474.60656158
0.39400002 16462.10161828  1560.60730735
0.39500002 16294.81992113  1161.49481901
0.39600002 16133.42599566  1441.11834534
0.39700002 15977.56554986  1526.17713363
0.39800002 15827.49620227  1326.18596962
0.39900002 15682.60729055  940.95648201
0.40000002 15542.74830880  1121.87562608
0.40100002 15408.49946093  1207.87232997
0.40200002 15279.36164168  923.63745500
0.40300002 15154.56657870  1102.04013382
0.40400002 15035.14146011  1004.72337568
0.40500002 14920.60683269  908.66499916
0.40600002 14810.57984911  994.60453689
0.40700002 14704.92922936  989.93588262
0.40800002 14603.94236790  1254.33266941
0.40900002 14507.03175411  1249.05549321
0.41000002 14414.82583591  888.67405489
0.41100002 14326.47991059  973.91415047
0.41200002 14241.88084774  1146.96992842
0.41300002 14162.01859129  967.40753581
0.41400002 14085.34436715  1139.85654692
0.41500002 14012.76739229  961.83639938
0.41600002 13943.39884890  1221.02349505
0.41700002 13877.95179354  1131.19190429
0.41800002 13816.96810195  1042.07578363
0.41900002 13757.35385916  1040.05600104
0.42000002 13702.23970159  1124.88542160
0.42100002 13650.76655720  1123.32163322
0.42200002 13602.40159341  1726.14484400
0.42300002 13556.47915468  862.19211509
0.42400002 13513.49401386  947.63381263
0.42500002 13473.92353770  1119.27888132
0.42600002 13436.18760233  1032.70542805
0.42700002 13402.62664188  946.49353830
0.42800002 13370.52899756  946.43293994
0.42900002 13342.45007350  860.58807052
0.43000002 13316.13281096  1033.06563243
0.43100002 13291.40133432  1033.53941673
0.43200002 13270.14495695  1120.46474254
0.43300002 13251.03174621  1035.17064907
0.43400002 13234.01576478  1208.92739740
0.43500002 13219.12879805  1037.43727723
0.43600002 13206.57380318  1038.82914459
0.43700002 13195.52491222  1040.33523338
0.43800002 13186.48878654  955.16336052
0.43900002 13180.01028835  956.86879228
0.44000002 13174.81748338  958.66563961
0.44100002 13171.80235429  1222.60675246
0.44200002 13170.22834763  1137.71022973
0.44300002 13170.51634647  1052.58771629
0.44400002 13172.72235134  1143.06303621
0.44500002 13175.15035302  1145.84288050
0.44600002 13179.67709110  1060.43686901
0.44700002 13186.50408266  1063.35973962
0.44800002 13193.22201284  888.56354468
0.44900002 13202.89696000  1069.43470444
0.45000002 13213.10910402  1340.80030987
0.45100002 13224.33671209  896.61007157
0.45200002 13236.90116291  1169.28171964
0.45300002 13250.37199051  1082.82045038
0.45400002 13265.26835260  995.89006877
0.45500002 13281.12348382  1271.80044509
0.45600002 13297.80552395  1002.72107306
0.45700002 13315.49391835  1189.20681821
0.45800002 13333.68225036  1193.43128638
0.45900002 13352.92373805  1197.75731607
0.46000002 13373.62531667  1202.22210482
0.46100002 13394.02421645  1299.48829107
0.46200002 13415.91869870  931.73559778
0.46300002 13438.49083238  1215.91470814
0.46400002 13460.98815606  1126.68476206
0.46500002 13484.68633372  1319.61146716
0.46600002 13508.61468364  1419.41775516
0.46700002 13532.95769553  1520.02188040
0.46800002 13558.61540249  1049.23350265
0.46900002 13583.66529962  1053.41329391
0.47000002 13609.49587530  1153.81311499
0.47100002 13635.90873427  1351.59133780
0.47200002 13662.68740207  1260.17803226
0.47300002 13689.88642427  1168.02116508
0.47400002 13716.67437073  1661.43226190
0.47500002 13744.20543803  1472.00447218
0.47600002 13772.33848526  985.41086533
0.47700002 13799.89962598  1088.39813509
