# SAXS profile: number of points = 501, q_min = 0, q_max = 0.5, delta_q = 0.001
#    q    intensity    error
0.00000000 1664650.74656090 324.60689558
0.00100000 1664564.18941808 499.36926868
0.00200000 1664304.48352841 898.72444956
0.00300000 1663871.85826111 998.32315052
0.00400000 1663266.16548777 1247.44967152
0.00500000 1662488.07362645 1645.86325804
0.00600000 1661537.42361408 1919.07580240
0.00700000 1660414.98039656 2191.74786521
0.00800000 1659120.49806980 2463.79404365
0.00900000 1657655.41462813 3232.42819670
0.01000000 1656019.08087194 3005.67476157
0.01100000 1654213.21367863 3573.10069712
0.01200000 1652237.47720482 4510.60851053
0.01300000 1650093.37515769 4158.23548880
0.01400000 1647781.06031624 4078.25830508
0.01500000 1645302.13259735 4343.59782347
0.01600000 1642656.17170843 4188.77342511
0.01700000 1639845.40561437 5313.09935253
0.01800000 1636870.39744681 6997.62126396
0.01900000 1633731.98240070 4901.19616836
0.02000000 1630431.12697331 8217.37325166
0.02100000 1626970.42686432 6979.70344770
0.02200000 1623348.56159647 7840.77390874
0.02300000 1619568.67884737 6413.49226017
0.02400000 1615631.35289838 6664.47963459
0.02500000 1611539.01993214 6913.50271125
0.02600000 1607292.00940179 9113.34611014
0.02700000 1602892.18409951 7405.36222971
0.02800000 1598340.23639276 7648.05838188
0.02900000 1593639.36314239 10039.92844877
0.03000000 1588790.23316464 10343.02489332
0.03100000 1583794.52763031 9882.87830716
0.03200000 1578653.43364357 15628.66971290
0.03300000 1573371.14335052 8826.61252111
0.03400000 1567946.04674145 9054.88883773
0.03500000 1562382.35868269 9280.55163913
0.03600000 1556680.59084282 12095.40874982
0.03700000 1550843.92394648 12375.73508544
0.03800000 1544873.81385679 12652.51712104
0.03900000 1538772.72898095 14772.21888232
0.04000000 1532540.86140622 10367.63940784
0.04100000 1526182.34149189 11537.93903665
0.04200000 1519698.61364473 10782.26216403
0.04300000 1513091.63721530 11983.68632300
0.04400000 1506363.83802779 11184.75201680
0.04500000 1499518.15813581 10346.67577189
0.04600000 1492554.88555263 16836.01989169
0.04700000 1485478.06737078 11764.98684074
0.04800000 1478289.39263637 10865.42754143
0.04900000 1470991.45145691 12135.68003941
0.05000000 1463586.05396501 12316.07721763
0.05100000 1456077.19962228 17036.10402919
0.05200000 1448463.98016677 16121.40485053
0.05300000 1440751.91667621 11670.09106911
0.05400000 1432941.93397827 13003.94865728
0.05500000 1425037.88793215 14364.38258044
0.05600000 1417040.16307845 13327.26335566
0.05700000 1408954.09645997 17161.06169594
0.05800000 1400778.88255499 13636.58305840
0.05900000 1392518.66356403 17545.73598039
0.06000000 1384177.02777124 20264.35263330
0.06100000 1375755.23646668 15353.42915645
0.06200000 1367256.27348250 16796.74410487
0.06300000 1358683.58128087 16956.37188719
0.06400000 1350036.16276541 15795.42384306
0.06500000 1341320.67992077 22574.42809905
0.06600000 1332538.46936645 22766.42081433
0.06700000 1323690.49394674 14851.80803713
0.06800000 1314781.24442213 13607.98651675
0.06900000 1305814.25733064 20566.57551586
0.07000000 1296788.84725749 15191.88205703
0.07100000 1287709.62396039 18079.44396720
0.07200000 1278578.44005440 18200.56494681
0.07300000 1269399.10619930 22544.52918244
0.07400000 1260174.05741293 24100.82997749
0.07500000 1250904.02512192 18538.39852125
0.07600000 1241592.28071414 15774.43066599
0.07700000 1232242.94359797 17300.69173932
0.07800000 1222856.84487384 27532.62315351
0.07900000 1213436.02126801 14561.23293819
0.08000000 1203985.83051239 19016.95708505
0.08100000 1194506.77218265 22038.65098078
0.08200000 1185000.62448293 20654.56185396
0.08300000 1175470.25801370 14810.92594608
0.08400000 1165919.38354491 17838.56740556
0.08500000 1156349.39473954 20883.67104938
0.08600000 1146763.06068622 19454.83623798
0.08700000 1137162.46602576 15010.54525640
0.08800000 1127549.40383081 22579.17787212
0.08900000 1117927.37478964 21128.82837594
0.09000000 1108298.37261615 18153.92819624
0.09100000 1098664.21922914 24258.50710027
0.09200000 1089026.91130569 16711.11873919
0.09300000 1079390.55215830 21307.17050087
0.09400000 1069754.01120481 18292.79445132
0.09500000 1060121.93138517 18318.90783537
0.09600000 1050495.33577047 16813.17863936
0.09700000 1040879.20435737 22951.38753509
0.09800000 1031272.36718230 21440.15352179
0.09900000 1021678.91087252 24520.29501395
0.10000000 1012097.88505443 26066.58225541
0.10100000 1002533.62934662 21474.27135058
0.10200000 992988.07388728 19944.16640213
0.10300000 983462.17064138 26081.41799230
0.10400000 973959.24776981 16873.84476144
0.10500000 964481.66025669 18402.31094351
0.10600001 955026.56132943 16860.99473364
0.10700001 945601.53288021 16850.62010888
0.10800001 936204.14312950 18368.32615265
0.10900001 926838.71880887 16822.12353813
0.11000001 917506.18212457 18331.77438172
0.11100001 908207.16241900 25938.39777969
0.11200001 898944.90770891 18284.54028358
0.11300001 889719.28062321 15214.20041495
0.11400001 880533.07127174 16708.11581407
0.11500001 871387.74391092 24259.43593281
0.11600001 862284.29069860 16646.39901584
0.11700001 853224.26479252 16612.27721786
0.11800001 844208.22129824 22603.67618986
0.11900001 835237.80562702 18041.13745131
0.12000001 826314.29831923 16497.36574305
0.12100001 817440.87571429 19446.91934935
0.12200001 808616.50781043 16410.87279915
0.12300001 799843.39232531 16364.79657799
0.12400001 791121.85583726 19283.59614463
0.12500001 782452.71821063 14788.35707102
0.12600001 773839.32797686 14741.63989264
0.12700001 765280.33639095 16162.72146627
0.12800001 756777.39180539 19036.73618805
0.12900001 748331.59768670 17510.96021120
0.13000001 739944.00764946 18901.87056634
0.13100001 731614.27104475 18831.75222438
0.13200001 723344.27388510 18759.93462756
0.13300001 715135.74012145 17249.07486490
0.13400001 706987.25225837 14316.49253319
0.13500001 698901.34485679 17109.10572876
0.13600001 690876.97418879 15617.27473790
0.13700001 682916.59394937 16963.64899359
0.13800001 675018.55937799 15481.55138938
0.13900001 667185.88770196 15411.99473272
0.14000001 659417.72619329 20920.02835008
0.14100001 651714.55594517 15269.67276596
0.14200001 644076.66496094 17960.07864953
0.14300001 636506.06192736 19247.94422056
0.14400001 628999.38548296 17784.95846345
0.14500001 621561.36470657 16334.63343503
0.14600001 614189.77733772 17605.75079793
0.14700001 606887.23704903 17514.76648752
0.14800001 599649.23599017 17422.80937368
0.14900001 592480.47311438 14663.89240144
0.15000001 585379.10651875 14584.72112706
0.15100001 578346.07912411 15823.54947147
0.15200001 571381.48500769 18358.48797958
0.15300001 564486.12170265 18255.48203732
0.15400001 557656.59316139 19448.27460429
0.15500001 550897.07288647 12890.99211391
0.15600001 544203.59566230 12815.99528270
0.15700001 537581.82755680 15288.82789730
0.15800001 531024.42537907 12664.93314306
0.15900001 524537.48202334 20142.24026042
0.16000001 518116.25092503 13763.75885551
0.16100001 511766.01273267 16166.68910536
0.16200001 505481.82120019 19774.44977883
0.16300001 499265.07330310 12281.92138306
0.16400001 493115.73092771 18306.92237495
0.16500001 487033.04628718 15765.26045261
0.16600001 481018.05545786 13254.45314392
0.16700001 475068.06028824 11971.71568450
0.16800001 469183.73096729 15461.95058408
0.16900001 463367.59058370 22450.16082383
0.17000001 457615.28446666 15259.18238107
0.17100001 451928.04659212 17489.61622900
0.17200001 446306.32725058 15056.14466079
0.17300001 440748.83896896 13804.25428841
0.17400001 435255.41131507 17138.18262990
0.17500001 429825.36370737 12482.12915156
0.17600001 424457.14738658 16904.00669303
0.17700001 419153.50233399 21263.65817770
0.17800001 413910.11965737 15558.88213280
0.17900001 408729.63608071 12139.27076498
0.18000001 403610.05015054 15341.21873087
0.18100001 398552.80471664 15232.68891581
0.18200001 393552.98242066 12963.63585331
0.18300001 388614.11624316 12870.90013799
0.18400001 383733.86927750 15972.92306325
0.18500001 378913.69086220 12686.03096938
0.18600001 374149.80032905 11544.39263455
0.18700001 369443.34462156 12501.96337265
0.18800001 364793.66606064 16547.04147429
0.18900001 360202.09573516 17451.79236292
0.19000001 355662.19418506 13246.63904831
0.19100001 351182.17632717 13148.26130295
0.19200001 346753.22784268 13050.05834649
0.19300001 342380.64638082 15941.24364876
0.19400001 338059.11073578 17798.81302130
0.19500001 333791.50324319 13738.85892272
0.19600001 329575.62543102 10712.85621089
0.19700001 325410.97094560 16430.00069949
0.19800001 321297.47678079 9590.73013515
0.19900001 317234.62788600 13323.85500090
0.20000001 313219.82029248 10387.93583095
0.20100001 309255.67618433 10307.49217438
0.20200001 305338.33789346 11157.06339395
0.20300001 301470.23149237 13837.48427952
0.20400001 297648.59946273 12813.77281252
0.20500001 293873.21717134 12712.95597573
0.20600001 290143.89218128 10810.76193368
0.20700001 286460.10872951 9831.31139631
0.20800001 282819.83349629 12412.96307892
0.20900001 279226.05266166 10554.74528955
0.21000001 275673.63189225 11342.59212040
0.21100001 272164.74766684 9520.32332344
0.21200001 268697.76095908 10301.87264219
0.21300001 265271.68154563 12772.83207026
0.21400001 261887.80060296 8445.88196874
0.21500001 258545.11318738 10889.92068230
0.21600001 255241.27292973 9969.72459199
0.21700001 251977.26114117 11535.51956044
0.21800001 248751.83026407 9805.79761263
0.21900001 245563.71130567 8913.96314186
0.22000001 242413.30223103 8036.00134892
0.22100001 239301.31499692 15140.59491576
0.22200001 236226.01659839 8691.93669173
0.22300001 233185.24451231 9402.02950332
0.22400001 230179.79602512 10099.13902815
0.22500001 227211.46866103 10013.20989739
0.22600001 224275.52788616 8400.24029421
0.22700001 221375.73334476 7571.05043842
0.22800001 218507.97975964 8256.32440566
0.22900001 215672.56939698 8184.77439568
0.23000001 212870.73441137 9588.76268503
0.23100001 210101.56701971 9504.99534149
0.23200001 207362.30356957 7972.04413776
0.23300001 204654.77757799 8620.05963927
0.23400001 201978.80946220 8543.70404433
0.23500001 199330.95940524 7761.94792635
0.23600001 196714.75557986 8391.85186995
0.23700001 194127.13255789 9702.47454415
0.23800001 191568.45686500 7554.50245379
0.23900001 189038.14853535 7485.91103608
0.24000001 186535.84571307 9440.57959808
0.24100001 184062.37834357 9354.05050988
0.24200001 181615.66284939 7281.88034639
0.24300001 179196.12307554 6558.57841480
0.24400001 176802.75559265 7797.00189046
0.24500001 174435.70777114 8367.68129761
0.24600001 172094.89811963 7651.33953235
0.24700001 169779.72453576 6947.38665666
0.24800001 167489.74073173 6881.31632350
0.24900001 165223.75286198 6195.89102544
0.25000001 162983.37763664 6749.95690415
0.25100001 160766.13564602 8507.74430088
0.25200001 158574.77140207 6619.70414536
0.25300001 156406.64143039 6555.00265247
0.25400001 154261.43362120 7080.60013820
0.25500001 152139.18165221 7010.57382222
0.25600001 150040.29931831 6940.86457486
0.25700001 147963.21182902 5726.17656871
0.25800001 145909.46808179 6802.29972382
0.25900001 143877.59458652 7855.71703612
0.26000001 141867.59801908 6664.94007029
0.26100001 139878.50992520 7696.11598024
0.26200001 137911.88517735 7616.87377875
0.26300001 135965.48310785 7537.92674018
0.26400001 134040.54979196 6926.54573825
0.26500001 132136.74459213 7381.15890218
0.26600001 130252.37295425 5738.26856203
0.26700001 128389.58133947 6193.51369689
0.26800001 126547.15070390 6127.41332704
0.26900001 124723.42599307 6566.68868928
0.27000001 122920.57392922 4996.72156668
0.27100001 121136.79363968 5930.85769726
0.27200001 119373.94800570 5866.03608260
0.27300001 117629.28332350 4834.56377339
0.27400001 115902.13349969 5259.05955643
0.27500001 114196.86155527 7091.62543820
0.27600001 112507.96609122 6077.11807602
0.27700001 110839.62372457 6008.61628648
0.27800001 109188.75194779 7311.27917645
0.27900001 107557.50409062 6776.12307841
0.28000001 105943.02653956 5358.59853598
0.28100001 104347.56698207 6179.46320915
0.28200001 102770.65102908 6107.66007973
0.28300001 101211.09065089 6467.38899869
0.28400001 99669.24709187  5113.03261782
0.28500001 98145.45362845  4631.48417594
0.28600001 96639.02839882  4576.34140643
0.28700001 95150.09791718  4521.53286704
0.28800001 93677.91355399  5279.21906822
0.28900001 92224.64063135  4011.77205736
0.29000001 90787.00042289  4359.13803164
0.29100001 89367.42109347  5480.01052085
0.29200001 87964.41328612  4639.24337631
0.29300001 86578.57656869  4199.92694815
0.29400001 85208.73785468  3770.48682855
0.29500001 83856.70516749  5212.53303996
0.29600001 82520.52080502  5146.80512625
0.29700001 81200.99418183  4718.58999528
0.29800001 79897.67059533  4300.09283500
0.29900001 78611.46983556  4952.52283409
0.30000001 77340.64120621  4190.31613892
0.30100001 76086.94541269  4136.08654844
0.30200001 74847.81017065  4082.19975996
0.30300001 73626.14431709  5036.02850970
0.30400001 72420.11976542  5632.47508141
0.30500001 71229.78881491  3596.39220753
0.30600001 70054.23370806  3548.59737648
0.30700001 68895.58108452  3501.27359648
0.30800001 67752.06756588  3768.37017642
0.30900001 66624.10207728  4027.42716125
0.31000001 65511.95445757  3361.74610215
0.31100001 64413.97366998  3918.94634362
0.31200001 63332.14767880  4460.16671145
0.31300001 62264.93396529  2932.67852862
0.31400001 61213.91223195  2892.35748990
0.31500001 60176.82579270  3708.09618091
0.31600002 59155.14264262  3656.67531559
0.31700002 58148.15271118  3051.03371722
0.31800002 57156.02335508  2734.91584703
0.31900002 56178.60245564  2696.57304555
0.32000002 55216.00807955  2924.51600641
0.32100002 54267.21450291  3145.32790152
0.32200002 53334.08243403  3359.24734117
0.32300002 52413.45220868  3056.75267755
0.32400002 51507.94316908  2511.01234839
0.32500002 50616.45642941  2475.14483660
0.32600002 49739.45165229  3903.55235051
0.32700002 48875.63996794  2885.61792035
0.32800002 48026.53658555  2370.10969273
0.32900002 47190.41781046  3270.29610912
0.33000002 46369.07728149  5295.11703090
0.33100002 45558.82178913  3176.36120555
0.33200002 44765.02080023  3354.01934229
0.33300002 43983.19172454  2864.62541267
0.33400002 43215.06708253  2388.71294611
0.33500002 42459.13035745  2995.91637990
0.33600002 41717.36670679  2952.33818165
0.33700002 40987.50589447  3117.09997089
0.33800002 40271.59367905  2252.59169911
0.33900002 39567.28148618  2219.72459650
0.34000002 38876.36594876  1988.52621245
0.34100002 38197.62163060  2155.49189070
0.34200002 37531.96066351  2317.22336111
0.34300002 36877.47650487  2283.45345332
0.34400002 36236.64185927  2625.34482704
0.34500002 35606.86439804  2217.59561974
0.34600002 34990.13424800  2549.73120341
0.34700002 34383.54851320  2153.78558087
0.34800002 33790.34245681  2299.60186481
0.34900002 33207.96129397  1917.75985555
0.35000002 32637.30025878  1718.35394001
0.35100002 32078.58614009  1863.12437126
0.35200002 31529.82181386  2504.25621617
0.35300002 30992.83768883  1810.29173515
0.35400002 30467.21380663  1622.37921204
0.35500002 29952.58822839  2079.30877330
0.35600002 29447.76844996  1892.31369022
0.35700002 28954.16488432  2176.77421911
0.35800002 28471.60983191  2146.47476690
0.35900002 27999.28975975  1663.15789051
0.36000002 27537.53383473  1789.38903334
0.36100002 27085.14006564  1617.79549275
0.36200002 26644.06999499  1450.76967995
0.36300002 26211.83916523  2289.86637794
0.36400002 25789.51576523  1694.37126603
0.36500002 25376.73529041  1532.50111678
0.36600002 24973.99360743  1924.74577850
0.36700002 24580.12998451  1356.82323942
0.36800002 24196.95039469  1741.09164812
0.36900002 23821.94119753  1322.11779909
0.37000002 23455.72533704  1696.90452989
0.37100002 23098.42959415  1417.78167565
0.37200002 22750.67301666  1527.48025870
0.37300002 22411.03177955  1634.43662511
0.37400002 22079.97827584  1366.19872054
0.37500002 21757.84464996  1472.57099567
0.37600002 21444.03750344  1576.45849174
0.37700002 21137.84563120  1318.36749447
0.37800002 20839.77150288  1777.11159909
0.37900002 20550.29031921  1874.18656590
0.38000002 20268.37721995  1274.17159429
0.38100002 19993.29750187  1374.73920135
0.38200002 19726.77660714  1473.29438070
0.38300002 19467.01298658  1345.56000138
0.38400002 19215.45261908  1553.56941785
0.38500002 18969.82945359  1427.85913062
0.38600002 18732.53721294  1522.39337142
0.38700002 18501.38203788  1184.45853418
0.38800002 18277.35670197  1279.78057690
0.38900002 18059.40901321  1162.12302506
0.39000002 17849.26243686  1151.54522067
0.39100002 17644.47526981  1037.49519502
0.39200002 17446.58962188  1337.01945902
0.39300002 17254.66851189  1223.70114884
0.39400002 17070.11552708  1112.54483219
0.39500002 16890.32482712  1003.28534226
0.39600002 16716.59785846  1393.66282949
0.39700002 16548.59661580  987.95126477
0.39800002 16386.44205021  1569.16576507
0.39900002 16229.70646186  1168.53892062
0.40000002 16078.25794656  1257.23943970
0.40100002 15932.47435063  1248.94672352
0.40200002 15792.03506252  1145.55427771
0.40300002 15656.06690717  1233.38500938
0.40400002 15525.61902308  1697.72652061
0.40500002 15400.16176584  1031.65688557
0.40600002 15279.42779000  1026.09002185
0.40700002 15163.25586371  1113.58956339
0.40800002 15051.88784151  1015.77669911
0.40900002 14944.70128541  1194.82892438
0.41000002 14842.41936972  1098.04223700
0.41100002 14744.07645342  1275.65755519
0.41200002 14649.66910132  998.30174821
0.41300002 14560.13825148  994.60309109
0.41400002 14474.01347160  1081.20885756
0.41500002 14392.06166043  987.87115918
0.41600002 14313.41271858  1074.36480956
0.41700002 14238.91037563  1071.33566743
0.41800002 14168.86590983  890.51326463
0.41900002 14100.46591318  977.16233409
0.42000002 14036.77190910  1063.70662567
0.42100002 13976.62712209  1238.60875425
0.42200002 13919.84487714  1059.85703917
0.42300002 13865.61564366  970.03851640
0.42400002 13814.47330799  968.73998663
0.42500002 13766.80974141  1143.60893941
0.42600002 13721.21814195  1142.49728273
0.42700002 13679.77337729  1141.71394017
0.42800002 13640.09655869  1404.38440823
0.42900002 13604.38816722  1228.47630971
0.43000002 13570.64522997  1228.27915797
0.43100002 13538.61402813  965.03245366
0.43200002 13510.18913478  1316.23023883
0.43300002 13483.93166440  877.80399295
0.43400002 13460.02009738  1493.05280005
0.43500002 13438.20375273  1054.63028049
0.43600002 13418.96039474  1055.53547467
0.43700002 13401.24081255  968.50771942
0.43800002 13385.65136335  1057.73422086
0.43900002 13372.75277483  1323.90258745
0.44000002 13361.23900803  972.23060249
0.44100002 13352.01079828  1150.80986524
0.44200002 13344.35066581  975.40535814
0.44300002 13338.55602493  1243.68702270
0.44400002 13334.88369340  979.11388159
0.44500002 13331.52105078  1159.44244073
0.44600002 13330.23141334  983.17126448
0.44700002 13331.47333791  1522.98758630
0.44800002 13332.66490806  987.75052652
0.44900002 13336.83226342  1530.40157476
0.45000002 13341.77075730  1083.08500141
0.45100002 13347.74645420  995.47497773
0.45200002 13355.17384851  1179.72933782
0.45300002 13363.51384312  1274.07747019
0.45400002 13373.38816905  1186.55392153
0.45500002 13384.35439382  1464.78381428
0.45600002 13396.22535750  1010.14242096
0.45700002 13409.20809776  1013.33390397
0.45800002 13422.72176491  1386.23165597
0.45900002 13437.35586317  1205.33087805
0.46000002 13453.57315688  1023.34609068
0.46100002 13469.48142771  1306.80915005
0.46200002 13487.12783204  936.68107233
0.46300002 13505.38586447  1033.97239079
0.46400002 13523.72046211  1226.26341102
0.46500002 13543.28126071  1420.01310749
0.46600002 13563.18540051  950.10118234
0.46700002 13583.49005264  1525.69767502
0.46800002 13605.27315370  957.13101173
0.46900002 13626.49129005  1056.73444963
0.47000002 13648.57821935  1253.55372597
0.47100002 13671.20105964  1064.71318899
0.47200002 13694.41657949  971.61890237
0.47300002 13718.04729648  1170.42385081
0.47400002 13741.33336813  1566.51207822
0.47500002 13765.38263608  1081.13320348
0.47600002 13790.23607820  1085.36058198
0.47700002 13814.43748357  1287.64377888
