# SAXS profile: number of points = 501, q_min = 0, q_max = 0.5, delta_q = 0.001
#    q    intensity    error
0.00000000 1664650.74656090 299.63713438
0.00100000 1664564.81849314 699.11724037
0.00200000 1664307.00313944 1198.30108020
0.00300000 1663877.51323458 1297.82450656
0.00400000 1663276.21910103 1247.45721173
0.00500000 1662503.79987031 1945.12952284
0.00600000 1661560.04763932 1744.63812105
0.00700000 1660445.73241713 3387.30943491
0.00800000 1659160.65188341 3359.80046191
0.00900000 1657706.16515554 2486.55935403
0.01000000 1656081.68946100 3279.04188672
0.01100000 1654288.78361321 3573.26392818
0.01200000 1652327.34832438 4188.65001165
0.01300000 1650198.72244946 4158.50096398
0.01400000 1647903.09130455 4078.56033179
0.01500000 1645441.83232060 4343.96663076
0.01600000 1642814.86149085 5445.93150929
0.01700000 1640024.18068838 5313.67858380
0.01800000 1637070.35714853 6531.91101894
0.01900000 1633954.37813221 5392.04969114
0.02000000 1630676.84584394 5136.63229677
0.02100000 1627240.65906525 6443.87330205
0.02200000 1623644.35645010 10082.83191164
0.02300000 1619891.09521106 5831.60820821
0.02400000 1615981.40184509 6059.93053324
0.02500000 1611917.59711939 7543.77469905
0.02600000 1607700.17983054 7813.42323135
0.02700000 1603331.01420250 8080.78868169
0.02800000 1598810.52402967 7650.30870832
0.02900000 1594142.12967880 10043.09587810
0.03000000 1589326.33456704 12563.62525224
0.03100000 1584364.79242778 10646.93189501
0.03200000 1579258.68927640 9380.79704636
0.03300000 1574012.11558355 8830.20837550
0.03400000 1568623.69333330 8235.27476998
0.03500000 1563097.29703345 9284.79837313
0.03600000 1557433.69078214 11236.88459829
0.03700000 1551635.85010176 8844.32475461
0.03800000 1545705.15014430 9946.61310150
0.03900000 1539644.22239645 12933.01206706
0.04000000 1533453.10697051 9430.73704488
0.04100000 1527135.87538227 10583.05210710
0.04200000 1520694.14717384 9808.47770431
0.04300000 1514129.49155452 11991.90612975
0.04400000 1507444.76293853 10175.25262239
0.04500000 1500642.40840055 11389.87640899
0.04600000 1493722.93448147 10530.74717764
0.04700000 1486690.45278209 13915.42328522
0.04800000 1479546.29170115 11962.13232498
0.04900000 1472293.30680410 13250.64037802
0.05000000 1464933.09415140 13448.08643054
0.05100000 1457469.75600604 12505.09108907
0.05200000 1449902.37818570 13832.06933248
0.05300000 1442236.35823686 14018.53805558
0.05400000 1434472.37980180 15384.71699082
0.05500000 1426614.64081827 14380.27625028
0.05600000 1418663.20893547 20620.27070410
0.05700000 1410623.72200580 18408.64043146
0.05800000 1402495.08933703 12412.08212018
0.05900000 1394281.31118696 13803.38562545
0.06000000 1385986.13572108 13949.95110776
0.06100000 1377610.93317650 14092.96050498
0.06200000 1369158.31636488 14232.40136389
0.06300000 1360631.65040584 20899.30312739
0.06400000 1352030.27822285 17136.98457792
0.06500000 1343360.87945091 14629.20066154
0.06600000 1334624.29256095 14754.27224459
0.06700000 1325821.77933620 14875.72106032
0.06800000 1316957.60713845 19082.71662068
0.06900000 1308035.29202937 26095.30529774
0.07000000 1299054.46558169 17985.40991821
0.07100000 1290019.27848140 18111.87151820
0.07200000 1280931.94480142 16831.44654319
0.07300000 1271795.53326211 19763.70351293
0.07400000 1262613.36339441 15624.84110425
0.07500000 1253385.39819479 21432.89131374
0.07600000 1244115.63645227 21554.30441201
0.07700000 1234807.29803695 15891.97067089
0.07800000 1225461.87929147 14521.72395062
0.07900000 1216081.11027844 17511.56880937
0.08000000 1206670.20941216 24923.77434461
0.08100000 1197229.92762073 19143.70744084
0.08200000 1187761.45428561 26617.73543958
0.08300000 1178268.64875984 16330.80423825
0.08400000 1168754.21975128 16391.77870142
0.08500000 1159219.88200424 16449.33089786
0.08600000 1149668.42088144 24005.07775508
0.08700000 1140102.15555950 21069.08882410
0.08800000 1130522.24075799 18110.96714750
0.08900000 1120932.54528627 15132.59007214
0.09000000 1111335.15519519 27305.50604584
0.09100000 1101731.61882769 18244.67646494
0.09200000 1092123.91478516 16758.64225981
0.09300000 1082516.53765558 22895.22584731
0.09400000 1072907.97626785 19875.62119447
0.09500000 1063302.40445127 16842.71087816
0.09600000 1053701.50635242 15331.35763812
0.09700000 1044110.32576822 16883.26476140
0.09800000 1034527.03384046 18435.27260982
0.09900000 1024956.16956936 24598.94922637
0.10000000 1015397.13690298 24613.22775602
0.10100000 1005853.42141979 20006.42549298
0.10200000 996327.42498269 16932.58538403
0.10300000 986820.10978319 18473.27332414
0.10400000 977333.84881682 20010.91149594
0.10500000 967872.61990188 18467.01045659
0.10600001 958432.57760562 21535.98103214
0.10700001 949021.40088179 23061.22112663
0.10800001 939636.63466763 19971.97760978
0.10900001 930282.94100317 16884.63617389
0.11000001 920960.87101898 16867.39914665
0.11100001 911671.06470841 22974.11191212
0.11200001 902416.94674909 18355.16156098
0.11300001 893198.13979128 19855.79558239
0.11400001 884017.67379214 19824.09726820
0.11500001 874876.69853494 19789.71185272
0.11600001 865776.78626193 16713.82164587
0.11700001 856719.09561795 16680.32157724
0.11800001 847703.96218913 21184.12301284
0.11900001 838733.30797655 15097.20025468
0.12000001 829808.53907064 16567.12826294
0.12100001 820932.44015379 21032.29010753
0.12200001 812104.22526553 19478.32076064
0.12300001 803326.35667258 22412.80640713
0.12400001 794598.78071415 23837.96454461
0.12500001 785922.41083103 19310.11454402
0.12600001 777300.76224579 17769.09626228
0.12700001 768732.21178479 17711.59099420
0.12800001 760218.54028895 17652.27533745
0.12900001 751761.21557566 20523.08215251
0.13000001 743360.60433370 14607.03656366
0.13100001 735016.93913480 14553.33608088
0.13200001 726731.75788097 17397.95910382
0.13300001 718506.94019591 15886.18919665
0.13400001 710340.97187958 20138.16750221
0.13500001 702236.82875596 15758.19518025
0.13600001 694193.12347879 17118.80323215
0.13700001 686212.39103714 14204.59716426
0.13800001 678292.73015507 15556.64449969
0.13900001 670437.83132664 19710.87317053
0.14000001 662646.04032766 16817.95729666
0.14100001 654918.41027016 19529.66791533
0.14200001 647255.20025372 15271.98717029
0.14300001 639658.44669820 17961.61003049
0.14400001 632124.15458424 15123.57111180
0.14500001 624658.10165495 15048.01437871
0.14600001 617257.35083199 16332.63027350
0.14700001 609924.93716508 23018.56821455
0.14800001 602656.09383155 16163.23719912
0.14900001 595455.74014303 20096.63217800
0.15000001 588321.92630337 18655.68916331
0.15100001 581255.64595740 17228.41815910
0.15200001 574257.19655063 15815.04393927
0.15300001 567327.11827697 15726.30846075
0.15400001 560462.14951634 15636.89470943
0.15500001 553666.59740876 15546.95878895
0.15600001 546936.02297541 18032.48152854
0.15700001 540276.84104807 19206.84260576
0.15800001 533681.36194703 19092.45162479
0.15900001 527155.76402354 16447.26061385
0.16000001 520695.12955629 12574.78797234
0.16100001 514304.74649575 17496.64830170
0.16200001 507980.28061918 14904.14213693
0.16300001 501722.44461363 13576.60999217
0.16400001 495531.77063113 15943.73547275
0.16500001 489407.13658359 13404.86210389
0.16600001 483349.89168483 12107.91535836
0.16700001 477356.99435229 15638.21587333
0.16800001 471429.45693880 15535.95848697
0.16900001 465569.66956504 15433.63527483
0.17000001 459773.52976287 12972.51075482
0.17100001 454042.16239430 16400.00368011
0.17200001 448375.96583649 13962.42823549
0.17300001 442773.63200203 18490.22774560
0.17400001 437235.14092106 12625.16529033
0.17500001 431759.81010568 17097.68928767
0.17600001 426346.14895987 20375.08342109
0.17700001 420996.88413829 11240.61733739
0.17800001 415707.98614965 11161.75995531
0.17900001 410481.32216536 16624.49433293
0.18000001 405315.93010967 13205.19362672
0.18100001 400212.42745773 15296.11969997
0.18200001 395166.55346027 15186.25136684
0.18300001 390181.38903434 10769.00684607
0.18400001 385254.87143361 13898.07014352
0.18500001 380388.40460234 10612.83698978
0.18600001 375578.59173675 14748.97199429
0.18700001 370825.87457427 12548.74818846
0.18800001 366130.26603992 14531.71094569
0.18900001 361492.70176678 11332.79673583
0.19000001 356907.30160864 13293.01307649
0.19100001 352381.44487621 15222.87913793
0.19200001 347907.00987332 13093.48093527
0.19300001 343489.13694016 14993.30153591
0.19400001 339122.53167973 10911.26797240
0.19500001 334810.12183799 14765.12707078
0.19600001 330549.62221998 9767.74179819
0.19700001 326340.59340112 10661.54769025
0.19800001 322183.12135614 11540.59995237
0.19900001 318076.41536735 12404.98078559
0.20000001 314018.12604555 15148.23511636
0.20100001 310010.96725382 12211.33257726
0.20200001 306050.79145129 11183.09644818
0.20300001 302140.43549457 12019.14709205
0.20400001 298276.68886396 11006.41033931
0.20500001 294459.64426452 11828.44446920
0.20600001 290689.11171766 12636.25628366
0.20700001 286964.74430235 8953.30044545
0.20800001 283284.10735522 13321.43577809
0.20900001 279650.27503898 10570.78089617
0.21000001 276058.58744871 11358.43111752
0.21100001 272510.91953075 9532.43241582
0.21200001 269005.47033263 10313.67022013
0.21300001 265541.68725688 11933.44398948
0.21400001 262120.48675961 9298.72470741
0.21500001 258740.92144128 9221.52687614
0.21600001 255400.78080600 12469.94371241
0.21700001 252100.78429182 9068.06563971
0.21800001 248840.48039250 11444.17423434
0.21900001 245617.79701242 8915.92645311
0.22000001 242433.13512980 9643.99057146
0.22100001 239287.90599307 9561.94517561
0.22200001 236179.68973651 8690.23209477
0.22300001 233106.79773374 11748.58316132
0.22400001 230069.47983879 9317.81437408
0.22500001 227070.45393673 7697.68875246
0.22600001 224104.10158707 10683.04302784
0.22700001 221174.54136940 10589.83754155
0.22800001 218277.61942139 8997.40389804
0.22900001 215413.62698700 9661.30162726
0.23000001 212583.92562208 8102.63670827
0.23100001 209787.58953604 13141.09523002
0.23200001 207021.75513051 7958.95175240
0.23300001 204288.36600016 10038.73078002
0.23400001 201586.97163987 9237.72341230
0.23500001 198914.59794055 9858.20794019
0.23600001 196274.20731316 6977.54840000
0.23700001 193663.19258122 7605.15393237
0.23800001 191082.07815258 6850.29282578
0.23900001 188529.58349397 8823.18492485
0.24000001 186005.85073179 8068.93418641
0.24100001 183511.67732265 7993.76904229
0.24200001 181044.70963282 7258.98797609
0.24300001 178605.69669085 9805.45321215
0.24400001 176193.57141893 7122.62546154
0.24500001 173808.22021175 10261.63780672
0.24600001 171449.78781342 6987.43643288
0.24700001 169117.62098468 6920.29337806
0.24800001 166811.18740884 6853.43795891
0.24900001 164529.48847869 6786.84172081
0.25000001 162274.16746962 8553.47177197
0.25100001 160042.35019273 8469.44157288
0.25200001 157836.90773678 7786.88421159
0.25300001 155655.43298679 8895.70841605
0.25400001 153497.53140559 7632.66511025
0.25500001 151363.01045968 6974.80785197
0.25600001 149252.67709669 8055.16736402
0.25700001 147164.52471982 8542.90106418
0.25800001 145100.27805205 8455.71910356
0.25900001 143058.58774288 6695.14222315
0.26000001 141039.08518593 5521.68044629
0.26100001 139041.27403533 6557.18679377
0.26200001 137066.23385891 5407.26318159
0.26300001 135112.19371745 6420.53174926
0.26400001 133179.74589679 7940.84272484
0.26500001 131269.23666133 5761.40706969
0.26600001 129378.57466537 5699.77337659
0.26700001 127509.92451267 6663.66897036
0.26800001 125662.27393498 7098.66219050
0.26900001 123833.71731574 7021.37210406
0.27000001 122026.35718360 6944.52031595
0.27100001 120238.53712479 5886.87905621
0.27200001 118472.11190415 6306.86317568
0.27300001 116724.37225292 4797.37192663
0.27400001 114994.45014925 6166.57768109
0.27500001 113286.92310674 5159.08672244
0.27600001 111596.23450888 6027.87089227
0.27700001 109926.13987716 5500.70429978
0.27800001 108273.99793969 5437.52043387
0.27900001 106642.02247765 5374.75818725
0.28000001 105027.06053223 4426.89081095
0.28100001 103431.53099543 4375.15396818
0.28200001 101854.82399747 4323.73748333
0.28300001 100295.89623184 4699.86591987
0.28400001 98754.78156045  4643.94382268
0.28500001 97232.23475244  5005.51568197
0.28600001 95727.10506052  4533.15727470
0.28700001 94239.93466570  4478.28190728
0.28800001 92769.61910079  5228.03213188
0.28900001 91318.63821848  5164.06923569
0.29000001 89883.39614293  5492.77459829
0.29100001 88466.43824249  5037.27923197
0.29200001 87066.49453792  4209.22987768
0.29300001 85683.57228882  3778.64571680
0.29400001 84317.02002299  4477.23397516
0.29500001 82968.56723737  5894.08729555
0.29600001 81636.15658852  4364.26913782
0.29700001 80320.31601066  4667.41378433
0.29800001 79021.09712036  4607.32528571
0.29900001 77738.95694769  3848.07855108
0.30000001 76472.45934405  6560.19023539
0.30100001 75223.38212058  4089.14324566
0.30200001 73988.75455935  3699.06795931
0.30300001 72771.76390160  3318.39259101
0.30400001 71570.62821240  4256.66331445
0.30500001 70385.05967417  4199.87670959
0.30600001 69214.57460873  3824.79757395
0.30700001 68061.00175459  4402.18580190
0.30800001 66922.48635812  4652.78608433
0.30900001 65799.81540655  3671.62987352
0.31000001 64692.91426714  3319.71705279
0.31100001 63600.31123896  3274.14417760
0.31200001 62523.84726559  4403.24215215
0.31300001 61461.89111224  4052.79729183
0.31400001 60416.24390006  3425.60119132
0.31500001 59384.67663846  4222.25070891
0.31600002 58368.50153996  2775.42237963
0.31700002 57366.97766468  3283.68595700
0.31800002 56380.23186195  3507.13248903
0.31900002 55408.19439543  2659.59345691
0.32000002 54451.12050047  2884.00373386
0.32100002 53507.71376729  3618.19177627
0.32200002 52579.91093669  5094.99361101
0.32300002 51664.88729715  3264.18773400
0.32400002 50764.41426538  3712.14796893
0.32500002 49878.15263777  3170.75431332
0.32600002 49006.41192461  2884.51754247
0.32700002 48147.74958501  2842.64327011
0.32800002 47303.87220192  3034.78006482
0.32900002 46472.88191404  2530.44854005
0.33000002 45656.53583585  3626.95537855
0.33100002 44851.13558169  2456.94532351
0.33200002 44062.32539403  3741.55253801
0.33300002 43285.28487933  2385.45216266
0.33400002 42521.89990697  2350.39812866
0.33500002 41770.65739454  2947.33772533
0.33600002 41033.49169573  2903.94034483
0.33700002 40308.05584515  2247.98038094
0.33800002 39596.52258407  2617.52824938
0.33900002 38896.62699107  2777.21929869
0.34000002 38209.87190796  2149.87854472
0.34100002 37535.30345266  2310.67338998
0.34200002 36873.62246922  1897.14796589
0.34300002 36223.09098479  2803.66737500
0.34400002 35585.99908516  2394.04820184
0.34500002 34960.11452456  2358.75903868
0.34600002 34347.03227303  1966.53942593
0.34700002 33743.99325414  2289.86749068
0.34800002 33154.14811572  1735.61973606
0.34900002 32575.22530999  1881.21935075
0.35000002 32007.74187509  1853.72845849
0.35100002 31452.26404426  1992.81554423
0.35200002 30906.50479291  2618.39921007
0.35300002 30372.42201323  1774.05325382
0.35400002 29849.69869023  2384.24479581
0.35500002 29337.77142087  1723.30077488
0.35600002 28835.49659411  2161.79728205
0.35700002 28344.42949310  1674.30552946
0.35800002 27864.44888092  2100.70090063
0.35900002 27394.43562633  1627.22955328
0.36000002 26934.86346889  2041.93209629
0.36100002 26484.69871010  2013.36689131
0.36200002 26045.63863567  1701.82210906
0.36300002 25615.34791501  1818.17748113
0.36400002 25194.91607843  1931.19040889
0.36500002 24783.95869167  1360.63939662
0.36600002 24382.86653010  2013.41529909
0.36700002 23990.45351674  1324.27309685
0.36800002 23608.91513603  1568.10421761
0.36900002 23235.32614600  1676.42886084
0.37000002 22870.44919005  1527.28866926
0.37100002 22514.23828386  1256.29455575
0.37200002 22167.80363002  1612.37527341
0.37300002 21829.26686875  1469.54631522
0.37400002 21499.24868091  1209.33279559
0.37500002 21177.98652016  1433.32619558
0.37600002 20865.21047760  1179.92770840
0.37700002 20559.86958885  1632.04252528
0.37800002 20262.41311801  1727.87736049
0.37900002 19973.55691469  1707.73919711
0.38000002 19692.39165475  1463.04630730
0.38100002 19417.91366470  1446.44045741
0.38200002 19151.94684458  1320.33527801
0.38300002 18892.54782724  1414.67404832
0.38400002 18641.37810521  1291.84756389
0.38500002 18396.08302492  1278.15990912
0.38600002 18159.08228393  1264.96173183
0.38700002 17928.22843243  1147.76523862
0.38800002 17704.36457128  1446.26961035
0.38900002 17486.63826725  1227.56206452
0.39000002 17276.69460793  1418.58946146
0.39100002 17071.94478383  1304.97952110
0.39200002 16874.17179024  1094.20572158
0.39300002 16682.34966818  1774.66844178
0.39400002 16497.72418974  977.49020455
0.39500002 16317.93807737  1163.14268126
0.39600002 16144.11838014  961.38229509
0.39700002 15976.02331310  1430.65295547
0.39800002 15813.92311481  1041.10967759
0.39900002 15657.02838930  1221.24827223
0.40000002 15505.40440767  1212.44515510
0.40100002 15359.48286888  1296.64760522
0.40200002 15218.98318010  1471.98012292
0.40300002 15082.82211206  1005.42096963
0.40400002 14952.19359935  1180.84954546
0.40500002 14826.59856257  1444.70383239
0.40600002 14705.62240141  1256.88960620
0.40700002 14589.28749613  982.15088077
0.40800002 14477.78995566  888.21245586
0.40900002 14370.47229046  883.78408774
0.41000002 14268.01743848  967.58564844
0.41100002 14169.49954749  1138.37764758
0.41200002 14075.00564484  959.14130511
0.41300002 13985.23997162  955.33178773
0.41400002 13898.96755695  951.73184856
0.41500002 13816.98701503  1034.61603671
0.41600002 13738.14986221  1203.04984044
0.41700002 13663.48584588  856.70060313
0.41800002 13593.41528838  1366.95390617
0.41900002 13524.89708833  1192.89597972
0.42000002 13461.10352938  935.07560098
0.42100002 13401.05458300  1187.60151342
0.42200002 13344.21964495  1185.36708723
0.42300002 13289.98900832  1436.91367967
0.42400002 13238.93253884  843.98198934
0.42500002 13191.27566377  927.21481034
0.42600002 13145.73391537  926.18272690
0.42700002 13104.41095016  925.43354515
0.42800002 13064.83275695  1092.93863607
0.42900002 13029.25982171  840.38729832
0.43000002 12995.64224756  1176.23563556
0.43100002 12963.77823948  924.05815670
0.43200002 12935.54575250  924.18011008
0.43300002 12909.54769924  1092.53507356
0.43400002 12885.88518842  840.80404839
0.43500002 12864.37953992  925.46350796
0.43600002 12845.41501031  1010.42039259
0.43700002 12828.16047886  1095.65323842
0.43800002 12812.85979231  1181.21760023
0.43900002 12800.38589278  929.30805986
0.44000002 12789.32434973  1184.41938416
0.44100002 12780.50583927  1016.81709276
0.44200002 12773.36296994  933.66901053
0.44300002 12768.15137303  1190.50249044
0.44400002 12764.90484294  1022.46892637
0.44500002 12762.13581116  1109.92300410
0.44600002 12761.43941807  941.22000889
0.44700002 12763.32893029  1115.00446819
0.44800002 12765.06612633  1031.67269322
0.44900002 12770.02559967  948.17444571
0.45000002 12775.63207851  950.69870618
0.45100002 12782.23993923  953.29949985
0.45200002 12790.42996141  1216.75365989
0.45300002 12799.50495675  1133.14022752
0.45400002 12810.30001675  1049.16362109
0.45500002 12822.04512029  964.73072057
0.45600002 12834.74752662  967.80418311
0.45700002 12848.51117978  1324.03913983
0.45800002 12862.99433258  1062.74064212
0.45900002 12878.52781090  1155.20399939
0.46000002 12895.71910382  1070.08682195
0.46100002 12912.61094548  894.84398093
0.46200002 12931.21481638  987.88020272
0.46300002 12950.52455446  1171.76351722
0.46400002 12969.82492018  995.10986416
0.46500002 12990.39809647  1271.24041797
0.46600002 13011.45098303  1002.59740302
0.46700002 13032.76260496  1189.36997170
0.46800002 13055.63475492  1102.15673825
0.46900002 13078.00185325  1198.59892666
0.47000002 13101.20385188  1203.28012481
0.47100002 13124.99750131  1022.17485385
0.47200002 13149.34289059  1306.12429123
0.47300002 13174.14378696  1405.02250147
0.47400002 13198.61290894  1034.44133577
0.47500002 13223.88658805  1321.85976599
0.47600002 13249.92326345  1611.65449254
0.47700002 13275.36649393  1142.21258728
0.47800002 13301.26014900  1146.83470441
