# SAXS profile: number of points = 501, q_min = 0, q_max = 0.5, delta_q = 0.001
#    q    intensity    error
0.00000000 1646666.22097350 296.39991978
0.00100000 1646580.76546938 543.37166551
0.00200000 1646324.37178496 814.93058984
0.00300000 1645897.24531663 1481.30757355
0.00400000 1645299.26153929 1727.56429026
0.00500000 1644531.10241483 2220.11707613
0.00600000 1643592.54407104 2243.50391399
0.00700000 1642484.38110000 2956.47200885
0.00800000 1641206.39529661 2880.31734535
0.00900000 1639759.94606707 3935.42403879
0.01000000 1638144.43033609 2973.23226944
0.01100000 1636361.41731900 2945.45067942
0.01200000 1634410.86408030 3505.81145716
0.01300000 1632293.99850535 4798.94456726
0.01400000 1630011.09815945 5134.53518682
0.01500000 1627563.47837531 4296.76777424
0.01600000 1624951.09439114 4972.35057112
0.01700000 1622175.91883952 6131.82524828
0.01800000 1619238.52258071 7845.21099492
0.01900000 1616139.87402058 6787.78777717
0.02000000 1612880.66385214 6096.68918515
0.02100000 1609463.65835921 6373.47637607
0.02200000 1605887.47636706 6094.34324969
0.02300000 1602155.19245167 6344.53485090
0.02400000 1598267.45382359 8390.90451518
0.02500000 1594226.53518153 6839.23214828
0.02600000 1590032.78236403 7083.59636942
0.02700000 1585688.32701523 9989.83691774
0.02800000 1581193.29552372 8941.64849625
0.02900000 1576551.29890356 7803.92928788
0.03000000 1571762.85095805 8770.43711148
0.03100000 1566829.48063874 9024.93822375
0.03200000 1561752.45983845 9276.81003871
0.03300000 1556535.83498223 8732.16643681
0.03400000 1551178.16658663 9772.42290040
0.03500000 1545683.52404011 9181.36055678
0.03600000 1540052.42602219 9402.02049537
0.03700000 1534288.02662030 19239.97274362
0.03800000 1528391.48262537 8941.09058715
0.03900000 1522365.65721909 10961.03323958
0.04000000 1516210.41844940 10257.16395612
0.04100000 1509930.00840234 10463.81544340
0.04200000 1503525.80979800 11637.29030772
0.04300000 1496999.48937955 9880.19708852
0.04400000 1490354.13999044 16095.82545942
0.04500000 1483591.73436246 14331.49681985
0.04600000 1476713.13590123 12492.99371048
0.04700000 1469722.20637069 12698.40045362
0.04800000 1462620.49733584 10750.26115561
0.04900000 1455410.75352621 12007.13927549
0.05000000 1448094.54097051 11077.92375428
0.05100000 1440675.92451612 14608.45455511
0.05200000 1433154.07606949 11393.57543571
0.05300000 1425534.30045577 12701.51120918
0.05400000 1417817.42630330 12866.69374373
0.05500000 1410007.45699616 17766.09478693
0.05600000 1402104.58171097 19180.79157286
0.05700000 1394114.28058391 18193.19221085
0.05800000 1386035.64485507 13493.05763269
0.05900000 1377872.55396775 19841.36570384
0.06000000 1369628.83302022 12532.10440762
0.06100000 1361305.69622457 12660.14356651
0.06200000 1352905.93996111 15341.95407630
0.06300000 1344432.78856623 14197.21091105
0.06400000 1335885.59424389 15629.86218361
0.06500000 1327271.06800117 15767.98102545
0.06600000 1318589.93091356 22528.11002372
0.06700000 1309843.56857869 14696.44552723
0.06800000 1301036.32343591 16158.87189346
0.06900000 1292171.32642352 14924.57951894
0.07000000 1283248.60096336 13666.59824025
0.07100000 1274272.19659847 15138.35440464
0.07200000 1265244.04914008 18010.74988326
0.07300000 1256167.59478278 15337.80705096
0.07400000 1247045.87002884 21043.90004294
0.07500000 1237879.17971409 18345.37030326
0.07600000 1228671.00718706 21286.72619745
0.07700000 1219425.02944078 15694.00086477
0.07800000 1210142.36302691 14340.18767437
0.07900000 1200824.86281159 17291.87883554
0.08000000 1191478.05853507 15924.10499934
0.08100000 1182102.15399672 17447.82861161
0.08200000 1172698.59988895 16060.10807910
0.08300000 1163271.26365521 16122.94047094
0.08400000 1153822.87273831 22066.86347691
0.08500000 1144355.06207326 16238.39909313
0.08600000 1134870.66920062 23696.10068548
0.08700000 1125371.72696761 16340.39824288
0.08800000 1115859.90326797 17876.07648988
0.08900000 1106338.64527568 14935.57241274
0.09000000 1096810.04834659 14971.45786322
0.09100000 1087275.81123210 21006.16965990
0.09200000 1077737.85231218 18041.33249541
0.09300000 1068200.56694084 21086.28018230
0.09400000 1058662.66259752 25646.10420673
0.09500000 1049128.10002426 16618.18988548
0.09600000 1039598.49601604 16638.77471089
0.09700000 1030079.04858682 21199.02781654
0.09800000 1020568.00927195 16670.97921529
0.09900000 1011069.63273359 19715.85876539
0.10000000 1001583.40793035 16691.38827811
0.10100000 992112.96491098 16697.26198475
0.10200000 982660.34916242 21254.94435214
0.10300000 973227.00690285 21255.27883062
0.10400000 963815.10242998 15180.08857742
0.10500000 954428.41126899 19728.03618912
0.10600001 945063.10321385 15168.26352030
0.10700001 935726.94430941 15158.77721115
0.10800001 926417.63291983 18176.31481330
0.10900001 917139.59069703 18159.36475048
0.11000001 907893.43818113 19651.35439441
0.11100001 898679.83978458 19627.16862481
0.11200001 889502.04489984 15077.06037084
0.11300001 880360.03994556 16559.57313101
0.11400001 871256.28561321 22543.75745170
0.11500001 862192.45262732 16502.36432035
0.11600001 853169.87786623 17967.75847399
0.11700001 844189.46948406 20919.01603899
0.11800001 835252.13768169 17891.10163178
0.11900001 826359.24211484 17849.36047041
0.12000001 817512.49324009 19289.20818662
0.12100001 808714.58302100 16279.42532311
0.12200001 799964.71345005 16235.28462433
0.12300001 791265.23393108 17661.04085343
0.12400001 782616.31352836 14674.05657006
0.12500001 774018.64015870 19017.63888482
0.12600001 765475.74881256 20415.23918287
0.12700001 756985.96626937 15987.54436104
0.12800001 748551.34776207 14484.46926184
0.12900001 740173.01844471 18763.38690193
0.13000001 731851.50337640 17257.05926302
0.13100001 723587.13637599 17192.43117070
0.13200001 715381.31179463 21407.78676462
0.13300001 707235.64946403 18480.06839170
0.13400001 699149.26703002 14157.77332483
0.13500001 691124.30206956 15508.83006965
0.13600001 683160.07586298 19654.51630930
0.13700001 675258.65776466 13977.85487483
0.13800001 667418.66149152 18090.38367279
0.13900001 659642.94526734 15237.75275426
0.14000001 651930.50405506 13788.33081103
0.14100001 644282.30355650 13723.21371298
0.14200001 636698.37103175 19120.05298389
0.14300001 629180.78190822 14949.33608326
0.14400001 621725.90947027 17579.30091949
0.14500001 614338.95505563 18835.63325052
0.14600001 607017.35901286 18738.62675671
0.14700001 599763.83507479 18640.66087353
0.14800001 592574.09196110 22514.85368628
0.14900001 585452.58795530 14489.95223554
0.15000001 578397.42232486 14410.77245717
0.15100001 571409.84719090 16936.58866989
0.15200001 564489.81665272 15546.05028419
0.15300001 557638.10133826 21898.44927292
0.15400001 550851.40615738 17930.21411657
0.15500001 544133.99015404 12732.73597050
0.15600001 537481.53219338 21518.07415691
0.15700001 530900.08187423 13840.56578769
0.15800001 524382.28212978 15007.82162290
0.15900001 517934.33347129 14916.50950804
0.16000001 511550.89665708 14824.74568489
0.16100001 505237.68786749 15960.45931314
0.16200001 498990.05335918 14640.36885667
0.16300001 492809.10778468 16972.34647333
0.16400001 486694.98761963 12045.70151226
0.16500001 480646.70107307 14361.72410610
0.16600001 474665.53557753 15457.48389588
0.16700001 468748.58040648 14174.95774076
0.16800001 462896.68737859 11734.43157910
0.16900001 457112.36032131 12822.00231244
0.17000001 451391.44396993 17367.28662682
0.17100001 445734.94252652 14949.95067830
0.17200001 440143.59121825 15990.41742407
0.17300001 434615.55761582 13612.15990735
0.17400001 429151.14600213 13518.26173748
0.17500001 423749.79889814 13424.39426309
0.17600001 418409.72528219 17774.04596944
0.17700001 413133.63186500 15442.93588849
0.17800001 407917.95230054 13143.11704390
0.17900001 402764.04360759 10874.62969105
0.18000001 397671.01072710 16195.15267684
0.18100001 392639.64944753 13934.78181712
0.18200001 387665.63126680 14897.99091333
0.18300001 382751.80392197 11620.34531601
0.18400001 377896.59324907 16778.60953289
0.18500001 373101.06651373 17696.18442075
0.18600001 368361.66065451 13432.30859036
0.18700001 363679.05976879 11281.32496701
0.18800001 359053.18568967 12214.98995427
0.18900001 354485.26499248 10102.83052962
0.19000001 349969.03755141 11029.27473955
0.19100001 345511.89371563 13931.04021286
0.19200001 341105.96114630 15800.02886687
0.19300001 336756.08438303 11759.52302232
0.19400001 332457.17950085 10696.81025591
0.19500001 328212.15367440 12544.26910622
0.19600001 324018.57746952 12447.17424170
0.19700001 319876.02245894 10450.35014759
0.19800001 315784.68815198 16024.49475757
0.19900001 311743.88396576 12158.01204925
0.20000001 307751.09230739 10206.56545875
0.20100001 303808.87640596 11046.49126820
0.20200001 299913.29207355 16438.24831548
0.20300001 296067.17373636 14495.44951125
0.20400001 292267.44213291 13480.83640556
0.20500001 288513.71864458 15155.62635676
0.20600001 284806.08648146 10611.87528390
0.20700001 281144.30261399 8771.70265619
0.20800001 277525.89368555 13050.65576747
0.20900001 273953.98862381 10355.46125950
0.21000001 270423.61494852 13694.25250835
0.21100001 266936.73284870 9337.44735646
0.21200001 263491.92691331 10944.13770172
0.21300001 260088.22251841 10853.48203880
0.21400001 256726.67355795 11591.20985913
0.21500001 253406.30189897 9852.43748363
0.21600001 250124.98051586 12212.35275107
0.21700001 246883.40284326 11302.32271653
0.21800001 243680.93442887 8805.41098191
0.21900001 240515.84124456 9524.42776361
0.22000001 237388.35680500 10230.25172022
0.22100001 234299.67379283 10142.83335808
0.22200001 231247.62632849 8508.75681309
0.22300001 228230.50313425 7668.54526792
0.22400001 225248.66611931 10642.99997741
0.22500001 222304.35253231 10550.56507009
0.22600001 219392.33468348 9711.40215400
0.22700001 216516.67104796 11107.30575002
0.22800001 213673.49407029 8073.65335525
0.22900001 210862.62427238 7274.76088143
0.23000001 208085.51175349 7210.16332324
0.23100001 205341.39425590 9289.64511547
0.23200001 202627.43774311 8498.19514086
0.23300001 199945.23307144 7719.88581400
0.23400001 197294.60888550 8345.56235056
0.23500001 194672.78138267 8958.84182295
0.23600001 192082.30124605 8877.08397195
0.23700001 189520.79003825 8795.66028169
0.23800001 186988.76420328 10055.32127064
0.23900001 184484.98237143 8633.89758336
0.24000001 182009.44078374 9869.46239333
0.24100001 179562.92697336 7821.76146894
0.24200001 177143.40319445 12268.06696854
0.24300001 174751.14136565 7035.48128418
0.24400001 172385.33566578 7602.19366247
0.24500001 170046.06990943 8157.11035942
0.24600001 167732.94333697 7457.40701354
0.24700001 165445.96335677 8000.96716643
0.24800001 163184.15609417 7313.91422214
0.24900001 160946.69532347 8449.70190422
0.25000001 158735.08106745 7769.28891040
0.25100001 156546.68474446 7100.95795595
0.25200001 154384.09372456 5858.87663403
0.25300001 152245.10393448 6960.64648120
0.25400001 150129.17336309 6316.68526810
0.25500001 148036.21827668 5684.59105077
0.25600001 145967.04547843 6189.73285637
0.25700001 143919.72036845 6683.63213014
0.25800001 141895.67749133 7717.70626391
0.25900001 139893.81624535 6001.44500088
0.26000001 137913.93829278 5939.26403360
0.26100001 135954.94994009 6945.93872109
0.26200001 134018.65715602 6344.44352996
0.26300001 132102.71931036 7323.77510511
0.26400001 130208.00099820 5693.34511305
0.26500001 128334.89306871 7680.84371361
0.26600001 126481.20898136 8104.91625505
0.26700001 124649.08109677 6013.07195665
0.26800001 122837.55654342 5452.14520518
0.26900001 121044.60102619 5882.76788825
0.27000001 119272.69200756 5333.27867550
0.27100001 117519.71570573 6233.24601601
0.27200001 115787.76169264 6638.11269198
0.27300001 114074.27046250 5626.14328546
0.27400001 112378.01844333 6026.27152422
0.27500001 110703.82753760 4583.13867696
0.27600001 109046.08418817 5890.12451618
0.27700001 107408.58372854 6718.40723018
0.27800001 105788.59501181 4869.97820185
0.27900001 104188.37352857 5688.68546389
0.28000001 102604.82257463 4757.27282383
0.28100001 101040.36454834 5556.20990948
0.28200001 99494.35960180  5068.24291799
0.28300001 97965.63855127  4590.67003979
0.28400001 96454.40137959  7009.82395204
0.28500001 94961.48587310  4481.23273045
0.28600001 93485.58973839  5231.92127735
0.28700001 92027.16544281  3975.57373530
0.28800001 90585.32567877  6675.68589188
0.28900001 89162.47890849  5042.13842094
0.29000001 87755.07256751  4979.66182855
0.29100001 86365.51945438  4539.37191739
0.29200001 84992.68276695  4482.51430131
0.29300001 83636.57239923  4426.04762088
0.29400001 82296.36096702  3641.61414517
0.29500001 80973.99609648  3595.24559687
0.29600001 79667.29119637  3904.09578989
0.29700001 78376.96499754  4204.14060148
0.29800001 77102.81963355  4149.67394912
0.29900001 75845.40143823  4436.95619418
0.30000001 74603.31314358  5389.34359662
0.30100001 73378.44225311  3656.44795057
0.30200001 72167.52043741  4920.02093874
0.30300001 70974.10550877  4530.98711018
0.30400001 69796.24083264  3512.49598619
0.30500001 68633.55818488  5040.44875172
0.30600001 67485.61162491  3107.71256245
0.30700001 66354.41322624  3372.13143980
0.30800001 65237.88103190  3023.77592899
0.30900001 64136.93283554  3877.07777347
0.31000001 63051.50468940  3529.62339962
0.31100001 61980.04820146  4060.93295043
0.31200001 60924.50223388  2860.40551531
0.31300001 59883.13261869  4230.74351982
0.31400001 58857.75402638  2781.02900942
0.31500001 57846.33436227  3016.10801645
0.31600002 56849.87206853  2703.21154485
0.31700002 55867.93128038  3997.35067238
0.31800002 54900.38783608  3415.07878704
0.31900002 53947.51098913  2848.42871510
0.32000002 53009.04033829  2807.62395446
0.32100002 52084.20627734  2767.23401054
0.32200002 51174.62923746  2975.29308475
0.32300002 50277.65314040  3176.54227582
0.32400002 49395.12177777  2648.81353076
0.32500002 48526.37113590  2372.93966091
0.32600002 47671.84742733  2805.96507244
0.32700002 46830.29198171  2534.45552206
0.32800002 46003.35747100  2951.34553831
0.32900002 45188.98041475  3355.28195468
0.33000002 44388.97908738  3085.47808247
0.33100002 43599.71276756  2822.64553824
0.33200002 42826.96773998  3636.65213785
0.33300002 42065.72091978  2950.48980503
0.33400002 41317.80034920  3114.32934880
0.33500002 40582.00370444  2454.39970028
0.33600002 39859.90863658  3022.37771550
0.33700002 39149.52697314  2580.34544500
0.33800002 38452.69231971  2541.91534617
0.33900002 37767.42261022  2118.75250877
0.34000002 37095.10452101  1897.41468611
0.34100002 36434.60216251  1869.09517945
0.34200002 35786.92734376  1841.23749904
0.34300002 35150.33926449  1995.13335114
0.34400002 34526.82030554  2501.46824961
0.34500002 33914.47281446  2288.20958916
0.34600002 33314.67452260  1734.02889103
0.34700002 32724.82518861  1879.05955132
0.34800002 32147.94278513  2019.53386141
0.34900002 31581.87193209  2652.87736794
0.35000002 31026.99288289  1633.57125265
0.35100002 30484.03551871  2253.38001227
0.35200002 29950.58057631  1744.47164829
0.35300002 29428.76435161  2500.26793773
0.35400002 28918.01913261  2001.84996927
0.35500002 28417.91704546  1972.77189473
0.35600002 27927.48418448  1794.62021870
0.35700002 27448.07323993  1916.15008364
0.35800002 26979.50191662  1888.70012113
0.35900002 26520.84237757  1718.55066747
0.36000002 26072.47283319  1694.18936495
0.36100002 25633.41518216  1391.89451032
0.36200002 25205.26563935  1509.66945698
0.36300002 24785.81986742  1353.30582886
0.36400002 24376.05355166  1868.42459324
0.36500002 23975.78667980  1316.27075107
0.36600002 23585.08183594  1298.35881657
0.36700002 23203.08539860  1408.89141214
0.36800002 22831.74732261  1390.11100158
0.36900002 22468.26569055  1745.78432685
0.37000002 22113.39408327  1845.91565854
0.37100002 21767.15484899  1336.06802792
0.37200002 21430.40030721  1558.74024018
0.37300002 21101.63048843  1538.94198442
0.37400002 20781.19951944  1519.62528685
0.37500002 20469.48164795  1269.92670160
0.37600002 20166.09462134  1482.51051632
0.37700002 19870.03296882  1464.62019951
0.37800002 19581.82306798  1335.87203298
0.37900002 19302.04347270  1100.21653006
0.38000002 19029.93296926  1413.82893693
0.38100002 18764.43085228  1720.32310203
0.38200002 18507.24713337  1488.53795745
0.38300002 18256.71797982  1367.06310709
0.38400002 18014.21209621  1144.35287762
0.38500002 17777.63796009  1029.32528665
0.38600002 17549.05019239  1324.33913551
0.38700002 17326.76720881  1411.78505906
0.38800002 17111.29927833  1297.97766825
0.38900002 16901.82528862  1384.25955672
0.39000002 16700.12812284  1273.30132905
0.39100002 16503.67133724  1358.58228885
0.39200002 16314.00056309  961.71037876
0.39300002 16130.23056235  953.29667140
0.39400002 15953.56956430  1039.77394561
0.39500002 15781.66562486  1593.63267030
0.39600002 15615.79572235  1580.86515485
0.39700002 15455.50916825  1291.77151748
0.39800002 15301.09275761  1190.50157841
0.39900002 15151.95678864  1090.94094047
0.40000002 15007.95084333  1444.36525760
0.40100002 14869.65814462  986.30447146
0.40200002 14736.60177428  1336.24142919
0.40300002 14607.90611520  973.76306778
0.40400002 14484.67977540  1055.93320566
0.40500002 14366.47592574  1049.90211040
0.40600002 14252.86286633  1131.17851498
0.40700002 14143.78877736  865.59991419
0.40800002 14039.46278667  1033.58529933
0.40900002 13939.31829101  942.99492707
0.41000002 13844.01255097  938.83175563
0.41100002 13752.60731641  934.90228967
0.41200002 13665.14299281  931.21121337
0.41300002 13582.45907229  1096.51197286
0.41400002 13503.08431579  1008.68044618
0.41500002 13427.97171203  1005.48656944
0.41600002 13356.09488525  1253.13566199
0.41700002 13288.24253730  1416.39383916
0.41800002 13225.02029507  914.31182142
0.41900002 13163.27396004  1161.00081829
0.42000002 13106.10720418  827.65070916
0.42100002 13052.84542706  908.86967015
0.42200002 13002.61436262  990.01910448
0.42300002 12955.03960757  823.94055808
0.42400002 12910.53491701  987.65596795
0.42500002 12869.48344205  822.36003092
0.42600002 12830.45099949  903.96946800
0.42700002 12795.66281118  1314.37054625
0.42800002 12762.52416441  1067.64900957
0.42900002 12733.38936444  821.30365293
0.43000002 12706.19537206  1067.89224065
0.43100002 12680.68248058  1068.22074278
0.43200002 12658.77094475  904.40593301
0.43300002 12639.10982465  1316.48974172
0.43400002 12621.65863503  988.27591796
0.43500002 12606.45851108  1319.13988111
0.43600002 12593.72689751  1238.27825588
0.43700002 12582.61296106  909.34548179
0.43800002 12573.54341005  1076.35823463
0.43900002 12567.17027127  912.37660493
0.44000002 12562.19288182  914.08800836
0.44100002 12559.46628136  915.96191931
0.44200002 12558.33779130  834.50158578
0.44300002 12559.19719315  1003.73108724
0.44400002 12561.91545603  1090.06026536
0.44500002 12565.09268470  1176.84663662
0.44600002 12570.39967223  842.84533797
0.44700002 12578.13609373  1436.92633545
0.44800002 12585.85056840  1356.25132153
0.44900002 12596.70179816  1530.49934101
0.45000002 12608.08394714  1023.52430334
0.45100002 12620.54334935  855.67287964
0.45200002 12634.47331156  1030.21500265
0.45300002 12649.34078761  1119.84619300
0.45400002 12665.90393904  1210.22717873
0.45500002 12683.36192235  1127.80459559
0.45600002 12701.73382763  1044.84467418
0.45700002 12721.17539488  1048.73374926
0.45800002 12741.27151299  877.23658524
0.45900002 12762.42784923  1320.91134500
0.46000002 12785.14229837  972.50189502
0.46100002 12807.63838075  976.32632004
0.46200002 12831.70311241  980.27800573
0.46300002 12856.58875264  1342.22792939
0.46400002 12881.29812426  1168.01176278
0.46500002 12907.36957931  1082.67021163
0.46600002 12933.79334024  1087.21471971
0.46700002 12960.54777321  1182.77964584
0.46800002 12988.77300873  1279.26431426
0.46900002 13016.44806979  1101.19155890
0.47000002 13044.97297058  1290.27833767
0.47100002 13074.08018458  1018.20941304
0.47200002 13103.62378149  1208.61279677
0.47300002 13133.64385761  1120.56254704
0.47400002 13163.35376156  1406.83349995
0.47500002 13193.79828555  1130.44469069
0.47600002 13224.88545152  946.24059891
0.47700002 13255.50103408  950.41946919
0.47800002 13286.42891356  1145.55595522
