# SAXS profile: number of points = 501, q_min = 0, q_max = 0.5, delta_q = 0.001
#    q    intensity    error
0.00000000 1646666.22097350 321.09991309
0.00100000 1646580.78433747 691.56394585
0.00200000 1646324.44076295 963.09982834
0.00300000 1645897.41007698 1185.04617747
0.00400000 1645299.55058895 1357.37218081
0.00500000 1644531.54832580 2368.12552332
0.00600000 1643593.18893258 2416.08208609
0.00700000 1642485.25240749 2562.27710024
0.00800000 1641207.52801090 2437.19328199
0.00900000 1639761.37245570 3935.42746212
0.01000000 1638146.21280432 3513.82377819
0.01100000 1636363.58292775 4712.72732402
0.01200000 1634413.39397238 3505.81688378
0.01300000 1632296.98726434 4456.17097177
0.01400000 1630014.55090496 3667.53290212
0.01500000 1627567.48020732 4296.77833908
0.01600000 1624955.61787537 5386.72811406
0.01700000 1622181.01887473 5255.86673693
0.01800000 1619244.25506758 5537.81560152
0.01900000 1616146.28173154 5333.28297037
0.02000000 1612887.73075180 6604.77555620
0.02100000 1609471.43129521 7966.88394612
0.02200000 1605895.99385301 6648.40971660
0.02300000 1602164.54341567 6344.57188072
0.02400000 1598277.57515931 6592.89529815
0.02500000 1594237.49569706 7461.03182061
0.02600000 1590044.67014754 7727.61745037
0.02700000 1585701.09458542 6659.94490229
0.02800000 1581207.03714302 7566.07601971
0.02900000 1576566.04131055 9932.36651629
0.03000000 1571778.55164807 7308.77060111
0.03100000 1566846.24256944 8272.94854143
0.03200000 1561770.30131425 10823.06868660
0.03300000 1556554.79036050 10319.95873585
0.03400000 1551198.30084129 11401.30803724
0.03500000 1545704.77170972 9181.48676794
0.03600000 1540074.84114863 9402.15733972
0.03700000 1534311.63920732 9620.13442274
0.03800000 1528416.40167156 9835.35999993
0.03900000 1522391.86531117 10961.22193785
0.04000000 1516237.96719618 13054.80950251
0.04100000 1509958.86259069 16171.66016817
0.04200000 1503556.09937937 10667.73102000
0.04300000 1497031.17121103 12844.52804521
0.04400000 1490387.11514481 12072.13619333
0.04500000 1483626.28873664 17402.93717551
0.04600000 1476749.16612184 12493.29852617
0.04700000 1469759.79118126 13756.95228526
0.04800000 1462659.65506354 10750.54896492
0.04900000 1455451.35200577 19648.59416667
0.05000000 1448136.80258859 13293.89646681
0.05100000 1440719.88676407 11237.61564025
0.05200000 1433199.55623329 11393.93700303
0.05300000 1425581.54143898 12701.93212636
0.05400000 1417866.36814743 19885.57674061
0.05500000 1410058.06556190 15397.83479423
0.05600000 1402156.92471864 14386.13071893
0.05700000 1394168.43991098 18193.89899010
0.05800000 1386091.58264334 17173.67551083
0.05900000 1377930.35958202 13641.51119700
0.06000000 1369688.40537803 15039.17939366
0.06100000 1361367.14013437 16458.92949337
0.06200000 1352969.18342494 17899.78313341
0.06300000 1344497.96979937 15488.61733626
0.06400000 1335952.60821945 18235.75395502
0.06500000 1327340.07003988 13140.66730809
0.06600000 1318660.96805492 18553.56068863
0.06700000 1309916.55971552 14697.26448782
0.06800000 1301111.11928300 18853.10100091
0.06900000 1292248.23827710 14925.46785089
0.07000000 1283327.53957711 24601.39008574
0.07100000 1274353.20233659 20644.52284480
0.07200000 1265327.18450210 19397.46664713
0.07300000 1256252.82502378 13944.40701114
0.07400000 1247133.16993220 18239.32346503
0.07500000 1237968.55808307 18346.69489075
0.07600000 1228762.46132251 19869.08993106
0.07700000 1219518.56442084 24256.22538367
0.07800000 1210238.11550243 17209.58680951
0.07900000 1200922.76543534 14411.07386116
0.08000000 1191578.12797846 18820.97741433
0.08100000 1182204.38179199 20357.56040960
0.08200000 1172803.20036429 20441.96074159
0.08300000 1163377.94408764 19056.13161850
0.08400000 1153931.82698544 20597.68407852
0.08500000 1144466.23178611 17716.33809975
0.08600000 1134984.10777570 20736.16062266
0.08700000 1125487.44254948 14856.43493928
0.08800000 1115977.76936394 16388.13431276
0.08900000 1106458.81377441 16430.91415631
0.09000000 1096932.46925783 16470.44179961
0.09100000 1087400.46318869 15006.12709701
0.09200000 1077864.84721678 22554.32298776
0.09300000 1068329.92471290 25607.86949874
0.09400000 1058794.23612612 25649.29157561
0.09500000 1049261.99919009 18131.24819822
0.09600000 1039734.74288073 15128.14122005
0.09700000 1030217.61896792 16658.61968188
0.09800000 1020708.98620153 16673.28207354
0.09900000 1011212.73105388 15168.19167905
0.10000000 1001728.96476632 18211.43343588
0.10100000 992260.87903209 21254.22902849
0.10200000 982810.60287534 15184.42452864
0.10300000 973379.59681094 22777.08363683
0.10400000 963970.06264405 15182.52920091
0.10500000 954585.54115656 16695.70190035
0.10600001 945222.60765320 18204.98828001
0.10700001 935888.88951030 16677.54079588
0.10800001 926581.68826529 18179.53357932
0.10900001 917306.09237171 18162.66148380
0.11000001 908062.28438650 16631.16152136
0.11100001 898850.92972705 16610.76596328
0.11200001 889675.54026832 19604.00145271
0.11300001 880535.72547617 15057.16161455
0.11400001 871434.41642925 18038.69326943
0.11500001 862372.88449791 22507.93334525
0.11600001 853352.56541790 16473.97205118
0.11700001 844374.54861142 22418.14532141
0.11800001 835439.40913908 14912.59415549
0.11900001 826548.89747237 17853.45702633
0.12000001 817704.32276836 17809.60098881
0.12100001 808908.70965571 16283.33309245
0.12200001 800161.19144119 19191.86708087
0.12300001 791463.90556190 19137.59813814
0.12400001 782817.15710944 20548.95134234
0.12500001 774221.74050919 19022.62906067
0.12600001 765681.13994585 18962.09432432
0.12700001 757193.62749226 26168.61299936
0.12800001 748761.27345071 17386.23758893
0.12900001 740385.02578821 15881.25955167
0.13000001 732065.77774766 18700.62117402
0.13100001 723803.53492101 20063.83493377
0.13200001 715599.80844797 18559.08190698
0.13300001 707456.42789351 15641.86235813
0.13400001 699372.02154533 16994.74092478
0.13500001 691349.25698513 21155.28826118
0.13600001 683387.08231067 16852.32624438
0.13700001 675487.85397579 20973.89885494
0.13800001 667649.91465430 15312.55151467
0.13900001 659876.19858060 20786.10123552
0.14000001 652165.91726468 16551.97176078
0.14100001 644519.68517216 19219.57791829
0.14200001 636937.75645204 15028.54707231
0.14300001 629422.19524669 21752.83209375
0.14400001 621969.24723453 13527.83176546
0.14500001 614584.18579302 16151.27316453
0.14600001 607264.59475556 17407.24042984
0.14700001 600013.11468971 17316.37930687
0.14800001 592825.14764117 15899.57120986
0.14900001 585705.44111092 15814.04765611
0.15000001 578652.31612299 17038.41825216
0.15100001 571666.61899436 15640.79943370
0.15200001 564748.41372005 12960.97670646
0.15300001 557898.50019932 14176.20155903
0.15400001 551113.61564668 20501.42746954
0.15500001 544397.95620313 14012.80405397
0.15600001 537747.18156114 17729.52541281
0.15700001 531167.53267695 17624.13956602
0.15800001 524651.39527919 13764.23000480
0.15900001 518204.99943229 14924.30468809
0.16000001 511823.35511817 19776.85537528
0.16100001 505511.93176361 13512.33457388
0.16200001 499265.90513926 13427.75715259
0.16300001 493086.50414594 13342.92143208
0.16400001 486973.90801351 13257.86527157
0.16500001 480927.22095778 13172.59720393
0.16600001 474947.55164602 20225.64244176
0.16700001 469032.06786000 13001.56953494
0.16800001 463181.75175511 11741.65796139
0.16900001 457398.85085418 16329.13974652
0.17000001 451679.33637039 13902.69062996
0.17100001 446024.29142480 11507.42726216
0.17200001 440434.15346681 13715.12018662
0.17300001 434907.63400193 13621.30774020
0.17400001 429444.62672604 13527.50638072
0.17500001 424044.47760259 13433.72968489
0.17600001 418705.81217243 12228.30382203
0.17700001 413431.07568443 15454.05433899
0.17800001 408216.28503266 13152.72932498
0.17900001 403063.67811286 14147.53577000
0.18000001 397971.86143655 12965.92385805
0.18100001 392941.67981264 11800.03920217
0.18200001 387968.74071222 12779.69092275
0.18300001 383056.09709011 12686.81853494
0.18400001 378201.90913374 13643.63451653
0.18500001 373407.41116189 14585.29416902
0.18600001 368669.00438076 10341.16606143
0.18700001 363987.50391796 12317.33771451
0.18800001 359362.64963363 15281.89739768
0.18900001 354795.52522566 12134.00753602
0.19000001 350280.23100202 14049.74072932
0.19100001 345824.05977499 9959.73339212
0.19200001 341418.81901944 9884.07527765
0.19300001 337069.88625782 10789.60756895
0.19400001 332771.75375099 11680.28910860
0.19500001 328527.54148895 12556.32322906
0.19600001 324334.67537443 12459.31714329
0.19700001 320192.86484165 9509.72853520
0.19800001 316102.32279709 9435.65478141
0.19900001 312062.01330166 13106.60517809
0.20000001 308069.87794490 13003.63016262
0.20100001 304128.26215940 13822.63016843
0.20200001 300233.32207871 10970.52610726
0.20300001 296387.64259529 10883.35475050
0.20400001 292588.31275087 11696.21835505
0.20500001 288835.21407889 15172.51451272
0.20600001 285128.13563342 10623.87483587
0.20700001 281466.71434234 10538.11428310
0.20800001 277848.81800465 9581.61694182
0.20900001 274277.20755135 20735.35787107
0.21000001 270747.16197042 12853.72212217
0.21100001 267260.75116441 9348.78151768
0.21200001 263816.14168253 10957.60396280
0.21300001 260412.73778956 8359.24927823
0.21400001 257051.36625227 12434.86043033
0.21500001 253731.34897305 9042.98570493
0.21600001 250450.18795517 8967.36940370
0.21700001 247208.79855385 8892.10090440
0.21800001 244006.45158075 12023.41847012
0.21900001 240841.36082291 9537.31833953
0.22000001 237713.99127343 11820.32877497
0.22100001 234625.33817601 8594.32654376
0.22200001 231573.47632661 8520.74646434
0.22300001 228556.20533899 7679.48886252
0.22400001 225574.41003839 8374.45036867
0.22500001 222630.04899597 8301.87491963
0.22600001 219717.98588837 9725.81710527
0.22700001 216842.20426024 11865.60597823
0.22800001 213998.89369083 8085.94858049
0.22900001 211187.81959518 8014.57813265
0.23000001 208410.60865525 12276.42748341
0.23100001 205666.23750456 8588.62248437
0.23200001 202951.91746269 9930.43779110
0.23300001 200269.53088275 11247.13738630
0.23400001 197618.73255732 9055.87884774
0.23500001 194996.50258300 8283.45182150
0.23600001 192405.64177238 6840.02088852
0.23700001 189843.87739211 8810.65476649
0.23800001 187311.37264122 8729.64693485
0.23900001 184807.17780937 7318.36458741
0.24000001 182331.21524327 7909.52849138
0.24100001 179884.29399869 6529.80018102
0.24200001 177464.15282034 8409.13927916
0.24300001 175071.55648536 8329.90505160
0.24400001 172705.17479512 8885.68166353
0.24500001 170365.27202815 8801.07036930
0.24600001 168051.80719554 9339.47962670
0.24700001 165764.12234197 9249.63846424
0.24800001 163501.69650605 7938.82524941
0.24900001 161263.54220308 6652.12143057
0.25000001 159051.24911401 6587.10779368
0.25100001 156862.03394619 8301.13922915
0.25200001 154698.90728823 7632.07095214
0.25300001 152559.11404624 6975.00302418
0.25400001 150442.44978268 6905.30877172
0.25500001 148348.76661846 6835.91148920
0.25600001 146278.74826899 8458.56901885
0.25700001 144230.48241587 9488.92388709
0.25800001 142205.76727401 7734.57204799
0.25900001 140202.93749589 5467.91482105
0.26000001 138222.08464594 5952.53435692
0.26100001 136262.25636248 8032.66039264
0.26200001 134325.01672255 5829.03437649
0.26300001 132408.22967678 5767.70275763
0.26400001 130512.57186713 7263.02496808
0.26500001 128638.41718452 6159.20770624
0.26600001 126783.71824600 5585.45697163
0.26700001 124950.65267428 8036.82636031
0.26800001 123137.96429984 4968.61709462
0.26900001 121344.08580844 5405.87927858
0.27000001 119571.02204585 5832.67473141
0.27100001 117817.03613991 6249.01589258
0.27200001 116083.94266681 5704.36521260
0.27300001 114369.21887587 5640.69014190
0.27400001 112671.87559885 6506.80112377
0.27500001 110996.50070453 5054.78088130
0.27600001 109337.49065507 7268.75672275
0.27700001 107698.84642888 5389.25053036
0.27800001 106077.67786095 7990.83185145
0.27900001 104476.27694679 5265.60460733
0.28000001 102891.43464713 6071.62384589
0.28100001 101325.63497481 7286.32675589
0.28200001 99778.35660936  5929.82801395
0.28300001 98248.33653024  5859.53106800
0.28400001 96735.89600248  5376.09767479
0.28500001 95241.53510415  4903.03445923
0.28600001 93764.34852798  4036.55539519
0.28700001 92304.56236448  5183.82446775
0.28800001 90861.45226900  4726.61297076
0.28900001 89437.12359350  6224.82409675
0.29000001 88028.34705411  4226.68128387
0.29100001 86637.39746819  4174.19000760
0.29200001 85263.12484174  4122.04596559
0.29300001 83905.54354946  5180.32850396
0.29400001 82563.92816230  3653.45399412
0.29500001 81240.08184571  3967.76578517
0.29600001 79931.88494273  3917.06220704
0.29700001 78640.11495603  5624.34128790
0.29800001 77364.48229025  3469.79719497
0.29900001 76105.57723600  4109.70136529
0.30000001 74862.01250984  4732.02803476
0.30100001 73635.50816439  3669.25754553
0.30200001 72423.11024647  4937.44577480
0.30300001 71228.10377526  4872.00252887
0.30400001 70048.63134209  4166.14254630
0.30500001 68884.47922945  4742.69661948
0.30600001 67734.94334440  3431.11371755
0.30700001 66602.12723484  3384.72026632
0.30800001 65484.01787137  5159.81343246
0.30900001 64381.46364226  3592.48584132
0.31000001 63294.34365358  3247.94939836
0.31100001 62221.25842946  3785.54154208
0.31200001 61164.06869268  4594.64505773
0.31300001 60121.05917540  3114.87222335
0.31400001 59094.17367414  3071.41982213
0.31500001 58080.97671118  3578.94995440
0.31600002 57082.92308503  3528.58105757
0.31700002 56099.26065092  4013.90228962
0.31800002 55130.07181860  2901.77146757
0.31900002 54175.40995554  3640.58772139
0.32000002 53235.33103804  3332.26570411
0.32100002 52308.74934647  2779.16398437
0.32200002 51397.49170105  2988.25030899
0.32300002 50498.73030941  3190.50993202
0.32400002 49614.52977292  2660.57928505
0.32500002 48744.01146676  2621.94050095
0.32600002 47887.83068838  3288.45748909
0.32700002 47044.56383677  2777.51118045
0.32800002 46215.78773775  2736.89907943
0.32900002 45399.64696953  2696.73915769
0.33000002 44597.97676941  2214.28965146
0.33100002 43806.97566850  2617.90498992
0.33200002 43032.43089296  2149.47002489
0.33300002 42269.39081590  2329.46623818
0.33400002 41519.75953742  2295.00481711
0.33500002 40782.10768396  2055.41832461
0.33600002 40058.29141536  2227.44139964
0.33700002 39346.12695420  2992.27309657
0.33800002 38647.51933205  2358.27174132
0.33900002 37960.43759326  2323.17889073
0.34000002 37286.24658463  2288.62992375
0.34100002 36624.01909365  1878.81226848
0.34200002 35974.55854005  2406.15846190
0.34300002 35336.14005652  2188.01389592
0.34400002 34710.82497629  2335.17086087
0.34500002 34096.66080535  2477.46349145
0.34600002 33495.05676340  1743.41778710
0.34700002 32903.31738996  2748.08519856
0.34800002 32324.73554068  1861.41998427
0.34900002 31756.79588098  2334.12460780
0.35000002 31200.09485395  2135.49059342
0.35100002 30655.32964036  3075.34281518
0.35200002 30120.05801805  1594.85714759
0.35300002 29596.35000055  2200.19276325
0.35400002 29083.89326599  1703.58912874
0.35500002 28581.96946982  1831.53269037
0.35600002 28089.66202765  1654.62162011
0.35700002 27608.43039849  1779.08733915
0.35800002 27138.04982537  1899.79926801
0.35900002 26677.54313778  1584.64613744
0.36000002 26227.33314961  1846.27320452
0.36100002 25786.42321677  1400.20284699
0.36200002 25356.49439999  1518.72730402
0.36300002 24935.18075295  1769.89921368
0.36400002 24523.59025818  2416.79993442
0.36500002 24121.38042748  1721.54300265
0.36600002 23728.93132181  2351.29991605
0.36700002 23345.12223464  1417.51588923
0.36800002 22971.93120414  1652.94538809
0.36900002 22606.57799492  1881.99770723
0.37000002 22249.86722945  1981.12827196
0.37100002 21901.84678065  1466.54772990
0.37200002 21563.33082957  1447.76210048
0.37300002 21232.67753314  1667.61457245
0.37400002 20910.42722527  1529.07506328
0.37500002 20596.87472434  1161.66378948
0.37600002 20291.58997917  1721.23420152
0.37700002 19993.74130063  1360.37422254
0.37800002 19703.76056763  1120.15884133
0.37900002 19422.16554881  1328.47618647
0.38000002 19148.18819382  1750.91041139
0.38100002 18880.82941661  1406.43304987
0.38200002 18621.89025948  1390.77593992
0.38300002 18369.48516983  1587.12359386
0.38400002 18125.21699635  1674.77012980
0.38500002 17886.78004003  1242.77353606
0.38600002 17656.44337585  1332.44356248
0.38700002 17432.31776345  1318.92922447
0.38800002 17214.99126921  1908.54009748
0.38900002 17003.75635966  1392.60771183
0.39000002 16800.26613495  1182.40278660
0.39100002 16601.91439974  976.19261295
0.39200002 16410.45119699  1257.61498706
0.39300002 16224.87807325  1438.33550934
0.39400002 16046.45872576  1711.35490418
0.39500002 15872.77439532  942.84284375
0.39600002 15705.08876549  1496.38092847
0.39700002 15542.99969971  1206.29226385
0.39800002 15386.75913014  1012.98733533
0.39900002 15235.83247640  1096.97999027
0.40000002 15090.07030883  998.43454929
0.40100002 14949.96490306  901.48292637
0.40200002 14815.14019013  1164.24784700
0.40300002 14684.70873441  1156.86140891
0.40400002 14559.71891761  1061.40355938
0.40500002 14439.66576230  879.37568659
0.40600002 14324.33509467  961.95076886
0.40700002 14213.43748654  1043.83489847
0.40800002 14107.39706218  865.48885077
0.40900002 14005.50735190  947.47261725
0.41000002 13908.37463348  857.45133678
0.41100002 13815.23666814  1366.05066647
0.41200002 13726.00389438  935.35857970
0.41300002 13641.48183682  1355.41769953
0.41400002 13560.44265675  844.13759538
0.41500002 13483.59413047  1009.65157633
0.41600002 13409.95348083  922.67189297
0.41700002 13340.37555491  836.44158693
0.41800002 13275.37646709  1001.22894059
0.41900002 13211.92536362  1082.05673855
0.42000002 13153.12319801  996.74372318
0.42100002 13097.98138450  912.01248702
0.42200002 13046.10606017  1241.66320311
0.42300002 12996.80898962  991.91650909
0.42400002 12950.53721338  990.71614377
0.42500002 12907.78311579  907.28811820
0.42600002 12867.04589741  1071.37462742
0.42700002 12830.50484719  988.46214027
0.42800002 12795.66599902  905.74126066
0.42900002 12764.80598743  1152.66203529
0.43000002 12735.91836061  905.71487713
0.43100002 12708.72169252  988.23024564
0.43200002 12685.14257545  823.90004932
0.43300002 12663.70979553  1154.17056546
0.43400002 12644.62097326  825.06155760
0.43500002 12627.71322537  1073.60822930
0.43600002 12613.26829231  826.79977574
0.43700002 12600.48926448  1407.34871264
0.43800002 12589.75032645  1077.74562777
0.43900002 12581.71695441  1079.51136585
0.44000002 12575.04712515  915.02334742
0.44100002 12570.68076973  833.43617453
0.44200002 12567.91125745  918.65151690
0.44300002 12567.06769280  1339.14679681
0.44400002 12568.20983272  1090.60645992
0.44500002 12569.71731190  925.00554082
0.44600002 12573.33970884  1180.25945440
0.44700002 12579.49227972  845.34192126
0.44800002 12585.52661396  1186.68936067
0.44900002 12594.66175456  1105.18162134
0.45000002 12604.49040807  937.96319817
0.45100002 12615.31395158  1026.38199174
0.45200002 12627.57929161  943.84845888
0.45300002 12640.86695935  1033.01169688
0.45400002 12655.76353898  1209.25826346
0.45500002 12671.60313956  1126.75900457
0.45600002 12688.38489012  869.78882544
0.45700002 12706.19483233  1222.08187689
0.45800002 12724.65046098  1138.91989349
0.45900002 12744.27077667  1319.03208790
0.46000002 12765.38343407  882.72630630
0.46100002 12786.22800342  1151.91133542
0.46200002 12808.78063909  1156.44081481
0.46300002 12832.00453596  1161.03982544
0.46400002 12855.15619845  986.31190607
0.46500002 12879.64212121  1080.34443233
0.46600002 12904.51412286  1175.14963430
0.46700002 12929.73124157  1089.20061141
0.46800002 12956.38061747  1002.62956160
0.46900002 12982.49850358  1189.84604425
0.47000002 13009.43040658  1102.93956215
0.47100002 13036.98010250  1661.43282301
0.47200002 13065.01423888  926.96280418
0.47300002 13093.48425304  1489.51483922
0.47400002 13121.67259592  1308.88690348
0.47500002 13150.53589195  938.94830719
0.47600002 13180.15841141  1037.34441694
0.47700002 13209.21735033  1231.23120758
0.47800002 13238.65816366  1331.67668780
