# SAXS profile: number of points = 501, q_min = 0, q_max = 0.5, delta_q = 0.001
#    q    intensity    error
0.00000000 1664650.74656090 299.63713438
0.00100000 1664564.93534741 699.11728945
0.00200000 1664307.46901716 973.61990020
0.00300000 1663878.56363686 1397.65804324
0.00400000 1663278.08773914 1372.20447453
0.00500000 1662506.70972465 1795.50731757
0.00600000 1661564.25122443 2791.42805570
0.00700000 1660451.44194001 2191.79599445
0.00800000 1659168.09473054 2463.86472470
0.00900000 1657715.61866678 2735.23088773
0.01000000 1656093.35185399 3279.06497826
0.01100000 1654302.86933001 3573.29435333
0.01200000 1652344.09590984 4833.10669244
0.01300000 1650218.35760646 4505.09631496
0.01400000 1647925.83184977 4449.39994324
0.01500000 1645467.95538137 7108.42188378
0.01600000 1642844.55397174 6283.88069985
0.01700000 1640057.63760236 5756.60256622
0.01800000 1637107.81242340 6065.48471796
0.01900000 1633996.08622204 5882.38617583
0.02000000 1630722.98368724 7191.48868337
0.02100000 1627291.49978571 6444.07463132
0.02200000 1623700.07885072 7842.47173715
0.02300000 1619951.90489783 8164.55797232
0.02400000 1616047.48160923 6060.17833236
0.02500000 1611989.26435797 8172.78594355
0.02600000 1607777.53101417 6511.49929843
0.02700000 1603414.34744029 8081.20868123
0.02800000 1598899.93286728 10432.82254040
0.02900000 1594237.89648352 8608.88503628
0.03000000 1589428.64920582 8129.92791438
0.03100000 1584473.80913931 9126.56956058
0.03200000 1579374.68013760 7817.90502676
0.03300000 1574135.26516592 9633.70826693
0.03400000 1568754.11592979 13177.53518183
0.03500000 1563235.20400254 10129.76458971
0.03600000 1557579.30106685 10373.47862450
0.03700000 1551789.31537335 10614.23940804
0.03800000 1545866.62414747 11756.31622072
0.03900000 1539814.02430625 12934.43840317
0.04000000 1533631.22127595 10375.01569270
0.04100000 1527322.63557391 9622.13305026
0.04200000 1520889.55818490 11771.68572647
0.04300000 1514333.73783887 13992.44438713
0.04400000 1507658.15720972 16282.70885407
0.04500000 1500865.05265855 11391.56627899
0.04600000 1493954.86715294 12638.85876365
0.04700000 1486931.91039259 11776.50127801
0.04800000 1479797.47947349 13051.81437623
0.04900000 1472554.31172917 14357.40520766
0.05000000 1465204.10421584 12329.69311112
0.05100000 1457750.77479595 11370.45657309
0.05200000 1450193.62827326 13834.84785845
0.05300000 1442537.92513982 11684.55773834
0.05400000 1434784.53184459 16571.76211561
0.05500000 1426937.27358934 11986.27365730
0.05600000 1418996.82195153 14558.90807260
0.05700000 1410968.09457439 20868.21909285
0.05800000 1402850.41414777 13656.74941940
0.05900000 1394647.68163836 18827.74458148
0.06000000 1386363.68656757 12685.22832473
0.06100000 1377999.76468641 15378.47809256
0.06200000 1369558.53215729 14236.56160724
0.06300000 1361043.43664587 16985.82288352
0.06400000 1352453.61983874 14505.06575112
0.06500000 1343795.87294456 14633.93774091
0.06600000 1335070.98561448 16100.95683985
0.06700000 1326280.21642716 16233.67060879
0.06800000 1317428.08141186 16362.45753705
0.06900000 1308517.70011002 16487.32379330
0.07000000 1299548.82184401 17992.25428098
0.07100000 1290525.82842680 15331.44755980
0.07200000 1281450.54061132 14031.88407704
0.07300000 1272326.49538906 15535.10723661
0.07400000 1263156.57887403 25578.92192093
0.07500000 1253940.98589322 15724.42070014
0.07600000 1244683.54679533 17251.31476734
0.07700000 1235387.59578406 15899.43910324
0.07800000 1226054.54322329 17434.49642225
0.07900000 1216686.37110973 23360.37942100
0.08000000 1207287.96323964 23469.67910637
0.08100000 1197860.20626556 14733.68122834
0.08200000 1188404.35380809 19234.32536896
0.08300000 1178924.05491417 16339.88816797
0.08400000 1169422.20902457 20874.18741089
0.08500000 1159900.48630110 14962.71697571
0.08600000 1150361.70250428 16513.44301478
0.08700000 1140807.90436847 16564.53154926
0.08800000 1131240.69857850 18122.47684233
0.08900000 1121663.57695064 18170.95080008
0.09000000 1112078.69165372 19733.83731040
0.09100000 1102487.84567501 16735.76628361
0.09200000 1092892.71294348 16770.43946811
0.09300000 1083297.85947800 16801.95059006
0.09400000 1073701.76568270 16830.27596806
0.09500000 1064108.69286454 21452.43225647
0.09600000 1054520.29216055 21480.57936106
0.09700000 1044941.42683465 15360.63969662
0.09800000 1035370.64134844 15375.25474693
0.09900000 1025812.18833547 16925.90190343
0.10000000 1016265.37801103 15396.42120092
0.10100000 1006733.94977132 20023.93920271
0.10200000 997220.08578229 15407.05105003
0.10300000 987724.79527932 24653.61204990
0.10400000 978250.92461651 23111.17918133
0.10500000 968801.64357279 21565.52560057
0.10600001 959373.51278670 21557.12384666
0.10700001 949974.21836031 16928.54136780
0.10800001 940601.38702620 16916.71674180
0.10900001 931259.42322206 16902.35932700
0.11000001 921949.01475897 15350.45181828
0.11100001 912670.86283492 22999.30682609
0.11200001 903428.11364715 21438.35014610
0.11300001 894220.87149476 24465.88419597
0.11400001 885051.50781231 25954.13668863
0.11500001 875922.10417981 16765.14986344
0.11600001 866833.18098253 19776.79995544
0.11700001 857786.59878694 18219.38821628
0.11800001 848782.44775116 19695.99762771
0.11900001 839822.62501957 18140.16955485
0.12000001 830908.55868683 18097.18926067
0.12100001 822043.23614431 15043.39193011
0.12200001 813225.48122806 21005.61516972
0.12300001 804458.22701378 22444.38559114
0.12400001 795740.92658073 20888.20030694
0.12500001 787074.67784498 16363.28332344
0.12600001 778463.09977606 20761.61184939
0.12700001 769904.64291421 17738.60380870
0.12800001 761400.76523034 19153.03715204
0.12900001 752953.03782349 16150.84342254
0.13000001 744562.14437361 17556.77619187
0.13100001 736227.82892781 16035.04286990
0.13200001 727952.03469997 15974.90815455
0.13300001 719736.53987609 20253.38718692
0.13400001 711579.73099717 18732.33730165
0.13500001 703484.38003614 20091.51484111
0.13600001 695449.47766130 24295.52864765
0.13700001 687477.24269894 18500.01347336
0.13800001 679566.26274842 15585.85297110
0.13900001 671719.76814246 18337.95053507
0.14000001 663936.23753628 14042.25208613
0.14100001 656216.73534053 15375.15883417
0.14200001 648561.41833085 16693.97169521
0.14300001 640972.31468266 19383.00371025
0.14400001 633445.98307631 15155.19585997
0.14500001 625987.37014499 16450.94886344
0.14600001 618594.04603310 20459.99903773
0.14700001 611268.77766592 16284.20100525
0.14800001 604007.06676429 16199.47029489
0.14900001 596813.58338301 16113.96751161
0.15000001 589686.50995741 17363.32010495
0.15100001 582626.97670178 14612.28526516
0.15200001 575634.85032500 15852.98452601
0.15300001 568711.06611825 19705.83937090
0.15400001 561852.13757522 14369.36909659
0.15500001 555062.71696985 18183.85546608
0.15600001 548337.99178506 15496.03237918
0.15700001 541684.39682743 14121.71289179
0.15800001 535094.49413099 19143.00643106
0.15900001 528574.26541659 13954.36126565
0.16000001 522118.88562957 16391.92318808
0.16100001 515733.55211083 16292.02368023
0.16200001 509413.96105983 13700.68912946
0.16300001 503160.93587491 14853.31152822
0.16400001 496974.79087608 23370.24064425
0.16500001 490854.63959299 12222.28110290
0.16600001 484801.64218570 12144.28171012
0.16700001 478812.89140974 13272.69397654
0.16800001 472889.48258315 15584.07363435
0.16900001 467033.49252839 14291.22554617
0.17000001 461240.93961929 11830.83065988
0.17100001 455513.03978366 11752.23698137
0.17200001 449850.11354158 12840.97209743
0.17300001 444251.01580824 19711.41850227
0.17400001 438715.60778466 23032.57049643
0.17500001 433243.20483675 11437.62114786
0.17600001 427832.24110677 12494.84119164
0.17700001 422485.55671494 11280.36489707
0.17800001 417199.04674405 12321.97442758
0.17900001 411974.75094856 18909.64196171
0.18000001 406811.41830913 14358.40968744
0.18100001 401709.95674803 13160.01880470
0.18200001 396665.83812564 14155.02110217
0.18300001 391682.41374260 15134.60918196
0.18400001 386757.43286406 15025.52697659
0.18500001 381892.51507130 13851.24217600
0.18600001 377083.75306584 10577.19977320
0.18700001 372332.22046546 11549.74602450
0.18800001 367637.49510304 13549.28052217
0.18900001 363000.81807450 11380.07618432
0.19000001 358416.06798857 12322.34499966
0.19100001 353890.78965822 12230.46626848
0.19200001 349416.81191815 13150.30233791
0.19300001 344999.05948468 15059.20965809
0.19400001 340632.76036519 11956.21045380
0.19500001 336320.30123492 10876.59905591
0.19600001 332059.66466118 11774.83626532
0.19700001 327850.26742757 12658.29942358
0.19800001 323692.42454443 12560.88512806
0.19900001 319585.13596227 14381.33179796
0.20000001 315526.28483464 10464.42973110
0.20100001 311518.26877671 11326.80478805
0.20200001 307557.21580450 10301.62943026
0.20300001 303645.80561421 10220.71830005
0.20400001 299780.89913900 13827.39462635
0.20500001 295962.71552037 14632.39734695
0.20600001 292190.65644250 11794.27640479
0.20700001 288464.74990953 11700.13080938
0.20800001 284782.43216032 10713.51560430
0.20900001 281147.03585416 10627.35845766
0.21000001 277553.34557544 8784.56380273
0.21100001 274003.70664116 10455.98193972
0.21200001 270496.19689762 10370.82467933
0.21300001 267030.10454956 10286.00011352
0.21400001 263606.53601668 12751.96678268
0.21500001 260224.58363710 9274.40459930
0.21600001 256881.88706958 10033.80698332
0.21700001 253579.32457920 9121.24873636
0.21800001 250316.15684288 9045.17475518
0.21900001 247090.63084088 10600.18856427
0.22000001 243903.11687696 8893.92757745
0.22100001 240754.79245310 8818.84846454
0.22200001 237643.42443463 8744.09021553
0.22300001 234567.29640689 8669.60768514
0.22400001 231526.76926907 8595.43171556
0.22500001 228524.22006400 9296.36571180
0.22600001 225554.28652085 8448.13620114
0.22700001 222621.13081301 8375.00733723
0.22800001 219720.51547088 7547.40006334
0.22900001 216852.70787151 8977.70253044
0.23000001 214019.20711067 8157.34246480
0.23100001 211218.94973363 8820.50375802
0.23200001 208449.02050610 7285.29361124
0.23300001 205711.40056669 9386.61165179
0.23400001 203005.85421305 7155.95669945
0.23500001 200329.12546077 10637.47706508
0.23600001 197684.46370751 7027.68301719
0.23700001 195068.99192780 6963.96334120
0.23800001 192483.31258767 9660.73791572
0.23900001 189926.25351791 8888.54908506
0.24000001 187397.83519613 7451.87526905
0.24100001 184898.86625715 7383.01207887
0.24200001 182427.20276195 7979.36622625
0.24300001 179983.21357478 7246.12452128
0.24400001 177566.11660527 8483.22162210
0.24500001 175175.75820883 8403.18151878
0.24600001 172812.18135631 7683.22994656
0.24700001 170474.86886925 8244.16504851
0.24800001 168163.29835576 9421.34923607
0.24900001 165876.30061966 8708.50619451
0.25000001 163615.66563769 6776.14311295
0.25100001 161378.43432178 7320.12612714
0.25200001 159167.57110033 6040.40960903
0.25300001 156980.58472808 10167.63295387
0.25400001 154817.06367507 5921.75296574
0.25500001 152676.86914980 7035.35046328
0.25600001 150560.83396872 5804.12042410
0.25700001 148467.06754113 6320.24336426
0.25800001 146396.97495915 6825.02729552
0.25900001 144349.39020268 7881.47707798
0.26000001 142324.05819065 6686.38457017
0.26100001 140320.16796145 7168.95772036
0.26200001 138339.29338829 6548.98245888
0.26300001 136379.13569893 7560.85964091
0.26400001 134440.63804836 7481.62186141
0.26500001 132523.97182476 5816.47739862
0.26600001 130627.18658519 5231.61907029
0.26700001 128752.37609091 5693.43034015
0.26800001 126898.39029615 6656.45537797
0.26900001 125063.41476895 5065.06853783
0.27000001 123249.82628780 6513.13737839
0.27100001 121455.67052617 6937.54822876
0.27200001 119682.76351799 4901.00939799
0.27300001 117928.62879290 5331.55356004
0.27400001 116192.20725575 6710.10028657
0.27500001 114478.15954640 5213.33563247
0.27600001 112780.72387909 6560.45501853
0.27700001 111104.19995657 6486.26350044
0.27800001 109445.37398764 4580.28911816
0.27900001 107806.68960709 4980.66929557
0.28000001 106184.98904633 7161.11600021
0.28100001 104582.73733007 4423.84999844
0.28200001 102999.18995255 6558.47373064
0.28300001 101433.41152844 4753.16988919
0.28400001 99885.47772604  5551.13568736
0.28500001 98356.00000654  5063.36711999
0.28600001 96844.06955655  4586.05113092
0.28700001 95349.89610832  5766.76198959
0.28800001 93872.57183520  4476.31379984
0.28900001 92414.58471406  4824.04155041
0.29000001 90972.37795768  3970.94448581
0.29100001 89548.36279417  4706.66217125
0.29200001 88141.28508383  4261.19062908
0.29300001 86751.30904376  6886.31923786
0.29400001 85377.59425726  4911.34634213
0.29500001 84021.93530214  4103.63151441
0.29600001 82682.33211295  4788.54749100
0.29700001 81359.34744468  4364.11560352
0.29800001 80052.91030108  4667.48515606
0.29900001 78763.56061533  5670.97663276
0.30000001 77489.69750363  4198.39200950
0.30100001 76233.24043300  5180.04893265
0.30200001 74991.30822239  3749.19063207
0.30300001 73766.96762046  4036.52865929
0.30400001 72558.43202696  4979.32263358
0.30500001 71365.47746742  4585.94579917
0.30600001 70187.53597115  4524.99065829
0.30700001 69026.54868627  4464.63738040
0.30800001 67880.64677960  3775.52175263
0.30900001 66750.37849809  3414.28202182
0.31000001 65636.05051268  3368.11409152
0.31100001 64535.89189625  3322.30787211
0.31200001 63451.90686636  3276.97388526
0.31300001 62382.46446540  3525.85705852
0.31400001 61329.27844125  3187.58939791
0.31500001 60290.05102030  4000.84797514
0.31600002 59266.21434311  4790.78466326
0.31700002 58257.02451514  3334.63224113
0.31800002 57262.72463768  3014.02365401
0.31900002 56283.09695752  3782.22429463
0.32000002 55318.27245264  3995.36241707
0.32100002 54367.15431751  3676.30714902
0.32200002 53431.75739591  2847.64564525
0.32300002 52508.83282928  3827.89409451
0.32400002 51600.80994267  3270.20148497
0.32500002 50706.80245360  3223.43158461
0.32600002 49827.31816928  3177.23909351
0.32700002 48960.92454665  2890.65312211
0.32800002 48109.25521083  4036.12615704
0.32900002 47270.50202049  3041.85694906
0.33000002 46446.26806882  2306.05731882
0.33100002 45633.07652509  2499.78005042
0.33200002 44836.47140206  2687.49822311
0.33300002 44051.56872128  2206.98369745
0.33400002 43280.34326024  3479.73976291
0.33500002 42521.29382336  2571.68797222
0.33600002 41776.23919463  3167.68348694
0.33700002 41042.95653779  3329.40479202
0.33800002 40323.62929681  3075.68497027
0.33900002 39615.83176346  2626.52977030
0.34000002 38921.20674029  2588.06576476
0.34100002 38238.70222751  3138.63282747
0.34200002 37569.13524012  3285.98456940
0.34300002 36910.79994633  2666.43631440
0.34400002 36265.84415166  2627.46053322
0.34500002 35631.98636660  2219.16021601
0.34600002 35010.96376557  2186.78490036
0.34700002 34400.00619973  1975.24844954
0.34800002 33802.35074935  2123.46377464
0.34900002 33215.44458430  1743.81092327
0.35000002 32640.18895451  1890.35663283
0.35100002 32076.70701296  1693.65021050
0.35200002 31523.11341100  1669.14893417
0.35300002 30981.15294144  2138.62908884
0.35400002 30450.52888927  2432.23611023
0.35500002 29930.68300591  2077.78811268
0.35600002 29420.58797175  1890.56707261
0.35700002 28921.63238928  1708.40090615
0.35800002 28433.64706314  1837.38236025
0.35900002 27955.84416145  1660.57722184
0.36000002 27488.48680452  1637.35179407
0.36100002 27030.39127704  1908.07541062
0.36200002 26583.52939953  1736.96789324
0.36300002 26145.41622130  1570.29377263
0.36400002 25717.17928794  1408.01563271
0.36500002 25298.35845729  1527.76793960
0.36600002 24889.51953182  1507.18492664
0.36700002 24489.37878325  1486.99515016
0.36800002 24100.03646778  1600.72449801
0.36900002 23718.69995194  1579.66549163
0.37000002 23346.06765850  1299.20872674
0.37100002 22982.21783364  1410.64859745
0.37200002 22628.01176071  1392.64104978
0.37300002 22281.77635506  1875.01156910
0.37400002 21944.13211243  1604.66473674
0.37500002 21615.22957211  1219.09900562
0.37600002 21294.77497399  1565.48545637
0.37700002 20981.82422770  1784.50423510
0.37800002 20676.87082643  1175.48016217
0.37900002 20380.47478432  1277.85582951
0.38000002 20091.76716924  1607.54236736
0.38100002 19809.71646227  1248.60648777
0.38200002 19536.23433510  1571.29940201
0.38300002 19269.44138021  1331.90385130
0.38400002 19010.78539416  1097.87290852
0.38500002 18758.20447301  1303.32010853
0.38600002 18513.86165265  1182.20269184
0.38700002 18275.55935720  1595.45640747
0.38800002 18044.49466074  1263.47557600
0.38900002 17819.42042115  1459.41060163
0.39000002 17602.27078088  1032.37323021
0.39100002 17390.32570969  1124.80632019
0.39200002 17185.40180341  1215.69538117
0.39300002 16986.38005398  1505.84266313
0.39400002 16794.71590357  1094.59566087
0.39500002 16607.87713775  1085.15874359
0.39600002 16427.12558017  1271.70598704
0.39700002 16252.06601290  970.24838694
0.39800002 16083.00186624  1155.08124876
0.39900002 15919.22750898  1050.66906537
0.40000002 15760.79550891  1137.61427373
0.40100002 15608.12032043  1599.98848985
0.40200002 15460.81703427  1121.52772080
0.40300002 15318.03077210  1021.09997965
0.40400002 15180.73370747  1291.12146299
0.40500002 15048.51179535  1008.09985293
0.40600002 14920.96213274  1093.10973764
0.40700002 14798.20568075  1086.78027669
0.40800002 14680.18507062  1170.81821578
0.40900002 14566.45640021  1164.58824438
0.41000002 14457.72795456  891.31897063
0.41100002 14352.92465706  975.71186442
0.41200002 14252.13699831  882.91992888
0.41300002 14156.27784423  1142.83636452
0.41400002 14063.92522937  1050.57526441
0.41500002 13975.81846539  1133.71844763
0.41600002 13891.00785930  1042.65909932
0.41700002 13810.42300905  1039.09627644
0.41800002 13734.44387654  949.53082240
0.41900002 13660.14653780  1118.76605446
0.42000002 13590.61184120  944.07189628
0.42100002 13524.83172885  941.73407790
0.42200002 13462.40143097  1110.44623465
0.42300002 13402.57971014  937.64452095
0.42400002 13346.02934750  1191.13317571
0.42500002 13292.96923227  849.42077419
0.42600002 13242.08670771  1017.78683258
0.42700002 13195.44919390  931.86266623
0.42800002 13150.72806007  846.24939077
0.42900002 13109.97874082  1014.71240262
0.43000002 13071.26799027  1436.59777655
0.43100002 13034.46096716  1013.55973284
0.43200002 13001.23950512  1013.31665505
0.43300002 12970.37977992  928.80894005
0.43400002 12941.95103107  1266.69351719
0.43500002 12915.69183303  1182.56080027
0.43600002 12892.13841990  1014.09565617
0.43700002 12870.24584881  930.13271157
0.43800002 12850.51269521  846.20630108
0.43900002 12833.59105074  1270.52557423
0.44000002 12818.24317419  1187.09755662
0.44100002 12805.13486776  848.98048197
0.44200002 12793.82630450  1020.17975787
0.44300002 12784.47867543  1192.02484819
0.44400002 12777.25388145  938.16991071
0.44500002 12770.49294350  939.78062025
0.44600002 12765.98925877  855.95962037
0.44700002 12764.00859590  1115.06384378
0.44800002 12762.12376359  1375.24652194
0.44900002 12763.43716752  947.68525460
0.45000002 12765.50007998  1036.30334561
0.45100002 12768.72534579  1038.86354337
0.45200002 12773.50885277  1041.55196122
0.45300002 12779.29489528  1131.35103070
0.45400002 12786.82771618  959.97113629
0.45500002 12795.49212329  1137.77521353
0.45600002 12805.15262604  1053.35190494
0.45700002 12815.99777942  968.50499809
0.45800002 12827.55405919  1236.44799437
0.45900002 12840.27281780  1506.16407291
0.46000002 12854.73079591  1066.68561200
0.46100002 12868.99435625  1070.18562139
0.46200002 12885.02114848  1342.29714176
0.46300002 12901.91655902  1167.36546559
0.46400002 12918.80734307  1441.73896782
0.46500002 12937.13971840  904.30610918
0.46600002 12955.83443820  1452.08999266
0.46700002 12975.08963963  1275.19187022
0.46800002 12995.92317420  1188.54221023
0.46900002 13016.29800440  1009.41395808
0.47000002 13037.63358306  1565.88505571
0.47100002 13059.56193621  1017.07873180
0.47200002 13082.19673854  928.18190259
0.47300002 13105.40048976  1118.15282278
0.47400002 13128.33538376  1028.93333447
0.47500002 13152.13067870  1126.87460996
0.47600002 13176.75343654  1508.47480491
0.47700002 13200.88744030  1230.45477663
