# SAXS profile: number of points = 501, q_min = 0, q_max = 0.5, delta_q = 0.001
#    q    intensity    error
0.00000000 1646666.22097350 271.69992646
0.00100000 1646580.90065827 740.96142289
0.00200000 1646324.90407194 1037.18472241
0.00300000 1645898.45451106 1185.04692946
0.00400000 1645301.40996881 1357.37371480
0.00500000 1644534.44345120 1628.08916346
0.00600000 1643597.37228209 2070.93277339
0.00700000 1642490.93200632 2759.38488045
0.00800000 1641214.93407255 2215.64025454
0.00900000 1639770.77979487 3443.51878477
0.01000000 1638157.81666722 3243.55261706
0.01100000 1636377.59485129 2945.47979898
0.01200000 1634430.05594957 4780.70812326
0.01300000 1632316.52392238 5141.79727713
0.01400000 1630037.17653882 4034.34219078
0.01500000 1627593.46647655 5078.09184153
0.01600000 1624985.15988347 4558.08357724
0.01700000 1622214.31263760 4379.97884060
0.01800000 1619281.51729731 5076.44778515
0.01900000 1616187.78255851 5333.41992310
0.02000000 1612933.62741198 6604.96350303
0.02100000 1609522.00643651 5311.42286205
0.02200000 1605951.43417338 5540.53269962
0.02300000 1602225.04219686 8075.21458024
0.02400000 1598343.31247781 7791.92400362
0.02500000 1594308.79546584 7461.36550355
0.02600000 1590121.61585250 9659.98925814
0.02700000 1585783.99552701 13320.58617252
0.02800000 1581295.98775772 11005.82057952
0.02900000 1576661.31886833 7804.47388673
0.03000000 1571880.33448473 7309.24389133
0.03100000 1566954.68576236 9025.65940529
0.03200000 1561885.68236282 7731.33448379
0.03300000 1556677.29332136 8732.96001813
0.03400000 1551328.04548713 8958.91987606
0.03500000 1545841.96314582 10017.05638375
0.03600000 1540219.69278710 10257.86362802
0.03700000 1534464.29894873 10495.73629021
0.03800000 1528577.02405386 10730.61120547
0.03900000 1522560.76863983 10962.43804188
0.04000000 1516415.14866787 10258.54895611
0.04100000 1510144.63131380 16173.64975129
0.04200000 1503750.46965403 11639.02917509
0.04300000 1497234.32678579 11858.09641857
0.04400000 1490599.36368709 10061.54617217
0.04500000 1483847.75021279 11262.40494742
0.04600000 1476979.85402072 14577.79183686
0.04700000 1469999.95212910 13759.20019184
0.04800000 1462909.50012592 10752.38532621
0.04900000 1455710.94823701 19652.09871596
0.05000000 1448406.35306181 13296.37094027
0.05100000 1440999.39317925 11239.79579039
0.05200000 1433489.23003862 19373.60784681
0.05300000 1425881.48936388 15014.53278295
0.05400000 1418176.83796386 14039.95135058
0.05500000 1410378.93542806 13031.90197128
0.05600000 1402488.71007982 19186.04644919
0.05700000 1394510.91864621 14558.69467024
0.05800000 1386444.97151937 15951.05014212
0.05900000 1378294.72040974 17366.51428828
0.06000000 1370063.88239464 16296.91064246
0.06100000 1361753.81134827 16463.60434857
0.06200000 1353367.18428260 14068.25253822
0.06300000 1344907.47207259 18075.55726978
0.06400000 1336373.59292358 22150.39333861
0.06500000 1327772.64759696 15773.93979132
0.06600000 1319105.14648184 17234.10954514
0.06700000 1310372.43262827 14702.37938215
0.06800000 1301578.93165263 14818.47683050
0.06900000 1292727.91953663 17645.73692783
0.07000000 1283819.10812673 13672.67414182
0.07100000 1274856.86642299 15145.30028248
0.07200000 1265842.81196296 16633.17532840
0.07300000 1256780.74206858 15345.29357967
0.07400000 1247673.25232577 23861.75206899
0.07500000 1238520.93021246 19766.79497271
0.07600000 1229327.06999417 18458.34682130
0.07700000 1220095.49645425 19985.16516900
0.07800000 1210827.31752275 15783.13482408
0.07900000 1201524.48121270 18743.78278607
0.08000000 1192192.25324380 14485.13655643
0.08100000 1182830.92171281 14548.82101967
0.08200000 1173442.30069778 16070.29306216
0.08300000 1164029.45910180 14666.77187302
0.08400000 1154595.83140765 25025.86582044
0.08500000 1145142.77561516 16249.57674882
0.08600000 1135673.21118913 16302.58971205
0.08700000 1126188.91638143 23785.11103087
0.08800000 1116691.87073402 17889.40460931
0.08900000 1107185.36783608 14947.00316784
0.09000000 1097671.45650123 22474.82412763
0.09100000 1088152.04109882 16518.14875992
0.09200000 1078628.91436442 19560.93628110
0.09300000 1069106.40340031 19596.72129522
0.09400000 1059583.09430984 18118.87176424
0.09500000 1050063.27561674 18145.09425553
0.09600000 1040548.40997553 15139.98007684
0.09700000 1031043.48498483 22734.50991273
0.09800000 1021547.22892006 25788.96100662
0.09900000 1012063.29288550 16699.04511784
0.10000000 1002591.64051110 18227.11688166
0.10100000 993135.77009551 24311.96479537
0.10200000 983697.52961260 18237.75305685
0.10300000 974278.45042172 24317.99126646
0.10400000 964881.17352765 21275.63087720
0.10500000 955508.48323732 21269.61983758
0.10600001 946157.31622441 16704.40820394
0.10700001 936835.39140173 22765.10108233
0.10800001 927540.00871410 19714.86381303
0.10900001 918276.05846951 21212.17794901
0.11000001 909043.80160864 19676.25401197
0.11100001 899844.00624807 16629.11801825
0.11200001 890679.87954557 18116.42960283
0.11300001 881551.48904369 22611.79675855
0.11400001 872461.21850267 16554.95240057
0.11500001 863411.10281342 16525.68928601
0.11600001 854401.64444120 16494.22452267
0.11700001 845434.62509648 19453.45163963
0.11800001 836510.36685558 16424.88182679
0.11900001 827630.56685745 20856.29126717
0.12000001 818796.63380399 22291.73940536
0.12100001 810011.65789113 23717.14246032
0.12200001 801274.47561323 14783.51477153
0.12300001 792587.60184147 19164.76911546
0.12400001 783951.05767158 20578.71623350
0.12500001 775365.66619229 14654.41178156
0.12600001 766834.98361344 20451.48997672
0.12700001 758357.49871106 14560.46466143
0.12800001 749934.78690825 18864.61045375
0.12900001 741568.04604329 17352.69309528
0.13000001 733258.36304142 15849.38026420
0.13100001 725005.34914493 22968.17054358
0.13200001 716810.87443570 18590.49090485
0.13300001 708676.68664599 17093.28248773
0.13400001 700601.33962741 15605.89557595
0.13500001 692587.23878244 15541.65837104
0.13600001 684633.75056592 19696.91393251
0.13700001 676742.91891271 19612.01071486
0.13800001 668913.47067985 19525.58512989
0.13900001 661148.06189771 18049.34294098
0.14000001 653445.91690405 15202.41997373
0.14100001 645807.66547051 15131.27431561
0.14200001 638233.57565391 17797.14409652
0.14300001 630725.51706159 14986.03899224
0.14400001 623280.38717257 21690.15849673
0.14500001 615902.65770148 22930.05702789
0.14600001 608590.36393618 16103.30178941
0.14700001 601345.86172964 16019.85451224
0.14800001 594164.91699468 18591.42112988
0.14900001 587051.97450715 17171.27106449
0.15000001 580005.42612911 17078.26057817
0.15100001 573026.34400677 13065.00125983
0.15200001 566114.36167408 15590.79025619
0.15300001 559270.59583974 18086.81192296
0.15400001 552491.70592013 17983.60587636
0.15500001 545781.98503068 20434.07848389
0.15600001 539136.87570494 13966.34142428
0.15700001 532562.77347812 15146.08599257
0.15800001 526051.98555596 13800.97449245
0.15900001 519610.88877934 13717.72811126
0.16000001 513234.37693148 13634.07186675
0.16100001 506927.85077403 12318.34735529
0.16200001 500686.61953085 12241.78842542
0.16300001 494511.86820624 15814.49029180
0.16400001 488403.68853566 16923.18860670
0.16500001 482361.33229294 15614.03706348
0.16600001 476385.77684351 14320.15712801
0.16700001 470474.30013326 14227.14350776
0.16800001 464627.92663011 11778.31849620
0.16900001 458848.78032808 12870.70889593
0.17000001 453132.69468510 12785.13958425
0.17100001 447480.99115384 16163.01416372
0.17200001 441894.04962389 12613.86624218
0.17300001 436370.58185387 11389.27272424
0.17400001 430910.52484239 13573.68217357
0.17500001 425513.16389946 15726.96728047
0.17600001 420177.06129315 16733.55225631
0.17700001 414904.80289637 15509.14226477
0.17800001 409692.28068222 12100.26208147
0.17900001 404541.91022171 13107.15851028
0.18000001 399451.98857140 13014.14640238
0.18100001 394423.72059791 10767.76808095
0.18200001 389452.42309016 13897.61037447
0.18300001 384541.38928414 12736.01141473
0.18400001 379688.60590926 11589.99524290
0.18500001 374895.44378420 13597.45838843
0.18600001 370158.05135156 10382.93383094
0.18700001 365477.58459471 15459.70255875
0.18800001 360853.53254543 14322.27738340
0.18900001 356287.17076506 10154.18484656
0.19000001 351772.34428775 14109.58939604
0.19100001 347316.62300815 15004.07882290
0.19200001 342911.72075061 12905.48322025
0.19300001 338562.78881389 13793.04866804
0.19400001 334264.82208597 11732.69580963
0.19500001 330020.44316459 19405.20297507
0.19600001 325827.34831973 12516.65817719
0.19700001 321685.07959808 10509.45204712
0.19800001 317593.95924364 10428.19814459
0.19900001 313552.99052367 12228.56720834
0.20000001 309560.14559806 11199.88659706
0.20100001 305617.53597240 12964.29648867
0.20200001 301721.58915784 11024.90738890
0.20300001 297874.75587566 9114.96796061
0.20400001 294074.15219475 10851.33672888
0.20500001 290319.74606373 9867.96863513
0.20600001 286611.01661275 9789.19973512
0.20700001 282947.98995839 14124.76432639
0.20800001 279328.27458915 11384.02436901
0.20900001 275754.96732804 10423.53825773
0.21000001 272222.82147608 10339.02324841
0.21100001 268734.25774221 9400.32478021
0.21200001 265287.56904395 12713.90734747
0.21300001 261881.64208703 10087.68133009
0.21400001 258517.83163229 9170.92051072
0.21500001 255195.25629118 8268.32669474
0.21600001 251911.46147144 9019.69030442
0.21700001 248667.37150858 8944.56577606
0.21800001 245462.06640467 12095.14389396
0.21900001 242294.03710805 8795.27396288
0.22000001 239163.68474822 9513.93182913
0.22100001 236071.86630501 8647.31287163
0.22200001 233016.67866185 11691.61240469
0.22300001 229996.06268541 11591.80210747
0.22400001 227010.97357874 9193.94486469
0.22500001 224062.95659247 8355.30804643
0.22600001 221147.18970582 8283.06838212
0.22700001 218267.75193422 11197.13620373
0.22800001 215420.57597176 8879.63656147
0.22900001 212605.60545403 11002.34060256
0.23000001 209824.46616510 7997.45990610
0.23100001 207076.04668557 8647.49611855
0.23200001 204357.52429235 11427.67329888
0.23300001 201670.85279527 8494.37672147
0.23400001 199015.76802801 10522.95923217
0.23500001 196389.08646544 6952.17398969
0.23600001 193793.85920590 7578.30922268
0.23700001 191227.54500680 7509.50604760
0.23800001 188690.40453807 8117.46158717
0.23900001 186181.52836601 10724.05654113
0.24000001 183700.77273693 7968.93989826
0.24100001 181248.96110017 7237.27135906
0.24200001 178823.99029911 7169.94823020
0.24300001 176426.31364939 8394.36440052
0.24400001 174054.88531397 8955.12427301
0.24500001 171709.89547672 7603.31453138
0.24600001 169391.19951082 6903.53866264
0.24700001 167098.22680246 8702.47606355
0.24800001 164830.60879591 8618.99294167
0.24900001 162587.07416733 7316.41868365
0.25000001 160369.40009553 9660.65311878
0.25100001 158174.61447317 7174.80085194
0.25200001 156005.96437320 6512.46929086
0.25300001 153860.60594937 6448.29830041
0.25400001 151738.25330026 7545.18500233
0.25500001 149638.83366763 5746.13148470
0.25600001 147563.00312572 7963.97565549
0.25700001 145509.04326780 6194.32026498
0.25800001 143478.31357859 7246.37257014
0.25900001 141469.60589876 5517.31489110
0.26000001 139482.81428800 6552.90292530
0.26100001 137516.86677191 5944.85443184
0.26200001 135573.67201241 8022.57242094
0.26300001 133650.69444416 8468.10840067
0.26400001 131748.95890106 6808.12777336
0.26500001 129868.55533265 7772.63340445
0.26600001 128007.63206266 5639.37649737
0.26700001 126168.27771640 5579.16150463
0.26800001 124349.24166780 5519.24135260
0.26900001 122548.92733302 6452.20132941
0.27000001 120769.49975961 5891.13647706
0.27100001 119009.10191089 5341.12874652
0.27200001 117269.52282467 5282.40590562
0.27300001 115548.26938516 5223.93750612
0.27400001 113844.38044409 6574.51328178
0.27500001 112162.44613454 4643.52548973
0.27600001 110496.60245356 6427.58766892
0.27700001 108851.48112568 5446.92837331
0.27800001 107223.55494434 5833.49778283
0.27900001 105615.34363737 4435.84464271
0.28000001 104023.79954681 4823.06369426
0.28100001 102451.21036196 4767.05504376
0.28200001 100896.97774563 4711.38459882
0.28300001 99360.13362711  5502.56446071
0.28400001 97840.78897484  4600.96331931
0.28500001 96339.45268343  4959.55525889
0.28600001 94855.41849750  4900.23115152
0.28700001 93388.59646466  4034.38755823
0.28800001 91938.38894839  5978.29402434
0.28900001 90507.07056862  5118.17508292
0.29000001 89091.23168736  4666.59893667
0.29100001 87693.18966252  4609.15426684
0.29200001 86311.76230495  4931.42277272
0.29300001 84947.06676190  4495.39898583
0.29400001 83598.22613589  4069.14384978
0.29500001 82267.16897038  4017.92872271
0.29600001 80951.74641390  3606.40047346
0.29700001 79652.72954172  3560.47717906
0.29800001 78369.92399980  4569.35863512
0.29900001 77103.74138816  5204.50279008
0.30000001 75852.81473535  5479.60759588
0.30100001 74618.89759815  4732.33070970
0.30200001 73399.18006928  4003.19147049
0.30300001 72196.77152490  4609.04211235
0.30400001 71009.88074026  4223.31285697
0.30500001 69838.34489489  4487.81225541
0.30600001 68681.32460580  3479.05266261
0.30700001 67541.04724210  3744.47583638
0.30800001 66415.49070970  3386.19395415
0.30900001 65305.34940264  3340.36878009
0.31000001 64210.79215349  3894.06367451
0.31100001 63130.16391491  3545.39017332
0.31200001 62065.46186548  3205.37092980
0.31300001 61014.96927944  4310.70778369
0.31400001 59980.45463321  2834.07661560
0.31500001 58959.61344291  4471.49729522
0.31600002 57953.90935023  3031.27937209
0.31700002 56962.56137379  2988.82573680
0.31800002 55985.81537512  2946.81353180
0.31900002 55023.54592654  3433.46942839
0.32000002 54075.75897785  3124.49750168
0.32100002 53141.40374150  2566.72992225
0.32200002 52222.61405686  2783.20434795
0.32300002 51315.99213331  2992.74880292
0.32400002 50424.15273086  2703.99531823
0.32500002 49545.96794501  2665.07774196
0.32600002 48682.00693579  2865.42306392
0.32700002 47830.98297320  2823.94136846
0.32800002 46994.47287971  3246.84828501
0.32900002 46170.60488226  2285.44504990
0.33000002 45361.05000897  2702.61148751
0.33100002 44562.29237309  2441.12249180
0.33200002 43779.91898699  2624.16846835
0.33300002 43009.05782836  2370.22928916
0.33400002 42251.63264307  3184.71696129
0.33500002 41506.18572460  2928.67660342
0.33600002 40774.49868189  2885.61140837
0.33700002 40054.50025413  2030.76325905
0.33800002 39348.13762744  3001.27933967
0.33900002 38653.14893564  2956.96603361
0.34000002 37971.13660946  2330.66847547
0.34100002 37301.03580819  1913.54322758
0.34200002 36643.75223747  2827.98171286
0.34300002 35997.53745661  2600.46222902
0.34400002 35364.40100025  2379.14018997
0.34500002 34742.27433338  2163.74894796
0.34600002 34132.79079402  2131.93421396
0.34700002 33533.19928931  1750.43308580
0.34800002 32946.79329825  1724.76471085
0.34900002 32370.92069966  2379.26278411
0.35000002 31806.51392087  1674.61303725
0.35100002 31253.78327110  1980.23980185
0.35200002 30710.73925141  2439.20058057
0.35300002 30179.21707798  1602.51650274
0.35400002 29658.88034776  2369.00317998
0.35500002 29149.11750565  1867.87553823
0.35600002 28649.02169969  1687.57070315
0.35700002 28159.96862721  1814.62846429
0.35800002 27681.65215895  1639.72274330
0.35900002 27213.38894277  1616.47537977
0.36000002 26755.49500205  1448.81012299
0.36100002 26306.73210999  1999.83786973
0.36200002 25869.05489072  1549.42711607
0.36300002 25439.98709870  1527.92569752
0.36400002 25020.67248227  2191.81101327
0.36500002 24610.67481679  1351.12611144
0.36600002 24210.55011103  1599.34901609
0.36700002 23819.05933397  1709.25577877
0.36800002 23438.14002244  1686.49144520
0.36900002 23065.15086778  1408.12752718
0.37000002 22700.75932847  1389.62704812
0.37100002 22345.15618770  1371.54575177
0.37200002 21998.96812234  1600.09502217
0.37300002 21660.67588697  1336.68037230
0.37400002 21330.87870342  1319.84818230
0.37500002 21009.77677258  1303.44661272
0.37600002 20696.90156110  1404.49180647
0.37700002 20391.55644920  1271.82143598
0.37800002 20094.13777387  1142.35178656
0.37900002 19805.09245272  1241.77935561
0.38000002 19523.68371790  1673.66786600
0.38100002 19248.86715058  1764.73622397
0.38200002 18982.48164573  1744.86979554
0.38300002 18722.79864429  1078.43325300
0.38400002 18471.14002580  1493.39174183
0.38500002 18225.49034453  1160.78153503
0.38600002 17987.92900807  1357.45912690
0.38700002 17756.47833767  1446.79792350
0.38800002 17532.04998375  1534.49274752
0.38900002 17313.60683938  1215.41525771
0.39000002 17102.98169851  1404.32589380
0.39100002 16897.55737012  1490.36463065
0.39200002 16699.05711675  1378.17324914
0.39300002 16506.40225698  1170.63410353
0.39400002 16321.03189368  1450.53177827
0.39500002 16140.45910734  1054.61764804
0.39600002 15965.89686991  950.76920365
0.39700002 15796.96009660  1131.69427494
0.39800002 15633.93532196  1497.10571736
0.39900002 15476.18912502  1114.28566980
0.40000002 15323.77382154  1013.89754294
0.40100002 15177.03673459  1006.69289430
0.40200002 15035.55181802  1181.56889560
0.40300002 14898.60041934  902.85522819
0.40400002 14767.09920538  1614.78237462
0.40500002 14640.51627995  1426.57197391
0.40600002 14518.78529675  1063.64626124
0.40700002 14401.58252607  1057.65227083
0.40800002 14289.13771135  1051.96636815
0.40900002 14180.99341158  1220.98359059
0.41000002 14077.72675275  954.68108497
0.41100002 13978.40824212  950.25223732
0.41200002 13883.04837831  1032.06586535
0.41300002 13792.60326897  942.17277395
0.41400002 13705.58677685  1109.12466247
0.41500002 13622.78332696  1020.07406386
0.41600002 13543.29702554  1185.98657672
0.41700002 13467.94396646  1266.66019006
0.41800002 13397.17879303  1263.01909056
0.41900002 13328.08226097  1007.60306667
0.42000002 13263.66384863  921.36045290
0.42100002 13202.97770149  835.74852811
0.42200002 13145.64079689  1167.72732732
0.42300002 13090.89453667  1248.87139798
0.42400002 13039.33848649  914.38365469
0.42500002 12991.31811192  1162.20337336
0.42600002 12945.39478928  1160.81360576
0.42700002 12903.68871944  1408.30865357
0.42800002 12863.87715430  993.34864093
0.42900002 12827.99093654  992.88654554
0.43000002 12794.19439474  1488.86047227
0.43100002 12762.18442092  1405.88230243
0.43200002 12733.79506393  1323.29604575
0.43300002 12707.68164772  827.27011447
0.43400002 12683.99382410  1158.68289074
0.43500002 12662.45698374  910.93719858
0.43600002 12643.60557708  994.54606182
0.43700002 12626.37522386  1161.37404813
0.43800002 12611.36805670  996.55035107
0.43900002 12599.06428780  831.53828240
0.44000002 12588.28398155  999.25802981
0.44100002 12579.78793261  1000.84797535
0.44200002 12573.00226750  1002.57124832
0.44300002 12568.22754648  837.04399426
0.44400002 12565.55079079  922.62561054
0.44500002 12563.26713485  1344.77217784
0.44600002 12563.23481564  842.36493431
0.44700002 12565.71535557  1182.18255668
0.44800002 12568.29901033  1015.76997415
0.44900002 12573.95643006  1103.36472903
0.45000002 12580.43804031  1191.49334326
0.45100002 12588.05211079  1194.85796298
0.45200002 12597.11488631  1626.35059447
0.45300002 12607.26516108  858.55479816
0.45400002 12619.12349633  1033.50626333
0.45500002 12632.04095581  1036.83797079
0.45600002 12645.98005367  953.57017114
0.45700002 12661.04466922  1043.77657200
0.45800002 12676.76183835  1221.91313151
0.45900002 12693.77183333  1313.80544702
0.46000002 12712.32527714  879.05733458
0.46100002 12730.76121169  1058.69015254
0.46200002 12750.90957995  1151.21592599
0.46300002 12771.90848389  1155.60233439
0.46400002 12792.84653635  1427.68174112
0.46500002 12815.27407079  895.78770000
0.46600002 12838.00547253  989.23255857
0.46700002 12861.34394168  1173.72630375
0.46800002 12886.12793315  1178.50088598
0.46900002 12910.46520854  1001.20662438
0.47000002 12935.73510088  1005.30070101
0.47100002 12961.60662662  1192.98633046
0.47200002 12988.14796956  1013.66005633
0.47300002 13015.21639528  1388.07289435
0.47400002 13042.03956409  1486.79258078
0.47500002 13069.63078183  1399.75752308
0.47600002 13098.07493168  937.16730578
0.47700002 13126.00611797  1129.36161992
