# SAXS profile: number of points = 501, q_min = 0, q_max = 0.5, delta_q = 0.001
#    q    intensity    error
0.00000000 1628779.37420969 268.74859674
0.00100000 1628694.49098372 586.33003068
0.00200000 1628439.80666859 1025.91711069
0.00300000 1628015.54672402 1172.17123540
0.00400000 1627421.55410307 1464.67945435
0.00500000 1626658.52129400 1610.39199982
0.00600000 1625726.24079567 2389.81767126
0.00700000 1624625.49203657 2339.46080576
0.00800000 1623356.04129164 2848.98997275
0.00900000 1621919.27707770 3892.60643139
0.01000000 1620314.59703798 2940.87112061
0.01100000 1618543.53968122 3204.71634810
0.01200000 1616606.00762167 3467.62003838
0.01300000 1614503.35423006 3729.50291276
0.01400000 1612235.75082391 3627.53060017
0.01500000 1609804.65157619 4249.88446940
0.01600000 1607209.77501758 6557.41617521
0.01700000 1604453.27638663 5198.42884869
0.01800000 1601535.66714707 6390.12759946
0.01900000 1598457.89387812 5754.44867762
0.02000000 1595220.68204740 5024.94537576
0.02100000 1591826.73479208 5778.33130928
0.02200000 1588274.71588570 7671.36722626
0.02300000 1584567.73931820 6274.88853332
0.02400000 1580706.28378338 8891.47325171
0.02500000 1576692.76054029 6149.10204694
0.02600000 1572527.57074500 7005.61064809
0.02700000 1568212.61367164 8562.44126282
0.02800000 1563748.18748711 9523.22689853
0.02900000 1559137.86690406 11225.79315713
0.03000000 1554382.04882776 13732.96603263
0.03100000 1549482.45242496 9668.77094802
0.03200000 1544440.24557446 10702.97139479
0.03300000 1539259.41488234 7850.22337780
0.03400000 1533938.56602335 12079.76676480
0.03500000 1528481.75017874 9079.18201532
0.03600000 1522889.42781880 8452.03671499
0.03700000 1517164.80808162 10377.40776721
0.03800000 1511309.18158533 13261.73868216
0.03900000 1505325.12143868 9031.95114690
0.04000000 1499212.63339619 10142.17393490
0.04100000 1492975.98907812 11286.89900077
0.04200000 1486616.50737984 13424.14768442
0.04300000 1480135.77843335 11722.67590933
0.04400000 1473536.84038840 10941.01154801
0.04500000 1466822.11888894 11133.18039967
0.04600000 1459991.80910606 11322.23700595
0.04700000 1453050.37540920 10461.96318951
0.04800000 1445998.88543948 11690.90153273
0.04900000 1438840.13911782 14028.69200940
0.05000000 1431576.02014930 12046.71277053
0.05100000 1424210.35481220 12219.72541353
0.05200000 1416742.06762755 12389.40995877
0.05300000 1409176.94350181 18262.93403916
0.05400000 1401515.51048143 18500.00560108
0.05500000 1393761.67625644 16390.63807739
0.05600000 1385915.95592873 17774.37296421
0.05700000 1377983.49791538 14386.14838976
0.05800000 1369963.53704812 15761.43122968
0.05900000 1361859.93955220 14708.08803412
0.06000000 1353676.45564123 14863.36817734
0.06100000 1345414.20270782 17517.29373786
0.06200000 1337076.12869647 13898.90700748
0.06300000 1328665.50267078 14030.70836421
0.06400000 1320181.34185069 15446.12242202
0.06500000 1311630.90496397 18179.20519318
0.06600000 1303014.40626910 18333.41355400
0.06700000 1294333.33320735 18483.08086319
0.06800000 1285591.83889732 15967.05138651
0.06900000 1276793.62668325 14746.96707863
0.07000000 1267938.17917526 14853.89646462
0.07100000 1259029.90128099 13597.52357071
0.07200000 1250070.28874363 15057.09733329
0.07300000 1241063.18452675 15153.38219309
0.07400000 1232011.21902028 16632.15223623
0.07500000 1222914.92665887 16729.47698085
0.07600000 1213777.61015415 14019.13205451
0.07700000 1204603.13318727 19731.40024678
0.07800000 1195392.61862775 16998.48383405
0.07900000 1186147.75265113 24197.41528903
0.08000000 1176874.15931886 18588.72821846
0.08100000 1167571.88039423 21541.70220397
0.08200000 1158242.78752734 27398.23442463
0.08300000 1148889.91362899 14476.01359111
0.08400000 1139516.76346333 18887.49124096
0.08500000 1130124.67538257 23325.77439493
0.08600000 1120716.32245917 21938.02304216
0.08700000 1111293.85502889 17602.89549025
0.08800000 1101858.96034105 19122.76315480
0.08900000 1092415.10349391 22121.40688479
0.09000000 1082964.25349202 19217.20158095
0.09100000 1073508.03156529 19258.73499108
0.09200000 1064048.72777095 20780.87262979
0.09300000 1054590.36397221 17843.66979692
0.09400000 1045131.59567955 16382.43853221
0.09500000 1035676.60002509 20879.24123789
0.09600000 1026227.04389772 20904.24586686
0.09700000 1016787.71737903 17936.13617779
0.09800000 1007357.41191395 19447.03575135
0.09900000 997939.54596572 14969.09389337
0.10000000 988534.53797481 17971.55874553
0.10100000 979145.51124471 16479.01972929
0.10200000 969774.25945900 14983.01301339
0.10300000 960422.70886826 16480.85445945
0.10400000 951093.06352656 16477.68810079
0.10500000 941788.43486221 19466.76786450
0.10600001 932505.45051003 22450.06977738
0.10700001 923251.99658948 14956.68304858
0.10800001 914025.27207404 16438.74529189
0.10900001 904830.30280336 16422.67076882
0.11000001 895667.18976773 26843.14694083
0.11100001 886536.65044797 14893.81642863
0.11200001 877442.30318325 16359.91251303
0.11300001 868383.79471092 16334.29994754
0.11400001 859363.51310172 20753.62981858
0.11500001 850383.33380143 14796.67070489
0.11600001 841444.43130008 20674.29065063
0.11700001 832547.77663470 20630.53487660
0.11800001 823694.27468959 16173.23784526
0.11900001 814885.20112345 20535.10803555
0.12000001 806122.14996964 21946.67656672
0.12100001 797408.26534850 18970.34352630
0.12200001 788742.32235491 14552.29653303
0.12300001 780126.60064321 18863.46209229
0.12400001 771561.50554930 24593.52414817
0.12500001 763047.68849502 15863.76219132
0.12600001 754588.57022822 18687.38682232
0.12700001 746182.66713895 17192.04946108
0.12800001 737831.82696368 18560.16048200
0.12900001 729536.81463426 21338.95283380
0.13000001 721298.86774172 21260.28512879
0.13100001 713117.84613710 14119.73401909
0.13200001 704995.31159174 14064.65712927
0.13300001 696932.94112175 19611.69388772
0.13400001 688929.62407744 18136.07320887
0.13500001 680987.45767122 13892.14479148
0.13600001 673106.09923327 19365.26338803
0.13700001 665287.29590928 13771.44767469
0.13800001 657529.91483508 16451.39924495
0.13900001 649836.24600737 13646.56180970
0.14000001 642206.00116427 16299.18907823
0.14100001 634639.71404291 16221.39185599
0.14200001 627137.43713363 18832.93812538
0.14300001 619701.30241410 18739.76826891
0.14400001 612327.80095216 19977.19544839
0.14500001 605021.81220484 14574.97614355
0.14600001 597781.10909972 17135.39630069
0.14700001 590608.27949172 20978.40707723
0.14800001 583498.68367484 14345.31581494
0.14900001 576457.05291776 16861.36959338
0.15000001 569481.91430731 14188.64256443
0.15100001 562573.92413488 14109.35468305
0.15200001 555733.05667649 12754.07425255
0.15300001 548960.23712572 13949.08028361
0.15400001 542252.20234865 18911.04644934
0.15500001 535613.16899926 13786.68362068
0.15600001 529038.65726161 13704.74706316
0.15700001 522534.89994856 19814.52434123
0.15800001 516094.42394379 16001.50836963
0.15900001 509723.37231752 12233.36151304
0.16000001 503416.88755934 13373.27024926
0.16100001 497180.27125965 14497.77739429
0.16200001 491008.48459495 13205.67381657
0.16300001 484903.30624712 14314.34627616
0.16400001 478864.26738412 16592.64764819
0.16500001 472891.06129475 14129.98557858
0.16600001 466984.36031108 22226.12167837
0.16700001 461141.50436073 15106.99639613
0.16800001 455363.54965019 13852.15983441
0.16900001 449652.63660402 16052.59988474
0.17000001 444004.53785993 15944.20370743
0.17100001 438420.82500155 14704.63516492
0.17200001 432901.51505461 12357.17433078
0.17300001 427445.41983490 15618.85637836
0.17400001 422052.37927729 11078.87547924
0.17500001 416721.96205314 11001.46031778
0.17600001 411452.61735763 10924.06750678
0.17700001 406246.71167264 17354.86034234
0.17800001 401100.33569919 12923.45342663
0.17900001 396015.82683655 16038.64174444
0.18000001 390991.69248958 12738.50994301
0.18100001 386028.82972581 11592.44630425
0.18200001 381122.67521927 10461.81792896
0.18300001 376276.37219398 14539.31970840
0.18400001 371488.23659380 11339.67895772
0.18500001 366759.34781426 13302.36217365
0.18600001 362085.91941914 10156.51051954
0.18700001 357469.23714709 11088.69626019
0.18800001 352908.64341885 11005.45656498
0.18900001 348405.36014005 12908.41920308
0.19000001 343953.59604304 12810.55228991
0.19100001 339560.33445283 9779.33809432
0.19200001 335217.66921854 9704.55198243
0.19300001 330930.83151560 15408.14024344
0.19400001 326694.33870186 10511.39084444
0.19500001 322511.45136564 10430.02083004
0.19600001 318379.34262706 10348.92102114
0.19700001 314297.82453102 11201.57499564
0.19800001 310267.11976991 13892.21094423
0.19900001 306286.25160893 14701.74077203
0.20000001 302353.26592001 13673.92709748
0.20100001 298470.13207101 10852.37451501
0.20200001 294633.31395174 15251.69421756
0.20300001 290845.32730022 13349.80115405
0.20400001 287103.22473370 9711.26703563
0.20500001 283406.93994185 10508.72982976
0.20600001 279756.08711500 11292.35499016
0.20700001 276150.57105735 12062.25751396
0.20800001 272588.14095276 11109.33020967
0.20900001 269071.52530147 9323.32879242
0.21000001 265595.96757483 10087.33532534
0.21100001 262163.64107888 12505.20627063
0.21200001 258772.74938065 9094.56870692
0.21300001 255422.40043067 10658.77727387
0.21400001 252113.86395662 11382.94149579
0.21500001 248846.03742320 8062.61199369
0.21600001 245616.83988492 11192.75992273
0.21700001 242426.94632746 10305.56997562
0.21800001 239275.46851267 10218.25936596
0.21900001 236160.91353173 10131.30366954
0.22000001 233083.71576001 8499.39809706
0.22100001 230044.70701579 8426.53801642
0.22200001 227042.05368985 9113.46846604
0.22300001 224073.43694311 10540.41497221
0.22400001 221140.30290508 8956.18269116
0.22500001 218243.69323577 8878.15386065
0.22600001 215379.04080800 8067.02235494
0.22700001 212550.29631725 7996.14252559
0.22800001 209753.77063152 12969.07625145
0.22900001 206988.83853936 7855.22679405
0.23000001 204257.52370868 7785.27588434
0.23100001 201558.42768093 9118.50369952
0.23200001 198889.07250483 6951.17341279
0.23300001 196251.18003005 7577.25841932
0.23400001 193644.54696531 10921.55296538
0.23500001 191066.03059526 7440.11158327
0.23600001 188518.49963069 8712.38287250
0.23700001 185999.67844409 9296.26436833
0.23800001 183509.65058233 7894.58554146
0.23900001 181047.55038804 7821.25454671
0.24000001 178613.26324312 7748.24372598
0.24100001 176207.57379368 7035.96875439
0.24200001 173828.42527968 10137.67424184
0.24300001 171476.39579983 6903.64002146
0.24400001 169150.02685768 8702.76929350
0.24500001 166849.88404936 7388.11321520
0.24600001 164575.78433088 6097.53309790
0.24700001 162327.11552702 6642.42588159
0.24800001 160103.25942739 8371.79983150
0.24900001 157903.25471946 6513.50956532
0.25000001 155728.81354799 8794.78516119
0.25100001 153577.04992126 7546.77659016
0.25200001 151451.13768484 8046.59932588
0.25300001 149348.03481303 7966.22455381
0.25400001 147267.77401772 7322.89040949
0.25500001 145210.16667946 7248.89186360
0.25600001 143175.71552170 6071.36650395
0.25700001 141162.79536330 6555.60052684
0.25800001 139172.96062377 6488.24373127
0.25900001 137204.80802519 6956.28409601
0.26000001 135258.24108599 8472.57662251
0.26100001 133332.30310443 7859.93963991
0.26200001 131428.74316777 5703.35057963
0.26300001 129545.16815788 5642.98779197
0.26400001 127682.52577919 6090.45676786
0.26500001 125840.85259616 7029.47035865
0.26600001 124018.46614836 7450.40970641
0.26700001 122217.37746171 5404.45268710
0.26800001 120436.34476666 6317.48876368
0.26900001 118673.71541612 4806.28570179
0.27000001 116931.73723981 5703.93041248
0.27100001 115208.44529536 5170.55526954
0.27200001 113505.78014061 5577.67430006
0.27300001 111821.02815460 4595.84447465
0.27400001 110153.57074715 4543.83500836
0.27500001 108507.64256519 5390.65993775
0.27600001 106877.77879015 5328.92630267
0.27700001 105268.11565133 5706.58481953
0.27800001 103675.58419674 5640.47042517
0.27900001 102102.47977283 7290.11740081
0.28000001 100545.73190908 4661.80308060
0.28100001 99007.67276902  5025.62970761
0.28200001 97487.89785236  4966.03375164
0.28300001 95985.06376065  4906.75669168
0.28400001 94499.57788555  5251.81428956
0.28500001 93031.83904685  4390.17269241
0.28600001 91581.17068268  4731.08350140
0.28700001 90147.46312076  4283.80765026
0.28800001 88730.28263317  5000.39531448
0.28900001 87331.55194161  4178.81495820
0.29000001 85948.19301725  5252.29432390
0.29100001 84582.32964300  4075.17683510
0.29200001 83232.98923325  4389.70805995
0.29300001 81900.10761192  4334.15389998
0.29400001 80582.82412726  4278.94816371
0.29500001 79283.10112751  4928.23779937
0.29600001 77998.81981496  5907.24089832
0.29700001 76730.79192446  3772.85321753
0.29800001 75478.67989289  5077.82843017
0.29900001 74242.93902373  4009.11889707
0.30000001 73022.43579725  3956.35575879
0.30100001 71818.69385556  3904.06438281
0.30200001 70628.75593034  5457.13108530
0.30300001 69456.06679076  3167.19679560
0.30400001 68298.80387302  3749.60451014
0.30500001 67156.63196309  3698.98746365
0.30600001 66028.69456735  3344.68368166
0.30700001 64917.36101003  3898.93688685
0.30800001 63820.56851012  5028.74193383
0.30900001 62739.04760566  4376.04877768
0.31000001 61672.75692970  3740.14452108
0.31100001 60620.37775345  3971.84733845
0.31200001 59583.74488321  3636.69404113
0.31300001 58561.01130945  3034.04613959
0.31400001 57554.23178462  3263.32509670
0.31500001 56560.86092971  3485.28041551
0.31600002 55582.54126995  3435.83495128
0.31700002 54618.38641144  3126.35658622
0.31800002 53668.58950950  3081.65055555
0.31900002 52733.03533432  2531.18581590
0.32000002 51811.94520187  2744.21980755
0.32100002 50904.14445395  4425.60652838
0.32200002 50011.56172328  3392.28439232
0.32300002 49131.18592696  2865.33089894
0.32400002 48265.34407401  2823.52276203
0.32500002 47413.00354130  2782.19517955
0.32600002 46574.65914185  3426.73070863
0.32700002 45749.24397756  3826.46694748
0.32800002 44938.10467653  2217.69557080
0.32900002 44139.40410971  3495.84097103
0.33000002 43355.01771235  2152.57673135
0.33100002 42581.03574180  2544.64281643
0.33200002 41823.51316217  2506.90149765
0.33300002 41077.28912211  2675.36396722
0.33400002 40344.33101450  2027.30272948
0.33500002 39623.14582734  2196.70730870
0.33600002 38915.68201878  2557.34416497
0.33700002 38219.79612283  3294.16438383
0.33800002 37537.13421861  2099.63970195
0.33900002 36866.04561078  1880.16841519
0.34000002 36207.56954515  2407.62245093
0.34100002 35560.97367459  1824.27803590
0.34200002 34926.97462569  2875.18868735
0.34300002 34303.96405335  2301.11001768
0.34400002 33693.81742977  1918.02064803
0.34500002 33094.65981383  1889.37421825
0.34600002 32508.03923326  2030.45222667
0.34700002 31931.03593996  2166.84020151
0.34800002 31367.14542018  1806.27715457
0.34900002 30813.70941860  1617.71982109
0.35000002 30271.39308616  1753.16781362
0.35100002 29740.88319583  2041.41431925
0.35200002 29219.74554759  2011.34128003
0.35300002 28710.06089038  1829.40516658
0.35400002 28211.52790645  1652.49032539
0.35500002 27723.24054771  1480.42111537
0.35600002 27244.58588847  1604.84240777
0.35700002 26776.87325474  1869.29361045
0.35800002 26319.90253358  2267.72290970
0.35900002 25872.57553052  1676.54297379
0.36000002 25435.50753455  1377.33279823
0.36100002 25007.59655142  1901.07757989
0.36200002 24590.57876593  1874.53990812
0.36300002 24182.04631210  1716.44172854
0.36400002 23783.11058604  1562.55043952
0.36500002 23393.46996924  1541.16187457
0.36600002 23013.43237588  1646.95636599
0.36700002 22641.97952306  1499.80479465
0.36800002 22280.93453711  1356.57476355
0.36900002 21927.65345061  1703.77875382
0.37000002 21582.96289650  1441.31033050
0.37100002 21246.87777461  1422.69100318
0.37200002 20920.05669594  1404.57267310
0.37300002 20601.05927241  1271.29142792
0.37400002 20290.34640441  1483.73165111
0.37500002 19988.26039817  2367.40967371
0.37600002 19694.25028135  1336.45188740
0.37700002 19407.63341960  1430.53672713
0.37800002 19128.80582553  1522.46172778
0.37900002 18858.17308824  1827.35705882
0.38000002 18595.12673356  1168.98269748
0.38100002 18338.51429332  1260.95630254
0.38200002 18090.27438701  1247.14357532
0.38300002 17848.50457624  1542.11086844
0.38400002 17614.67712348  1525.87147811
0.38500002 17386.68537503  1208.02695709
0.38600002 17166.60926530  1295.47822958
0.38700002 16952.76808149  1381.31160872
0.38800002 16745.48121074  1172.51864992
0.38900002 16544.29495835  1064.62543101
0.39000002 16350.65244654  1246.65555485
0.39100002 16162.07712069  950.33017972
0.39200002 15980.35754474  1224.65475846
0.39300002 15804.35570166  1027.44121284
0.39400002 15635.50315658  1111.68432710
0.39500002 15471.16821344  1102.78492250
0.39600002 15312.86971704  911.88143485
0.39700002 15160.02296002  995.55875495
0.39800002 15012.86892520  898.52024774
0.39900002 14871.04844374  892.26294890
0.40000002 14734.24249287  1506.65003749
0.40100002 14603.06103712  1056.67754671
0.40200002 14476.90205331  1137.66740176
0.40300002 14355.16289122  1043.90749491
0.40400002 14238.84999124  1124.51323134
0.40500002 14127.22914450  860.34829566
0.40600002 14020.42029674  941.54136964
0.40700002 13917.76307332  1277.65071067
0.40800002 13819.94188333  1017.42416966
0.40900002 13726.18874974  928.57671292
0.41000002 13637.09263952  1008.87216127
0.41100002 13551.97218882  921.26311305
0.41200002 13470.59835221  1168.30505044
0.41300002 13393.90801537  914.93789988
0.41400002 13320.56783582  1160.88754190
0.41500002 13251.30945670  909.56992421
0.41600002 13185.27607038  989.68686874
0.41700002 13123.09677423  822.81820673
0.41800002 13065.55709038  1231.75545306
0.41900002 13009.36525217  1065.46706464
0.42000002 12957.75630848  900.11058462
0.42100002 12909.73059184  1307.49757630
0.42200002 12864.88723248  897.90484694
0.42300002 12822.60030798  1060.17264370
0.42400002 12783.15184690  896.41856574
0.42500002 12747.25625726  896.00468478
0.42600002 12713.19099958  895.70791432
0.42700002 12683.33432972  1058.55113332
0.42800002 12654.97858482  1058.65228368
0.42900002 12630.62982952  977.61079513
0.43000002 12608.16873925  978.14177714
0.43100002 12587.30184513  897.22291804
0.43200002 12569.96778069  1142.98722446
0.43300002 12554.66804323  1062.50160685
0.43400002 12541.64760427  1227.51381744
0.43500002 12530.72968895  1229.26464074
0.43600002 12522.21840271  820.83145520
0.43700002 12515.23349919  822.25087986
0.43800002 12510.37311020  823.80810835
0.43900002 12508.00278600  908.08104530
0.44000002 12506.97292963  1158.27081790
0.44100002 12508.15346530  912.21967545
0.44200002 12510.85787916  997.61585456
0.44300002 12515.40849025  916.87886945
0.44400002 12521.88268227  1003.00285038
0.44500002 12528.66837553  921.98474945
0.44600002 12537.43423411  924.69850576
0.44700002 12548.72042213  927.60145756
0.44800002 12559.80262550  1099.67357099
0.44900002 12573.83194645  1018.48043593
0.45000002 12588.60075569  936.78076963
0.45100002 12604.25682990  1025.48238428
0.45200002 12621.22253933  857.61211219
0.45300002 12639.23312774  1205.02454351
0.45400002 12658.70071642  1209.53891078
0.45500002 12679.07362002  1040.69841205
0.45600002 12700.29911108  1567.08998159
0.45700002 12722.49885273  961.43928387
0.45800002 12745.24716254  965.26133960
0.45900002 12769.17954140  1145.39545915
0.46000002 12794.39744754  1238.62567560
0.46100002 12819.36062083  888.38173313
0.46200002 12845.96267809  1249.01301039
0.46300002 12873.18454275  1343.96052996
0.46400002 12900.21454970  1169.72700973
0.46500002 12928.52885330  1265.18589355
0.46600002 12957.16001762  1543.00347383
0.46700002 12986.16141017  1002.79143162
0.46800002 13016.40010847  1281.98530744
0.46900002 13046.08351155  1011.72382427
0.47000002 13076.52774199  1478.17076602
0.47100002 13107.57028252  1206.42082598
0.47200002 13138.91401421  1491.52958959
0.47300002 13170.72849733  1591.94602893
0.47400002 13202.15077393  1410.97993084
0.47500002 13234.21377366  1889.84581645
0.47600002 13266.94007710  1234.02448976
0.47700002 13299.00511510  1144.24645434
0.47800002 13331.44530052  1149.43726829
