# SAXS profile: number of points = 501, q_min = 0, q_max = 0.5, delta_q = 0.001
#    q    intensity    error
0.00000000 1628779.37420968 390.90704981
0.00100000 1628694.47222036 586.33002392
0.00200000 1628439.73720287 1025.91706692
0.00300000 1628015.38445194 976.80926547
0.00400000 1627421.26933804 1464.67919806
0.00500000 1626658.08185396 2488.78696375
0.00600000 1625725.60358271 2048.41434391
0.00700000 1624624.63300532 2729.36949688
0.00800000 1623354.92641227 3068.14094046
0.00900000 1621917.86897504 2919.45228895
0.01000000 1620312.83870612 2940.86792924
0.01100000 1618541.40505216 2913.37465594
0.01200000 1616603.50803774 4413.32777044
0.01300000 1614500.39953971 4407.58628514
0.01400000 1612232.33955381 4715.77980225
0.01500000 1609800.70387430 4249.87404747
0.01600000 1607205.31298583 5327.88585072
0.01700000 1604448.23121864 5198.41250234
0.01800000 1601530.00913602 4564.36073142
0.01900000 1598451.57913071 6713.49693528
0.02000000 1595213.70250887 5527.41572923
0.02100000 1591819.07277738 5253.00317833
0.02200000 1588266.30492120 8767.23040148
0.02300000 1584558.51085997 7415.73416838
0.02400000 1580696.29089452 6520.37249725
0.02500000 1576681.94571400 9838.49579059
0.02600000 1572515.84140749 6368.68944899
0.02700000 1568200.01422030 7903.72843367
0.02800000 1563734.63198392 8842.91974940
0.02900000 1559123.32508803 7016.05528503
0.03000000 1554366.56132060 9396.14629508
0.03100000 1549465.91261072 9668.66773958
0.03200000 1544422.63425841 9938.36010920
0.03300000 1539240.71161708 8635.14079026
0.03400000 1533918.70610189 12884.91772577
0.03500000 1528460.78706792 10729.79522070
0.03600000 1522867.30460043 9297.10532424
0.03700000 1517141.50256793 11242.01905394
0.03800000 1511284.58610398 11493.31980923
0.03900000 1505299.25668640 9031.79595838
0.04000000 1499185.44636304 11063.98910685
0.04100000 1492947.51800815 12227.24073942
0.04200000 1486586.62572028 12465.02943495
0.04300000 1480104.50834357 15629.90433362
0.04400000 1473504.31772517 12930.00098853
0.04500000 1466788.01654289 17205.42423350
0.04600000 1459956.24948425 14409.76885227
0.04700000 1453013.27414093 11507.86566640
0.04800000 1445960.26502072 11690.58928663
0.04900000 1438800.07681237 12949.20129406
0.05000000 1431534.32098513 12046.36187204
0.05100000 1424166.98711948 12219.35331871
0.05200000 1416697.20461257 16894.11495229
0.05300000 1409130.32758460 14838.14304119
0.05400000 1401467.22908603 13874.52621497
0.05500000 1393711.74607842 11707.17921319
0.05600000 1385864.32585456 13034.05459289
0.05700000 1377930.08521738 14385.59076117
0.05800000 1369908.32604910 16973.16495227
0.05900000 1361802.90916076 13481.84943037
0.06000000 1353617.68459290 13624.16263193
0.06100000 1345353.60040551 13762.96797531
0.06200000 1337013.72934301 21479.12656591
0.06300000 1328601.22431945 14030.02958479
0.06400000 1320115.25975321 21880.91145371
0.06500000 1311562.83254666 15581.36717952
0.06600000 1302944.37354261 17022.96903681
0.06700000 1294261.32626875 21122.34583321
0.06800000 1285518.05692072 14635.62376312
0.06900000 1276717.77387185 14746.09097862
0.07000000 1267860.32782898 16203.25574843
0.07100000 1258950.00759426 14956.32679074
0.07200000 1249988.29800888 17793.58425573
0.07300000 1240979.13241246 15152.35591673
0.07400000 1231925.13012868 15245.07419979
0.07500000 1222826.78444837 20910.33899419
0.07600000 1213687.43606628 18223.51770686
0.07700000 1204510.90980939 14092.77830556
0.07800000 1195298.21647489 21246.42679422
0.07900000 1186051.23860446 19925.66174314
0.08000000 1176775.51172272 17157.38776579
0.08100000 1167471.11578543 15795.88493769
0.08200000 1158139.66471801 23070.14320375
0.08300000 1148784.76064720 18817.09526253
0.08400000 1139409.32016596 20338.45731962
0.08500000 1130015.03475807 18950.35302252
0.08600000 1120604.47185263 16086.27794872
0.08700000 1111179.78915092 16134.33129610
0.08800000 1101742.75391308 17649.91974659
0.08900000 1092296.65325586 17695.20661388
0.09000000 1082843.55827643 16258.89679129
0.09100000 1073385.14692067 16293.98729577
0.09200000 1063923.57366214 19294.25491494
0.09300000 1054462.86393378 16354.71978816
0.09400000 1045001.92076052 22336.91710603
0.09500000 1035544.65088388 17894.21240835
0.09600000 1026092.75201786 17915.58029240
0.09700000 1016651.17701720 19428.20490617
0.09800000 1007218.46888522 14957.19496620
0.09900000 997798.55820188 19457.07279986
0.10000000 988391.10916664 20963.77641129
0.10100000 978999.74781950 16476.56653072
0.10200000 969626.18415843 23969.16039982
0.10300000 960272.34678924 17976.29917751
0.10400000 950940.38080162 16475.04287246
0.10500000 941633.61437462 17966.37020757
0.10600001 932348.34122559 14964.19158079
0.10700001 923092.45149775 20935.73778516
0.10800001 913863.66676810 17930.00598581
0.10900001 904666.27044651 16419.69358141
0.11000001 895500.86901951 17892.10820518
0.11100001 886368.09934220 17869.18172390
0.11200001 877271.42156417 25278.57720241
0.11300001 868210.72492970 19300.32532386
0.11400001 859188.04171148 19267.29274257
0.11500001 850205.61498656 16272.93623710
0.11600001 841264.51515385 23622.70869795
0.11700001 832365.50744830 25045.87929865
0.11800001 823509.84293780 24989.40736091
0.11900001 814698.42547999 21996.85852405
0.12000001 805933.22255868 16090.45754632
0.12100001 797217.11800447 17506.88873609
0.12200001 788548.84376699 17458.47222349
0.12300001 779930.99763365 18858.73241130
0.12400001 771363.79161723 17355.68612914
0.12500001 762847.75760942 15859.60562801
0.12600001 754386.36801670 15808.16708673
0.12700001 745978.20822149 17187.33872740
0.12800001 737625.16394419 17127.65711400
0.12900001 729328.10201330 14221.89865957
0.13000001 721087.97309738 19837.13107493
0.13100001 712904.84643237 14115.51662473
0.13200001 704780.24881029 16872.43995189
0.13300001 696715.66423077 19605.57971572
0.13400001 688710.42677562 15341.02547969
0.13500001 680766.07744992 23608.96867908
0.13600001 672882.73463857 19358.83718834
0.13700001 665061.76841748 15143.45718093
0.13800001 657302.36336482 19186.65689138
0.13900001 649606.78167560 17734.26597606
0.14000001 641974.40908193 17651.08721014
0.14100001 634406.11773153 21620.56151198
0.14200001 626901.93148049 14791.75177094
0.14300001 619463.84368921 14718.46162029
0.14400001 612088.48515552 15975.51021612
0.14500001 604780.57295936 17218.10372437
0.14600001 597537.95013717 14493.28366429
0.14700001 590363.13017232 13106.06210812
0.14800001 583251.75534782 16946.38055114
0.14900001 576208.39639125 19447.03429573
0.15000001 569231.26251505 16761.01531559
0.15100001 562321.49221036 15385.11675282
0.15200001 555478.79422677 14023.06282196
0.15300001 548704.23355770 17745.09575063
0.15400001 541994.40623597 15121.64464759
0.15500001 535353.66812188 18790.91463788
0.15600001 528777.52871841 13697.98252793
0.15700001 522272.02680749 13615.63238149
0.15800001 515829.91315318 19684.07041499
0.15900001 509457.35063986 14672.37239097
0.16000001 503149.11816409 15796.36731039
0.16100001 496910.74600922 12074.93169801
0.16200001 490737.42156680 15598.08968082
0.16300001 484630.72133964 17882.87446164
0.16400001 478590.18763547 17767.66155477
0.16500001 472615.43969931 15298.56250533
0.16600001 466707.31662347 18705.63013342
0.16700001 460863.01882279 12775.12348494
0.16800001 455083.56696404 11536.36896724
0.16900001 449371.24887592 12604.86412615
0.17000001 443721.80947165 12519.61144541
0.17100001 438136.70951889 13564.71316725
0.17200001 432616.24583115 13471.67053135
0.17300001 427158.59509799 12263.72384441
0.17400001 421764.19811019 19928.35930184
0.17500001 416432.65120825 14291.96926444
0.17600001 411161.92857487 14191.25463500
0.17700001 405954.71595330 16258.48714183
0.17800001 400807.49260709 10761.68168480
0.17900001 395721.74753740 13889.83399463
0.18000001 390696.46472959 21214.81903690
0.18100001 385732.40228364 11583.54458774
0.18200001 380825.26065484 15680.48084818
0.18300001 375977.78576006 13490.08359033
0.18400001 371188.65804936 11330.53432222
0.18500001 366458.81614585 14313.88203487
0.18600001 361784.37488356 14207.27307288
0.18700001 357166.70652658 14100.94223987
0.18800001 352605.12576482 14994.53368158
0.18900001 348101.06207672 10912.96881172
0.19000001 343648.35875116 15752.84150946
0.19100001 339254.23237729 10747.57458954
0.19200001 334910.90671532 13573.93969056
0.19300001 330623.14670283 13469.58763315
0.19400001 326385.93989434 12410.82595094
0.19500001 322202.32574115 11367.29858931
0.19600001 318069.53132443 11278.74611376
0.19700001 313987.23268011 10257.96337643
0.19800001 309955.88064617 12953.05686435
0.19900001 305974.48680952 12850.92905333
0.20000001 302040.88043963 13659.79946346
0.20100001 298157.27847884 10840.99915786
0.20200001 294319.80884606 8962.03860294
0.20300001 290531.38360184 11557.33898593
0.20400001 286788.88618376 12346.26213377
0.20500001 283092.02286983 10497.05270418
0.20600001 279440.73706488 9544.29882559
0.20700001 275834.85098647 10327.25730909
0.20800001 272271.92437206 11096.44280231
0.20900001 268755.08359184 13545.25685333
0.21000001 265279.23380324 13433.74103484
0.21100001 261846.48378447 9992.06229357
0.21200001 258455.36932161 10734.94427226
0.21300001 255104.85690527 12283.29944069
0.21400001 251796.14159473 9744.51114040
0.21500001 248528.01933115 8857.53902772
0.21600001 245298.64305766 9581.36545083
0.21700001 242108.65692402 8708.64880130
0.21800001 238957.07169935 10989.63624705
0.21900001 235842.55440443 9339.36559600
0.22000001 232765.22299604 10031.01775931
0.22100001 229726.17526467 8414.87019783
0.22200001 226723.46786640 11375.85053810
0.22300001 223755.03927568 9021.80361020
0.22400001 220821.81703519 8198.01034509
0.22500001 217925.35661405 10342.73791398
0.22600001 215060.80478336 10251.94904882
0.22700001 212232.19439151 8710.00966972
0.22800001 209435.81102482 8632.94453870
0.22900001 206671.10763498 10695.23032590
0.23000001 203939.93912843 7066.51922499
0.23100001 201241.11952433 7003.19129065
0.23200001 198572.20966410 9716.13867838
0.23300001 195934.49740773 8252.76142112
0.23400001 193328.07542121 9540.74097327
0.23500001 190749.99419490 6752.55011387
0.23600001 188202.85401001 7359.67295415
0.23700001 185684.34250154 7291.82447492
0.23800001 183194.82095180 7881.04157011
0.23900001 180733.19888590 7157.03501441
0.24000001 178299.33503385 9023.72977289
0.24100001 175894.05976969 8938.93654032
0.24200001 173515.54456213 8854.49865784
0.24300001 171163.91001540 8770.43916406
0.24400001 168838.13513832 7445.76211181
0.24500001 166538.66351287 7988.86006662
0.24600001 164264.97622575 8520.42471989
0.24700001 162016.99828266 6027.03262123
0.24800001 159793.76570475 6565.12717455
0.24900001 157594.53391660 7682.73389189
0.25000001 155420.74055888 5851.59115887
0.25100001 153269.84151827 7531.68036852
0.25200001 151144.49685559 8603.90089055
0.25300001 149042.24488676 6814.21175861
0.25400001 146962.75170988 6183.45807074
0.25500001 144905.84285232 7790.13848031
0.25600001 142872.30349742 7710.81858457
0.25700001 140860.32894374 7086.68348445
0.25800001 138871.20589372 7013.69058551
0.25900001 136903.99955753 6407.10748244
0.26000001 134958.45306776 5811.98605636
0.26100001 133033.36266009 7319.49595989
0.26200001 131130.80299745 6725.04354993
0.26300001 129248.10959108 5118.22538199
0.26400001 127386.40941272 5063.61001376
0.26500001 125545.79052625 6512.06046274
0.26600001 123724.45326356 6937.23042275
0.26700001 121924.34018076 4901.35870720
0.26800001 120144.43787841 5817.39395736
0.26900001 118382.78393482 4794.50297624
0.27000001 116642.00085532 5689.79707098
0.27100001 114919.72902056 5157.59768252
0.27200001 113218.16835557 6490.79789899
0.27300001 111534.73275017 6417.70882616
0.27400001 109868.36663956 4985.27737220
0.27500001 108223.64932262 4928.50522340
0.27600001 106595.06400462 5314.83014280
0.27700001 104986.56745672 6129.11609819
0.27800001 103395.18672765 4327.08876934
0.27900001 101823.37399832 4704.24010136
0.28000001 100267.88541360 4648.92072723
0.28100001 98731.19661056  4593.96279572
0.28200001 97212.65527737  5364.68063539
0.28300001 95711.15902764  4485.02512431
0.28400001 94226.89873479  4431.02012273
0.28500001 92760.65867921  7162.97840224
0.28600001 91311.25820809  4324.04483711
0.28700001 89878.91659050  3882.76938049
0.28800001 88463.05355229  3834.87355301
0.28900001 87065.77917421  3787.36157335
0.29000001 85683.85054083  5236.14035440
0.29100001 84319.42596039  4062.51013507
0.29200001 82971.49297565  4375.91674667
0.29300001 81640.08076378  5760.52437137
0.29400001 80324.20687967  3554.34632268
0.29500001 79025.98893819  3508.75407495
0.29600001 77743.20677120  4848.84403585
0.29700001 76476.61215665  4444.05614280
0.29800001 75225.99755229  4386.05199492
0.29900001 73991.78557194  4661.48271170
0.30000001 72772.72450827  3942.82640051
0.30100001 71570.63371355  4539.00980499
0.30200001 70382.16307414  4158.53030210
0.30300001 69211.10237705  4734.03962671
0.30400001 68055.39711494  4047.59493503
0.30500001 66914.75329287  4299.94225017
0.30600001 65788.37867791  3332.51047970
0.30700001 64678.70596403  3884.60326411
0.30800001 63583.50036533  3536.51445775
0.30900001 62503.57616983  3197.05807245
0.31000001 61439.03849469  3152.74440962
0.31100001 60388.19488448  3391.40118528
0.31200001 59353.23250344  4179.95159696
0.31300001 58332.11574509  3571.67561618
0.31400001 57326.86823668  3521.30304816
0.31500001 56335.26896051  2937.32106267
0.31600002 55358.57751775  2895.53053416
0.31700002 54396.16727398  3632.57622255
0.31800002 53447.98422675  3580.48063288
0.31900002 52514.25897609  2772.75300522
0.32000002 51594.72929177  2732.71496633
0.32100002 50688.70538163  3672.39687879
0.32200002 49797.79660560  2895.24403174
0.32300002 48919.18680456  2852.96710953
0.32400002 48054.99961520  2576.94947639
0.32500002 47204.40731324  3000.78431500
0.32600002 46367.77659368  2729.20745954
0.32700002 45544.03937533  2464.84352771
0.32800002 44734.72170329  2428.42448266
0.32900002 43937.80317472  3479.87417622
0.33000002 43155.08827561  3642.50539839
0.33100002 42382.83728105  2110.66539655
0.33200002 41627.09942901  3534.76531540
0.33300002 40882.68959699  2048.22284580
0.33400002 40151.42150908  2421.13083165
0.33500002 39432.11273343  1987.37857588
0.33600002 38726.35569992  2153.37911067
0.33700002 38032.23169128  2506.70450948
0.33800002 37351.35305410  2089.24803202
0.33900002 36682.04513355  2806.17658561
0.34000002 36025.41774348  1842.70020485
0.34100002 35380.58814806  1996.52668375
0.34200002 34748.33899111  3039.26361379
0.34300002 34127.14707684  1937.05695982
0.34400002 33518.79498440  2428.43681163
0.34500002 32921.46405592  1879.48647197
0.34600002 32336.62296996  2356.36982742
0.34700002 31761.51105526  1823.74605117
0.34800002 31199.32583510  1796.61326330
0.34900002 30647.70033774  1769.90477833
0.35000002 30107.20870813  2219.20245898
0.35100002 29578.52747472  1717.92095710
0.35200002 29059.18886423  2000.28936021
0.35300002 28551.35617240  2122.50791838
0.35400002 28054.53822502  1942.07550061
0.35500002 27568.08536431  1619.34941100
0.35600002 27091.25738665  1885.95797230
0.35700002 26625.39563834  1715.74057620
0.35800002 26170.16416831  1550.18974793
0.35900002 25724.72805432  1805.87599495
0.36000002 25289.48246981  1780.25320279
0.36100002 24863.37857787  1485.08967280
0.36200002 24448.11757147  1597.44007779
0.36300002 24041.46219165  1575.19667741
0.36400002 23644.33392619  1423.98007815
0.36500002 23256.59587756  1532.14460899
0.36600002 22878.30754299  1385.39597889
0.36700002 22508.66265710  1739.46953254
0.36800002 22149.40238416  1348.56642804
0.36900002 21798.03265983  1451.74904391
0.37000002 21455.13563030  1671.56969614
0.37100002 21120.83770748  1178.54279990
0.37200002 20795.76586408  1628.93241730
0.37300002 20478.63172212  1378.62155284
0.37400002 20169.73025443  1588.36633278
0.37500002 19869.45471621  1680.95594862
0.37600002 19577.31145934  1328.51641856
0.37700002 19292.46898383  1093.88304320
0.37800002 19015.36697878  1189.12603035
0.37900002 18746.55930171  1282.26471698
0.38000002 18485.34037155  1479.01215319
0.38100002 18230.58721186  1149.07396640
0.38200002 17984.06312228  1756.41360804
0.38300002 17744.16318601  1022.06384793
0.38400002 17512.07926340  1516.98393806
0.38500002 17285.96187567  1000.85724002
0.38600002 17067.59491938  1089.85132521
0.38700002 16855.53096213  1177.19033816
0.38800002 16650.10195875  1360.14689345
0.38900002 16450.63284119  1539.77930688
0.39000002 16258.78659422  1144.29345471
0.39100002 16072.08445752  1134.04633305
0.39200002 15892.12899706  1498.94567802
0.39300002 15717.88635187  1021.81984015
0.39400002 15550.79280352  1382.07677589
0.39500002 15388.22630844  914.06068603
0.39600002 15231.70676504  1179.16263508
0.39700002 15080.63831249  990.34556490
0.39800002 14935.28787736  1162.04012835
0.39900002 14795.26280436  976.48739135
0.40000002 14660.16216284  1058.17055505
0.40100002 14530.74730662  876.20410410
0.40200002 14406.35957530  1045.03737311
0.40300002 14286.33394741  952.32706606
0.40400002 14171.74126873  947.02665515
0.40500002 14061.92187545  1284.55662419
0.40600002 13956.81663864  1618.92102270
0.40700002 13855.95299778  1102.37967274
0.40800002 13759.82589659  928.58189463
0.40900002 13667.81438275  840.57062437
0.41000002 13580.51917684  837.23904692
0.41100002 13497.09708058  1000.94476692
0.41200002 13417.45311155  997.45351157
0.41300002 13342.58438875  1077.14688874
0.41400002 13270.85078104  908.72155029
0.41500002 13203.34083365  823.88850706
0.41600002 13139.02362127  1150.58435303
0.41700002 13078.56155355  984.03101792
0.41800002 13022.76288931  982.17682365
0.41900002 12968.25181379  1062.09987388
0.42000002 12918.26739090  1060.52521171
0.42100002 12872.05376067  896.28114583
0.42200002 12828.83256329  895.38841118
0.42300002 12788.25515793  1463.99951985
0.42400002 12750.54003868  894.13166258
0.42500002 12716.31197623  1218.85856068
0.42600002 12683.94259309  1462.33181085
0.42700002 12655.79052763  893.75196941
0.42800002 12629.10296988  1544.09734778
0.42900002 12606.45159929  1382.29748337
0.43000002 12585.63798418  976.39384108
0.43100002 12566.43672569  977.16616610
0.43200002 12550.72226882  1141.23722998
0.43300002 12537.16128614  1142.63693377
0.43400002 12525.76427433  899.03677339
0.43500002 12516.54216708  982.29827582
0.43600002 12509.70345319  902.01221024
0.43700002 12504.35962290  903.69011277
0.43800002 12501.13203291  987.83950005
0.43900002 12500.36402349  907.52647111
0.44000002 12501.00327822  1075.02382786
0.44100002 12503.78673035  1243.50164926
0.44200002 12508.13729262  1163.63206748
0.44300002 12514.33594396  833.45481337
0.44400002 12522.38707124  1003.04325194
0.44500002 12530.77786685  1005.97089482
0.44600002 12541.22092653  1009.06668357
0.44700002 12554.05121705  1349.81165083
0.44800002 12566.76909595  931.00913260
0.44900002 12582.48459057  1189.04485016
0.45000002 12598.78106243  852.30757927
0.45100002 12616.03985349  1026.44105113
0.45200002 12634.63319425  1030.22803948
0.45300002 12654.20328021  861.75128422
0.45400002 12675.29911937  1211.12488825
0.45500002 12697.24396718  955.34068137
0.45600002 12720.04243267  1220.74253012
0.45700002 12743.82983056  1138.15149611
0.45800002 12768.18457350  1582.36118919
0.45900002 12793.62226356  882.75997802
0.46000002 12820.43475214  1063.83972615
0.46100002 12847.00003628  1602.53486048
0.46200002 12875.07339010  894.17388932
0.46300002 12903.91320817  1077.73488223
0.46400002 12932.47353525  1353.06010775
0.46500002 12962.34391913  1087.28145947
0.46600002 12992.49108405  1183.16125665
0.46700002 13023.00472833  1005.63647278
0.46800002 13054.79437774  1010.24531080
0.46900002 13086.00264095  1291.58852188
0.47000002 13117.98178734  926.78545720
0.47100002 13150.52513332  1210.37439064
0.47200002 13183.38350466  1028.89721439
0.47300002 13216.69930035  1221.61957423
0.47400002 13249.61215495  1321.64887510
0.47500002 13283.21806641  1043.26399638
0.47600002 13317.38118175  1524.57386995
0.47700002 13350.96855918  1244.44383839
0.47800002 13384.86354493  1346.38348780
