# SAXS profile: number of points = 501, q_min = 0, q_max = 0.5, delta_q = 0.001
#    q    intensity    error
0.00000000 1664650.74656090 299.63713438
0.00100000 1664564.65168836 599.24328884
0.00200000 1664306.34638148 898.72545550
0.00300000 1663876.02101072 1497.48847225
0.00400000 1663273.58152216 1746.43732696
0.00500000 1662499.67858602 1945.12470094
0.00600000 1661554.11492643 2093.55827004
0.00700000 1660437.66449065 2590.28286426
0.00800000 1659150.11879584 2687.82330593
0.00900000 1657692.87293431 3232.50124040
0.01000000 1656065.24729700 4098.76166404
0.01100000 1654268.92014989 3573.22102310
0.01200000 1652303.75918337 3866.39096601
0.01300000 1650171.04539766 3811.89528299
0.01400000 1647871.02619558 4078.48097064
0.01500000 1645405.12286162 4738.76696485
0.01600000 1642773.14406374 7121.42189787
0.01700000 1639977.16688586 4870.73240415
0.01800000 1637017.73081189 6065.15096558
0.01900000 1633895.78369493 4901.68757226
0.02000000 1630612.12670637 7190.99980406
0.02100000 1627169.42564840 5906.62528290
0.02200000 1623566.39462266 8401.95647389
0.02300000 1619805.97854581 6414.43196702
0.02400000 1615888.99232721 10301.29279580
0.02500000 1611817.66780191 6914.69811067
0.02600000 1607592.28522463 7161.82395825
0.02700000 1603215.06632196 8080.20430435
0.02800000 1598686.14732513 8345.14207174
0.02900000 1594008.97209524 8607.64884453
0.03000000 1589184.36728348 8128.67841229
0.03100000 1584213.61415190 8364.64826761
0.03200000 1579098.08800602 7816.53589564
0.03300000 1573841.99124190 8829.25397790
0.03400000 1568443.65351554 12351.49434134
0.03500000 1562907.26590573 9283.66958818
0.03600000 1557233.34986927 10371.17458942
0.03700000 1551425.06904111 9727.43563276
0.03800000 1545483.63305357 12657.51154049
0.03900000 1539411.78294331 11083.76535048
0.04000000 1533209.59675167 15086.78313114
0.04100000 1526881.11279700 10581.28660230
0.04200000 1520427.92114870 12748.78871028
0.04300000 1513851.56115510 10990.56284415
0.04400000 1507155.23056472 13225.28776241
0.04500000 1500340.83995211 11387.58750436
0.04600000 1493409.36254517 12634.24379446
0.04700000 1486364.46900943 12842.18960950
0.04800000 1479208.08587388 14133.83391815
0.04900000 1471942.70318080 11039.57078772
0.05000000 1464569.89902292 11203.96024925
0.05100000 1457093.68443854 12501.86439487
0.05200000 1449513.55264111 13828.35993662
0.05300000 1441834.49672817 14014.63196153
0.05400000 1434057.75236147 11830.97700871
0.05500000 1426186.92346541 13177.96778756
0.05600000 1418222.43433626 14550.96285530
0.05700000 1410169.67671696 18402.71514017
0.05800000 1402027.75324398 13648.74081512
0.05900000 1393800.64495355 20070.73022475
0.06000000 1385492.18320558 15212.70488232
0.06100000 1377103.56451575 15368.47649819
0.06200000 1368637.69949705 12933.62686481
0.06300000 1360097.65248008 14362.63188172
0.06400000 1351483.10997554 19765.44140776
0.06500000 1342800.07867136 13293.72140070
0.06600000 1334050.12597387 14747.92483267
0.06700000 1325234.21021019 14869.12853442
0.06800000 1316356.94437797 13624.29501205
0.06900000 1307421.19855037 17846.30019576
0.07000000 1298427.05728954 16593.89856923
0.07100000 1289378.70111315 16710.34874910
0.07200000 1280278.16034209 15420.95116374
0.07300000 1271128.71988766 23986.20006817
0.07400000 1261933.54002311 15616.42828964
0.07500000 1252692.88090834 21421.04926759
0.07600000 1243410.24527853 17233.66680749
0.07700000 1234089.40591350 14438.84672620
0.07800000 1224731.37840238 15964.37426614
0.07900000 1215337.95602948 18959.27300332
0.08000000 1205914.93603911 16117.05387623
0.08100000 1196462.41458901 16188.13722891
0.08200000 1186981.70489777 23644.67667109
0.08300000 1177477.14636019 26705.18293278
0.08400000 1167950.95426227 14891.37536583
0.08500000 1158405.07289481 17932.11137024
0.08600000 1148842.38184370 20989.35130177
0.08700000 1139264.67789875 25565.10057253
0.08800000 1129673.98691084 18097.37812023
0.08900000 1120073.51997969 27217.78781392
0.09000000 1110465.44244719 16673.63940160
0.09100000 1100851.48666321 21268.45172155
0.09200000 1091233.62517723 19789.52272243
0.09300000 1081616.19482297 16775.86797004
0.09400000 1071997.89604108 22913.95610478
0.09500000 1062382.90429090 21417.64035719
0.09600000 1052772.68305450 18381.41191020
0.09700000 1043172.55502195 21468.49219165
0.09800000 1033580.75408258 16883.54241176
0.09900000 1024001.43380225 16896.02445223
0.10000000 1014433.92701049 18442.40966035
0.10100000 1004882.53750217 18449.64425626
0.10200000 995348.83604955 19991.58231239
0.10300000 985834.15815402 30758.02718129
0.10400000 976340.95124114 19990.58191712
0.10500000 966873.05232639 19985.26693188
0.10600001 957426.62821412 15366.69810589
0.10700001 948009.12375978 15357.74852761
0.10800001 938618.74385324 16881.05890265
0.10900001 929259.46622320 16866.06010576
0.11000001 919932.27806270 18380.24778084
0.11100001 910637.80405106 15298.71582822
0.11200001 901379.02657931 16806.21274176
0.11300001 892156.18289836 19832.63287957
0.11400001 882971.81564154 16754.39099067
0.11500001 873827.60706949 19765.98140265
0.11600001 864724.50297009 18211.09889014
0.11700001 855663.75329821 18174.29897597
0.11800001 846646.36802767 21157.69373350
0.11900001 837673.63401007 16585.93873462
0.12000001 828747.28238492 15041.76388383
0.12100001 819870.00363758 16503.98395070
0.12200001 811040.83327389 23941.92652618
0.12300001 802262.32143547 25367.53579897
0.12400001 793534.68163127 16366.65357980
0.12500001 784858.40292396 16317.20696566
0.12600001 776237.28939130 16266.05316571
0.12700001 767669.60531725 20634.95996338
0.12800001 759157.15554536 17627.62998254
0.12900001 750701.45391556 21958.01856196
0.13000001 742303.02058915 16044.88054631
0.13100001 733961.88505056 21798.66901354
0.13200001 725679.58815184 14477.30846609
0.13300001 717457.89088822 17305.08514404
0.13400001 709295.74294682 21544.85920776
0.13500001 701195.44060955 14304.38766286
0.13600001 693156.18060483 17093.23221967
0.13700001 685180.06344690 19856.51917499
0.13800001 677265.78342569 16945.19070037
0.13900001 669416.33345569 18275.06676516
0.14000001 661630.50026363 22389.57718483
0.14100001 653909.23978277 19499.57444998
0.14200001 646252.59669469 15248.33073820
0.14300001 638662.86121083 17933.65398869
0.14400001 631136.28131938 16472.65771945
0.14500001 623677.98850113 20487.82288872
0.14600001 616285.43079530 19024.73214613
0.14700001 608961.44538296 17574.62814286
0.14800001 601701.83179131 18827.25120499
0.14900001 594510.85394730 16051.79381391
0.15000001 587386.57843850 14634.73729230
0.15100001 580330.44593344 13231.53479161
0.15200001 573342.18319282 19737.30558776
0.15300001 566422.81588351 13084.36766435
0.15400001 559568.96887712 16912.97288245
0.15500001 552784.84609563 12935.16600909
0.15600001 546066.34595186 16717.82197031
0.15700001 539419.24365015 17897.93134904
0.15800001 532836.29163657 21603.84846408
0.15900001 526323.49934678 15158.11749666
0.16000001 519875.94346160 17577.00647811
0.16100001 513499.05523025 13725.83039422
0.16200001 507188.47219931 14880.91047680
0.16300001 500944.84088824 12323.24366760
0.16400001 494768.77077490 19592.84424766
0.16500001 488658.83787897 21901.69014774
0.16600001 482616.59173756 12089.54619381
0.16700001 476639.15521801 14413.56873433
0.16800001 470727.28334602 16706.11207475
0.16900001 464883.46185620 13039.98172079
0.17000001 459103.65036250 16486.41286300
0.17100001 453388.60467764 15206.65451897
0.17200001 447739.26564165 11618.83449208
0.17300001 442153.94959490 12694.24049235
0.17400001 436632.81462189 12607.77311762
0.17500001 431175.07591883 12521.32479603
0.17600001 425779.19620570 11304.43819316
0.17700001 420447.79129835 12348.55221366
0.17800001 415177.33538589 12262.26317979
0.17900001 409969.26454953 15496.83893194
0.18000001 404822.47473727 10990.93070827
0.18100001 399737.93134770 14186.69985366
0.18200001 394711.24633917 13001.78906859
0.18300001 389745.31251305 13984.06247357
0.18400001 384838.52511451 12815.12349171
0.18500001 379991.91741444 13782.30749573
0.18600001 375201.88149563 12629.29592779
0.18700001 370469.12901455 11491.95292497
0.18800001 365793.72062370 10370.25246964
0.18900001 361176.73507737 13381.59866686
0.19000001 356611.80126889 11238.62144800
0.19100001 352106.58235268 15211.00507636
0.19200001 347653.31707645 13083.93320641
0.19300001 343256.08458343 9988.75253337
0.19400001 338910.72123715 11895.76687754
0.19500001 334619.29591733 18691.83475323
0.19600001 330380.11430556 11715.27940690
0.19700001 326192.52283162 9687.91838593
0.19800001 322056.43185842 9613.38494529
0.19900001 317971.44296442 12400.88686168
0.20000001 313934.80806814 13251.18887482
0.20100001 309949.20672279 15026.33825210
0.20200001 306010.83443896 10249.83338398
0.20300001 302122.30443508 13867.41442901
0.20400001 298280.53940288 12840.97782823
0.20500001 294485.35976361 13649.39707021
0.20600001 290736.58883441 9930.10866102
0.20700001 287034.16890109 14328.74638885
0.20800001 283375.47805638 9772.20382271
0.20900001 279763.83271062 11456.32949106
0.21000001 276193.96951492 10489.84745806
0.21100001 272668.00524877 10405.01157217
0.21200001 269184.70462215 10320.54206311
0.21300001 265742.63071845 9383.37273427
0.21400001 262343.25764991 11844.79864287
0.21500001 258985.55132197 13425.81161527
0.21600001 255667.15576443 9154.16294494
0.21700001 252388.85797421 8253.11604596
0.21800001 249150.03237280 10639.95263554
0.21900001 245949.02961415 12174.47754153
0.22000001 242785.92908502 10462.86010863
0.22100001 239662.06423285 8778.82182794
0.22200001 236575.00924488 8704.77787677
0.22300001 233523.35963974 8631.02378041
0.22400001 230507.22588425 9335.54308976
0.22500001 227529.04862199 7713.23511302
0.22600001 224583.43663036 9941.18629254
0.22700001 221674.60337741 9097.52615282
0.22800001 218798.36375209 12025.15864048
0.22900001 215954.85607409 9685.57575296
0.23000001 213145.47081031 11078.23636928
0.23100001 210369.30125545 10249.19284188
0.23200001 207623.47854652 7982.08501022
0.23300001 204909.75445690 7192.33272159
0.23400001 202227.89827524 7841.38712648
0.23500001 199574.98412301 7064.95477210
0.23600001 196953.88579864 9102.22426269
0.23700001 194361.87873288 12489.69491811
0.23800001 191799.57878255 7563.61674704
0.23900001 189265.75345627 8176.28093605
0.24000001 186760.43471383 8776.80704452
0.24100001 184284.47992105 9365.33771258
0.24200001 181835.70732294 7953.49421452
0.24300001 179414.21365727 7879.87263657
0.24400001 177019.52731347 7156.01473015
0.24500001 174651.63044640 7089.11001517
0.24600001 172309.95200418 8299.30923088
0.24700001 169994.65788749 6323.80157257
0.24800001 167704.88230757 8142.91094566
0.24900001 165439.51251529 9305.97301923
0.25000001 163200.20656567 9216.73210182
0.25100001 160984.16862287 7302.24223419
0.25200001 158794.17556169 7834.11102197
0.25300001 156627.96227880 6564.27820966
0.25400001 154484.90623989 9454.47670918
0.25500001 152365.01227136 5850.81674803
0.25600001 150268.96876943 8110.01662819
0.25700001 148195.10931610 9749.75670320
0.25800001 146144.51812021 6813.25775713
0.25900001 144116.20351912 7306.69186413
0.26000001 142110.11277340 6676.33341399
0.26100001 140124.93885691 11013.82071528
0.26200001 138162.62880586 7630.72235001
0.26300001 136220.66239766 5933.77233481
0.26400001 134300.13876522 6939.95999908
0.26500001 132401.33249320 6867.65744139
0.26600001 130522.08272392 7318.37352463
0.26700001 128664.36276936 7758.46144212
0.26800001 126827.41577536 6140.98376244
0.26900001 125009.04900871 6075.44006932
0.27000001 123211.81261994 5509.41646202
0.27100001 121433.65131977 6440.84117080
0.27200001 119676.62265787 6861.06110166
0.27300001 117938.01088870 4847.25247692
0.27400001 116216.81287967 5752.73250979
0.27500001 114517.63651169 6163.33948874
0.27600001 112834.97183139 5157.12263162
0.27700001 111172.70304985 5099.49213024
0.27800001 109527.92047805 4583.74368894
0.27900001 107902.88071255 4985.11332485
0.28000001 106294.66647443 6720.48060592
0.28100001 104705.54740308 5314.85383773
0.28200001 103134.88789660 6567.11429763
0.28300001 101581.60573769 5192.85193109
0.28400001 100045.83957978 4704.65582891
0.28500001 98528.39149840  5072.24183441
0.28600001 97028.00607491  4177.05585923
0.28700001 95545.11211204  4953.05884633
0.28800001 94078.76349610  5709.64042683
0.28900001 92631.60377006  6044.21243209
0.29000001 91199.66752707  5971.29851398
0.29100001 89785.76268004  4719.13990984
0.29200001 88388.52651540  5050.07870150
0.29300001 87008.10009932  3837.05739601
0.29400001 85643.58331266  4547.67448917
0.29500001 84296.85242407  4117.05846728
0.29600001 82965.79918624  7022.64040455
0.29700001 81651.08846906  4014.78421008
0.29800001 80352.68610917  4684.96358537
0.29900001 79070.99393420  5693.11183277
0.30000001 77804.54955089  3864.16313637
0.30100001 76555.30502231  3814.75102985
0.30200001 75320.14325884  5819.61114440
0.30300001 74102.48035139  4054.88791679
0.30400001 72900.17740577  5002.77491131
0.30500001 71713.15464505  3291.63395404
0.30600001 70540.96334351  3898.09381891
0.30700001 69385.41014970  3846.72732082
0.30800001 68244.52810063  5061.01444355
0.30900001 67119.27859075  4369.46524313
0.31000001 66009.53928896  3387.27966898
0.31100001 64913.82328389  3341.76378087
0.31200001 63833.87339742  3296.70054769
0.31300001 62768.31107827  2956.38759176
0.31400001 61718.54490150  3499.44166160
0.31500001 60682.69779062  4314.54001719
0.31600002 59661.87319848  3687.99886638
0.31700002 58655.62461627  2797.87342667
0.31800002 57663.79940981  3586.97681213
0.31900002 56686.64168383  3265.15071559
0.32000002 55723.80180011  3488.03153883
0.32100002 54774.52914102  2645.60988278
0.32200002 53840.74118563  2869.44243736
0.32300002 52919.31480785  3343.44246787
0.32400002 52012.47589287  2789.16915183
0.32500002 51119.53509343  3499.64353821
0.32600002 50240.64725247  3942.88618308
0.32700002 49374.73718761  3158.00834006
0.32800002 48523.47455484  2634.09694094
0.32900002 47684.84372504  3304.55982663
0.33000002 46860.48342494  3489.93466833
0.33100002 46047.11110651  2522.46086586
0.33200002 45250.01857715  2260.23853496
0.33300002 44464.53852265  2673.20818257
0.33400002 43692.35173406  2415.09485647
0.33500002 42932.37427502  2380.17094252
0.33600002 42186.08770541  2345.75751795
0.33700002 41451.52169642  2942.22914935
0.33800002 40730.62701233  2071.15248166
0.33900002 40021.20489293  2041.08154620
0.34000002 39324.82115829  2614.90410676
0.34100002 38640.28186675  2180.47120900
0.34200002 37968.56571761  2930.22419803
0.34300002 37307.93146483  2502.61616118
0.34400002 36660.59463739  2656.06020727
0.34500002 36024.20143273  2430.55298578
0.34600002 35400.44633177  2579.63064637
0.34700002 34786.82668288  2542.22141439
0.34800002 34186.10503454  2863.42829331
0.34900002 33596.23833006  2645.70389380
0.35000002 33017.75616600  2086.06193337
0.35100002 32451.05377230  2227.44043643
0.35200002 31894.11280411  2195.43135885
0.35300002 31348.71504947  2164.00190236
0.35400002 30814.38333779  1804.95258950
0.35500002 30290.89745200  2588.05440088
0.35600002 29777.10506575  1754.02045698
0.35700002 29274.31037217  1886.43664973
0.35800002 28782.42306622  1549.93355553
0.35900002 28300.64843073  2292.35263147
0.36000002 27829.27179651  1808.34616699
0.36100002 27367.11893141  1634.63809120
0.36200002 26915.97391729  1758.68981906
0.36300002 26473.65763843  1590.00795308
0.36400002 26041.11784218  1568.32639633
0.36500002 25618.06414072  1828.36132433
0.36600002 25204.74555537  1942.52983197
0.36700002 24800.24202540  1368.97342465
0.36800002 24406.42019691  1891.25359064
0.36900002 24020.58759035  2399.65681395
0.37000002 23643.38863503  1447.33010385
0.37100002 23274.98323323  1688.36736372
0.37200002 22916.13364246  1538.58928564
0.37300002 22565.35645615  1645.69152430
0.37400002 22223.04618172  1500.05568833
0.37500002 21889.49526552  1481.48110975
0.37600002 21564.44001998  1341.41605499
0.37700002 21246.82492491  1445.63403637
0.37800002 20937.22323931  1428.33743705
0.37900002 20636.14612927  1882.01661615
0.38000002 20342.78002851  1162.58993370
0.38100002 20056.13382704  1149.21652273
0.38200002 19777.97221262  1477.11792468
0.38300002 19506.55960366  1123.57788640
0.38400002 19243.31311378  1444.69180046
0.38500002 18986.15974722  1648.94805216
0.38600002 18737.17592195  1305.23173656
0.38700002 18494.44912191  1399.29008686
0.38800002 18258.77934249  1491.55975515
0.38900002 18029.23270081  1160.18117926
0.39000002 17807.59378242  1671.06467971
0.39100002 17591.35458429  1241.24603827
0.39200002 17382.00907854  1537.00422559
0.39300002 17178.66282233  1319.83672717
0.39400002 16982.65924276  1106.84486859
0.39500002 16791.56118747  997.41878179
0.39600002 16606.55576075  988.92044241
0.39700002 16427.32462730  1176.85359206
0.39800002 16254.17372951  1459.21851570
0.39900002 16086.34364937  1158.21679763
0.40000002 15923.90636180  1532.51682087
0.40100002 15767.27051862  1045.84310305
0.40200002 15616.02992216  943.98905352
0.40300002 15469.37623124  1218.67751724
0.40400002 15328.26448813  931.19211177
0.40500002 15192.41194864  1202.78331096
0.40600002 15061.18400722  1287.27945809
0.40700002 14934.89520372  1005.41719275
0.40800002 14813.23220670  1090.55020673
0.40900002 14696.11266179  1084.57316583
0.41000002 14583.99286990  1258.74448424
0.41100002 14475.83042972  1252.44890812
0.41200002 14371.87719726  1424.54053529
0.41300002 14272.85719519  1329.51671073
0.41400002 14177.32573057  1147.30013911
0.41500002 14086.15339035  1582.15682377
0.41600002 13998.43920148  963.16265490
0.41700002 13914.96301045  1221.45551093
0.41800002 13836.20660484  956.56618895
0.41900002 13759.14420860  866.82612622
0.42000002 13686.85643409  1210.05503468
0.42100002 13618.67306409  1034.47445497
0.42200002 13553.58937457  1203.96540119
0.42300002 13491.40825247  1287.08040827
0.42400002 13432.51828554  941.95538941
0.42500002 13377.18266491  854.80201279
0.42600002 13324.08995782  938.74880246
0.42700002 13275.34051743  1704.55380321
0.42800002 13228.66262065  851.26447998
0.42900002 13185.92628230  935.54151406
0.43000002 13145.41871540  1274.77704033
0.43100002 13106.74093038  934.24853779
0.43200002 13071.85481336  849.01701036
0.43300002 13039.36216100  933.74876860
0.43400002 13009.31379697  933.74354203
0.43500002 12981.63158444  1188.59824420
0.43600002 12956.69635170  1104.10493193
0.43700002 12933.49427622  934.70367564
0.43800002 12912.46394803  935.31437040
0.43900002 12894.37054930  1021.23419590
0.44000002 12877.89020066  937.05972486
0.44100002 12863.80980851  1364.59300916
0.44200002 12851.48530746  1280.97185873
0.44300002 12841.33518741  1026.27955681
0.44400002 12833.17644089  942.27602483
0.44500002 12825.69494720  858.03903263
0.44600002 12820.52191999  859.61603547
0.44700002 12817.97143788  947.50449359
0.44800002 12815.57010716  1035.75442515
0.44900002 12816.47997269  951.62368307
0.45000002 12818.08750469  953.85802687
0.45100002 12820.92375193  956.18453873
0.45200002 12825.52765515  1132.94303911
0.45300002 12831.11449832  961.17883262
0.45400002 12838.62440362  1051.48338849
0.45500002 12847.14774927  966.61944247
0.45600002 12856.81850711  1145.73543556
0.45700002 12867.71870635  1326.01847553
0.45800002 12879.43204540  1418.79830136
0.45900002 12892.29166977  1423.30906780
0.46000002 12906.93780988  1338.77218778
0.46100002 12921.54390016  1074.55564167
0.46200002 12937.84683723  988.38685597
0.46300002 12955.18414991  991.84894553
0.46400002 12972.49452452  1176.28099676
0.46500002 12991.33893518  1452.95141537
0.46600002 13010.61386905  1093.67225367
0.46700002 13030.34979885  1006.20365916
0.46800002 13051.82216576  1010.01530617
0.46900002 13072.89117252  921.63887135
0.47000002 13094.95002580  925.15826317
0.47100002 13117.65842640  1114.47631273
0.47200002 13141.07849980  1212.06743288
0.47300002 13165.10447201  1123.24676679
0.47400002 13188.91643081  939.71034024
0.47500002 13213.64839940  1415.18181065
0.47600002 13239.13561418  1041.98621790
0.47700002 13264.34929845  1521.68622364
0.47800002 13289.94993164  954.88294785
