# SAXS profile: number of points = 501, q_min = 0, q_max = 0.5, delta_q = 0.001
#    q    intensity    error
0.00000000 1664650.74656090 349.57665678
0.00100000 1664564.76828433 699.11721928
0.00200000 1664306.81200235 1198.30094259
0.00300000 1663877.06894889 1098.15890463
0.00400000 1663275.45027394 1372.20229862
0.00500000 1662502.58916815 2094.75334526
0.00600000 1661558.31920420 2093.56356743
0.00700000 1660443.37220998 2391.03855535
0.00800000 1659157.55927183 2239.86279958
0.00900000 1657702.31883854 2735.20894301
0.01000000 1656076.90587091 3279.03241521
0.01100000 1654283.00677811 4466.56431277
0.01200000 1652320.50294802 4833.03768302
0.01300000 1650190.67752984 3465.40057565
0.01400000 1647893.75667184 7415.52223376
0.01500000 1645431.23808767 5133.74569143
0.01600000 1642802.82310677 5445.89160205
0.01700000 1640010.61655906 4428.02886335
0.01800000 1637055.16706857 5132.16817970
0.01900000 1633937.48586825 5882.17521454
0.02000000 1630658.24564180 5650.23107674
0.02100000 1627220.24413738 5906.80975402
0.02200000 1623622.09037616 6721.79575954
0.02300000 1619866.77703816 6414.67272906
0.02400000 1615955.05693326 7877.78126176
0.02500000 1611889.32123934 6915.00550393
0.02600000 1607669.61284270 8464.38089876
0.02700000 1603298.36916560 8080.62415070
0.02800000 1598775.53899033 6954.67391355
0.02900000 1594104.72289854 10042.86021537
0.03000000 1589286.64855378 8868.21990656
0.03100000 1584322.58798669 9125.69852671
0.03200000 1579214.02562179 9380.53174424
0.03300000 1573965.11253019 8829.94468836
0.03400000 1568574.03371150 13176.02249112
0.03500000 1563045.12913468 8440.44408709
0.03600000 1557378.92963121 10372.14415068
0.03700000 1551578.50359454 9728.39766745
0.03800000 1545645.06090325 11754.63123217
0.03900000 1539581.52647417 13856.23437995
0.04000000 1533387.66146224 11316.40146598
0.04100000 1527067.80072824 10582.58034972
0.04200000 1520623.28010964 11769.62473408
0.04300000 1514055.74258790 15988.42938388
0.04400000 1507368.59106374 11192.21230844
0.04500000 1500563.41070194 12424.66561792
0.04600000 1493641.19895968 13689.22222483
0.04700000 1486605.85593768 10703.56266055
0.04800000 1479459.18661434 13048.83063308
0.04900000 1472203.61149339 14353.98588020
0.05000000 1464840.82533866 12326.63611923
0.05100000 1457374.61227275 13641.02700633
0.05200000 1449804.75861199 11525.94836809
0.05300000 1442135.97619826 16353.82273247
0.05400000 1434369.80869134 14200.26176826
0.05500000 1426509.47659753 15577.48421112
0.05600000 1418555.97316796 14554.38496387
0.05700000 1410513.96297481 15952.91366590
0.05800000 1402383.01885729 13652.19932603
0.05900000 1394166.94245080 17566.50429534
0.06000000 1385869.65432675 13948.77872247
0.06100000 1377492.32754382 19216.01886723
0.06200000 1369037.83046297 15524.88972314
0.06300000 1360509.34219217 16979.15738442
0.06400000 1351906.35558140 13181.08758335
0.06500000 1343234.96335037 18617.23746291
0.06600000 1334496.72111360 13411.69267471
0.06700000 1325692.59954839 14874.27166303
0.06800000 1316827.29852944 17717.91213107
0.06900000 1307903.52359495 16479.58516885
0.07000000 1298921.35054857 13833.51303114
0.07100000 1289885.16584436 15323.83648797
0.07200000 1280796.66292394 15427.19652763
0.07300000 1271659.58588653 19761.59089062
0.07400000 1262476.63981806 22724.58058169
0.07500000 1253248.37327180 15715.73533746
0.07600000 1243978.01285636 15804.74139428
0.07700000 1234669.62683513 20223.88943583
0.07800000 1225323.92874581 14520.08923658
0.07900000 1215943.13736262 16050.45016601
0.08000000 1206532.59848321 17591.24611111
0.08100000 1197092.58077020 17669.08732117
0.08200000 1187624.51643415 22178.88888516
0.08300000 1178132.52766037 16328.91759972
0.08400000 1168618.84777560 16389.88010937
0.08500000 1159085.58998640 26913.96866296
0.08600000 1149535.56267174 16501.58377693
0.08700000 1139970.37383829 19561.89253365
0.08800000 1130392.31802893 19617.95960073
0.08900000 1120804.49278677 21183.20590864
0.09000000 1111208.90887176 18201.60278235
0.09100000 1101607.63713149 18242.62332796
0.09200000 1092002.38119866 19803.46411354
0.09300000 1082397.40812775 21366.52584050
0.09400000 1072791.63945030 19873.46605482
0.09500000 1063189.12006344 16840.91645337
0.09600000 1053591.38315236 26060.58408732
0.09700000 1044003.63970551 19950.91049272
0.09800000 1034424.30725596 18433.44202200
0.09900000 1024857.37098257 15372.86128761
0.10000000 1015302.08995396 23072.74107925
0.10100000 1005762.99834709 18465.80951813
0.10200000 996241.45896591 16931.12439150
0.10300000 986738.83393101 16932.43918677
0.10400000 977257.97290782 20009.35793663
0.10500000 967802.00434174 16926.85785233
0.10600001 958367.55558492 21534.51998727
0.10700001 948961.88537478 15373.18326650
0.10800001 939583.44788860 15362.19009595
0.10900001 930235.90378921 15348.89313493
0.11000001 920920.41005496 16866.65810406
0.11100001 911637.57469785 19910.16556864
0.11200001 902390.18790559 18354.61728608
0.11300001 893178.84347147 18328.03073093
0.11400001 884005.73014991 16774.00951939
0.11500001 874873.01487638 19789.62852836
0.11600001 865780.92191116 22791.68384261
0.11700001 856731.26398396 16680.55849534
0.11800001 847724.89984109 16645.07919233
0.11900001 838762.96649698 25666.14798373
0.12000001 829847.37237427 16567.90356988
0.12100001 820980.91936957 16526.34668543
0.12200001 812162.13216569 17981.27045327
0.12300001 803394.17524320 22414.69854534
0.12400001 794676.89227883 20860.26940520
0.12500001 786010.72652549 16341.16377447
0.12600001 777399.71201821 16290.41173300
0.12700001 768842.15138071 20666.47800305
0.12800001 760339.56095805 17655.08543752
0.12900001 751893.35306187 16128.11318333
0.13000001 743504.68670596 20453.81489537
0.13100001 735172.94302807 14556.42495811
0.13200001 726900.01334544 17401.98713983
0.13300001 718687.61554048 15890.18392871
0.13400001 710534.61699758 18704.82467431
0.13500001 702443.16573585 17195.80950797
0.13600001 694412.79180446 19978.25696220
0.13700001 686445.14813392 17051.29828367
0.13800001 678539.43458605 16977.05745391
0.13900001 670698.50264501 16901.60306370
0.14000001 662920.90289030 16824.93330883
0.14100001 655207.75226673 18142.70351593
0.14200001 647559.01950644 15279.15578590
0.14300001 639977.05476721 16588.20604199
0.14400001 632458.33226058 15131.56631309
0.14500001 625007.54933226 16425.19917126
0.14600001 617622.42521528 13618.57511844
0.14700001 610305.57036899 17613.41959179
0.14800001 603053.07012245 17521.70777906
0.14900001 595869.00797017 14747.75864307
0.15000001 588751.46566817 17335.78772455
0.15100001 581702.11431548 15915.37059864
0.15200001 574720.22174093 13189.82971134
0.15300001 567807.12038942 14427.97960994
0.15400001 560959.36912807 16954.99773202
0.15500001 554181.33464919 14264.62822706
0.15600001 547468.78580375 15471.46861699
0.15700001 540827.27002379 15381.12828542
0.15800001 534249.83013833 16564.41676526
0.15900001 527742.38845837 13932.39971292
0.16000001 521300.16485678 16366.21944820
0.16100001 514928.29721839 13764.03403437
0.16200001 508622.62902140 16166.57102661
0.16300001 502383.79579166 21009.69133183
0.16400001 496212.28794502 13509.38017708
0.16500001 490106.84330199 15864.75926668
0.16600001 484068.84387260 20614.07268957
0.16700001 478095.58420483 13252.81021989
0.16800001 472187.87683599 14363.95589157
0.16900001 466347.79981996 11891.86945692
0.17000001 460571.62022069 15357.76140145
0.17100001 454860.10570347 17603.08692196
0.17200001 449214.05692852 12822.81586056
0.17300001 443631.97543296 11578.79510560
0.17400001 438113.90433056 11500.49053180
0.17500001 432659.05674614 14848.85952880
0.17600001 427265.87456115 13612.69140643
0.17700001 421937.12100238 13518.86599542
0.17800001 416669.05055844 13425.07744309
0.17900001 411463.44452888 15553.31893783
0.18000001 406318.66935457 14341.01811227
0.18100001 401236.17403100 16430.62210269
0.18200001 396211.28165734 10876.00019525
0.18300001 391247.05737324 10798.41929361
0.18400001 386341.84053000 13937.28255553
0.18500001 381496.70938670 12772.51043367
0.18600001 376707.73733304 10566.65253140
0.18700001 371976.27243550 14685.62392957
0.18800001 367301.75203851 12495.60619472
0.18900001 362685.69558650 10336.54281259
0.19000001 358121.34385865 14364.24778086
0.19100001 353616.73713398 13239.41126386
0.19200001 349163.95169560 13140.78594298
0.19300001 344766.85755566 10032.71602894
0.19400001 340421.75752112 9957.33687802
0.19500001 336130.27962947 10870.45375690
0.19600001 331891.07032305 10788.11975066
0.19700001 327703.09026936 12652.61691323
0.19800001 323566.67540316 19316.93143446
0.19900001 319481.05740444 13418.20504513
0.20000001 315443.82081013 14265.94747036
0.20100001 311457.42324960 13212.02451868
0.20200001 307518.22185933 10300.32332801
0.20300001 303628.58305874 12078.34560496
0.20400001 299785.63464289 13827.61305148
0.20500001 295989.27512864 10975.28284054
0.20600001 292239.00066211 9981.42353942
0.20700001 288535.11404713 10802.75518056
0.20800001 284874.73863342 8930.82347832
0.20900001 281261.57593646 10631.68807297
0.21000001 277689.67125963 9667.76636192
0.21100001 274161.73850080 11333.84680541
0.21200001 270676.37103403 11242.54360238
0.21300001 267231.99791809 14582.85081580
0.21400001 263830.25411777 8508.52609755
0.21500001 260470.18781761 11814.92827799
0.21600001 257149.18483571 11718.28890699
0.21700001 253868.36082473 9961.79494975
0.21800001 250626.69577749 11526.32228378
0.21900001 247422.83973443 12247.43114593
0.22000001 244256.85546109 12145.67271208
0.22100001 241129.94976386 11241.47878953
0.22200001 238039.66727812 9554.91269634
0.22300001 234984.82376776 7895.49045194
0.22400001 231965.41902785 14091.89987230
0.22500001 228983.76379883 12420.07993576
0.22600001 226034.59847960 10775.06981906
0.22700001 223122.18742135 11446.16875599
0.22800001 220242.15811086 10591.44588442
0.22900001 217394.83825454 8250.13450192
0.23000001 214581.70869458 8178.78221368
0.23100001 211801.57274868 8844.83409628
0.23200001 209051.68758560 8036.99250933
0.23300001 206333.76048104 7966.54686895
0.23400001 203647.71797737 10050.01535750
0.23500001 200990.48482239 7826.56984915
0.23600001 198365.03494778 7757.06505852
0.23700001 195768.63233440 8386.72860588
0.23800001 193201.75829248 7618.91169863
0.23900001 190663.35716534 8236.65741913
0.24000001 188153.32306877 8842.26583586
0.24100001 185672.60737555 7413.90756319
0.24200001 183219.13721727 7346.17165421
0.24300001 180792.58926626 7940.41089618
0.24400001 178392.98413363 7867.13097244
0.24500001 176020.03478129 6495.13959068
0.24600001 173673.28962295 7078.05525341
0.24700001 171352.74194099 8286.61899227
0.24800001 169057.83668918 7577.17259886
0.24900001 166787.22402998 6879.97331671
0.25000001 164542.53534399 9292.54012317
0.25100001 162321.01329765 9203.60188939
0.25200001 160125.63610858 7292.12181337
0.25300001 157953.89304414 8425.26105358
0.25400001 155805.23957649 8343.37097406
0.25500001 153679.64702798 6491.42859758
0.25600001 151577.88275352 6427.66042227
0.25700001 149498.41848912 6364.14797619
0.25800001 147441.88466314 7446.55273724
0.25900001 145407.69689588 5670.90044726
0.26000001 143395.76757519 6736.73347943
0.26100001 141404.50257990 7780.07610007
0.26200001 139436.33457132 6050.84002503
0.26300001 137488.25348747 6533.44211487
0.26400001 135561.70768442 7005.15157606
0.26500001 133656.71936207 6399.48402587
0.26600001 131771.28020778 5805.18402425
0.26700001 129907.30641919 8355.63834427
0.26800001 128064.05940751 6717.60055410
0.26900001 126239.29418222 8180.30665011
0.27000001 124435.74918187 6069.97613234
0.27100001 122651.27411186 5004.17222058
0.27200001 120887.72250755 6930.49345933
0.27300001 119142.63303468 7834.81991914
0.27400001 117414.95165997 5327.70368370
0.27500001 115709.27734750 4790.36430889
0.27600001 114019.84370177 5211.27720302
0.27700001 112351.12076672 6090.55454501
0.27800001 110699.55331489 5559.33183058
0.27900001 109067.79332823 5497.01704390
0.28000001 107452.92098293 6340.79716730
0.28100001 105857.05874044 5821.07993564
0.28200001 104279.48758646 5754.66379482
0.28300001 102719.37779687 6563.76855188
0.28400001 101176.77647557 4325.30739905
0.28500001 99652.33774998  5130.10259018
0.28600001 98145.08524483  5915.20456768
0.28700001 96655.21358772  6680.80867940
0.28800001 95181.83001365  6601.81204223
0.28900001 93727.68854343  4484.87010909
0.29000001 92288.70272764  6042.60309711
0.29100001 90867.71785711  5174.00809969
0.29200001 89463.35481761  4718.29755642
0.29300001 88075.80383050  5826.21469918
0.29400001 86704.12635761  4987.65510482
0.29500001 85350.14756842  5305.36542399
0.29600001 84011.88525484  3742.72966527
0.29700001 82689.93013151  4805.11206741
0.29800001 81384.31971238  4745.11298546
0.29900001 80095.38423428  6127.29718398
0.30000001 78821.55924481  3558.79356838
0.30100001 77564.88016963  5270.53385703
0.30200001 76322.43342989  5550.16762177
0.30300001 75097.39378660  4794.21784630
0.30400001 73887.60672069  4056.42980100
0.30500001 72693.19365493  4671.26484541
0.30600001 71513.54569270  4281.15861558
0.30700001 70350.57009566  3250.19649229
0.30800001 69202.17687799  3528.27315517
0.30900001 68069.37825542  3481.74886261
0.31000001 66952.13871320  4372.64438638
0.31100001 65848.91833911  3698.07542901
0.31200001 64761.31744475  4256.76159718
0.31300001 63688.29154403  3299.69054112
0.31400001 62630.94031462  4143.03689797
0.31500001 61587.34358204  2919.24022401
0.31600002 60558.94772112  3743.45153062
0.31700002 59545.00957636  3124.32680040
0.31800002 58545.62448615  3361.68991717
0.31900002 57560.78444556  3039.20956263
0.32000002 56590.16231936  4087.22466704
0.32100002 55633.13520546  2955.78861342
0.32200002 54691.75228479  3179.77862840
0.32300002 53762.49981633  3135.42913775
0.32400002 52847.97040076  3091.60641484
0.32500002 51947.30028464  3302.29003546
0.32600002 51060.64806216  3005.42988725
0.32700002 50186.92372169  2716.11644043
0.32800002 49327.91007572  3164.63222076
0.32900002 48481.44342177  3119.78103192
0.33000002 47649.19541923  2365.78266459
0.33100002 46828.06010937  2565.24125427
0.33200002 46023.05124225  2758.62182209
0.33300002 45229.79324829  2492.61402395
0.33400002 44449.71896123  3127.03787701
0.33500002 43681.94286173  2201.57002449
0.33600002 42927.68446939  2603.99346323
0.33700002 42185.27102786  2566.55201088
0.33800002 41456.62629815  2951.29736593
0.33900002 40739.20689859  3116.54947533
0.34000002 40034.97755093  2047.78919871
0.34100002 39342.51288121  2623.75230831
0.34200002 38662.90768288  2585.96870284
0.34300002 37994.44736725  1960.51357700
0.34400002 37339.26423278  2318.76841867
0.34500002 36694.91956819  2856.69962368
0.34600002 36063.12766145  1877.08588368
0.34700002 35441.67659579  2035.06116651
0.34800002 34833.04481385  2735.26497355
0.34900002 34235.24603834  1977.08555235
0.35000002 33648.93602769  1948.77822234
0.35100002 33074.19091309  1746.31736292
0.35200002 32509.44943530  2409.92560078
0.35300002 31956.14766813  2714.99443448
0.35400002 31413.88620421  2341.90532745
0.35500002 30882.59063259  2803.52171041
0.35600002 30360.89223812  2113.57361326
0.35700002 29850.28101527  2564.73626631
0.35800002 29350.34172319  1738.56757432
0.35900002 28860.83827583  1714.33387478
0.36000002 28381.60563513  1844.23682152
0.36100002 27911.56082730  1515.59782471
0.36200002 27452.60377307  1793.75321550
0.36300002 27002.54114439  2064.07434285
0.36400002 26562.19488347  1454.28023876
0.36500002 26131.23694455  1721.52597145
0.36600002 25710.18182834  1839.94924970
0.36700002 25298.00264576  1536.09479341
0.36800002 24896.39067375  1653.61834688
0.36900002 24502.83751962  1495.89830143
0.37000002 24117.91670362  1476.37834095
0.37100002 23741.85518659  1324.79558217
0.37200002 23375.28788761  2223.34061275
0.37300002 23016.78722138  1807.73855400
0.37400002 22666.93104637  1402.51642493
0.37500002 22325.69535019  1762.83698836
0.37600002 21993.07280260  1492.44999108
0.37700002 21667.80162972  1597.13373379
0.37800002 21350.73737702  1213.78947738
0.37900002 21042.19178151  1559.22648487
0.38000002 20741.29358926  1422.43798174
0.38100002 20447.14872047  1405.94601262
0.38200002 20161.48442020  1505.76053526
0.38300002 19882.67539930  1603.33902016
0.38400002 19612.04935831  1472.37467533
0.38500002 19347.62080256  1680.34094631
0.38600002 19091.42550293  1329.90876354
0.38700002 18841.19992567  1315.86946515
0.38800002 18598.37621530  1085.21530358
0.38900002 18361.55026291  1288.98088952
0.39000002 18132.77761924  1063.48745775
0.39100002 17909.43166062  1263.68955784
0.39200002 17692.91231188  1147.29695322
0.39300002 17482.47743859  1136.53591213
0.39400002 17279.45286327  1126.18839372
0.39500002 17081.36587958  1521.94977198
0.39600002 16889.46871359  1609.22865527
0.39700002 16703.32774658  997.18871372
0.39800002 16523.34247510  1384.49093158
0.39900002 16348.67684432  1079.01272285
0.40000002 16179.47591012  1167.83462652
0.40100002 16016.20037243  965.77692822
0.40200002 15858.18955553  1150.35312486
0.40300002 15704.99034884  1046.89470626
0.40400002 15557.28534247  1039.61564227
0.40500002 15414.89748938  1126.52076190
0.40600002 15277.17958638  1865.34371588
0.40700002 15144.58470606  1204.90321630
0.40800002 15016.45542311  1105.51150063
0.40900002 14893.06590776  915.92359673
0.41000002 14774.80197821  1093.03990214
0.41100002 14660.35358924  996.61088422
0.41200002 14550.28883241  1171.80756664
0.41300002 14445.22692079  1166.16322457
0.41400002 14343.65345963  892.89247017
0.41500002 14246.53153381  1155.67869278
0.41600002 14152.93696090  973.79287374
0.41700002 14063.62004702  1058.14682248
0.41800002 13979.08884550  966.44435313
0.41900002 13896.35618971  1138.11162587
0.42000002 13818.47558751  1047.16412964
0.42100002 13744.63343373  957.03887134
0.42200002 13674.04754252  1301.42753653
0.42300002 13606.41440104  1124.97839599
0.42400002 13542.16636666  863.31314678
0.42500002 13481.51009037  1464.49651051
0.42600002 13423.20952692  1203.65925532
0.42700002 13369.26008590  1201.62915346
0.42800002 13317.62382911  1114.08587422
0.42900002 13269.79313187  1283.85254635
0.43000002 13224.35007366  940.44970005
0.43100002 13180.86521260  939.53211688
0.43200002 13141.21006240  1024.22596080
0.43300002 13103.94596779  1108.98699981
0.43400002 13069.23356930  938.04428389
0.43500002 13036.96252713  937.87912865
0.43600002 13007.60112769  937.91312376
0.43700002 12979.95906994  852.78335131
0.43800002 12954.56893015  1108.97592582
0.43900002 12932.23177338  1109.58553874
0.44000002 12911.60588576  854.10276982
0.44100002 12893.39690198  1111.28193165
0.44200002 12877.06647537  941.24921862
0.44300002 12862.97033360  1199.34341074
0.44400002 12850.98035720  1029.36357539
0.44500002 12839.66642864  1374.35795965
0.44600002 12830.83658079  946.33839686
0.44700002 12824.63696017  947.99720902
0.44800002 12818.79390526  1122.34955357
0.44900002 12816.23144646  951.60523000
0.45000002 12814.48392789  1473.72979397
0.45100002 12814.11396006  868.79696767
0.45200002 12815.48629722  957.89356868
0.45300002 12817.95296863  960.19290239
0.45400002 12822.45854106  1225.18597166
0.45500002 12828.03255294  1140.66870867
0.45600002 12834.87862748  1231.76336026
0.45700002 12842.99326820  1147.00778314
0.45800002 12852.05876257  1061.83714529
0.45900002 12862.26077914  887.49603582
0.46000002 12874.37334454  1602.47332614
0.46100002 12886.53977781  1071.64469871
0.46200002 12900.52431437  1702.28876658
0.46300002 12915.58563178  1438.27968412
0.46400002 12930.72035191  1352.87668094
0.46500002 12947.50153555  995.53344025
0.46600002 12964.72232511  998.99672611
0.46700002 12982.53981902  1093.64920619
0.46800002 13002.18375159  1006.17403731
0.46900002 13021.50438602  1009.81771300
0.47000002 13041.89606140  921.41000041
0.47100002 13062.93406933  1109.82693113
0.47200002 13084.92968603  1299.72612732
0.47300002 13107.59370485  1397.92493488
0.47400002 13130.06982351  935.51751927
0.47500002 13153.56917616  1314.83083717
0.47600002 13177.83685482  1131.44912598
0.47700002 13201.98086057  1230.55669434
