# SAXS profile: number of points = 501, q_min = 0, q_max = 0.5, delta_q = 0.001
#    q    intensity    error
0.00000000 1664650.74656090 424.48594037
0.00100000 1664564.78757647 649.18028257
0.00200000 1664306.88164005 898.72574454
0.00300000 1663877.23442851 1597.32220195
0.00400000 1663275.73743803 1746.43959067
0.00500000 1662503.03589608 1496.25279153
0.00600000 1661558.96534534 2093.56438157
0.00700000 1660444.24909127 3387.30640892
0.00800000 1659158.69828133 2463.85077097
0.00900000 1657703.75207854 3978.48917506
0.01000000 1656078.69377945 3005.78295900
0.01100000 1654285.16968604 3573.25612210
0.01200000 1652323.03881283 4510.84209373
0.01300000 1650193.68177671 4851.56963840
0.01400000 1647897.21529145 6673.98401779
0.01500000 1645435.24568642 6318.47162479
0.01600000 1642807.35992899 5445.90664162
0.01700000 1640015.73346304 4870.84694689
0.01800000 1637060.92097396 4665.62383472
0.01900000 1633943.91072042 6372.38153935
0.02000000 1630665.33988280 7704.89407948
0.02100000 1627228.05599521 6443.82339389
0.02200000 1623630.62848738 7842.13629188
0.02300000 1619876.15927011 5831.55443882
0.02400000 1615965.21777200 6665.85682726
0.02500000 1611900.32334710 8172.33501261
0.02600000 1607681.51001245 6511.11041336
0.02700000 1603311.17016528 7407.29794543
0.02800000 1598789.31409919 8345.68060233
0.02900000 1594119.50502300 8608.24572236
0.03000000 1589302.39686533 11085.38472768
0.03100000 1584339.40013168 10646.76125878
0.03200000 1579231.92518633 10162.35790663
0.03300000 1573984.14198988 8830.05144363
0.03400000 1568594.21823332 10705.65603341
0.03500000 1563066.44443167 9284.61510867
0.03600000 1557401.43153809 10372.29401339
0.03700000 1551602.18008790 9728.54611907
0.03800000 1545670.05390095 10850.60428055
0.03900000 1539607.82053972 10161.41208614
0.04000000 1533415.27700945 14145.75658591
0.04100000 1527096.73028469 11544.85181625
0.04200000 1520653.64501527 11769.85975846
0.04300000 1514087.52574676 15988.76501405
0.04400000 1507401.67283436 12209.95411701
0.04500000 1500598.06328098 13460.36525306
0.04600000 1493677.33042148 11583.46823590
0.04700000 1486643.57303828 10703.83422369
0.04800000 1479498.47731860 15224.04003995
0.04900000 1472244.35633754 13250.19982380
0.05000000 1464883.20497969 13447.62844792
0.05100000 1457418.69739591 13641.43964310
0.05200000 1449850.39348664 12678.94228190
0.05300000 1442183.40867547 12849.85477033
0.05400000 1434418.92632238 13017.35236343
0.05500000 1426560.23378907 19172.97043653
0.05600000 1418608.47197190 13342.01330149
0.05700000 1410568.25558811 18407.91659468
0.05800000 1402439.13769243 16135.06303254
0.05900000 1394224.92793629 13802.82743124
0.06000000 1385929.44686696 20290.00805006
0.06100000 1377553.96651822 17935.75348223
0.06200000 1369101.30143057 16819.41027427
0.06300000 1360574.78966615 13061.51859149
0.06400000 1351973.59868306 23727.13776653
0.06500000 1343304.22977134 14628.58374650
0.06600000 1334567.98811955 20118.61336222
0.06700000 1325765.86324985 16227.37492560
0.06800000 1316902.37436742 20444.91031906
0.06900000 1307980.72198089 17853.93769094
0.07000000 1299000.57950689 15217.79250155
0.07100000 1289966.46772033 15324.80235430
0.07200000 1280880.09795144 18233.32904851
0.07300000 1271745.12967709 18351.28308110
0.07400000 1262564.22967796 17044.61789943
0.07500000 1253338.09796770 17145.66598386
0.07600000 1244069.78998448 21553.51012192
0.07700000 1234763.47867393 15891.40671566
0.07800000 1225420.01459345 17425.47342471
0.07900000 1216041.41626818 16051.74744763
0.08000000 1206633.01143020 21990.88766493
0.08100000 1197195.19099043 16198.05169408
0.08200000 1187729.48746997 23659.57250063
0.08300000 1178239.58814092 16330.40145805
0.08400000 1168728.19970496 23842.05639310
0.08500000 1159197.15192473 31402.65231984
0.08600000 1149649.44027275 21004.09625996
0.08700000 1140086.50477415 16554.05682666
0.08800000 1130510.64533574 19620.01317123
0.08900000 1120925.15098625 15132.49024908
0.09000000 1111331.85756444 19720.58473887
0.09100000 1101732.82343093 15203.91367764
0.09200000 1092129.91761741 24376.34090659
0.09300000 1082527.25857129 16789.99856944
0.09400000 1072923.75962912 16818.08072259
0.09500000 1063323.63780502 16843.04721450
0.09600000 1053728.21079276 15331.74618775
0.09700000 1044142.81379008 15348.90008431
0.09800000 1034565.83500801 23044.95505832
0.09900000 1025001.10310644 15375.01726957
0.10000000 1015448.26328086 18460.85029461
0.10100000 1005911.58222865 20007.58231152
0.10200000 996392.35091599 21551.96756404
0.10300000 986892.12702009 26172.38043974
0.10400000 977413.64340710 20012.54529025
0.10500000 967959.86921612 26163.95649591
0.10600001 958527.69841466 16922.80731179
0.10700001 949124.57839631 15375.81889357
0.10800001 939748.27690359 23047.32757571
0.10900001 930403.22190610 27632.97699118
0.11000001 921090.02324014 16869.76456970
0.11100001 911809.47932597 21445.75996327
0.11200001 902564.51575443 18358.16311469
0.11300001 893355.39484843 22914.56695670
0.11400001 884184.73631549 16777.40616154
0.11500001 875054.31022842 18271.13485792
0.11600001 865964.50859008 16717.44562558
0.11700001 856917.28481872 19717.66765228
0.11800001 847913.10428338 18162.29954916
0.11900001 838953.53679512 22651.74656040
0.12000001 830040.18426919 16571.75305955
0.12100001 821175.99672754 22541.28217205
0.12200001 812359.64239433 14988.03610828
0.12300001 803593.83485309 19430.89984222
0.12400001 794878.76577813 20865.56858481
0.12500001 786214.97983589 20803.24934672
0.12600001 777606.12853797 14813.39744671
0.12700001 769050.93657815 16242.35654597
0.12800001 760550.53452549 17659.98424398
0.12900001 752106.60547325 17599.29539757
0.13000001 743720.08708215 20459.74056000
0.13100001 735390.53934572 17472.88003848
0.13200001 727119.71795063 15956.64296263
0.13300001 718909.61453222 15895.09232665
0.13400001 710758.65387249 17271.43610337
0.13500001 702669.37192532 14334.45586312
0.13600001 694641.14268256 15702.36377072
0.13700001 686675.74894740 18478.44527549
0.13800001 678772.11467593 18398.11903587
0.13900001 670933.14437748 16907.51603564
0.14000001 663157.69727977 14025.78595893
0.14100001 655446.53375151 15357.11301008
0.14200001 647800.02030409 18063.90441817
0.14300001 640219.97584413 19360.25298270
0.14400001 632703.28830203 19265.81603756
0.14500001 625254.34777546 20539.60629332
0.14600001 617871.22609515 17711.27953154
0.14700001 610556.49296808 16265.22574001
0.14800001 603305.80428926 18877.43950682
0.14900001 596123.57275024 17436.61532562
0.15000001 589008.04365902 22679.75579119
0.15100001 581960.57062001 19903.05245433
0.15200001 574980.54538503 14515.38455318
0.15300001 568069.30200063 17059.12194408
0.15400001 561223.39034340 13048.44444125
0.15500001 554447.21432743 12974.06542755
0.15600001 547736.27965483 16768.94699304
0.15700001 541096.59788207 12823.98997506
0.15800001 534520.83344558 16572.81922320
0.15900001 528015.14570786 13939.60050464
0.16000001 521574.65986023 15115.23435623
0.16100001 515204.65711971 13771.42113488
0.16200001 508900.53336622 17419.66607944
0.16300001 502663.32574149 13602.07023669
0.16400001 496493.37361098 13517.03273469
0.16500001 490389.49682965 13431.76895230
0.16600001 484353.00931102 13346.34780169
0.16700001 478381.28212195 14466.25065439
0.16800001 472475.14644511 14372.69463349
0.16900001 466636.61372748 15469.00447548
0.17000001 460861.79878370 16549.54797579
0.17100001 455151.81286053 15265.79252421
0.17200001 449507.13684010 13997.65290221
0.17300001 443926.46724585 13903.77761074
0.17400001 438409.84905669 16111.56271372
0.17500001 432956.25256349 14859.05928974
0.17600001 427564.55394921 11351.83944349
0.17700001 422237.15584498 13528.47911223
0.17800001 416970.04485673 11195.64623320
0.17900001 411765.71920178 13341.20993229
0.18000001 406622.17572969 12143.77185178
0.18100001 401540.95315793 12058.27539292
0.18200001 396517.17705125 13061.27642906
0.18300001 391554.17411778 10806.89571616
0.18400001 386650.00514447 13948.39959452
0.18500001 381805.91337113 13848.10113218
0.18600001 377018.09667202 15863.03716690
0.18700001 372287.69835206 13648.06766639
0.18800001 367614.17347419 13548.42100350
0.18900001 362999.10155580 14483.66483639
0.19000001 358435.71445704 14376.85718616
0.19100001 353932.05779806 14270.54124470
0.19200001 349479.89652497 13152.67652720
0.19300001 345083.84724457 12050.32851519
0.19400001 340739.50952993 10963.29423718
0.19500001 336448.99627778 14837.40143699
0.19600001 332210.46168126 10798.50156725
0.19700001 328023.32968194 13639.21069273
0.19800001 323887.61189245 10634.85023908
0.19900001 319802.66290384 13431.71247674
0.20000001 315766.17421828 10472.38566289
0.20100001 311780.39103089 12281.03018314
0.20200001 307841.81318148 10311.16201986
0.20300001 303952.65986958 12091.23738110
0.20400001 300110.33878430 15688.26870147
0.20500001 296314.50317020 9156.11858074
0.20600001 292564.85562440 14534.62271444
0.20700001 288861.36537791 9913.72252838
0.20800001 285201.47491065 11623.38665942
0.20900001 281588.69581493 8870.04433747
0.21000001 278017.22435394 12318.94379347
0.21100001 274489.75832462 9601.65220010
0.21200001 271004.65946117 9524.45920703
0.21300001 267560.65417865 8588.69740517
0.21400001 264159.14746042 10222.95949002
0.21500001 260799.41848209 11829.86218163
0.21600001 257478.66454331 10895.21020526
0.21700001 254198.06761328 10805.96036514
0.21800001 250956.53536759 9068.31483426
0.21900001 247752.83790830 8993.42844129
0.22000001 244586.95910329 8108.05807764
0.22100001 241460.12824667 11256.87171112
0.22200001 238370.11162709 10365.52479423
0.22300001 235315.18538710 12650.54496460
0.22400001 232295.91014172 8623.98607181
0.22500001 229314.18616038 10105.87666197
0.22600001 226364.98130241 10020.04637118
0.22700001 223452.52643339 10698.90747157
0.22800001 220572.45489776 9091.99702085
0.22900001 217725.00443460 9764.96691069
0.23000001 214911.69024231 7446.69041906
0.23100001 212131.36087567 8858.60604912
0.23200001 209381.17789198 9513.23426744
0.23300001 206663.12825525 11606.20183172
0.23400001 203976.91967086 7909.20543431
0.23500001 201319.40477424 9977.39017250
0.23600001 198693.64719893 8476.27139041
0.23700001 196096.96779028 8400.79449748
0.23800001 193529.70029854 7631.84409225
0.23900001 190991.00858552 9625.94728801
0.24000001 188480.55734957 9539.00145866
0.24100001 185999.42509301 8777.31328532
0.24200001 183545.41781411 12042.41543241
0.24300001 181118.60208448 6628.94114986
0.24400001 178718.45867429 8538.27476706
0.24500001 176344.98945183 11062.12171160
0.24600001 173997.79020239 6446.61843196
0.24700001 171676.71440314 7663.64889349
0.24800001 169381.20861813 8224.30497352
0.24900001 167109.92354588 10653.25813003
0.25000001 164864.60994492 6207.15285808
0.25100001 162642.40431822 7992.24812630
0.25200001 160446.51625478 7915.62925392
0.25300001 158273.99582931 7236.28743167
0.25400001 156124.70283782 7166.12419929
0.25500001 153998.42526300 7096.24777186
0.25600001 151895.86608961 7026.70309776
0.25700001 149815.57771191 6377.64944494
0.25800001 147758.31049469 7462.53382462
0.25900001 145723.28052720 7388.17067230
0.26000001 143710.43151227 7314.14275789
0.26100001 141718.43698732 7797.34877198
0.26200001 139749.30877079 6064.42154106
0.26300001 137800.37168730 6002.58447473
0.26400001 135872.95307184 7021.23518222
0.26500001 133967.03597702 6414.34198610
0.26600001 132080.60961273 5818.81153183
0.26700001 130215.70876471 5758.13891405
0.26800001 128371.38090002 7769.67819664
0.26900001 126545.74383550 6662.63372822
0.27000001 124741.11984918 8113.16281892
0.27100001 122955.58650266 6019.90580005
0.27200001 121191.03165279 6451.60487535
0.27300001 119444.84349288 7854.69327981
0.27400001 117716.05685391 6312.52384753
0.27500001 116009.18437101 5283.05850628
0.27600001 114318.61283738 7124.90788228
0.27700001 112648.77407283 5167.19951127
0.27800001 110996.14600657 6967.78339533
0.27900001 109363.11718925 5511.90136720
0.28000001 107747.05739622 6812.30802629
0.28100001 106149.92528063 5837.18466745
0.28200001 104571.12545183 7102.47117685
0.28300001 103009.79074084 4827.03902258
0.28400001 101465.95626191 6072.73776970
0.28500001 99940.20204459  6002.40881890
0.28600001 98431.71744858  5932.47989142
0.28700001 96940.49167454  5025.39532627
0.28800001 95465.82377776  4966.13238798
0.28900001 94010.29029020  5725.22694967
0.29000001 92570.00232360  4444.74887196
0.29100001 91147.68842683  3992.26894207
0.29200001 89741.92792304  5916.23687837
0.29300001 88352.94351691  5454.91099095
0.29400001 86979.88120759  6158.17588100
0.29500001 85624.54399460  4181.90292666
0.29600001 84284.79074467  4505.86512651
0.29700001 82961.47567045  4820.89157942
0.29800001 81654.37502009  4394.63867162
0.29900001 80364.00150237  6871.12245373
0.30000001 79088.74357171  3927.94263544
0.30100001 77830.52289803  4583.43971045
0.30200001 76586.64286475  3828.94939129
0.30300001 75360.02037454  4467.34221929
0.30400001 74148.71658033  4409.99512739
0.30500001 72952.92981560  4018.24756448
0.30600001 71771.67354383  4627.12001243
0.30700001 70607.13125106  4240.66450371
0.30800001 69457.28034369  4185.14862525
0.30900001 68322.81973882  4765.51690240
0.31000001 67203.97524755  3135.06559373
0.31100001 66099.10062897  3402.78186148
0.31200001 65010.03301836  3662.66543367
0.31300001 63935.35714939  3914.76210361
0.31400001 62876.48189525  3268.00530123
0.31500001 61831.25420603  3516.96190576
0.31600002 60801.25638631  3469.31985367
0.31700002 59785.59532776  4562.83685146
0.31800002 58784.59296740  2812.84290667
0.31900002 57798.05296396  3051.73734099
0.32000002 56825.89541799  3009.78369333
0.32100002 55867.14705916  3238.05999687
0.32200002 54924.10648578  2661.07308524
0.32300002 53993.08415681  2624.06401427
0.32400002 53076.98041952  2587.50291797
0.32500002 52174.57024416  3316.73758747
0.32600002 51286.24611271  3773.38573642
0.32700002 50410.83897322  3224.27741341
0.32800002 49550.09755039  3178.88665888
0.32900002 48701.90626271  3375.04226383
0.33000002 47868.02932933  3089.64209937
0.33100002 47045.15287339  2811.41846885
0.33200002 46238.37932730  3695.37145083
0.33300002 45443.30332710  2959.72248585
0.33400002 44661.60749739  3366.36882453
0.33500002 43892.00121387  2433.37266253
0.33600002 43136.06998274  2180.52844089
0.33700002 42391.87932932  2149.26838378
0.33800002 41661.47955962  2965.88087031
0.33900002 40942.26170926  2088.05544606
0.34000002 40236.24618298  3087.12613459
0.34100002 39542.04117000  3448.46157375
0.34200002 38860.72813604  2799.13838020
0.34300002 38190.45145803  2167.69012742
0.34400002 37533.47330674  2525.06453630
0.34500002 36887.31715112  2297.34222097
0.34600002 36253.82542574  2264.41404334
0.34700002 35630.45954808  1859.91007650
0.34800002 35020.18043640  2383.29849248
0.34900002 34420.50953191  1987.78451961
0.35000002 33832.40927993  2671.91464943
0.35100002 33255.90595476  1931.50310933
0.35200002 32689.33685301  2077.08056202
0.35300002 32134.19997126  1706.32609929
0.35400002 31590.23196029  1850.39792472
0.35500002 31057.11386703  1658.44995905
0.35600002 30533.61946418  1635.07539975
0.35700002 30021.14673791  2095.77635304
0.35800002 29519.46875719  1748.58581465
0.35900002 29028.06081587  1724.26689413
0.36000002 28547.06981676  2318.73585570
0.36100002 28075.18146568  1981.82715353
0.36200002 27614.47329713  2105.05139915
0.36300002 27162.52489800  1779.68871562
0.36400002 26720.35361661  2194.40914471
0.36500002 26287.56145256  2597.73694579
0.36600002 25864.72947662  1993.39479519
0.36700002 25450.70520395  1545.36689319
0.36800002 25047.24564823  1525.00162353
0.36900002 24651.85321430  1915.44908548
0.37000002 24265.11734304  1485.38922852
0.37100002 23887.27439461  1866.07396410
0.37200002 23518.94906542  1447.47378880
0.37300002 23158.56737532  2078.71310608
0.37400002 22806.88687351  1282.88744741
0.37500002 22463.88881046  1393.65972782
0.37600002 22129.35080667  1877.12227110
0.37700002 21802.29620089  1359.80927847
0.37800002 21483.44443221  1343.46726121
0.37900002 21173.05566155  1689.60992183
0.38000002 20870.35285974  1431.28886693
0.38100002 20574.34867956  1768.36535278
0.38200002 20286.89093375  1515.12652116
0.38300002 20006.25896055  1152.36057072
0.38400002 19733.84094646  1481.51817924
0.38500002 19467.52140487  1127.16954274
0.38600002 19209.54250095  1449.64819351
0.38700002 18957.53818784  1103.32877480
0.38800002 18712.85768687  1310.27435731
0.38900002 18474.26192791  1513.04212358
0.39000002 18243.64563194  1176.98885371
0.39100002 18018.41289268  2118.96545657
0.39200002 17800.14077873  1573.97752293
0.39300002 17587.83497517  1039.44109628
0.39400002 17383.04919972  1132.94028527
0.39500002 17183.17476757  1122.74869251
0.39600002 16989.47527014  1214.06796032
0.39700002 16801.52690600  1203.66144457
0.39800002 16619.66706444  1193.62454512
0.39900002 16443.19280845  1381.22826135
0.40000002 16272.27163552  978.77718525
0.40100002 16107.14681594  971.26099902
0.40200002 15947.36203510  1542.42892911
0.40300002 15792.38526891  957.01859264
0.40400002 15642.94081325  1330.43217920
0.40500002 15498.62530209  1227.02622330
0.40600002 15359.22395850  937.68066709
0.40700002 15224.71879253  1397.62925138
0.40800002 15094.89866371  1389.10811535
0.40900002 14969.70275018  920.63676276
0.41000002 14849.58585924  1373.21551740
0.41100002 14733.39996039  1365.78624104
0.41200002 14621.52041940  1358.70484935
0.41300002 14514.63440210  1352.03825862
0.41400002 14411.35519794  1255.94966501
0.41500002 14312.44758605  1250.33548036
0.41600002 14217.05837330  1067.13245206
0.41700002 14126.00873731  974.27086878
0.41800002 14039.65159233  882.39214439
0.41900002 13955.16419259  1670.43323301
0.42000002 13875.59625443  1051.49273399
0.42100002 13799.87944716  960.88565144
0.42200002 13727.61921467  1219.42447262
0.42300002 13658.21209090  868.66233014
0.42400002 13592.18961422  953.15234186
0.42500002 13529.78897039  864.55355618
0.42600002 13469.73835212  949.01046057
0.42700002 13414.00451912  1291.76869640
0.42800002 13360.59682785  945.72989127
0.42900002 13311.00741080  1116.12802429
0.43000002 13263.81703222  1286.25871765
0.43100002 13218.59636331  1199.19111891
0.43200002 13177.20083464  941.44515824
0.43300002 13138.16912265  1026.35382050
0.43400002 13101.76690660  1111.35743052
0.43500002 13067.72815689  1196.48124674
0.43600002 13036.62130641  1025.46068056
0.43700002 13007.22255039  854.57456206
0.43800002 12980.16817510  1111.16734929
0.43900002 12956.09054672  1282.65302491
0.44000002 12933.71710489  1197.79159785
0.44100002 12913.80839816  1284.27830606
0.44200002 12895.76540669  1199.69311264
0.44300002 12879.90757622  1286.70282784
0.44400002 12866.29506081  1116.47280681
0.44500002 12853.29312387  945.87388581
0.44600002 12842.66386660  1119.43084898
0.44700002 12834.83770818  948.75124835
0.44800002 12827.25842765  863.91589604
0.44900002 12822.92961773  1211.76690630
0.45000002 12819.55364085  1127.41569838
0.45100002 12817.49120406  955.92853930
0.45200002 12817.16023981  1306.38911936
0.45300002 12817.93898938  1047.48202386
0.45400002 12820.69704680  875.01261491
0.45500002 12824.60714240  964.92348713
0.45600002 12829.77765151  1055.37755963
0.45700002 12836.23905873  1234.58953118
0.45800002 12843.55210643  1061.13432532
0.45900002 12852.14361257  886.79795130
0.46000002 12862.57937962  978.39214688
0.46100002 12873.01892986  1070.52030494
0.46200002 12885.42150376  1521.31736194
0.46300002 12898.76684662  1256.85590110
0.46400002 12912.27741687  990.69453176
0.46500002 12927.37185598  1084.34800267
0.46600002 12942.96658294  1994.64067463
0.46700002 12959.17763634  1000.70774451
0.46800002 12977.17351523  1369.41630010
0.46900002 12994.84024858  1282.59079333
0.47000002 13013.60486509  1195.23459548
0.47100002 13033.00889393  1107.28448811
0.47200002 13053.38314488  1203.97885143
0.47300002 13074.39078876  1394.38384371
0.47400002 13095.28663022  1026.34313829
0.47500002 13117.08352924  1311.18373173
0.47600002 13139.86909868  1598.26805357
0.47700002 13162.33330631  1038.11327707
