# SAXS profile: number of points = 501, q_min = 0, q_max = 0.5, delta_q = 0.001
#    q    intensity    error
0.00000000 1646666.22097350 271.69992646
0.00100000 1646580.70019612 691.56391051
0.00200000 1646324.10772762 889.01504632
0.00300000 1645896.65640600 1185.04563483
0.00400000 1645298.21473381 1233.97370794
0.00500000 1644529.45486907 1776.09188156
0.00600000 1643590.18391311 2243.50069238
0.00700000 1642481.16979077 2562.27073136
0.00800000 1641202.18074403 2437.18534130
0.00900000 1639754.63471925 3443.48488011
0.01000000 1638137.88140852 2702.92762104
0.01100000 1636353.53723243 4123.61109336
0.01200000 1634401.42608981 4780.62438091
0.01300000 1632282.96838429 4113.35326175
0.01400000 1629998.27598746 3667.49628356
0.01500000 1627548.93508720 4687.34114177
0.01600000 1624934.51003435 4972.29982298
0.01700000 1622157.25090700 6131.75468349
0.01800000 1619217.65048453 5999.20166499
0.01900000 1616116.63487031 5818.02014806
0.02000000 1612855.04316172 5588.54297736
0.02100000 1609435.45747369 6373.36470055
0.02200000 1605856.62843830 7756.28786774
0.02300000 1602121.60422657 5767.63803775
0.02400000 1598230.96745526 7791.37632161
0.02500000 1594187.12026514 7460.79606358
0.02600000 1589990.33475435 7727.35338034
0.02700000 1585642.70320665 8657.60955604
0.02800000 1581144.47447782 6877.97877940
0.02900000 1576499.05824056 7803.67069659
0.03000000 1571707.15568572 7308.43860987
0.03100000 1566770.29062984 13536.89593392
0.03200000 1561689.64366183 9276.43691061
0.03300000 1556469.45526814 9525.59350538
0.03400000 1551107.98590731 9771.98076210
0.03500000 1545609.54430314 11684.80869451
0.03600000 1539974.52928303 9401.54493575
0.03700000 1534206.13257157 9619.47289610
0.03800000 1528305.69109794 9834.64757736
0.03900000 1522275.72438147 10960.38572312
0.04000000 1516116.36668945 10256.52769593
0.04100000 1509831.77732722 12365.52282966
0.04200000 1503423.42945168 11636.49788381
0.04300000 1496892.79501301 13831.29006794
0.04400000 1490242.99655592 11065.05476331
0.04500000 1483476.39513457 17401.17892347
0.04600000 1476593.31084707 14573.97665556
0.04700000 1469598.09055058 14813.54944170
0.04800000 1462492.05384830 16123.97564390
0.04900000 1455277.80342579 13097.50084049
0.05000000 1447957.21000102 13292.24780678
0.05100000 1440534.10196632 12359.78317064
0.05200000 1433007.70772325 13670.89416876
0.05300000 1425383.45246969 16163.84910453
0.05400000 1417662.25744440 12865.28558627
0.05500000 1409847.73271275 14211.26580869
0.05600000 1401940.53206642 14383.91053021
0.05700000 1393945.75685570 12127.32865073
0.05800000 1385862.69028774 14717.86245807
0.05900000 1377695.25036098 14879.10939884
0.06000000 1369447.21545486 17542.61964955
0.06100000 1361119.66580249 16455.93752856
0.06200000 1352715.59619502 14061.47927973
0.06300000 1344238.28590254 16776.09459244
0.06400000 1335686.93095289 14325.24300441
0.06500000 1327068.18638377 18393.16592367
0.06600000 1318383.06293394 14574.72544266
0.06700000 1309632.62685860 13358.25341911
0.06800000 1300821.26830991 16156.20090867
0.06900000 1291952.54606881 16278.60284261
0.07000000 1283025.86907570 15030.64876008
0.07100000 1274045.80810317 16511.63444639
0.07200000 1265013.99569934 13851.90390183
0.07300000 1255934.11853063 13940.86936890
0.07400000 1246808.84173270 14026.60012684
0.07500000 1237638.88814621 15519.99238481
0.07600000 1228427.22656174 24120.16972431
0.07700000 1219178.13981707 19970.13886657
0.07800000 1209892.47116409 18638.39439235
0.07900000 1200571.94739240 14406.86404444
0.08000000 1191222.27780420 15920.68648971
0.08100000 1181843.65044483 18897.68085726
0.08200000 1172437.59894897 27734.01270456
0.08300000 1163007.75792804 23446.23750021
0.08400000 1153557.02954653 19120.20866221
0.08500000 1144087.03992609 22138.08526185
0.08600000 1134600.64981574 16287.19309281
0.08700000 1125099.69442262 20791.84332927
0.08800000 1115586.13943177 19360.99835910
0.08900000 1106063.36716706 17918.22738972
0.09000000 1096533.31060882 16464.44843222
0.09100000 1086997.58983194 19500.73767775
0.09200000 1077458.70049059 22545.82436712
0.09300000 1067920.34189552 16563.44528115
0.09400000 1058381.44803948 16590.12997771
0.09500000 1048846.32069335 16613.72650067
0.09600000 1039316.36253830 16634.25916437
0.09700000 1029796.69448413 18165.61454472
0.09800000 1020285.76844238 25757.11543537
0.09900000 1010787.30545388 18194.17235370
0.10000000 1001301.25258893 18203.65762813
0.10100000 991831.51131573 15175.02283684
0.10200000 982379.47113655 19731.09260586
0.10300000 972946.92380838 25802.55363317
0.10400000 963536.25938702 25798.68455879
0.10500000 954150.68113115 16688.09619815
0.10600001 944786.81172837 18196.59485010
0.10700001 935452.35478547 19700.62751885
0.10800001 926144.86068529 18170.96302180
0.10900001 916868.91658242 15128.33783564
0.11000001 907625.06131384 18134.34957863
0.11100001 898413.97799727 19621.36220310
0.11200001 889238.87175263 16579.85954436
0.11300001 880099.82437991 24079.53232872
0.11400001 870999.27381479 19532.15963496
0.11500001 861938.97164949 17997.28657550
0.11600001 852919.87619293 20956.24234492
0.11700001 843943.23248023 16431.57551023
0.11800001 835009.93313480 16395.42080930
0.11900001 826121.29652340 19331.23924918
0.12000001 817278.96210354 17800.33663310
0.12100001 808486.05569744 16274.82506787
0.12200001 799741.16107067 20657.31516365
0.12300001 791046.66436906 22070.20297572
0.12400001 782403.18187061 16137.06638642
0.12500001 773811.13967127 17550.03747471
0.12600001 765274.05583393 17494.16574075
0.12700001 756790.58625800 17436.45592910
0.12800001 748362.27422998 17376.97282658
0.12900001 739990.26212796 14429.81079160
0.13000001 731675.62268831 24441.62532796
0.13100001 723418.22678602 17188.41787866
0.13200001 715219.52446260 18549.21924135
0.13300001 707081.45328771 18476.03924542
0.13400001 699002.72470732 18401.24759546
0.13500001 690985.56285835 21144.15922037
0.13600001 683029.62962217 15439.88550561
0.13700001 675136.44100374 18167.92248409
0.13800001 667305.04244534 15304.64187019
0.13900001 659538.02641339 16620.35904940
0.14000001 651834.71332051 16543.56580428
0.14100001 644195.65495852 16465.64171731
0.14200001 636621.20622107 15021.07806926
0.14300001 629113.21896528 20383.26925590
0.14400001 621668.38368054 16225.54557942
0.14500001 614291.36213359 18834.17405146
0.14600001 606980.01554498 13383.90997414
0.14700001 599737.14056200 17308.41469317
0.14800001 592557.98797482 17216.77315287
0.14900001 585447.28386624 14489.82095933
0.15000001 578403.33457070 15721.00337539
0.15100001 571427.17572189 19542.81033182
0.15200001 564518.47260005 19433.54933627
0.15300001 557678.43154494 12882.37237659
0.15400001 550903.55056149 15370.20978600
0.15500001 544198.23400689 12734.23927673
0.15600001 537558.05533029 22787.08704089
0.15700001 530988.94720002 13842.88250684
0.15800001 524483.72378890 15010.72488333
0.15900001 518048.27437010 16163.10692326
0.16000001 511677.98017983 21006.94046786
0.16100001 505378.14310018 14736.82734844
0.16200001 499143.66536520 18306.09479143
0.16300001 492976.20499983 14552.65825859
0.16400001 486875.61851994 15665.22376543
0.16500001 480841.09813705 13170.23829976
0.16600001 474873.70870556 13085.14566117
0.16700001 468970.78462762 14181.67719672
0.16800001 463133.22329389 11740.42776484
0.16900001 457363.21076094 16327.86739514
0.17000001 451656.55079819 17377.48661252
0.17100001 446014.78760751 14959.33668276
0.17200001 440437.94822390 13715.23835537
0.17300001 434924.88075239 13621.84790845
0.17400001 429475.43634621 12401.10381015
0.17500001 424089.06099999 12315.54691307
0.17600001 418764.33719966 12230.01304553
0.17700001 413503.48058024 11040.54345294
0.17800001 408302.76384493 13155.51567245
0.17900001 403164.44504848 21770.88106093
0.18000001 398086.89615981 10808.05974126
0.18100001 393071.28026228 11803.93110385
0.18200001 388112.89595722 10653.69949728
0.18300001 383214.90560590 13749.75146267
0.18400001 378375.53645122 13649.89812231
0.18500001 373595.93785953 11465.65987457
0.18600001 368872.31223208 11381.55573162
0.18700001 364205.90622830 12324.72844905
0.18800001 359596.08212486 14272.36917385
0.18900001 355044.30968696 12142.51596500
0.19000001 350544.15311350 10043.09046123
0.19100001 346103.17074893 11961.32614626
0.19200001 341713.46420126 11871.12630728
0.19300001 337379.74366211 12763.07630583
0.19400001 333097.10348550 12666.01795855
0.19500001 328868.33724898 11602.47548642
0.19600001 324691.03105107 12473.00654726
0.19700001 320564.84012409 13329.08668226
0.19800001 316489.79929329 11336.66514644
0.19900001 312465.10632020 10311.34899588
0.20000001 308488.69827659 13951.40203892
0.20100001 304562.63045329 10151.07295277
0.20200001 300683.39319326 11902.55268211
0.20300001 296853.37227665 9992.08498310
0.20400001 293069.67917055 9913.08236649
0.20500001 289332.24997054 14304.58711468
0.20600001 285640.67549650 11529.88641141
0.20700001 281994.94364217 9678.06692327
0.20800001 278392.54211361 11345.88859016
0.20900001 274836.66463982 8657.35534540
0.21000001 271322.00550489 12881.01282026
0.21100001 267851.00395296 11072.96102687
0.21200001 264421.93924151 10137.93762978
0.21300001 261033.71494284 9217.10091037
0.21400001 257687.69991673 10803.55732976
0.21500001 254382.91346961 13187.21085772
0.21600001 251116.97592584 13078.17272454
0.21700001 247890.83255893 8916.63366872
0.21800001 244703.36371108 8038.50587797
0.21900001 241553.31039428 11159.76346787
0.22000001 238440.79920072 9485.17544069
0.22100001 235367.01099675 10189.03838782
0.22200001 232329.76815847 8548.57422361
0.22300001 229327.07112722 8475.92894965
0.22400001 226359.95822385 9167.57874157
0.22500001 223429.88474329 7574.27345096
0.22600001 220531.96613671 13516.40484369
0.22700001 217670.48820951 13399.79588784
0.22800001 214841.21915542 12545.65358587
0.22900001 212044.07355287 8047.07297188
0.23000001 209280.77716665 8701.89512612
0.23100001 206550.00577215 9344.32270305
0.23200001 203849.21660354 8549.43654869
0.23300001 201180.11898086 7767.56476121
0.23400001 198542.57913356 7698.48887001
0.23500001 195933.44935673 9016.85776586
0.23600001 193355.64889763 8935.93173645
0.23700001 190806.67858695 8174.15849729
0.23800001 188286.71308449 8775.10267835
0.23900001 185795.02122169 8695.20740445
0.24000001 183331.25953460 7290.16788022
0.24100001 180896.45779168 7223.19590129
0.24200001 178488.44901006 7807.08512899
0.24300001 176107.55653343 9023.75162362
0.24400001 173752.64786895 7662.49213348
0.24500001 171424.24094689 9488.33218525
0.24600001 169121.87807674 8772.35223082
0.24700001 166845.30389426 8068.63927802
0.24800001 164593.75668648 7991.85023398
0.24900001 162366.28036395 6697.60938186
0.25000001 160164.35910024 6030.18840540
0.25100001 157985.40168407 6569.03331280
0.25200001 155832.40602265 6505.22409718
0.25300001 153702.38387528 7612.87943351
0.25400001 151595.37576492 8117.93275628
0.25500001 149511.09648356 7463.59428958
0.25600001 147450.13141596 7957.88396903
0.25700001 145411.08722464 9003.85494695
0.25800001 143394.92815368 7242.16118906
0.25900001 141400.71877937 5514.62829332
0.26000001 139428.21925566 7096.19955478
0.26100001 137476.45275059 5943.10733361
0.26200001 135547.15968278 5882.06927276
0.26300001 133637.88098392 8467.29653979
0.26400001 131749.74023059 6284.46290637
0.26500001 129882.73149016 7255.24972435
0.26600001 128035.04866967 6153.36473024
0.26700001 126208.59865102 9132.45463054
0.26800001 124402.46349540 6023.56756749
0.26900001 122614.74951743 5959.07710854
0.27000001 120847.74878957 5894.95346492
0.27100001 119099.57686898 5345.18926283
0.27200001 117372.06538276 6248.30219634
0.27300001 115662.58206246 5704.47881728
0.27400001 113970.35670799 5641.53292403
0.27500001 112299.76500569 5114.13154039
0.27600001 110645.31482373 5057.04435335
0.27700001 109011.13656754 5909.49399300
0.27800001 107394.10466930 4943.88784243
0.27900001 105796.37927408 4887.79295379
0.28000001 104215.28615930 5271.20942342
0.28100001 102652.85640718 5210.65923784
0.28200001 101108.68701270 6008.88955356
0.28300001 99581.55010202  4666.39165864
0.28400001 98071.75048102  5031.08103780
0.28500001 96579.81418705  4143.27422473
0.28600001 95104.84838350  4913.11670004
0.28700001 93646.90200694  4450.10099400
0.28800001 92205.47004544  4396.81804723
0.28900001 90782.70600753  4738.85747790
0.29000001 89375.07663949  5071.58896397
0.29100001 87985.09705563  4624.49692014
0.29200001 86611.56804696  6851.84147253
0.29300001 85254.62230814  4887.64772829
0.29400001 83913.26186908  4084.47821482
0.29500001 82589.44389574  4400.36577906
0.29600001 81280.95611435  5431.60014946
0.29700001 79988.85174025  4648.15239466
0.29800001 78712.61464643  5648.41749442
0.29900001 77452.85266445  4530.99209536
0.30000001 76208.16167641  3784.87852883
0.30100001 74980.26104811  4415.58778216
0.30200001 73766.33558036  5029.02016627
0.30300001 72569.56027141  3971.00652604
0.30400001 71388.07711446  4572.40655565
0.30500001 70221.80644408  3545.49917521
0.30600001 69069.77508785  4452.92861073
0.30700001 67934.31485204  5335.56134108
0.30800001 66813.39720212  3406.48121763
0.30900001 65707.71859746  3360.94996538
0.31000001 64617.28387398  3014.39643544
0.31100001 63540.83671938  4757.93807881
0.31200001 62479.99000504  3226.77923658
0.31300001 61433.16320245  4050.90297336
0.31400001 60402.15713143  3139.40226555
0.31500001 59384.58699210  3659.27842371
0.31600002 58382.12870087  3608.89145652
0.31700002 57393.81985321  3011.45387028
0.31800002 56419.87640572  3509.59857799
0.31900002 55460.19379236  3194.50731370
0.32000002 54514.83589671  3937.33420907
0.32100002 53582.80700557  3882.07455137
0.32200002 52666.14997843  3572.34512219
0.32300002 51761.47522701  3018.72937818
0.32400002 50871.45731993  3223.97876031
0.32500002 49994.99241042  2689.23076910
0.32600002 49132.44853466  2650.94138622
0.32700002 48282.75875816  3088.16539640
0.32800002 47447.51466830  2575.68845574
0.32900002 46624.66993321  2769.50552518
0.33000002 45816.05195117  2502.24379580
0.33100002 45018.02884128  2466.08773671
0.33200002 44236.30399366  2209.60348912
0.33300002 43465.97670070  2613.17464299
0.33400002 42708.84908704  2789.95569873
0.33500002 41963.61754006  3172.44963626
0.33600002 41232.03346177  2709.56320726
0.33700002 40512.02993515  2464.75201798
0.33800002 39805.45474159  2833.75045725
0.33900002 39110.21709555  2593.00751623
0.34000002 38427.88722636  1965.58652472
0.34100002 37757.27373584  2324.33788126
0.34200002 37099.33393233  2672.26514970
0.34300002 36452.39141895  2445.22653219
0.34400002 35818.49443241  2038.96789213
0.34500002 35195.38718891  2191.96881794
0.34600002 34584.88217000  2700.21480331
0.34700002 33984.19460701  2306.16755525
0.34800002 33396.48917402  2097.96754927
0.34900002 32819.35094376  2239.92080800
0.35000002 32253.46107289  2547.21720887
0.35100002 31699.25107976  3012.69696531
0.35200002 31154.68458741  1814.60468974
0.35300002 30621.48821461  2113.80143157
0.35400002 30099.40230124  1602.79324846
0.35500002 29587.82781561  2211.98611226
0.35600002 29085.88003508  1557.54894965
0.35700002 28594.82939092  1689.09665213
0.35800002 28114.57413932  1665.36687802
0.35900002 27644.15409447  2239.17658771
0.36000002 27184.09568276  1766.42262113
0.36100002 26733.14531602  1887.09281724
0.36200002 26293.15335861  2004.32717547
0.36300002 25861.80745411  2118.08213082
0.36400002 25440.11757345  1671.41580375
0.36500002 25027.70407018  1511.42312039
0.36600002 24625.05167645  2033.41373850
0.36700002 24231.10032604  2006.33520203
0.36800002 23847.61831307  1583.95888338
0.36900002 23471.99476798  1823.77407986
0.37000002 23105.01122303  1414.37332902
0.37100002 22746.75162135  1650.04944078
0.37200002 22397.84908404  1754.42360186
0.37300002 22056.83235365  1484.86602439
0.37400002 21724.24658963  1466.38671426
0.37500002 21400.37154062  1448.37721448
0.37600002 21084.70186291  1311.57394151
0.37700002 20776.46441306  1413.63070563
0.37800002 20476.24133919  1513.29668786
0.37900002 20184.29584889  1840.80786862
0.38000002 19900.04019397  1251.01608606
0.38100002 19622.29405370  1461.66475330
0.38200002 19352.99638610  1445.37860357
0.38300002 19090.36761142  1649.40783977
0.38400002 18835.79882195  1414.09766355
0.38500002 18587.17877290  1399.05701252
0.38600002 18346.73972590  2023.55375393
0.38700002 18112.37110239  1475.79606734
0.38800002 17884.90518645  1147.94269378
0.38900002 17663.57776204  1343.31515244
0.39000002 17449.97010612  1125.78487473
0.39100002 17241.62542885  1013.80762325
0.39200002 17040.18753323  1205.42292321
0.39300002 16844.60542732  1692.37758746
0.39400002 16656.32709962  986.88742741
0.39500002 16472.76697256  1369.87536634
0.39600002 16295.29746387  1261.50051293
0.39700002 16123.46257617  1058.82783754
0.39800002 15957.54429688  1528.09451427
0.39900002 15796.98443544  1042.60102214
0.40000002 15641.72085222  1129.01946461
0.40100002 15492.12339516  1027.59259349
0.40200002 15347.77725851  927.77317923
0.40300002 15207.98653936  1013.76443075
0.40400002 15073.76048059  1190.45029036
0.40500002 14944.46233938  1183.15313947
0.40600002 14819.99685561  1266.66519126
0.40700002 14700.05832661  899.64361221
0.40800002 14584.88229182  894.78257100
0.40900002 14474.06549275  1513.26361897
0.41000002 14368.15194152  885.79660917
0.41100002 14266.20040315  969.81634936
0.41200002 14168.31478070  1228.81799915
0.41300002 14075.19686980  1223.69767384
0.41400002 13985.65088621  870.60680892
0.41500002 13900.31335169  1127.59347252
0.41600002 13818.36499284  864.33877126
0.41700002 13740.51214701  861.53015244
0.41800002 13667.36248358  858.99377280
0.41900002 13595.79457257  942.18860852
0.42000002 13529.01211751  1452.40716470
0.42100002 13465.98576052  1108.11602074
0.42200002 13406.27424717  935.69095542
0.42300002 13349.33469514  1018.82127221
0.42400002 13295.43842575  1186.61793573
0.42500002 13245.16426436  1015.63924392
0.42600002 13197.01998419  1183.37683806
0.42700002 13153.14459974  1182.20469264
0.42800002 13111.14780481  1012.44288146
0.42900002 13073.17776978  1096.18600794
0.43000002 13037.31061001  927.14838797
0.43100002 13003.23712358  1011.13176664
0.43200002 12972.84029605  842.58601716
0.43300002 12944.68774518  1095.50897579
0.43400002 12919.02221423  927.26286337
0.43500002 12895.52144405  843.36714241
0.43600002 12874.78922636  1181.51946329
0.43700002 12855.68250533  1098.00389481
0.43800002 12838.76763994  1099.06275590
0.43900002 12824.63551384  1100.35377923
0.44000002 12812.00412295  1271.27116934
0.44100002 12801.79008210  848.75872267
0.44200002 12793.26359158  1105.14612773
0.44300002 12786.73680309  936.75638259
0.44400002 12782.29531388  938.54007790
0.44500002 12778.33738812  854.87081178
0.44600002 12776.59627379  942.33790283
0.44700002 12777.50314405  1116.24272756
0.44800002 12778.49417283  860.63162333
0.44900002 12782.50745190  1207.94701145
0.45000002 12787.44431959  951.57771414
0.45100002 12793.44839365  1301.09376330
0.45200002 12800.99803303  1043.79342908
0.45300002 12809.68772107  1134.04170769
0.45400002 12820.06339388  1224.95711534
0.45500002 12831.48867028  1316.51079996
0.45600002 12843.96404131  880.45377676
0.45700002 12857.53775053  1236.63803946
0.45800002 12871.88186679  1152.09784109
0.45900002 12887.43499935  978.15636281
0.46000002 12904.60405035  981.58875361
0.46100002 12921.60817589  985.01423793
0.46200002 12940.45859891  1437.94382766
0.46300002 12960.03853259  1082.42246954
0.46400002 12979.66277852  1086.39782605
0.46500002 13000.69571798  999.62354113
0.46600002 13022.14826906  1003.42168243
0.46700002 13044.11728201  1098.83649192
0.46800002 13067.59189211  1103.16615982
0.46900002 13090.60732211  1568.90936192
0.47000002 13114.57786460  1019.19946705
0.47100002 13139.14194101  1023.27642287
0.47200002 13164.40205331  1401.02155493
0.47300002 13190.20322562  1031.60584317
0.47400002 13215.69927096  1035.78047945
0.47500002 13242.02358518  1607.31689895
0.47600002 13269.12095747  1613.98960416
0.47700002 13295.77742949  1429.96093032
0.47800002 13322.88533617  1244.42416381
