# SAXS profile: number of points = 501, q_min = 0, q_max = 0.5, delta_q = 0.001
#    q    intensity    error
0.00000000 1664650.74656089 424.48594037
0.00100000 1664564.60329143 499.36939285
0.00200000 1664306.14204128 823.83156640
0.00300000 1663875.57502471 998.32538058
0.00400000 1663272.77414699 1995.92740482
0.00500000 1662498.39806955 1795.49834098
0.00600000 1661552.29141845 2268.01897012
0.00700000 1660435.18379214 2590.27899437
0.00800000 1659146.85825027 2687.81802384
0.00900000 1657688.76072882 2983.83989686
0.01000000 1656060.23420549 3278.99940531
0.01100000 1654262.81638295 3275.44051905
0.01200000 1652296.45568328 4188.57169880
0.01300000 1650162.51781222 4504.94387232
0.01400000 1647861.13441142 4449.22526015
0.01500000 1645393.71822698 5133.62862946
0.01600000 1642760.22444251 5026.84651151
0.01700000 1639962.61750696 4427.89926590
0.01800000 1637001.38518233 5131.99957347
0.01900000 1633877.64062918 6862.28640029
0.02000000 1630591.95135739 6677.27434286
0.02100000 1627147.27726556 7517.42076180
0.02200000 1623541.96171255 8401.83003358
0.02300000 1619779.44322389 5831.20626103
0.02400000 1615860.10931200 6059.47568622
0.02500000 1611786.21031722 6914.56315805
0.02600000 1607558.36436190 7161.67284079
0.02700000 1603178.41460736 7406.68461472
0.02800000 1598646.80191314 7649.52529796
0.02900000 1593966.87409577 7890.13638904
0.03000000 1589139.34257174 8867.39793914
0.03100000 1584165.62531071 9124.79442165
0.03200000 1579047.01629998 7816.28309069
0.03300000 1573787.65207599 10434.21261429
0.03400000 1568385.93817261 11527.63717746
0.03500000 1562846.11232028 15190.86491324
0.03600000 1557168.81514492 11234.97352048
0.03700000 1551356.90376802 8842.73476043
0.03800000 1545411.87178697 9944.72585519
0.03900000 1539336.27581044 10159.61989084
0.04000000 1533130.17699700 9428.75102545
0.04100000 1526797.87460806 10580.70976162
0.04200000 1520340.56748624 10786.81682675
0.04300000 1513760.15477378 10989.89923379
0.04400000 1507059.59917130 13224.44859690
0.04500000 1500240.95806334 15527.49463744
0.04600000 1493304.97217598 15791.70081487
0.04700000 1486255.86650525 12841.25128383
0.04800000 1479094.85224724 13045.61720381
0.04900000 1471824.82012651 11038.68666477
0.05000000 1464447.37996269 16804.53446759
0.05100000 1456966.38096372 11364.33830091
0.05200000 1449381.51022538 13827.10025191
0.05300000 1441697.44572169 17516.62478211
0.05400000 1433915.63281629 13012.78497464
0.05500000 1426039.64314859 17968.10034187
0.05600000 1418070.02407749 19399.19883463
0.05700000 1410012.04469363 12267.10536144
0.05800000 1401864.76913977 18609.75567926
0.05900000 1393632.28797294 13796.96029533
0.06000000 1385318.40699546 12675.66401620
0.06100000 1376924.19938741 16647.01434853
0.06200000 1368452.68167724 12931.87844633
0.06300000 1359906.92560627 14360.61780584
0.06400000 1351286.39523655 17127.55586062
0.06500000 1342597.68411720 18608.40477232
0.06600000 1333841.70524085 17426.64269434
0.06700000 1325020.00378440 17569.76607243
0.06800000 1316136.49731181 14984.21472329
0.06900000 1307194.79662089 20588.31901070
0.07000000 1298194.52493883 15208.34957184
0.07100000 1289140.01027329 18099.52659198
0.07200000 1280033.08227400 22426.18065204
0.07300000 1270877.28390390 16928.08621478
0.07400000 1261675.72939933 19871.39366930
0.07500000 1252428.35492088 14277.68391533
0.07600000 1243139.27248375 15794.08519734
0.07700000 1233811.64335662 21653.39535620
0.07800000 1224447.01955262 15960.66764836
0.07900000 1215047.16829904 16038.62337382
0.08000000 1205617.18074720 23437.19909319
0.08100000 1196157.80961256 20597.83844794
0.08200000 1186670.38017631 19206.26100441
0.08300000 1177158.81078113 16315.42188314
0.08400000 1167625.56234715 16375.94928058
0.08500000 1158072.75905664 17926.96715178
0.08600000 1148502.84771388 19484.35172629
0.08700000 1138918.12696320 19543.83597642
0.08800000 1129320.15292467 21106.99464943
0.08900000 1119712.53923763 28720.62798044
0.09000000 1110097.13361824 24244.52253712
0.09100000 1100476.04268370 16705.22711277
0.09200000 1090850.69434506 16739.10469124
0.09300000 1081225.96250071 16769.81546644
0.09400000 1071600.21899887 22905.45575760
0.09500000 1061977.75227519 16821.72838671
0.09600000 1052360.08463238 18374.20794141
0.09700000 1042752.49951735 19927.00120260
0.09800000 1033152.91089760 16876.55359301
0.09900000 1023566.04179249 26100.93529304
0.10000000 1013991.18458703 16898.16388582
0.10100000 1004431.98100683 16904.59103540
0.10200000 994890.45727913 21519.48160314
0.10300000 985368.06611661 19983.26532087
0.10400000 975867.04169106 16906.89729268
0.10500000 966391.33644262 16902.18526962
0.10600001 956937.18284892 15358.84250741
0.10700001 947511.89393263 21489.57076564
0.10800001 938113.68867352 16871.97548482
0.10900001 928746.71720405 19921.61802165
0.11000001 919411.44584165 16839.02142319
0.11100001 910109.12174595 21405.76755111
0.11200001 900842.49009312 15269.28092591
0.11300001 891611.54277291 16771.21390916
0.11400001 882419.33732988 24354.77485704
0.11500001 873267.05958862 15194.84755234
0.11600001 864155.94851743 16682.53137173
0.11700001 855087.48382687 19675.56392948
0.11800001 846062.05602626 22653.31261704
0.11900001 837081.28077048 22601.19564536
0.12000001 828146.96608674 18037.04177100
0.12100001 819261.33418971 16491.73143413
0.12200001 810424.24711575 20933.25928919
0.12300001 801637.83888340 20874.65030802
0.12400001 792902.01177302 22300.37013185
0.12500001 784217.86522039 20750.40569150
0.12600001 775588.71290566 17729.95881252
0.12700001 767013.08543027 16199.31712770
0.12800001 758492.52789262 19079.88043836
0.12900001 750029.07875005 19013.23804245
0.13000001 741622.55874365 17487.46075944
0.13100001 733273.38189439 17422.57637507
0.13200001 724982.93599806 18802.43333146
0.13300001 716753.44185514 17288.09383256
0.13400001 708583.11857006 15783.68971028
0.13500001 700475.01343139 15718.66004251
0.13600001 692427.80900267 14229.39214593
0.13700001 684443.70262098 18418.38090602
0.13800001 676521.32910025 15516.01741458
0.13900001 668664.29386862 18254.53608346
0.14000001 660870.42486462 20966.11521760
0.14100001 653141.39273230 15303.10355346
0.14200001 645477.02372770 17999.12765558
0.14300001 637879.29358754 15156.01273051
0.14400001 630344.80750170 17823.00027282
0.14500001 622878.84087455 13641.04725863
0.14600001 615478.57962238 14928.43365298
0.14700001 608146.90118277 17551.12039614
0.14800001 600879.41534435 20144.48334981
0.14900001 593680.89424774 18700.94905113
0.15000001 586549.04521130 14613.87015096
0.15100001 579485.15426760 18497.16699701
0.15200001 572489.54231527 15766.36273933
0.15300001 565562.57326048 15677.39527058
0.15400001 558701.28705326 14288.78609069
0.15500001 551909.78420207 15497.62747177
0.15600001 545183.66242268 14122.98344159
0.15700001 538529.22399516 14039.45753217
0.15800001 531938.96643528 12686.74494828
0.15900001 525418.92810230 16393.07133055
0.16000001 518964.14796740 20052.77562400
0.16100001 512579.97996724 16192.40233152
0.16200001 506262.19434546 13615.92235968
0.16300001 500011.47239171 13530.31108166
0.16400001 493828.20506614 14666.69838287
0.16500001 487711.29985009 14572.81432752
0.16600001 481662.01570230 12065.63406300
0.16700001 475677.69463361 15583.20201195
0.16800001 469758.85873903 13099.22639444
0.16900001 463908.13114579 11829.65790279
0.17000001 458121.49298141 12925.89853483
0.17100001 452399.95785019 12839.11141007
0.17200001 446743.83038967 11593.00294607
0.17300001 441151.90141853 12665.47168785
0.17400001 435624.14766504 14865.67474112
0.17500001 430159.91312113 15898.71113981
0.17600001 424757.58943362 12405.04598529
0.17700001 419419.86435185 15677.91526995
0.17800001 414143.03741138 12231.71518767
0.17900001 408928.51899679 17665.71285508
0.18000001 403775.75745523 14251.26603254
0.18100001 398684.86889217 13060.91692186
0.18200001 393652.20838163 17289.20580883
0.18300001 388680.30837607 11800.33471974
0.18400001 383767.45612053 19169.18533879
0.18500001 378914.84443447 13743.24205690
0.18600001 374119.14624915 15741.06382210
0.18700001 369380.67334336 13541.49612453
0.18800001 364699.57106630 12407.07999386
0.18900001 360076.90300898 10262.19222062
0.19000001 355506.46717849 11203.78684250
0.19100001 350995.73054160 10108.67751723
0.19200001 346536.88234938 11035.46753986
0.19300001 342134.54139098 12942.95031241
0.19400001 337783.92051542 11856.21617034
0.19500001 333487.26420045 16667.69425237
0.19600001 329242.98317323 9729.13061253
0.19700001 325050.34724153 12550.19450009
0.19800001 320909.27104765 9579.14219347
0.19900001 316819.44359773 10455.04213283
0.20000001 312777.97458399 13202.35893115
0.20100001 308787.68172210 13098.77407773
0.20200001 304844.63436784 11139.02346627
0.20300001 300951.53745274 13813.67622198
0.20400001 297105.29501913 10963.18590439
0.20500001 293305.68286076 10875.77523454
0.20600001 289552.69665459 10788.73398731
0.20700001 285846.07192911 15161.27637178
0.20800001 282183.09028703 15038.94850774
0.20900001 278567.17797488 11407.32647731
0.21000001 274993.47937393 12184.96164707
0.21100001 271463.71709781 8632.54661180
0.21200001 267976.47015063 10274.21835128
0.21300001 264530.77599872 11038.86980429
0.21400001 261127.78897827 11789.92022976
0.21500001 257766.50339322 8351.63510479
0.21600001 254444.59858337 8282.17207546
0.21700001 251162.84489567 12319.53812460
0.21800001 247920.78154272 8958.61786461
0.21900001 244716.58126303 9690.77707621
0.22000001 241550.33948674 8808.13354585
0.22100001 238423.38181013 9527.39878762
0.22200001 235333.49415407 8659.09632684
0.22300001 232279.00051068 11706.86217930
0.22400001 229259.96730646 8511.27668872
0.22500001 226279.25719763 12273.38749077
0.22600001 223331.18665028 8364.86999155
0.22700001 220419.74464358 8292.19118562
0.22800001 217541.10138766 8967.04462325
0.22900001 214695.28296540 8147.68637385
0.23000001 211883.60228947 11012.65074980
0.23100001 209105.35970485 12370.67366518
0.23200001 206357.47041990 11539.51029163
0.23300001 203641.89553242 8577.39704549
0.23400001 200958.27346095 9917.29126434
0.23500001 198303.64384050 9125.93412116
0.23600001 195680.95883404 6956.45841557
0.23700001 193087.35466610 6893.21888761
0.23800001 190523.64045103 8879.35468320
0.23900001 187988.43950826 8797.85938512
0.24000001 185481.95319086 6705.17292501
0.24100001 183004.80556272 6643.07475615
0.24200001 180554.85349477 7897.46966543
0.24300001 178132.54425745 6519.65142822
0.24400001 175737.07460219 7750.00535656
0.24500001 173368.32322560 7676.74971557
0.24600001 171026.09915460 8237.47245546
0.24700001 168710.29471958 8158.83023860
0.24800001 166420.03546620 6837.36748058
0.24900001 164154.12704653 6771.35806101
0.25000001 161914.64445920 9753.73864365
0.25100001 159698.52243319 9054.90665034
0.25200001 157508.35830162 8368.41947247
0.25300001 155342.22794430 8877.80874703
0.25400001 153199.27546056 7617.83433269
0.25500001 151079.69367793 5801.46051171
0.25600001 148984.03771098 6317.66841804
0.25700001 146910.42389258 8528.15051046
0.25800001 144860.44567788 6190.61143895
0.25900001 142832.84862536 5570.48135996
0.26000001 140827.43439263 5513.39431734
0.26100001 138843.18028845 7639.15214093
0.26200001 136881.68227657 5939.98088345
0.26300001 134940.88186436 5878.02509215
0.26400001 133021.53605427 6873.88820086
0.26500001 131123.84083987 5231.84149708
0.26600001 129245.95845069 5176.30088089
0.26700001 127389.74705759 7169.49530366
0.26800001 125554.38084587 7599.17926030
0.26900001 123737.63559557 5512.51192664
0.27000001 121942.13269574 5452.64272152
0.27100001 120165.76482831 5883.31612441
0.27200001 118410.71398249 5818.70276046
0.27300001 116674.15567534 5274.83882771
0.27400001 114955.07437935 6164.46615532
0.27500001 113258.19809401 7971.11235909
0.27600001 111577.90160450 4636.06203107
0.27700001 109917.97554379 5958.65373623
0.27800001 108275.71932969 4531.33906840
0.27900001 106653.46975960 4927.39053610
0.28000001 105047.85059174 5313.32053440
0.28100001 103461.62379957 5251.71227262
0.28200001 101893.92779174 5190.47692737
0.28300001 100343.79157291 5129.57486799
0.28400001 98811.09550287  4646.59198595
0.28500001 97296.84064647  5426.24505969
0.28600001 95799.81635045  5361.43697582
0.28700001 94320.44703966  4482.10785547
0.28800001 92857.54754391  5635.52482719
0.28900001 91413.99961253  4771.81100564
0.29000001 89985.85885317  5106.24780232
0.29100001 88575.71835081  6595.34830059
0.29200001 87182.43821376  5364.33567722
0.29300001 85805.96620265  5676.06493299
0.29400001 84445.63018063  4857.73510609
0.29500001 83103.05745215  5165.68629575
0.29600001 81776.36566627  4371.76471547
0.29700001 80466.01790761  4316.19740488
0.29800001 79172.08138543  3550.86801823
0.29900001 77894.93664359  4206.32677788
0.30000001 76633.25027759  3805.99055521
0.30100001 75388.82399613  4439.64805531
0.30200001 74158.49126974  3707.55394655
0.30300001 72945.70476337  3991.58915362
0.30400001 71748.53195962  4267.24414032
0.30500001 70566.68057538  4858.51618763
0.30600001 69399.68366272  4793.78337595
0.30700001 68249.42986378  3468.43618988
0.30800001 67114.01898123  4043.95540517
0.30900001 65994.26711537  3682.48027938
0.31000001 64890.01147317  3632.54301425
0.31100001 63800.01465302  3881.59307526
0.31200001 62725.90359361  3533.97757578
0.31300001 61666.09816416  4356.71004157
0.31400001 60622.20662444  3437.27927835
0.31500001 59592.51977797  3672.09124258
0.31600002 58577.78900958  3063.91139921
0.31700002 57577.67578728  2746.45526509
0.31800002 56592.10766613  3249.51897605
0.31900002 55621.17803386  4805.67000967
0.32000002 54664.89106709  2895.32609246
0.32100002 53722.16481609  3632.69295687
0.32200002 52794.90419512  3325.28719818
0.32300002 51880.27632367  3529.93416821
0.32400002 50980.02407186  2485.27629118
0.32500002 50093.80512925  2694.54590549
0.32600002 49221.96847389  2897.20520156
0.32700002 48362.98740666  2617.40500239
0.32800002 47518.76832852  3283.07185928
0.32900002 46687.30050098  2773.22578108
0.33000002 45870.21112710  2505.20169934
0.33100002 45063.99447078  2244.18703092
0.33200002 44274.32768104  3538.40443583
0.33300002 43496.21148071  2397.07632822
0.33400002 42731.55824120  2361.98699364
0.33500002 41979.09419109  2962.04502639
0.33600002 41240.46672832  2501.64683021
0.33700002 40513.48672220  2054.03387409
0.33800002 39800.28535245  2428.61352722
0.33900002 39098.75949883  3788.66997486
0.34000002 38410.11231886  3339.95147486
0.34100002 37733.64500789  2516.45690475
0.34200002 37069.88700781  3242.31782069
0.34300002 36417.29804455  2254.95920171
0.34400002 35777.96339580  2592.11357079
0.34500002 35149.76783765  2189.12764461
0.34600002 34534.36533691  2336.76794119
0.34700002 33928.89047821  2302.41461690
0.34800002 33336.54259662  1919.68489635
0.34900002 32755.02897841  2751.42256450
0.35000002 32184.95040131  1863.99149077
0.35100002 31626.84187468  1836.88706308
0.35200002 31078.31323853  2468.39514588
0.35300002 30541.45324111  2108.27661709
0.35400002 30015.84709645  1758.17832695
0.35500002 29500.98063491  2520.56390483
0.35600002 28995.86144932  2018.54699040
0.35700002 28501.79932695  1683.60136599
0.35800002 28018.77264458  1961.45427189
0.35900002 27545.75256046  1636.21777959
0.36000002 27083.18907587  2199.83213688
0.36100002 26630.00522016  1590.61028714
0.36200002 26187.77990878  1568.51715193
0.36300002 25754.42430989  1687.42996071
0.36400002 25330.79068956  1386.86085595
0.36500002 24916.82016534  1504.72684106
0.36600002 24512.53578924  1349.41515912
0.36700002 24116.99023916  2130.01267882
0.36800002 23732.32449589  1707.65948999
0.36900002 23355.64252388  1555.48586577
0.37000002 22987.60798215  1535.11253377
0.37100002 22628.22873431  1515.18626782
0.37200002 22278.67138195  1371.14089515
0.37300002 21937.08360076  1722.93862762
0.37400002 21603.96009926  1822.83421972
0.37500002 21279.68850303  1320.19193727
0.37600002 20963.91331023  1304.06028924
0.37700002 20655.54586673  1405.40340735
0.37800002 20355.08532984  1157.18665582
0.37900002 20063.29289715  1257.96852424
0.38000002 19779.20098611  1469.49580688
0.38100002 19501.85864117  1117.45655308
0.38200002 19233.03572214  1325.92554550
0.38300002 18970.88928994  1201.99560235
0.38400002 18716.87578681  1405.16951626
0.38500002 18468.92268314  1283.22080882
0.38600002 18229.16713895  1164.02352280
0.38700002 17995.82721184  1675.77150936
0.38800002 17769.35586715  1244.21035676
0.38900002 17549.16100495  1539.93895114
0.39000002 17336.66762443  1321.83428565
0.39100002 17129.63498242  1410.11161856
0.39200002 16929.53250217  1297.39478477
0.39300002 16735.42218493  1186.87619759
0.39400002 16548.57166063  1274.65379255
0.39500002 16366.60847950  1166.61190769
0.39600002 16190.69933335  1253.40304827
0.39700002 16020.58882921  1339.00087778
0.39800002 15856.54703107  1138.81726173
0.39900002 15697.73082219  1130.23667275
0.40000002 15544.31057013  1215.48742262
0.40100002 15396.68588366  1206.94626360
0.40200002 15254.43285546  1290.98271372
0.40300002 15116.75903379  1099.29076902
0.40400002 14984.55827506  1183.40554584
0.40500002 14857.54422161  995.30693456
0.40600002 14735.11415090  989.53663769
0.40700002 14617.55320588  1162.97258816
0.40800002 14504.76869271  978.85436161
0.40900002 14396.27368788  1150.98213588
0.41000002 14292.75757562  1057.37825555
0.41100002 14193.32486770  1315.72127758
0.41200002 14097.82704524  873.36042683
0.41300002 14007.30219644  869.85350761
0.41400002 13920.29314585  1213.15360514
0.41500002 13837.53483433  949.80843603
0.41600002 13758.14469342  1032.68638962
0.41700002 13682.94408164  857.92063457
0.41800002 13612.43533729  1026.64992179
0.41900002 13543.54826300  1023.89229720
0.42000002 13479.40517678  1276.83671587
0.42100002 13419.25648668  1189.21456620
0.42200002 13362.27994510  1102.18771350
0.42300002 13307.96158146  931.02503636
0.42400002 13256.94234875  929.64312626
0.42500002 13209.40670671  928.48924141
0.42600002 13163.99316903  1096.09994316
0.42700002 13122.95171466  926.74289400
0.42800002 13083.76705613  1094.52258495
0.42900002 13048.59432111  925.79781095
0.43000002 13015.46232648  1178.02955099
0.43100002 12984.13677910  925.50931347
0.43200002 12956.50896091  1430.59300471
0.43300002 12931.28412528  926.00930009
0.43400002 12908.34128607  1010.72317060
0.43500002 12887.67081621  1095.70982472
0.43600002 12869.63920613  927.96537893
0.43700002 12853.32674574  1013.35632866
0.43800002 12839.12517801  1099.09336295
0.43900002 12827.70757708  1100.61736227
0.44000002 12817.87896674  1017.48328060
0.44100002 12810.29257877  1019.18692587
0.44200002 12804.39766534  1106.10794474
0.44300002 12800.59178774  937.77139881
0.44400002 12798.68764090  1025.17492862
0.44500002 12797.39367978  1027.37481330
0.44600002 12798.27213087  943.93660575
0.44700002 12801.70275172  946.30191225
0.44800002 12805.11155759  1466.12131727
0.44900002 12811.83643191  1383.67840022
0.45000002 12819.14328834  953.93659301
0.45100002 12827.52621186  956.67695022
0.45200002 12837.67611042  872.32013304
0.45300002 12848.58145853  1312.48265819
0.45400002 12861.32784110  1228.89993346
0.45500002 12875.11181629  1144.85499696
0.45600002 12889.80825883  883.59639802
0.45700002 12905.67890218  1063.94421912
0.45800002 12922.26071324  1334.54653841
0.45900002 12939.88556634  1249.99300495
0.46000002 12959.20862411  1164.96811448
0.46100002 12978.41631401  989.34472251
0.46200002 12999.18176066  902.79321607
0.46300002 13020.82766833  1631.24936760
0.46400002 13042.43997601  1091.65227773
0.46500002 13065.34803763  1004.59465823
0.46600002 13088.65145603  1100.23209354
0.46700002 13112.30827865  1104.58090175
0.46800002 13137.63968272  1016.65629503
0.46900002 13162.42286174  1113.54102688
0.47000002 13188.05763487  931.73631606
0.47100002 13214.31939016  935.57385717
0.47200002 13241.07244028  1033.39954758
0.47300002 13268.33206700  1415.06768202
0.47400002 13295.29502056  1136.74777814
0.47500002 13323.04965277  1236.64552738
0.47600002 13351.56240268  1050.83476871
0.47700002 13379.53627499  1151.17535566
