# SAXS profile: number of points = 501, q_min = 0, q_max = 0.5, delta_q = 0.001
#    q    intensity    error
0.00000000 1682732.95097187 302.89193117
0.00100000 1682646.27794258 656.23206398
0.00200000 1682386.22749131 984.19597425
0.00300000 1681953.00868323 1513.75776174
0.00400000 1681346.50532748 1387.11091960
0.00500000 1680567.37532572 1512.51069766
0.00600000 1679615.44200253 1939.95591449
0.00700000 1678491.45910872 2014.18983464
0.00800000 1677195.20790928 2490.63498890
0.00900000 1675728.10381647 3016.31071581
0.01000000 1674089.52706688 3867.14697451
0.01100000 1672281.05449253 3311.11663206
0.01200000 1670302.57835529 4885.63525589
0.01300000 1668155.45674384 3853.43927503
0.01400000 1665839.85430049 4872.58178984
0.01500000 1663357.17831407 4391.26314629
0.01600000 1660707.38361105 5928.72562453
0.01700000 1657892.43786203 8057.35760945
0.01800000 1654912.88821720 7546.40310984
0.01900000 1651769.74448311 5450.84040275
0.02000000 1648463.65961699 7788.99114403
0.02100000 1644997.54595973 5428.49214779
0.02200000 1641369.83776387 6228.99881731
0.02300000 1637583.84030524 7074.36251213
0.02400000 1633640.03333384 9801.84064694
0.02500000 1629540.68728999 6990.72986775
0.02600000 1625286.39817865 7898.89225643
0.02700000 1620878.97986050 8849.99963538
0.02800000 1616318.97901567 9843.38303362
0.02900000 1611609.65682164 8702.69254641
0.03000000 1606751.67882446 8218.53521495
0.03100000 1601746.62506864 10763.73781573
0.03200000 1596595.67255868 10274.09362612
0.03300000 1591303.00649665 8927.21027799
0.03400000 1585867.18455997 12488.70465464
0.03500000 1580292.13425093 11093.65129473
0.03600000 1574578.70665868 10486.69467098
0.03700000 1568729.72563819 8941.75984967
0.03800000 1562746.74267262 10056.27575450
0.03900000 1556632.26893233 14009.69106918
0.04000000 1550386.43820746 9534.87703681
0.04100000 1544013.31837653 11672.74122815
0.04200000 1537514.54726449 10908.66621893
0.04300000 1530891.74129739 11114.27455772
0.04400000 1524147.67173493 13374.39644061
0.04500000 1517284.83156215 12563.11898908
0.04600000 1510303.88468147 11712.40717018
0.04700000 1503208.74968029 10823.10350106
0.04800000 1496000.92263974 16493.41093951
0.04900000 1488683.29907288 15631.17536786
0.05000000 1481257.32486580 11331.61906289
0.05100000 1473727.15565154 14943.59405444
0.05200000 1466092.14474386 16317.60633142
0.05300000 1458357.33479123 14175.23395499
0.05400000 1450523.73447098 14360.18564093
0.05500000 1442595.38451663 16964.92251332
0.05600000 1434572.36703293 18398.39146574
0.05700000 1426460.48582463 13651.22748656
0.05800000 1418258.47874421 15061.90574754
0.05900000 1409970.50863743 17765.62923859
0.06000000 1401600.31039366 15389.57212710
0.06100000 1393149.25898186 14251.91758540
0.06200000 1384620.01846642 15701.59174336
0.06300000 1376015.89300511 17172.67914762
0.06400000 1367336.36062165 17330.98918139
0.06500000 1358587.82042778 14795.02205654
0.06600000 1349771.57050476 16278.24590192
0.06700000 1340888.69730279 20515.59802884
0.06800000 1331943.46754590 20678.42330159
0.06900000 1322939.43051824 16669.03760496
0.07000000 1313876.08812032 18190.61529186
0.07100000 1304757.86195426 16909.66268294
0.07200000 1295586.87647264 14186.67696198
0.07300000 1286366.19113620 18562.26500784
0.07400000 1277099.22875359 17240.84039615
0.07500000 1267785.88862038 15898.03578848
0.07600000 1258430.30494690 23255.79312566
0.07700000 1249035.51576714 16075.08784166
0.07800000 1239603.31475787 17627.15996250
0.07900000 1230135.21073595 22142.43483181
0.08000000 1220636.50184094 20763.02787033
0.08100000 1211108.03722581 17875.95546816
0.08200000 1201550.88011321 19447.10190719
0.08300000 1191969.14386299 16520.69310929
0.08400000 1182365.30583227 15075.15835697
0.08500000 1172741.31286895 16641.20001083
0.08600000 1163099.89777130 24285.52700571
0.08700000 1153443.26378751 24360.72287512
0.08800000 1143772.80354839 22904.05146672
0.08900000 1134092.28694943 21434.34523011
0.09000000 1124403.71648956 15348.11145107
0.09100000 1114708.99513434 16921.28334112
0.09200000 1105009.66629211 18497.86268288
0.09300000 1095310.63557829 24710.20909983
0.09400000 1085610.05712048 18563.93284922
0.09500000 1075912.57849632 20141.08441614
0.09600000 1066219.57690327 18616.19468784
0.09700000 1056536.23083168 21743.51665274
0.09800000 1046860.50509898 26427.99469381
0.09900000 1037197.38424452 26448.53454191
0.10000000 1027545.87039065 24907.71306961
0.10100000 1017909.74671403 17131.42184292
0.10200000 1008291.28346924 17135.91116857
0.10300000 998691.54680478 15579.58886303
0.10400000 989112.69458208 20252.08337433
0.10500000 979559.22362528 24919.98782150
0.10600001 970026.89982695 18682.71896976
0.10700001 960523.52735529 21784.67462555
0.10800001 951046.68948655 21769.45974685
0.10900001 941601.00969420 18643.70086942
0.11000001 932187.01591177 20177.18890914
0.11100001 922805.60660078 18603.76190481
0.11200001 913459.95855579 17031.46172906
0.11300001 904149.62990275 15460.95939925
0.11400001 894878.15186100 15436.64884643
0.11500001 885646.24095389 20033.31891371
0.11600001 876455.58843464 21534.51482193
0.11700001 867307.47723025 18421.61168394
0.11800001 858202.08998208 16850.79883044
0.11900001 849141.61942479 19869.91483045
0.12000001 840127.32748027 16773.14288324
0.12100001 831161.68249262 19773.33735798
0.12200001 822244.58361001 16687.45461053
0.12300001 813378.06743050 16641.71604369
0.12400001 804562.12030933 22628.31069989
0.12500001 795797.97273899 21056.81535088
0.12600001 787088.71496269 17992.84887193
0.12700001 778433.00735421 16440.50589010
0.12800001 769832.43873979 17875.51007000
0.12900001 761288.97243821 17814.16279467
0.13000001 752802.44135328 17751.08240381
0.13100001 744373.34617224 20634.03012853
0.13200001 736002.93217240 16151.58510791
0.13300001 727693.63108680 17551.97120927
0.13400001 719443.48502167 17482.47751025
0.13500001 711255.92245381 20313.47010302
0.13600001 703128.97035636 15894.23112433
0.13700001 695065.66691029 20143.00397687
0.13800001 687063.79628496 15757.80891087
0.13900001 679127.51426451 15687.84631932
0.14000001 671254.67903371 15616.74084421
0.14100001 663446.57494079 14131.41271272
0.14200001 655703.46879501 23910.22811734
0.14300001 648027.22168181 13997.38864855
0.14400001 640414.08622856 15321.90773575
0.14500001 632869.87793163 18017.80627465
0.14600001 625391.44669921 16547.85846030
0.14700001 617981.94757241 15091.11987166
0.14800001 610636.73546276 15012.50484962
0.14900001 603360.57974782 21720.98189573
0.15000001 596151.41156807 14853.11312003
0.15100001 589010.44508800 16115.32653801
0.15200001 581938.00418494 20033.21673937
0.15300001 574934.54634019 14609.08751189
0.15400001 567996.81287061 14526.51917469
0.15500001 561129.09468472 13130.42143529
0.15600001 554327.00216424 16970.72197219
0.15700001 547597.07234482 14275.85634980
0.15800001 540931.40082729 14191.33597052
0.15900001 534336.14345327 12824.06804818
0.16000001 527806.67490245 16570.49134073
0.16100001 521347.99219846 17736.25953182
0.16200001 514955.98880015 17626.94432873
0.16300001 508631.19600587 21270.95762112
0.16400001 502374.33842600 16163.89510195
0.16500001 496183.98945252 19767.97107306
0.16600001 490061.79614735 13503.65343039
0.16700001 484004.67883110 13416.61033066
0.16800001 478013.53801821 15752.93688919
0.16900001 472090.74584633 12038.31458751
0.17000001 466232.45122090 13154.74923236
0.17100001 460439.45773030 15443.14014152
0.17200001 454712.25617149 17699.67540731
0.17300001 449049.73712818 17580.29803879
0.17400001 443451.70846771 12804.66868672
0.17500001 437917.48655636 11561.02219109
0.17600001 432445.43035267 14925.85473356
0.17700001 427038.63053326 11401.93197376
0.17800001 421692.84850067 14719.18957213
0.17900001 416409.80009775 13491.67816043
0.18000001 411188.81684860 14512.90997619
0.18100001 406030.29347930 13301.55304270
0.18200001 400930.18696717 12106.08756734
0.18300001 395891.41310398 13111.92422140
0.18400001 390911.86692550 14102.14626553
0.18500001 385992.99368046 13999.96654218
0.18600001 381131.56000915 11759.81483966
0.18700001 376327.68193273 13796.17347145
0.18800001 371581.66964794 13694.64308189
0.18900001 366894.30416210 13593.43461146
0.19000001 362259.60653157 13492.35968277
0.19100001 357685.15571957 13391.73286290
0.19200001 353162.84882022 14313.69093902
0.19300001 348697.63282570 14205.94223259
0.19400001 344284.29877561 13091.41107956
0.19500001 339925.52960800 11992.57325128
0.19600001 335619.50391256 9917.55680928
0.19700001 331365.64105914 10825.71600500
0.19800001 327163.69450502 16601.92246224
0.19900001 323013.37087336 10659.44174259
0.20000001 318911.72175344 13461.26441141
0.20100001 314861.91213376 14310.47458283
0.20200001 310859.57728075 10412.24203314
0.20300001 306907.75230610 15965.34202956
0.20400001 303002.98875362 10249.07657902
0.20500001 299145.47730823 10167.95525431
0.20600001 295335.10910707 12838.21779972
0.20700001 291571.37194935 12735.83812876
0.20800001 287851.73651553 9926.56760297
0.20900001 284179.47210529 12532.31531226
0.21000001 280549.97303165 10655.28847944
0.21100001 276964.96420377 10568.98353365
0.21200001 273422.67961751 10483.02603211
0.21300001 269922.52359766 8664.51341710
0.21400001 266465.46371463 9452.86277218
0.21500001 263050.47211480 9375.11926940
0.21600001 259675.37510641 9297.67724527
0.21700001 256340.69985480 12573.51192235
0.21800001 253046.43220235 8312.57569087
0.21900001 249790.16798129 14013.22908632
0.22000001 246572.29776096 9808.64646871
0.22100001 243394.31549020 9726.03730687
0.22200001 240253.71101290 12054.73052007
0.22300001 237148.92118764 7968.20412868
0.22400001 234079.85303470 9480.23449619
0.22500001 231049.85022985 10182.36738113
0.22600001 228052.80882542 13977.35731387
0.22700001 225092.83735913 10007.62802224
0.22800001 222165.83774185 10683.95564225
0.22900001 219272.19453824 7564.89106932
0.23000001 216413.25760669 7498.71973070
0.23100001 213587.96499118 8919.43383986
0.23200001 210793.46970023 8840.67853733
0.23300001 208031.90877112 9492.49644617
0.23400001 205302.59731383 8684.30027710
0.23500001 202602.50584003 8606.55485514
0.23600001 199934.90700859 7818.45490836
0.23700001 197296.75255552 8452.19327925
0.23800001 194688.93252239 7677.55841716
0.23900001 192109.92149782 7607.55325115
0.24000001 189560.03855871 6852.59571803
0.24100001 187040.04398911 7468.50930975
0.24200001 184547.35860973 8744.77700137
0.24300001 182082.95752553 7330.66021674
0.24400001 179645.72509406 9242.77299331
0.24500001 177235.47403195 6539.98930115
0.24600001 174852.39235738 9069.59402062
0.24700001 172495.82163937 8341.89832910
0.24800001 170165.20943432 6355.67087304
0.24900001 167859.43530515 12589.45824346
0.25000001 165580.41230385 8727.74394543
0.25100001 163325.05682204 9877.89990391
0.25200001 161096.08304075 8559.03529688
0.25300001 158891.48403955 7264.51899398
0.25400001 156710.54051803 6593.59630425
0.25500001 154553.14133050 7715.29318024
0.25600001 152420.11170513 7638.53425950
0.25700001 150309.46742387 9307.16266324
0.25800001 148222.83135902 6334.30299783
0.25900001 146158.93401408 7410.25830513
0.26000001 144117.37728188 6206.41514630
0.26100001 142097.66312984 7818.21379533
0.26200001 140100.71701811 6079.67090267
0.26300001 138124.93350769 8204.62143858
0.26400001 136171.02334675 7577.91780782
0.26500001 134239.00938445 6962.97774625
0.26600001 132327.07852359 6359.63969478
0.26700001 130437.15563342 6816.64607597
0.26800001 128568.47925607 6225.28606016
0.26900001 126718.78137807 6158.53306641
0.27000001 124890.45664166 8630.55541464
0.27100001 123081.74533560 6528.25608154
0.27200001 121294.60549069 6457.11862887
0.27300001 119526.15686621 6877.53539155
0.27400001 117775.58036825 6315.71579614
0.27500001 116047.48539673 5765.23934735
0.27600001 114336.37295814 6650.94712974
0.27700001 112645.79311302 5167.06277463
0.27800001 110973.25963311 4644.23113544
0.27900001 109320.95845296 5968.92461403
0.28000001 107685.70348625 5900.63840180
0.28100001 106069.94291500 5832.78643696
0.28200001 104473.06863008 4878.37017057
0.28300001 102894.07154926 5259.94518655
0.28400001 101332.81508277 6064.76926975
0.28500001 99790.16671612  4709.09819022
0.28600001 98265.03798634  5076.37210265
0.28700001 96757.90816279  4597.93601353
0.28800001 95267.51183932  4542.83151708
0.28900001 93796.66695363  4488.17072617
0.29000001 92341.40883546  4836.84322375
0.29100001 90904.54415940  5972.42883398
0.29200001 89484.72359655  5899.28068235
0.29300001 88081.93894767  4661.29642976
0.29400001 86695.61357127  3836.28108212
0.29500001 85327.27925746  5682.79706755
0.29600001 83975.06790942  4489.30734295
0.29700001 82639.33886115  4063.37648416
0.29800001 81320.28246172  4741.37929338
0.29900001 80018.37208549  5041.15768003
0.30000001 78732.10602905  3910.23023104
0.30100001 77463.26346603  3509.08600113
0.30200001 76208.88109943  3463.69380994
0.30300001 74972.09595114  5128.09160583
0.30400001 73751.19642755  4386.35261519
0.30500001 72545.79957594  4328.80806563
0.30600001 71355.64374031  3614.52030479
0.30700001 70182.25858234  3890.90460001
0.30800001 69024.00295135  3519.18895709
0.30900001 67881.61917124  3156.49544090
0.31000001 66754.92460432  3425.52911825
0.31100001 65642.66185249  3686.49206417
0.31200001 64546.46071774  3333.50212159
0.31300001 63464.83481792  5081.62956447
0.31400001 62399.40272206  6191.58102825
0.31500001 61348.15351275  4071.06365986
0.31600002 60312.22315779  4014.98488571
0.31700002 59291.03488377  2828.18249787
0.31800002 58284.62368557  2788.91937541
0.31900002 57292.86874419  3575.07517891
0.32000002 56316.20451428  2711.62537576
0.32100002 55353.12642651  3208.26735959
0.32200002 54405.71563751  2899.55275220
0.32300002 53471.11322211  2858.56584821
0.32400002 52550.93655619  2818.04410626
0.32500002 51645.06718883  3030.53268614
0.32600002 50753.82239730  3485.26514906
0.32700002 49875.56487367  2453.87790798
0.32800002 49012.15755666  2902.50010795
0.32900002 48161.70729784  3814.40739861
0.33000002 47325.89597626  3054.65010044
0.33100002 46501.08261781  2547.32942643
0.33200002 45692.83097382  2738.82841827
0.33300002 44896.36352323  3598.89267045
0.33400002 44113.66905718  3325.06796265
0.33500002 43343.10739938  2839.84053129
0.33600002 42586.68126935  2368.03252412
0.33700002 41841.91430333  2969.93921790
0.33800002 41111.23623305  2299.55710760
0.33900002 40392.17969574  2472.00151445
0.34000002 39686.31304939  2435.94601033
0.34100002 38992.72652907  2400.39235881
0.34200002 38312.01583828  2562.49930070
0.34300002 37642.44842691  2136.58547390
0.34400002 36986.50867605  2105.45710610
0.34500002 36341.70727914  2263.36163654
0.34600002 35709.90485590  2416.31082651
0.34700002 35088.13262166  2197.92073152
0.34800002 34479.59090385  2707.51000396
0.34900002 33882.02719904  2134.56781464
0.35000002 33296.01421221  1928.33875443
0.35100002 32722.10357769  1727.72715073
0.35200002 32157.98039066  2383.87119927
0.35300002 31605.55854914  1846.08076229
0.35400002 31064.55172265  1819.60620334
0.35500002 30534.51378534  1956.65173604
0.35600002 30014.16209384  1928.71014750
0.35700002 29505.01344699  1901.30315658
0.35800002 29007.20206514  1562.03790519
0.35900002 28519.34719113  2156.06274977
0.36000002 28042.05978224  1670.32537005
0.36100002 27574.28196351  1647.01193969
0.36200002 27117.70633545  1919.52693388
0.36300002 26669.92869612  1601.79599336
0.36400002 26232.17979363  1436.21191173
0.36500002 25804.00314877  1699.96780796
0.36600002 25385.76860466  1537.23529067
0.36700002 24976.29068505  1516.56044223
0.36800002 24577.90236328  2176.61913640
0.36900002 24187.51867641  1610.88882016
0.37000002 23805.95646968  1722.24200238
0.37100002 23433.04219833  1569.07657993
0.37200002 23070.20940618  1807.08958839
0.37300002 22715.33780260  1529.19661331
0.37400002 22369.10227470  1509.91447507
0.37500002 22031.73894542  1615.36717600
0.37600002 21703.02411988  1472.76728654
0.37700002 21381.83897526  1697.29045826
0.37800002 21068.62963851  1317.52681686
0.37900002 20764.22905097  1420.27333437
0.38000002 20467.61809436  1286.69687246
0.38100002 20177.83720912  1387.42815223
0.38200002 19896.70603039  1143.06581560
0.38300002 19622.20939728  1356.28717779
0.38400002 19356.16027365  1676.72746314
0.38500002 19096.01837315  1658.48927428
0.38600002 18844.45870504  1422.09714355
0.38700002 18599.17028692  1407.21329058
0.38800002 18360.90056209  1178.49445841
0.38900002 18129.04933286  1166.60437984
0.39000002 17905.02239672  1890.23330397
0.39100002 17686.41539165  1351.94965659
0.39200002 17474.91610935  1236.17562414
0.39300002 17269.45263861  1428.87457901
0.39400002 17071.38769140  1213.77572236
0.39500002 16878.31077522  1002.57170755
0.39600002 16691.28881245  1192.75955505
0.39700002 16510.22339043  1182.79245973
0.39800002 16335.34631340  1075.43757550
0.39900002 16165.69917852  1357.91879533
0.40000002 16001.53944100  1251.24043587
0.40100002 15843.22553861  1050.88119977
0.40200002 15690.55537824  1043.34352931
0.40300002 15542.33983967  1412.79875836
0.40400002 15399.81077818  1216.20011383
0.40500002 15262.49823306  1208.33204236
0.40600002 15129.85369263  1200.78089521
0.40700002 15002.15797492  1285.38495619
0.40800002 14879.35892483  1004.13358462
0.40900002 14760.93446872  998.57726412
0.41000002 14647.55106849  1083.62587939
0.41100002 14538.22955224  988.30889179
0.41200002 14433.08712266  1072.95574754
0.41300002 14332.84338842  1068.08353991
0.41400002 14236.26573893  1152.06985951
0.41500002 14144.13298616  1235.63151622
0.41600002 14055.27464528  967.07321779
0.41700002 13970.77212292  1051.16094434
0.41800002 13890.99316982  1222.26854693
0.41900002 13812.91331595  1131.27765418
0.42000002 13739.71737105  1475.02742826
0.42100002 13670.52587000  1038.41319429
0.42200002 13604.61394513  1381.14047316
0.42300002 13541.43463708  861.23528373
0.42400002 13481.66504510  1375.12989976
0.42500002 13425.35124799  1201.03197956
0.42600002 13371.33214714  1455.93756983
0.42700002 13321.68465962  1197.35307394
0.42800002 13274.01997199  1110.43819338
0.42900002 13230.42812554  938.69891999
0.43000002 13188.93901540  1108.46443208
0.43100002 13149.34537165  1278.11643069
0.43200002 13113.55234604  1192.41537133
0.43300002 13080.16788549  1362.43035152
0.43400002 13049.22976280  1021.75473885
0.43500002 13020.57213254  1021.85454939
0.43600002 12994.62602676  1107.33710935
0.43700002 12970.51650264  1278.24446191
0.43800002 12948.48249176  1108.45489624
0.43900002 12929.43836003  1536.01734996
0.44000002 12911.95228279  1110.36338918
0.44100002 12896.81631318  855.05896208
0.44200002 12883.53405923  1112.94414245
0.44300002 12872.26190128  1028.75121990
0.44400002 12863.04350870  1116.19065336
0.44500002 12854.52380740  945.96445182
0.44600002 12848.12428139  861.46677389
0.44700002 12844.53015547  1208.41345430
0.44800002 12840.80051626  1124.27634248
0.44900002 12840.55136813  1040.08471011
0.45000002 12840.95839856  955.55996452
0.45100002 12842.47255436  1393.15148872
0.45200002 12845.82890324  960.16152688
0.45300002 12850.03459762  1050.10487709
0.45400002 12856.13068282  1052.91715282
0.45500002 12863.32095350  1231.79167289
0.45600002 12871.51818437  1147.04539736
0.45700002 12880.95215522  1150.39789150
0.45800002 12891.18524553  1597.60466320
0.45900002 12902.50805645  1157.35502752
0.46000002 12915.65473204  982.42932375
0.46100002 12928.60789422  985.54782649
0.46200002 12943.37402772  1078.70084259
0.46300002 12958.91521246  1082.32864984
0.46400002 12974.59243345  1176.47122466
0.46500002 12991.57459106  1180.54443904
0.46600002 13009.12763742  1093.54732103
0.46700002 13026.98679187  1463.19122581
0.46800002 13046.59590980  1009.61087233
0.46900002 13065.79786293  1105.36655159
0.47000002 13085.84629431  924.51508451
0.47100002 13106.59834670  1206.33136901
0.47200002 13127.96489508  1397.14373018
0.47300002 13149.86024375  1215.44163994
0.47400002 13171.51374791  1595.39967833
0.47500002 13194.04119365  1884.10917176
0.47600002 13217.43376229  1134.84891662
0.47700002 13240.29612113  1044.26220457
