# SAXS profile: number of points = 501, q_min = 0, q_max = 0.5, delta_q = 0.001
#    q    intensity    error
0.00000000 1682732.95097188 403.85590823
0.00100000 1682646.38558402 605.75271320
0.00200000 1682386.66141746 1059.90363025
0.00300000 1681953.98130188 1412.84139462
0.00400000 1681348.24106003 1765.41572020
0.00500000 1680570.08582256 2117.51839195
0.00600000 1679619.34485602 2292.68049907
0.00700000 1678496.76893515 2417.03544772
0.00800000 1677202.14168421 2264.22298687
0.00900000 1675736.88630334 3519.04761167
0.01000000 1674100.35078275 3314.71883768
0.01100000 1672294.15912552 3010.12961748
0.01200000 1670318.16135110 4885.68083616
0.01300000 1668173.71798832 3503.16496228
0.01400000 1665861.02920209 4123.00623005
0.01500000 1663381.49361806 5988.17364367
0.01600000 1660735.00803453 8046.26147362
0.01700000 1657923.58319848 5371.67265053
0.01800000 1654947.78325244 5188.26153396
0.01900000 1651808.59553606 5450.96861123
0.02000000 1648506.68283265 6750.63517157
0.02100000 1645044.94878937 5971.51343484
0.02200000 1641421.81832278 6229.19608354
0.02300000 1637640.61137908 10022.36099784
0.02400000 1633701.72236562 6739.01991204
0.02500000 1629607.65193243 6355.47013279
0.02600000 1625358.64179905 7240.97308040
0.02700000 1620956.87106047 8850.42492135
0.02800000 1616402.58617627 8437.62188679
0.02900000 1611699.24743770 8703.17633576
0.03000000 1606847.42551601 8966.20904651
0.03100000 1601848.71246606 7688.87417363
0.03200000 1596704.33052266 11855.53020017
0.03300000 1591418.50023097 8927.85819787
0.03400000 1585989.57368565 10824.37933985
0.03500000 1580421.62053673 10241.13257399
0.03600000 1574715.48953642 10487.60564498
0.03700000 1568873.98887158 12519.61501020
0.03800000 1562898.63575397 9142.95744229
0.03900000 1556792.05864629 15879.27973356
0.04000000 1550554.22665936 11443.09072301
0.04100000 1544189.24869683 15565.42834858
0.04200000 1537698.87127478 9918.15817985
0.04300000 1531084.53402199 11115.67423297
0.04400000 1524349.23695609 11318.29361004
0.04500000 1517495.25267859 12564.86127600
0.04600000 1510523.33082793 13843.94697060
0.04700000 1503437.26086482 10824.74878166
0.04800000 1496238.91064397 13196.82780590
0.04900000 1488930.76222008 15633.77373102
0.05000000 1481514.43283111 14733.66172059
0.05100000 1473994.05275636 16096.01580592
0.05200000 1466368.95089593 16320.68718404
0.05300000 1458644.23760980 16541.02642560
0.05400000 1450820.95700189 17953.91018016
0.05500000 1442902.98111890 16968.53984953
0.05600000 1434890.55149023 14721.97774528
0.05700000 1426789.30491081 17378.29454501
0.05800000 1418598.10130432 13810.05316102
0.05900000 1410321.00733559 16500.75655651
0.06000000 1401961.87112985 15393.54206417
0.06100000 1393522.02982655 14255.73103132
0.06200000 1385004.08521779 18323.60490394
0.06300000 1376411.47651072 13213.55079231
0.06400000 1367743.43866479 17336.14889583
0.06500000 1359006.51287809 14799.58161753
0.06600000 1350202.00803902 13569.53081569
0.06700000 1341331.04249307 19154.20818320
0.06800000 1332397.85010430 15169.35023350
0.06900000 1323405.93207205 13895.76293734
0.07000000 1314354.62514230 15397.66515459
0.07100000 1305248.70607162 28193.37337166
0.07200000 1296090.03840349 15611.40524391
0.07300000 1286881.87929568 18569.70638833
0.07400000 1277627.40435600 18685.30166438
0.07500000 1268326.88297365 23134.28342980
0.07600000 1258983.82784503 15995.39028264
0.07700000 1249601.87618578 14620.34263690
0.07800000 1240182.49686223 19105.01226012
0.07900000 1230727.31688351 16245.60134484
0.08000000 1221241.68901942 19289.51338295
0.08100000 1211726.21564143 17885.07978200
0.08200000 1202182.28918298 16463.88722293
0.08300000 1192613.63115641 16529.62570360
0.08400000 1183022.96810253 21116.96097183
0.08500000 1173412.22308030 21191.82574368
0.08600000 1163784.29287362 19743.60145559
0.08700000 1154140.88457576 22851.99058768
0.08800000 1144483.92745086 18334.63337883
0.08900000 1134816.94994416 18384.03545259
0.09000000 1125141.77788764 24573.09758340
0.09100000 1115460.64789979 20011.36496348
0.09200000 1105774.82042934 16968.11541676
0.09300000 1096089.29588904 20091.31773778
0.09400000 1086402.35481419 17029.35771205
0.09500000 1076718.54707863 17055.22258737
0.09600000 1067039.17928557 23288.13118263
0.09700000 1057369.32981080 21760.66183054
0.09800000 1047707.37496648 15558.45524977
0.09900000 1038057.93167724 17127.95667807
0.10000000 1028419.89353543 21812.78696768
0.10100000 1018797.55503402 20263.88432267
0.10200000 1009192.75059949 18710.43447618
0.10300000 999606.52213956 18712.63497471
0.10400000 990041.55395541 18711.78625005
0.10500000 980501.58830981 17148.97358639
0.10600001 970982.76433141 23376.41115122
0.10700001 961493.00216101 21806.66231518
0.10800001 952029.73255855 17122.25554587
0.10900001 942597.61894669 23329.29216694
0.11000001 933197.03642500 17091.50452661
0.11100001 923829.01987555 15520.32826450
0.11200001 914496.75209277 17050.79274547
0.11300001 905199.89020443 17026.81073638
0.11400001 895941.53798889 15454.99225800
0.11500001 886723.20461255 21600.57828149
0.11600001 877545.65455554 16941.01965897
0.11700001 868410.55355646 16907.95427402
0.11800001 859318.33873975 18406.59968273
0.11900001 850270.83869877 18365.85098096
0.12000001 841269.57008317 19849.75644113
0.12100001 832316.96427472 19800.82151288
0.12200001 823412.65533849 24307.14273073
0.12300001 814558.93665737 16665.87662921
0.12400001 805755.70732787 15107.92022424
0.12500001 797004.13273113 19582.39246394
0.12600001 788307.30400340 16518.98033382
0.12700001 779664.11673496 14969.55174677
0.12800001 771075.93072190 14920.31996265
0.12900001 762544.49977297 19330.50398033
0.13000001 754070.27229204 16299.22970385
0.13100001 745653.23721383 17716.72175132
0.13200001 737294.89998640 19121.74413255
0.13300001 728997.42427638 19048.70359435
0.13400001 720759.17402790 17514.44875461
0.13500001 712583.18762726 18897.70702687
0.13600001 704467.74418039 17372.17539060
0.13700001 696415.78697886 18740.54971128
0.13800001 688425.37298003 17224.40364419
0.13900001 680500.17016339 17148.60509681
0.14000001 672638.51596734 17071.56634036
0.14100001 664841.39448275 24073.90802962
0.14200001 657109.01296294 16913.98679142
0.14300001 649443.51902668 16833.57680717
0.14400001 641841.19724987 16752.05603841
0.14500001 634307.19603614 18058.72672302
0.14600001 626839.10260233 15203.98315086
0.14700001 619439.71662007 15126.71859349
0.14800001 612104.57478337 20520.80683776
0.14900001 604838.27679128 17691.52043085
0.15000001 597638.73747632 18951.12525954
0.15100001 590507.49579967 14809.92869346
0.15200001 583444.31918097 22763.08118697
0.15300001 576450.15614487 18642.39892944
0.15400001 569521.50212850 14565.51310430
0.15500001 562662.86717634 14482.94288461
0.15600001 555869.63711135 17017.94974332
0.15700001 549148.30225677 14316.29691552
0.15800001 542491.14815473 12938.41449417
0.15900001 535904.25053249 21864.89445376
0.16000001 529382.86084794 14063.05636224
0.16100001 522932.28312859 15248.70609583
0.16200001 516548.04337647 12629.60025675
0.16300001 510230.96193282 12551.68225609
0.16400001 503981.57614257 14968.25351808
0.16500001 497798.52086457 13634.70213019
0.16600001 491683.41016715 13548.33700681
0.16700001 485633.33123863 13461.75657753
0.16800001 479649.05879349 12159.10421452
0.16900001 473732.86210760 13288.20740956
0.17000001 467881.04379950 13201.26427416
0.17100001 462094.21142467 13114.23433950
0.17200001 456373.04218437 13027.16910433
0.17300001 450716.42541512 14116.43911064
0.17400001 445124.18396078 15189.86349502
0.17500001 439595.38181356 17407.97794195
0.17600001 434128.73833130 12678.73040177
0.17700001 428726.93743072 12591.71074705
0.17800001 423386.09536620 14778.29235677
0.17900001 418107.93418232 13546.69770737
0.18000001 412891.34791061 11210.00062528
0.18100001 407737.27100220 13357.47362899
0.18200001 402641.26486873 16578.75486412
0.18300001 397606.50255959 12071.33398795
0.18400001 392630.74965492 15253.70534469
0.18500001 387715.72809296 12980.72318979
0.18600001 382857.51754351 15034.81542423
0.18700001 378056.82983495 11727.32341554
0.18800001 373313.73506795 10583.44488920
0.18900001 368629.40010417 12607.12607922
0.19000001 363997.22309347 12514.22512124
0.19100001 359425.26406332 17597.46176002
0.19200001 354905.09206584 12329.40348095
0.19300001 350441.89266257 13257.21742586
0.19400001 346030.45664296 14169.94786911
0.19500001 341673.28958270 17076.83182031
0.19600001 337368.70153938 11963.09472192
0.19700001 333116.04323964 9893.54695176
0.19800001 328915.14147860 10799.92918084
0.19900001 324765.65681819 11691.56419800
0.20000001 320664.72469191 13535.25866894
0.20100001 316615.34730901 13430.82366762
0.20200001 312613.29997974 9519.07543429
0.20300001 308661.36270529 12278.54958876
0.20400001 304756.61395534 12182.64621869
0.20500001 300898.83536088 11157.32934255
0.20600001 297087.80661840 11069.49219783
0.20700001 293323.31796983 9151.68795325
0.20800001 289602.74537800 9079.04649677
0.20900001 285929.59764291 9907.46102667
0.21000001 282298.69760802 9828.22962183
0.21100001 278712.14399196 14180.87455669
0.21200001 275168.13812409 12308.27140016
0.21300001 271666.13361160 11336.62829156
0.21400001 268206.87625714 11244.57381869
0.21500001 264789.74784903 8579.18823591
0.21600001 261412.16108446 11912.55274383
0.21700001 258074.91602794 15190.29027559
0.21800001 254777.70274574 9206.39272400
0.21900001 251518.47774978 14940.19828473
0.22000001 248297.47801346 11523.48649946
0.22100001 245116.04477867 8978.60114478
0.22200001 241971.90817509 8093.96071118
0.22300001 238863.41798743 10433.55459105
0.22400001 235790.53076197 9549.51694742
0.22500001 232756.28441793 8679.48225637
0.22600001 229754.88748244 9387.78514646
0.22700001 226790.54203848 8531.86059495
0.22800001 223858.98458267 9996.42342927
0.22900001 220960.55173125 8385.45333476
0.23000001 218096.67253411 12091.28009711
0.23100001 215266.30068411 8240.39437990
0.23200001 212466.41985783 9653.41224279
0.23300001 209699.34906871 11040.67125063
0.23400001 206964.34834553 8754.59234907
0.23500001 204258.51208061 13738.42817232
0.23600001 201584.96600619 10749.51882070
0.23700001 198940.67022457 9232.83694182
0.23800001 196326.50560749 9853.62778250
0.23900001 193741.11605733 10462.02076194
0.24000001 191184.63754049 11749.25245579
0.24100001 188657.89271589 8217.93819542
0.24200001 186158.40598775 7464.02164114
0.24300001 183686.86704466 8067.52758222
0.24400001 181242.39950520 7992.79019627
0.24500001 178824.85206859 11217.68350091
0.24600001 176434.08333732 8497.94802594
0.24700001 174069.96624639 7770.48366083
0.24800001 171731.66597369 10904.10264684
0.24900001 169418.02588758 8259.12915274
0.25000001 167130.94339934 9438.72047501
0.25100001 164867.41374656 7478.38624134
0.25200001 162630.24812007 8023.36367059
0.25300001 160417.16145063 6723.08355447
0.25400001 158227.61676394 6657.42729031
0.25500001 156061.52957073 5992.76301905
0.25600001 153919.62751331 8307.04268992
0.25700001 151800.21948866 7049.60252659
0.25800001 149704.56049103 6979.22694031
0.25900001 147631.35641796 6333.38548999
0.26000001 145580.65542158 7979.27610120
0.26100001 143551.42999292 6769.88575879
0.26200001 141545.07364471 6142.34876145
0.26300001 139559.64568425 7184.53089978
0.26400001 137596.05667842 6563.33221413
0.26500001 135654.30337050 6495.12835272
0.26600001 133732.51620428 5355.98752742
0.26700001 131832.60381004 5299.67092395
0.26800001 129953.73829578 5767.99694720
0.26900001 128093.78038986 6744.13785667
0.27000001 126255.30790533 6158.73421107
0.27100001 124436.27027370 8123.20010788
0.27200001 122638.67096354 7030.87533906
0.27300001 120859.81526227 6457.54023506
0.27400001 119098.59806611 5404.09914300
0.27500001 117359.81876638 5830.43607224
0.27600001 115637.89484592 6726.65666153
0.27700001 113936.62764829 6651.62063691
0.27800001 112253.24951249 5637.35845732
0.27900001 110589.89513914 5109.25339724
0.28000001 108943.59283378 5969.56445186
0.28100001 107316.79543965 4539.50066195
0.28200001 105708.83515684 4936.07429127
0.28300001 104118.50910485 5766.08330714
0.28400001 102546.06369058 6575.76664539
0.28500001 100992.14397984 4765.81949998
0.28600001 99455.72770659  6850.51084868
0.28700001 97937.06008814  4653.96931567
0.28800001 96435.26133740  4180.46877685
0.28900001 94952.96342724  5369.59033597
0.29000001 93486.26663361  6529.08117074
0.29100001 92037.86384344  5240.63621531
0.29200001 90606.40625158  4380.36691758
0.29300001 89192.07214778  5506.71879507
0.29400001 87794.08298593  4661.86602723
0.29500001 86414.10809548  5755.17987159
0.29600001 85050.13001603  5304.57686021
0.29700001 83702.86881693  5986.42946117
0.29800001 82371.96250926  4433.25923211
0.29900001 81058.37652784  4741.91525136
0.30000001 79760.29380731  4321.41292305
0.30100001 78479.66667069  4266.15488218
0.30200001 77213.51547741  4562.16077796
0.30300001 75965.00078651  5542.40671977
0.30400001 74732.28108396  5128.50303218
0.30500001 73515.08587090  3374.34260122
0.30600001 72313.11129360  3663.02082599
0.30700001 71127.99699687  4271.94770188
0.30800001 69958.00363889  4539.57507105
0.30900001 68803.79717523  3199.37672012
0.31000001 67665.38473832  3787.90841699
0.31100001 66541.36229719  4671.20385442
0.31200001 65433.40934093  3993.72832821
0.31300001 64340.11891790  4242.58764232
0.31400001 63263.05355365  3587.01530633
0.31500001 62200.10130573  4127.59891808
0.31600002 61152.49120778  3198.58120407
0.31700002 60119.67796501  3441.25052965
0.31800002 59101.66331645  3393.61766831
0.31900002 58098.51382804  3067.60167537
0.32000002 57110.19430561  4949.74077484
0.32100002 56135.61309128  3795.89033697
0.32200002 55176.76463614  2673.31437320
0.32300002 54230.57821457  3426.28809383
0.32400002 53299.30858141  2858.17555802
0.32500002 52382.10959322  3586.07939256
0.32600002 51479.47701503  2777.57531387
0.32700002 50590.05508842  3235.74007668
0.32800002 49715.44653853  3434.84036400
0.32900002 48853.79912464  3143.74212254
0.33000002 48006.86358653  2621.89497894
0.33100002 47171.07647072  2349.11971948
0.33200002 46351.86068010  2778.33066073
0.33300002 45544.42652224  2509.95346450
0.33400002 44750.85872081  2248.73075721
0.33500002 43969.51280083  2880.88261514
0.33600002 43202.29391656  2839.03887917
0.33700002 42446.93362008  2152.05963645
0.33800002 41705.75853684  2120.73792203
0.33900002 40976.08471668  2089.78041952
0.34000002 40259.82930988  2059.29036672
0.34100002 39555.72896534  2840.89258883
0.34200002 38864.73264076  2999.38588360
0.34300002 38184.99323939  2167.38031891
0.34400002 37518.91873184  1941.60413633
0.34500002 36863.97491108  1913.24038850
0.34600002 36222.10128143  2262.43255319
0.34700002 35590.39666998  2043.60067358
0.34800002 34972.05977918  2563.10238261
0.34900002 34364.71287612  2164.97701373
0.35000002 33769.07542221  1955.73609571
0.35100002 33185.49364094  1752.19414723
0.35200002 32611.91599535  1726.80103374
0.35300002 32050.08318263  2042.23139712
0.35400002 31499.71384227  1845.09582570
0.35500002 30960.44685239  1818.61673425
0.35600002 30430.98981202  2118.45345610
0.35700002 29912.77469336  2409.47411567
0.35800002 29405.87740314  2058.55854511
0.35900002 28909.23258055  2029.42822328
0.36000002 28423.20148336  1846.93971987
0.36100002 27946.71649694  1972.75881096
0.36200002 27481.54774167  1945.28144904
0.36300002 27025.28409624  1770.69669786
0.36400002 26579.15066299  1600.72942450
0.36500002 26142.70679061  1722.28160495
0.36600002 25716.26198100  1698.81634693
0.36700002 25298.79984059  1536.14319908
0.36800002 24892.36412216  2204.46787108
0.36900002 24494.09681339  1631.30692505
0.37000002 24104.74832136  1743.85809991
0.37100002 23724.28462823  1853.34120295
0.37200002 23353.78620456  1567.97328005
0.37300002 22991.41499132  1676.76397475
0.37400002 22637.86977560  1655.39430576
0.37500002 22293.25078349  1886.00910563
0.37600002 21957.35926989  1614.19534319
0.37700002 21629.11299898  1594.28199468
0.37800002 21309.07332271  1574.84713852
0.37900002 20997.83184268  1196.87647173
0.38000002 20694.49995337  1419.22887403
0.38100002 20398.03675952  1285.68831786
0.38200002 20110.37510374  1270.87521489
0.38300002 19829.51805457  1370.61635286
0.38400002 19557.16491631  1581.19685839
0.38500002 19290.94354552  1340.33482104
0.38600002 19033.29216528  1325.85919505
0.38700002 18781.95281664  1093.10970571
0.38800002 18537.90938823  1406.19318326
0.38900002 18300.18324666  1177.61684771
0.39000002 18070.59446589  1271.80849876
0.39100002 17846.45982126  1259.24626465
0.39200002 17629.53635052  1974.59631249
0.39300002 17418.69783099  1235.33410870
0.39400002 17215.46723530  1530.02472303
0.39500002 17017.25474398  1111.90747765
0.39600002 16825.36495291  1302.53568954
0.39700002 16639.39101362  1291.38319775
0.39800002 16459.65019543  1083.62112196
0.39900002 16285.37177756  1270.25905883
0.40000002 16116.69393627  1163.30302344
0.40100002 15953.94107090  1539.23630745
0.40200002 15796.84464561  1145.90316489
0.40300002 15644.41292985  948.05146847
0.40400002 15497.71656606  1035.63495860
0.40500002 15356.35740297  1122.24265218
0.40600002 15219.79902247  1115.00252922
0.40700002 15088.30464658  1015.74471693
0.40800002 14961.68501616  1101.47930308
0.40900002 14839.65303358  1003.90257529
0.41000002 14722.79084377  1179.95812808
0.41100002 14610.04403091  1354.35114584
0.41200002 14501.56070410  1078.04607382
0.41300002 14398.14595837  983.53739702
0.41400002 14298.43993388  1424.12468489
0.41500002 14203.20886591  974.90830275
0.41600002 14111.44073579  1147.47185780
0.41700002 14024.15383463  967.24593581
0.41800002 13941.56256403  1051.47269840
0.41900002 13860.90699412  960.56090021
0.42000002 13785.19207679  957.58841299
0.42100002 13713.51166442  954.87186244
0.42200002 13645.23457804  1125.52722750
0.42300002 13579.76161290  863.67287951
0.42400002 13517.79933978  1206.46364824
0.42500002 13459.39850068  946.06116544
0.42600002 13403.42185245  944.33813136
0.42700002 13351.82465081  942.90590152
0.42800002 13302.42499345  1112.81441556
0.42900002 13257.05898582  1197.11248315
0.43000002 13213.91646031  1110.56366153
0.43100002 13172.77691860  853.59598478
0.43200002 13135.51020904  1279.72714276
0.43300002 13100.69053403  1108.71149243
0.43400002 13068.42484161  1279.07214199
0.43500002 13038.58053741  1193.81249058
0.43600002 13011.49740737  1535.22665185
0.43700002 12986.24832996  1023.83586685
0.43800002 12963.23762824  1024.35508593
0.43900002 12943.28197150  1195.95931084
0.44000002 12924.91748218  940.48166516
0.44100002 12909.02580480  941.45529656
0.44200002 12895.00788484  1113.93530892
0.44300002 12883.10341592  1029.61767379
0.44400002 12873.34347423  945.22528939
0.44500002 12864.26471881  946.68128552
0.44600002 12857.48756509  1724.18916419
0.44700002 12853.47285561  1295.63012525
0.44800002 12849.54628834  1211.58377695
0.44900002 12849.02961469  1040.77144811
0.45000002 12849.27649268  956.17895552
0.45100002 12850.76904363  1132.66683719
0.45200002 12854.02849205  1135.46066066
0.45300002 12858.24538640  1138.34051801
0.45400002 12864.41146124  965.79573622
0.45500002 12871.73728081  1144.55493325
0.45600002 12880.16505117  882.93535610
0.45700002 12889.87535501  1062.64137463
0.45800002 12900.37874734  888.19111885
0.45900002 12912.03823829  980.02374873
0.46000002 12925.56067378  983.18281925
0.46100002 12938.93527756  986.33508296
0.46200002 12954.20760096  1259.53766474
0.46300002 12970.33592729  902.73542332
0.46400002 12986.58614420  905.81442649
0.46500002 13004.26972090  1181.69804555
0.46600002 13022.42167987  1185.88688648
0.46700002 13041.03086719  1007.02845129
0.46800002 13061.41931535  1010.75798162
0.46900002 13081.42976421  1475.58534734
0.47000002 13102.36022557  1018.24997319
0.47100002 13123.96146870  1393.76477404
0.47200002 13146.24002771  1212.54350643
0.47300002 13169.11793296  1029.95676235
0.47400002 13191.82807433  1315.88491278
0.47500002 13215.33389742  943.57488500
0.47600002 13239.78192415  1136.76772989
0.47700002 13263.74812202  1236.31402105
