# SAXS profile: number of points = 501, q_min = 0, q_max = 0.5, delta_q = 0.001
#    q    intensity    error
0.00000000 1682732.95097187 252.40994265
0.00100000 1682646.50280092 807.67034053
0.00200000 1682387.13042924 908.48907920
0.00300000 1681955.03746491 1110.09036427
0.00400000 1681350.12479059 1387.11390566
0.00500000 1680573.01779377 1815.01893106
0.00600000 1679623.58086528 2292.68628122
0.00700000 1678502.51955903 2417.04372862
0.00800000 1677209.64038807 3169.92635417
0.00900000 1675746.40456236 3770.42957144
0.01000000 1674112.09551515 2762.28507687
0.01100000 1672308.34552836 3010.15515301
0.01200000 1670335.03191501 3908.58414605
0.01300000 1668193.49400677 3853.52714111
0.01400000 1665883.93070713 4123.06291128
0.01500000 1663407.80186199 4790.61468268
0.01600000 1660764.91184074 4658.44578596
0.01700000 1657957.28697639 5371.78185077
0.01800000 1654985.49919603 7075.06332742
0.01900000 1651850.60744486 6442.21765972
0.02000000 1648553.16058298 7789.41403611
0.02100000 1645096.15097669 7600.34456210
0.02200000 1641477.94700789 6229.40909191
0.02300000 1637701.85699976 6485.29964892
0.02400000 1633768.27581993 10415.27323326
0.02500000 1629679.83214646 7626.90196277
0.02600000 1625436.55419576 8557.92384927
0.02700000 1621040.80225907 7489.20884945
0.02800000 1616492.63568423 9141.26627401
0.02900000 1611795.72598576 8703.69731995
0.03000000 1606950.49273830 9714.01617511
0.03100000 1601958.52338500 12303.04202570
0.03200000 1596821.15508702 8694.69158991
0.03300000 1591542.54783031 12175.30105219
0.03400000 1586120.93738132 10825.27589711
0.03500000 1580560.53819666 9388.53003043
0.03600000 1574862.17443931 10488.58256648
0.03700000 1569028.58977698 12520.84872548
0.03800000 1563061.30494249 10972.69086851
0.03900000 1556963.09779225 10275.95692131
0.04000000 1550733.65413880 13351.81738084
0.04100000 1544377.39649584 9729.57804905
0.04200000 1537895.72564006 15871.08462491
0.04300000 1531290.28928671 11117.16801626
0.04400000 1524564.24683549 12348.97097288
0.04500000 1517719.56823051 11519.49205812
0.04600000 1510757.00588482 10650.83738661
0.04700000 1503680.54218223 11909.15044795
0.04800000 1496491.99382799 13199.05999969
0.04900000 1489193.72231613 14519.63946844
0.05000000 1481787.49363251 18137.07976664
0.05100000 1474277.19913124 12649.29895780
0.05200000 1466662.42845765 11659.96684961
0.05300000 1458948.08744474 14180.97607105
0.05400000 1451135.49587375 13169.05523918
0.05500000 1443228.05874775 15760.05113672
0.05600000 1435226.74264852 12271.18922227
0.05700000 1427136.32655574 16140.91260678
0.05800000 1418956.14844059 17580.86750007
0.05900000 1410690.22678843 17774.69768772
0.06000000 1402342.37766638 20530.29336819
0.06100000 1393913.87468836 14259.73960444
0.06200000 1385407.42489876 20947.36124362
0.06300000 1376826.48968612 15861.04190277
0.06400000 1368170.09176182 16007.59082224
0.06500000 1359444.97178958 14804.35643530
0.06600000 1350652.22810372 14931.46108031
0.06700000 1341793.10742972 15054.91936992
0.06800000 1332872.04061719 15174.74889274
0.06900000 1323892.16200768 16681.04202228
0.07000000 1314852.97015612 15403.50326670
0.07100000 1305759.30690155 15512.42129256
0.07200000 1296612.84548840 15617.70245555
0.07300000 1287417.11851190 15719.36375357
0.07400000 1278175.04604715 15817.41693610
0.07500000 1268886.94790902 20251.43663786
0.07600000 1259556.35849405 21821.81493393
0.07700000 1250186.94237187 23403.50065856
0.07800000 1240780.00912788 17643.89255723
0.07900000 1231337.55388954 17731.26160767
0.08000000 1221864.56266756 14845.65513284
0.08100000 1212361.70062944 17894.45954087
0.08200000 1202830.53790071 23960.38543933
0.08300000 1193274.54065682 21049.36388508
0.08400000 1183696.54046723 21128.98423911
0.08500000 1174098.57030711 15145.87226799
0.08600000 1164483.43690281 16716.16052159
0.08700000 1154852.61457407 16768.46075102
0.08800000 1145208.41523407 16817.38636752
0.08900000 1135554.24147706 18395.97957598
0.09000000 1125891.68638221 18442.10668927
0.09100000 1116223.34221856 21565.43598483
0.09200000 1106550.29658591 15436.37736268
0.09300000 1096877.40288822 17012.56931825
0.09400000 1087203.12799868 24788.23248335
0.09500000 1077531.92055678 20171.39850093
0.09600000 1067865.17098179 18644.92676180
0.09700000 1058207.80196747 15555.65542024
0.09800000 1048558.48658906 20242.42253535
0.09900000 1038921.52729244 23375.73546326
0.10000000 1029295.89581031 18712.60026583
0.10100000 1019685.98505332 15601.19630507
0.10200000 1010093.47050219 21848.32279463
0.10300000 1000519.38284643 17168.91341728
0.10400000 990967.00739025 15607.73110066
0.10500000 981439.06903394 23407.32289776
0.10600001 971932.34945053 20279.36942550
0.10700001 962454.58666272 17150.94154141
0.10800001 953003.38121274 17139.76661774
0.10900001 943583.13449125 18682.94694225
0.11000001 934194.42140105 18665.20541816
0.11100001 924838.20587820 18644.73910818
0.11200001 915517.48007907 18621.62642146
0.11300001 906232.30638802 17046.23048571
0.11400001 896985.30613247 17020.29698525
0.11500001 887778.58831361 20081.55261325
0.11600001 878612.18611313 21587.50242939
0.11700001 869488.32671902 18467.93292926
0.11800001 860407.32156426 16894.09855460
0.11900001 851370.75197584 18389.60910886
0.12000001 842380.36154499 21404.88599513
0.12100001 833438.75351212 18302.31588931
0.12200001 824545.05519465 22819.28547756
0.12300001 815702.08610209 27309.70712938
0.12400001 806909.33052398 19668.41585825
0.12500001 798168.00669930 18102.45124494
0.12600001 789481.41450643 15039.62165507
0.12700001 780848.47180569 16491.52050172
0.12800001 772270.30723941 17932.11737923
0.12900001 763748.57056402 17871.71739353
0.13000001 755284.21570268 19293.73619953
0.13100001 746876.68195705 17745.79079979
0.13200001 738527.94053976 16206.99641915
0.13300001 730239.89878932 16145.60492338
0.13400001 722011.04134544 20469.01398717
0.13500001 713843.97681225 18931.14315763
0.13600001 705737.57930392 20304.07111393
0.13700001 697694.25603644 17330.72613715
0.13800001 689712.66334640 14380.50970890
0.13900001 681796.05385468 18613.03314799
0.14000001 673942.81389306 15679.28030467
0.14100001 666153.96340863 22702.52814368
0.14200001 658429.69458892 16947.98113808
0.14300001 650772.03100322 16868.01183923
0.14400001 643177.75628815 23781.49866052
0.14500001 635651.47323287 23665.30546480
0.14600001 628190.92982942 19392.25491865
0.14700001 620798.79219794 17916.25398806
0.14800001 613471.00577305 15082.18538849
0.14900001 606211.76592357 16367.71845218
0.15000001 599019.17016589 14924.56332887
0.15100001 591894.81027208 14844.72254207
0.15200001 584838.15392096 14764.23989241
0.15300001 577850.45229658 21357.35372471
0.15400001 570928.07210340 13274.07830282
0.15500001 564075.62264559 14519.30721211
0.15600001 557288.50020513 13124.14479922
0.15700001 550572.92383694 18268.01047510
0.15800001 543921.41547672 14269.77900855
0.15900001 537340.11197874 23213.09393315
0.16000001 530824.13340089 15383.28411209
0.16100001 524378.76021404 14016.64492217
0.16200001 517999.63316623 16464.61911742
0.16300001 511687.52459081 12587.51369916
0.16400001 505442.79863175 13760.68084239
0.16500001 499264.40199820 13674.85261634
0.16600001 493153.75809572 19765.60355767
0.16700001 487107.95444022 13502.63313461
0.16800001 481128.02050505 14635.91507482
0.16900001 475215.77654206 24236.00574802
0.17000001 469367.69187147 16854.99461099
0.17100001 463584.53381236 16744.67415201
0.17200001 457866.88215156 15446.13999879
0.17300001 452213.63593322 15343.60939181
0.17400001 446624.58856753 18758.23360571
0.17500001 441098.85805743 12809.51144295
0.17600001 435635.10159386 12722.72374293
0.17700001 430236.09593964 13784.76516497
0.17800001 424897.81387838 18253.61094637
0.17900001 419622.19983603 15861.71990301
0.18000001 414407.83816137 14626.52533879
0.18100001 409255.95995342 12289.95705794
0.18200001 404161.94504023 12203.67050697
0.18300001 399129.03547545 15422.34665931
0.18400001 394154.99428812 14219.14209067
0.18500001 389241.62072164 11945.82590429
0.18600001 384384.70528986 10781.99149276
0.18700001 379585.38785569 14986.03182055
0.18800001 374843.34046783 14877.53288607
0.18900001 370160.04582019 13714.43034561
0.19000001 365528.66091437 13614.11561901
0.19100001 360957.42035848 19751.59097528
0.19200001 356437.88247081 12382.65262213
0.19300001 351974.98535487 14339.46158093
0.19400001 347563.98426031 16265.99523201
0.19500001 343206.94688613 11099.31318680
0.19600001 338902.42780508 10014.56721489
0.19700001 334649.55727595 9939.09232079
0.19800001 330448.47883804 16768.60885110
0.19900001 326298.47007522 16641.22276030
0.20000001 322197.20047434 11657.09526409
0.20100001 318147.08127718 9639.85701830
0.20200001 314144.40296739 10522.26727471
0.20300001 310191.51915350 9491.86093473
0.20400001 306285.74351374 10360.11576403
0.20500001 302426.93305362 12148.49047499
0.20600001 298614.58190018 12053.57816815
0.20700001 294848.76220768 10119.20999729
0.20800001 291126.64126952 12777.54888932
0.20900001 287452.05543218 9960.21419156
0.21000001 283819.34933883 9881.17111434
0.21100001 280230.94063833 9802.47876693
0.21200001 276685.11895363 9724.09896533
0.21300001 273180.83867754 14030.56853778
0.21400001 269719.40915702 11307.98676351
0.21500001 266300.05065767 9490.93425415
0.21600001 262920.05169501 11981.26732220
0.21700001 259580.41318083 8488.27991234
0.21800001 256280.48117543 8418.81420466
0.21900001 253018.58686069 8349.61376119
0.22000001 249794.84650069 8280.69955303
0.22100001 246610.47804803 9033.34223803
0.22200001 243463.30857303 9772.61766821
0.22300001 240351.70774008 13728.89019529
0.22400001 237275.77382237 12012.08661777
0.22500001 234238.14158980 8734.74071293
0.22600001 231233.28037911 8660.84292616
0.22700001 228265.51269150 9368.01708386
0.22800001 225330.34934156 10062.12722569
0.22900001 222428.25513513 9208.53019807
0.23000001 219560.74322888 9129.33613520
0.23100001 216726.56950066 9804.71046790
0.23200001 213922.76615739 8224.26113388
0.23300001 211151.64966219 8893.70790439
0.23400001 208412.53382246 8815.85059764
0.23500001 205702.41309641 8010.05234482
0.23600001 203024.78111090 8661.03757183
0.23700001 200376.18063275 8584.11598432
0.23800001 197757.56646408 10634.41363960
0.23900001 195167.72724002 8431.24621556
0.24000001 192606.74888287 9051.55459189
0.24100001 190075.30818654 9659.62761895
0.24200001 187571.21232379 9571.75941765
0.24300001 185094.80614250 7451.91724779
0.24400001 182645.52010978 8054.66781786
0.24500001 180223.11808821 7980.28004645
0.24600001 177827.36906917 8565.05563639
0.24700001 175458.13663433 9137.86018819
0.24800001 173114.85813580 8405.59233442
0.24900001 170796.09996613 8326.31026725
0.25000001 168503.72562139 8247.41524071
0.25100001 166234.86165608 6912.04587466
0.25200001 163992.39310312 6845.86277397
0.25300001 161773.90176111 7396.30313844
0.25400001 159578.86360177 8545.44855017
0.25500001 157407.25654965 7253.32672498
0.25600001 155259.79058602 5985.26521027
0.25700001 153134.83361216 5926.31834118
0.25800001 151033.39835563 7041.17736449
0.25900001 148954.44549946 6971.06837921
0.26000001 146898.03319380 8051.48158031
0.26100001 144862.86037325 7401.04388666
0.26200001 142850.75324764 5635.46248227
0.26300001 140859.29000908 11156.05629660
0.26400001 138889.75423989 6625.04159073
0.26500001 136941.92354529 6556.77960961
0.26600001 135014.08781171 8110.97170910
0.26700001 133108.04243934 5350.94355927
0.26800001 131222.99932019 8471.75723700
0.26900001 129356.84042382 5762.84751359
0.27000001 127512.12961997 6738.37880864
0.27100001 125686.86103707 5128.02417298
0.27200001 123882.90558476 7609.50783565
0.27300001 122097.68023839 5520.03638481
0.27400001 120330.13233669 6452.70365193
0.27500001 118584.86305702 5891.29627548
0.27600001 116856.25336336 5340.91531274
0.27700001 115148.64997725 6242.20861069
0.27800001 113458.70282456 6172.72101931
0.27900001 111788.68092516 5164.63730317
0.28000001 110135.74907585 5106.44424758
0.28100001 108502.29253721 5966.54134901
0.28200001 106887.49899830 6806.06182084
0.28300001 105290.46862341 4933.91159322
0.28400001 103711.29645963 5320.38976020
0.28500001 102150.49999743 4382.25665731
0.28600001 100607.34456654 4331.14638859
0.28700001 99081.81852685  5136.40171555
0.28800001 97573.02681715  5498.72818655
0.28900001 96083.82823609  4179.64672611
0.29000001 94610.15331054  4542.70672623
0.29100001 93154.81539191  4080.18110730
0.29200001 91716.29402467  4837.11757583
0.29300001 90294.97887567  4380.20963260
0.29400001 88889.89751174  7866.75630217
0.29500001 87502.75599101  6216.19607986
0.29600001 86131.60851338  5372.02867728
0.29700001 84777.22610287  4926.40484204
0.29800001 83439.22279131  4864.92411515
0.29900001 82118.46298991  5173.46341327
0.30000001 80813.03518544  5108.19219589
0.30100001 79525.20200368  4322.99018557
0.30200001 78251.73702537  4267.84993941
0.30300001 76995.93744971  5266.52237088
0.30400001 75755.79611691  4505.57618736
0.30500001 74531.31012515  3420.98729670
0.30600001 73321.92233022  4727.06455642
0.30700001 72129.43791420  3998.85622728
0.30800001 70952.05794053  3617.49084536
0.30900001 69790.39134291  3894.30402131
0.31000001 68644.52424487  3202.26720763
0.31100001 67513.07086738  4423.45661266
0.31200001 66397.60225743  3740.84108830
0.31300001 65296.89009030  3690.58040264
0.31400001 64212.29667804  4247.64362636
0.31500001 63141.69391627  3292.20807667
0.31600002 62086.47754128  4428.31822030
0.31700002 61046.01845302  3785.46378351
0.31800002 60020.45910390  3159.17701452
0.31900002 59009.79329269  3682.21127581
0.32000002 58013.80139587  4469.38347116
0.32100002 57031.48720687  3305.54515503
0.32200002 56065.09440762  3531.26013847
0.32300002 55111.12432635  3481.92099981
0.32400002 54172.21065026  2904.98493367
0.32500002 53247.38109164  2864.17676454
0.32600002 52336.97747694  2823.84175348
0.32700002 51439.82204408  2530.83936441
0.32800002 50557.47497371  2495.01150810
0.32900002 49688.07799865  2705.51597514
0.33000002 48833.31042258  2667.03137502
0.33100002 47989.78453163  3823.82621256
0.33200002 47162.65470221  3298.08459951
0.33300002 46347.52576921  2786.41338120
0.33400002 45546.09842857  3890.77564251
0.33500002 44756.94279938  2932.47503109
0.33600002 43981.86303145  4001.90990675
0.33700002 43218.70513396  2629.42614487
0.33800002 42469.68797841  2159.58373597
0.33900002 41732.14456123  2128.33947342
0.34000002 41007.99237731  2517.07069132
0.34100002 40296.05125939  2894.06253851
0.34200002 39597.22469430  2648.46049911
0.34300002 38909.59401785  2810.82920497
0.34400002 38235.72037903  2770.17807266
0.34500002 37572.80944396  2730.04046349
0.34600002 36922.95687031  2690.57599457
0.34700002 36283.41363343  2462.19256578
0.34800002 35657.20782043  3359.97885205
0.34900002 35041.90260230  2391.60996588
0.35000002 34438.53730824  1994.50798267
0.35100002 33846.94472698  2680.67814934
0.35200002 33265.53861588  1937.55138845
0.35300002 32695.83269582  2256.99343789
0.35400002 32137.49203514  2395.85014470
0.35500002 31590.35671752  1855.61764148
0.35600002 31053.06338211  2494.33743431
0.35700002 30527.01843861  2295.02135492
0.35800002 30012.11485647  2909.07443083
0.35900002 29507.65002530  2230.77844757
0.36000002 29013.87003224  1728.21125033
0.36100002 28529.43965133  2013.89324038
0.36200002 28056.47134311  2138.74491179
0.36300002 27592.42615080  2410.47446271
0.36400002 27138.43058812  2080.16080311
0.36500002 26694.13995142  2637.91503495
0.36600002 26259.92420879  1590.16978579
0.36700002 25834.74930932  1711.29387531
0.36800002 25420.40630946  1547.72151147
0.36900002 25014.51281448  1388.30552697
0.37000002 24617.30878036  1506.94862837
0.37100002 24229.23480995  2163.18618630
0.37200002 23850.92278215  1601.35103145
0.37300002 23480.88775436  1449.00565196
0.37400002 23119.68774598  1950.72374597
0.37500002 22767.41272254  1797.71499373
0.37600002 22423.82933858  1648.48789192
0.37700002 22087.99552871  1753.34516813
0.37800002 21760.45026100  1484.49798713
0.37900002 21441.65888828  1344.39207598
0.38000002 21130.70528719  1569.90582368
0.38100002 20826.75916432  1312.71069231
0.38200002 20531.51655027  1415.44281803
0.38300002 20243.25505946  1282.61270133
0.38400002 19963.45682831  1383.46762374
0.38500002 19689.90459891  1482.05918937
0.38600002 19424.88793621  1240.37627793
0.38700002 19166.09752378  1450.10700735
0.38800002 18914.80316796  1434.78246228
0.38900002 18669.76845518  1529.05410892
0.39000002 18432.90686673  1189.19904285
0.39100002 18201.61131991  1070.25479632
0.39200002 17977.45707963  1165.74825956
0.39300002 17759.45052002  1259.50029055
0.39400002 17549.12137954  1455.69968740
0.39500002 17343.91437174  1442.31998749
0.39600002 17144.97959014  1123.08194126
0.39700002 16952.04972983  1315.64864186
0.39800002 16765.38960113  1304.43119972
0.39900002 16584.11322217  1592.07494476
0.40000002 16408.61342455  1085.67595867
0.40100002 16239.11528073  1175.06243739
0.40200002 16075.22306867  1263.27146470
0.40300002 15916.12552649  1253.87242839
0.40400002 15762.72791742  1244.86149626
0.40500002 15614.72020028  1331.31110735
0.40600002 15471.56664129  1700.17053877
0.40700002 15333.62663717  1313.78519252
0.40800002 15200.46286534  1305.56781736
0.40900002 15072.04149121  1112.31671475
0.41000002 14948.86622464  921.59764642
0.41100002 14829.75030291  916.47861214
0.41200002 14714.99357126  1093.91267392
0.41300002 14605.51303599  997.70264276
0.41400002 14499.65301620  992.86378733
0.41500002 14398.31415731  1078.14581519
0.41600002 14300.52965720  1073.39780693
0.41700002 14207.24740030  1158.03279047
0.41800002 14118.77655021  1064.83817787
0.41900002 14032.29788601  884.03480871
0.42000002 13950.86125545  1145.29600904
0.42100002 13873.38682436  1053.82251311
0.42200002 13799.45117095  963.13274011
0.42300002 13728.39150373  1309.68861152
0.42400002 13660.93805235  957.97332632
0.42500002 13597.07357088  1129.50895506
0.42600002 13535.71702948  1127.05153187
0.42700002 13478.78538180  1384.54090003
0.42800002 13424.23715003  1209.38958215
0.42900002 13373.63482589  1207.63928200
0.43000002 13325.41669998  1033.78587657
0.43100002 13279.31009364  1376.79893575
0.43200002 13237.03944067  945.72032765
0.43300002 13197.29493111  1030.97272887
0.43400002 13160.24510505  1030.44724056
0.43500002 13125.60742641  1287.62214955
0.43600002 13093.94556700  858.30817259
0.43700002 13064.07610903  1201.63377745
0.43800002 13036.55181469  944.30267545
0.43900002 13012.12306333  858.80016288
0.44000002 12989.43695567  1288.87694301
0.44100002 12969.24147482  945.84682558
0.44200002 12950.97759415  946.65175211
0.44300002 12934.93763487  1033.76026477
0.44400002 12921.18779272  862.48932604
0.44500002 12908.07760790  1036.26051947
0.44600002 12897.43260157  1037.72747630
0.44700002 12889.60362152  1472.50838751
0.44800002 12882.00208301  954.36316955
0.44900002 12877.76969428  1477.72414245
0.45000002 12874.45761171  1306.43564806
0.45100002 12872.47222569  872.75365826
0.45200002 12872.36487139  874.67723446
0.45300002 12873.27038711  1227.33765687
0.45400002 12876.15946919  1318.19688813
0.45500002 12880.33966341  1321.52291210
0.45600002 12885.71493736  1059.97896098
0.45700002 12892.44915643  974.28242893
0.45800002 12900.03433516  976.98414668
0.45900002 12908.86102530  1157.92488885
0.46000002 12919.56453121  1340.08189451
0.46100002 12930.31490381  985.67795183
0.46200002 12942.97091514  1438.22299625
0.46300002 12956.60904506  1172.31404196
0.46400002 12970.44520973  1357.03289438
0.46500002 12985.82564851  1089.25110702
0.46600002 13001.71337913  1092.92407845
0.46700002 13018.12144183  1096.64660224
0.46800002 13036.42095965  917.11225798
0.46900002 13054.40606140  1380.50350642
0.47000002 13073.47192642  1016.00491892
0.47100002 13093.16341100  1205.09481747
0.47200002 13113.73402975  1209.54531556
0.47300002 13134.97296055  1214.06560829
0.47400002 13156.05296294  1124.84258165
0.47500002 13178.07707548  1129.09769734
0.47600002 13201.08505865  1416.80652107
0.47700002 13223.71533444  1422.21065163
