# SAXS profile: number of points = 501, q_min = 0, q_max = 0.5, delta_q = 0.001
#    q    intensity    error
0.00000000 1664650.74656090 374.54641798
0.00100000 1664564.73716556 549.30637631
0.00200000 1664306.67798673 898.72563457
0.00300000 1663876.78110799 1697.15437719
0.00400000 1663274.92283823 1621.69311139
0.00500000 1662501.75762232 1645.87680519
0.00600000 1661557.12270754 2268.02556483
0.00700000 1660441.76289912 2590.28925778
0.00800000 1659155.44418583 2911.81792748
0.00900000 1657699.60642044 2486.54951592
0.01000000 1656073.60014734 2732.52155823
0.01100000 1654279.03350431 3871.01310694
0.01200000 1652315.73778626 3544.21741294
0.01300000 1650185.10619468 4158.46665102
0.01400000 1647887.31261289 4820.07060307
0.01500000 1645423.81007540 3949.01732003
0.01600000 1642794.38011308 5445.86361352
0.01700000 1640001.12154333 5756.40419484
0.01800000 1637044.56446209 5598.69266239
0.01900000 1633925.65994431 5391.95492112
0.02000000 1630645.17921806 7191.14556565
0.02100000 1627205.88982318 5369.77967987
0.02200000 1623606.26060136 6161.58603892
0.02300000 1619849.62018837 9913.48012680
0.02400000 1615936.35224053 7271.71391665
0.02500000 1611868.94869755 8800.80486183
0.02600000 1607647.68551614 9766.46013621
0.02700000 1603274.65100133 8753.87999540
0.02800000 1598750.11734352 10431.84499407
0.02900000 1594077.57842887 8608.01931875
0.03000000 1589257.57548882 16997.11055113
0.03100000 1584291.69800332 9885.98065043
0.03200000 1579181.18028461 10162.03136318
0.03300000 1573930.19049766 8027.04434159
0.03400000 1568537.02411843 8234.81975658
0.03500000 1563005.94785779 12660.34876228
0.03600000 1557337.58442576 8643.22399300
0.03700000 1551534.84211517 11496.87371178
0.03800000 1545599.24517725 10850.10720328
0.03900000 1539533.32431848 11084.64044842
0.04000000 1533337.04456127 9430.02326103
0.04100000 1527014.73781055 10582.21262369
0.04200000 1520567.79946964 13730.72786622
0.04300000 1513997.85882447 12990.10223169
0.04400000 1507307.87024206 16278.92575464
0.04500000 1500500.18884729 12424.14214094
0.04600000 1493575.27058642 11582.67676184
0.04700000 1486537.34777716 12843.68328213
0.04800000 1479387.87519060 11960.85152743
0.04900000 1472129.44864614 11040.97137878
0.05000000 1464763.78008458 11205.44343944
0.05100000 1457294.87724451 15913.66080083
0.05200000 1449722.03874541 18440.46519219
0.05300000 1442050.43628541 14016.73089412
0.05400000 1434281.11381780 11832.81974081
0.05500000 1426417.81082224 17972.86525478
0.05600000 1418461.06983887 18191.76406959
0.05700000 1410416.08931446 13497.68260479
0.05800000 1402282.02093799 12410.19646476
0.05900000 1394062.80553689 13801.22241941
0.06000000 1385762.39781998 12679.72653243
0.06100000 1377381.81385304 15371.58176093
0.06200000 1368923.98584003 16817.23195214
0.06300000 1360392.27492960 16977.69638492
0.06400000 1351785.71445395 15815.89359877
0.06500000 1343111.16911299 14626.48131583
0.06600000 1334369.54768266 16092.49749800
0.06700000 1325562.12116661 17576.95454925
0.06800000 1316693.19133632 19078.88523553
0.06900000 1307766.18775930 13731.54561437
0.07000000 1298780.49663881 20748.01940540
0.07100000 1289740.90791596 20893.80368686
0.07200000 1280648.94281251 14023.10658073
0.07300000 1271508.30185153 19759.23993660
0.07400000 1262321.83440558 19881.56982362
0.07500000 1253089.94412483 15713.74863587
0.07600000 1243815.95711210 14366.07497813
0.07700000 1234503.76795394 15888.06423853
0.07800000 1225154.63518239 18873.50804008
0.07900000 1215770.26713788 20424.94144592
0.08000000 1206356.03108170 20520.11705132
0.08100000 1196912.26012272 20610.83008634
0.08200000 1187440.77356917 26610.54898439
0.08300000 1177944.83953477 19294.73737712
0.08400000 1168427.48083621 14897.45107993
0.08500000 1158890.56975848 14949.68905170
0.08600000 1149336.76769836 22498.26828402
0.08700000 1139767.90189985 21062.91181618
0.08800000 1130186.02899880 18105.58103487
0.08900000 1120594.55287753 25717.64619649
0.09000000 1110995.23825016 15165.08571450
0.09100000 1101390.23550161 18239.02315680
0.09200000 1091781.11959149 18276.41680071
0.09300000 1082172.48648796 16784.49605417
0.09400000 1072562.81999087 16812.42299350
0.09500000 1062956.67140061 19898.54982390
0.09600000 1053355.30466304 16858.95244363
0.09700000 1043763.67549810 18411.99210139
0.09800000 1034180.39427454 19964.85345017
0.09900000 1024609.71262853 15369.14641212
0.10000000 1015050.81039689 16915.82255077
0.10100000 1005507.89268367 21537.98007425
0.10200000 995982.46825659 23081.89478753
0.10300000 986476.13316795 20005.73692173
0.10400000 976991.52345483 18465.14066199
0.10500000 967531.77738550 15383.75598423
0.10600001 958093.34788753 16915.13885287
0.10700001 948684.22781474 18442.42225658
0.10800001 939301.82559159 15357.58557118
0.10900001 929950.71555994 16878.60628182
0.11000001 920631.29777260 18394.21419530
0.11100001 911344.44097250 26027.99845940
0.11200001 902093.63163685 19877.63410890
0.11300001 892878.44683914 15268.22215979
0.11400001 883701.59612126 21341.39455118
0.11500001 874565.00817965 15217.43185888
0.11600001 865469.34511136 22783.48158296
0.11700001 856415.97634407 19706.13254374
0.11800001 847405.85118846 16638.81467175
0.11900001 838440.18707553 19619.50130168
0.12000001 829520.86084422 18066.96520023
0.12100001 820650.43737975 15017.90371151
0.12200001 811828.18748332 17973.87691765
0.12300001 803056.45301004 19417.90594865
0.12400001 794335.35006512 17872.54621857
0.12500001 785665.75411636 17818.90014299
0.12600001 777050.82146082 14802.81884639
0.12700001 768489.66869303 17706.00280111
0.12800001 759983.44941394 16176.24848315
0.12900001 751533.76083770 16120.39992976
0.13000001 743141.20332376 16062.99786697
0.13100001 734805.87606279 21823.73554778
0.13200001 726529.17985615 17393.10938567
0.13300001 718313.18697336 15881.90531270
0.13400001 710156.48724261 17256.80345358
0.13500001 702061.49697327 18618.67177757
0.13600001 694027.44994435 17114.71772260
0.13700001 686056.30697880 17041.63946892
0.13800001 678146.91228328 18381.17292422
0.13900001 670302.25186422 15483.98274826
0.14000001 662521.09478539 18216.01836020
0.14100001 654804.30208074 15342.06552133
0.14200001 647152.10182222 18045.83721045
0.14300001 639566.49895638 16577.56443487
0.14400001 632044.05921978 21995.13429836
0.14500001 624589.55173826 15046.36301114
0.14600001 617200.85088646 16331.13528487
0.14700001 609880.60681984 14893.28512115
0.14800001 602624.24263852 21549.84393345
0.14900001 595436.57417432 18756.25297143
0.15000001 588315.48090021 13325.34627112
0.15100001 581262.40325884 15903.34010356
0.15200001 574277.07724601 19769.48931706
0.15300001 567360.47474440 14416.63034356
0.15400001 560509.18226670 16941.39083349
0.15500001 553727.60874119 12957.22665603
0.15600001 547011.17596451 16746.74794251
0.15700001 540366.17377428 15368.01470746
0.15800001 533785.16237928 17823.08741307
0.15900001 527274.13532183 12654.57984503
0.16000001 520828.33358430 16351.40630471
0.16100001 514453.04406937 13751.33051710
0.16200001 508143.55854289 14908.93271144
0.16300001 501901.16901299 12346.76934058
0.16400001 495725.81213419 14723.05731545
0.16500001 489616.75428930 15848.89508459
0.16600001 483575.11493382 12113.55720101
0.16700001 477598.12224315 19256.75719805
0.16800001 471686.75298118 16740.16365371
0.16900001 465842.99694034 15442.69607775
0.17000001 460063.06834659 12980.68008634
0.17100001 454348.07074689 12894.39885669
0.17200001 448698.32874146 13972.46661683
0.17300001 443112.53773747 15034.80911544
0.17400001 437590.76943007 16081.46153602
0.17500001 432132.13294073 13689.94661811
0.17600001 426735.35924758 18127.71891699
0.17700001 421402.91543082 12376.60421076
0.17800001 416130.92421966 14525.05059594
0.17900001 410921.47113291 16642.32036696
0.18000001 405772.96042764 13220.08367518
0.18100001 400686.69254364 12032.62194546
0.18200001 395658.02643379 10860.81333865
0.18300001 390690.07942082 11861.35137154
0.18400001 385780.87956825 14987.58787925
0.18500001 380931.91398510 11690.80099250
0.18600001 376139.22210511 10550.70567850
0.18700001 371403.85934483 13615.66612685
0.18800001 366725.51571277 12476.00263399
0.18900001 362105.54675031 11352.00942698
0.19000001 357537.38283408 14340.82510306
0.19100001 353028.82571010 13217.39985911
0.19200001 348571.64966709 10091.14973468
0.19300001 344171.10899484 10015.37974500
0.19400001 339821.78251093 12921.72389058
0.19500001 335526.50108719 16769.61531679
0.19600001 331283.15992938 11747.30140623
0.19700001 327091.26980663 11657.53340681
0.19800001 322950.78387788 11568.09762520
0.19900001 318861.11449184 11479.00066420
0.20000001 314819.85554803 10441.00100270
0.20100001 310829.48812950 11301.76072254
0.20200001 306886.05535351 10279.14890989
0.20300001 302992.28933971 9271.56449201
0.20400001 299145.27454442 11038.46115243
0.20500001 295344.76158642 10951.38427726
0.20600001 291590.52115064 11770.05194259
0.20700001 287882.37348046 9880.12352487
0.20800001 284217.76044069 11583.29537430
0.20900001 280600.15963960 9722.79599112
0.21000001 277024.29639696 11398.16521407
0.21100001 273492.27612024 12175.87670847
0.21200001 270002.45177071 9489.23661608
0.21300001 266554.05571557 16257.13262666
0.21400001 263148.04298037 8486.52478733
0.21500001 259783.69495952 9258.69132609
0.21600001 256458.50260492 10852.04205080
0.21700001 253173.31016436 8278.76763379
0.21800001 249927.40676893 11494.16198075
0.21900001 246719.24376831 9770.08251517
0.22000001 243548.88197151 11303.10414674
0.22100001 240417.53212504 9607.08503797
0.22200001 237323.20842349 7938.46169713
0.22300001 234263.88121358 7871.26678097
0.22400001 231240.09715247 7804.35364794
0.22500001 228254.12981137 7737.81536651
0.22600001 225300.62992151 9972.93285508
0.22700001 222383.83381577 10647.73846662
0.22800001 219499.46130661 9047.76822293
0.22900001 216647.75295880 8221.78261360
0.23000001 213830.12237737 9631.97831800
0.23100001 211045.58450439 8078.82535690
0.23200001 208291.18438963 7279.77723870
0.23300001 205569.10334334 7215.47586860
0.23400001 202878.72546865 7866.62295210
0.23500001 200217.05917941 9213.98949922
0.23600001 197587.36245745 8429.07728111
0.23700001 194986.50964826 6961.01872368
0.23800001 192415.24193613 8967.51277458
0.23900001 189872.55905662 10253.11867403
0.24000001 187358.27358678 10159.50286579
0.24100001 184873.16523695 8053.07545864
0.24200001 182415.14686871 7978.83890145
0.24300001 179984.65527772 6587.43869477
0.24400001 177580.71870381 8483.91923739
0.24500001 175203.36203305 7758.00523781
0.24600001 172852.52504189 7044.60499133
0.24700001 170527.88065726 8246.72869870
0.24800001 168228.60476842 10681.67576509
0.24900001 165953.63477482 6845.58775831
0.25000001 163704.77476827 8012.53058009
0.25100001 161479.24908196 6103.91590407
0.25200001 159279.76628378 7253.60089973
0.25300001 157103.84918168 6584.22263071
0.25400001 154951.18289999 6519.57132897
0.25500001 152821.64084803 7042.02154345
0.25600001 150715.85675364 6972.11586329
0.25700001 148632.21678402 6902.48047403
0.25800001 146571.95313490 6833.18477845
0.25900001 144533.83496959 7327.86577967
0.26000001 142517.94719946 7253.45126592
0.26100001 140523.10861198 6074.81427273
0.26200001 138550.92669630 8198.75147519
0.26300001 136599.17285495 7573.05850142
0.26400001 134669.00399290 6423.71179442
0.26500001 132760.29024768 5297.13583154
0.26600001 130871.26076816 5241.39424179
0.26700001 129003.77971111 8816.11872264
0.26800001 127156.97674347 6156.94110527
0.26900001 125328.87135923 5583.40148327
0.27000001 123521.92289150 6025.39968378
0.27100001 121734.02212679 5960.09800538
0.27200001 119967.30340062 5403.92743741
0.27300001 118219.00444084 5830.56157495
0.27400001 116488.07816411 5766.16014201
0.27500001 114779.21591482 7127.78964564
0.27600001 113086.88126937 5168.63615303
0.27700001 111415.10258590 5110.61099748
0.27800001 109760.82806666 5052.83995919
0.27900001 108126.19980355 6811.95091002
0.28000001 106508.46232835 6733.99784942
0.28100001 104909.90866854 4881.45828138
0.28200001 103329.82525495 6579.52693452
0.28300001 101767.20739074 6069.39653605
0.28400001 100222.16111408 5569.84686754
0.28500001 98695.38380555  5504.24181536
0.28600001 97185.92883461  7530.93798185
0.28700001 95693.85104838  4547.37201706
0.28800001 94218.40110309  5718.11503360
0.28900001 92762.18399075  5245.70175298
0.29000001 91321.37376021  4384.79596865
0.29100001 89898.57564283  5512.58091936
0.29200001 88492.46461164  5056.01720491
0.29300001 87103.23818832  4225.37828453
0.29400001 85730.07886099  4931.62301992
0.29500001 84374.71236820  3746.23740648
0.29600001 83035.06340661  6288.66082479
0.29700001 81712.02019569  5113.53846591
0.29800001 80405.10448034  4327.40292799
0.29900001 79115.18808862  3916.20199578
0.30000001 77840.54393698  3865.95079764
0.30100001 76583.15049922  3469.21688185
0.30200001 75339.97122056  3424.20185408
0.30300001 74114.25061446  5745.33697962
0.30400001 72904.06738053  4002.43348867
0.30500001 71709.44325530  4608.04904174
0.30600001 70529.46761533  3572.67035119
0.30700001 69366.35394457  4486.61598555
0.30800001 68218.14533174  3478.10230440
0.30900001 67085.45065833  3119.47360330
0.31000001 65968.30034013  4000.64776354
0.31100001 64865.40275812  4249.98138993
0.31200001 63778.44542563  3293.83796996
0.31300001 62705.89750655  3248.79270363
0.31400001 61649.37343237  3204.22633586
0.31500001 60606.79138863  3734.59066219
0.31600002 59579.35715464  4816.09756363
0.31700002 58566.49570347  3352.34637279
0.31800002 57568.28935813  3030.10705384
0.31900002 56584.78823149  2987.67696009
0.32000002 55615.88045095  4284.64763282
0.32100002 54660.55293978  2904.11531520
0.32200002 53720.79565907  3123.32720751
0.32300002 52793.48723539  3848.64540170
0.32400002 51881.04012559  3035.04099106
0.32500002 50982.43754021  2991.64957652
0.32600002 50098.16180178  2703.04644801
0.32700002 49226.95258348  2906.35941815
0.32800002 48370.48036728  2864.49998299
0.32900002 47526.72364549  2823.08751823
0.33000002 46697.56329894  2550.38754034
0.33100002 45879.26293409  3884.13858393
0.33200002 45077.44794521  2476.78049464
0.33300002 44287.39636203  2218.79866281
0.33400002 43510.86596653  2623.70534203
0.33500002 42746.51371047  2585.30927164
0.33600002 41996.10051371  3396.64477040
0.33700002 41257.45793700  2300.92853811
0.33800002 40532.71374013  2473.30630955
0.33900002 39819.40366573  2030.78968313
0.34000002 39119.34424145  2401.14546325
0.34100002 38431.33976045  2365.83338770
0.34200002 37756.31632013  2719.58759334
0.34300002 37092.41181623  2488.15910247
0.34400002 36441.97019931  2074.45925184
0.34500002 35802.53323381  2415.59703169
0.34600002 35176.02915591  2380.18612556
0.34700002 34559.56098651  1984.41008583
0.34800002 33956.36879568  1955.37758971
0.34900002 33364.01679887  2101.93315788
0.35000002 32783.21413456  2071.24356712
0.35100002 32214.34259455  2381.28431737
0.35200002 31655.32723045  2346.60951874
0.35300002 31107.98696410  2642.93469765
0.35400002 30571.97113387  2116.34480198
0.35500002 30046.88196038  1764.95392995
0.35600002 29531.53371823  1897.69644662
0.35700002 29027.33531066  1714.64477801
0.35800002 28534.23453958  1536.56860274
0.35900002 28051.27025673  1666.24553217
0.36000002 27578.86177519  1792.07452304
0.36100002 27115.83600508  1766.86795778
0.36200002 26664.04093362  1742.22851713
0.36300002 26221.03632366  1574.83551619
0.36400002 25787.99598892  2117.83927091
0.36500002 25364.54726562  1671.01645301
0.36600002 24951.00482084  1510.90816849
0.36700002 24546.39878755  1761.44966043
0.36800002 24152.51634708  1871.57858039
0.36900002 23766.85360765  1582.87252525
0.37000002 23389.93796941  1822.31015352
0.37100002 23021.91346275  1798.47196490
0.37200002 22663.57620308  1268.02714863
0.37300002 22313.33722254  1376.95610523
0.37400002 21971.76675421  1483.09432616
0.37500002 21639.13110747  1586.58116796
0.37600002 21314.95759743  1687.50527293
0.37700002 20998.37797709  1190.60808770
0.37800002 20689.99926609  1176.22651400
0.37900002 20390.19867924  1162.24137977
0.38000002 20098.21023301  1263.47404615
0.38100002 19813.05418429  1248.81686440
0.38200002 19536.49165958  1683.55724852
0.38300002 19266.76219659  1109.76555510
0.38400002 19005.38890371  1317.07351342
0.38500002 18750.05806113  1411.31693712
0.38600002 18503.16540037  2148.21760475
0.38700002 18262.49811566  1062.87744069
0.38800002 18029.01638956  1051.99315617
0.38900002 17801.80391973  1145.54613651
0.39000002 17582.49204790  1237.45584896
0.39100002 17368.70428177  1123.40784617
0.39200002 17161.93208984  1214.03513355
0.39300002 16961.19410598  1202.88794299
0.39400002 16767.93378517  1291.55016099
0.39500002 16579.64296833  1378.76317457
0.39600002 16397.55899824  1171.76962153
0.39700002 16221.32077789  968.41289632
0.39800002 16051.13088800  1152.79227499
0.39900002 15886.41338646  1048.50333318
0.40000002 15727.20686761  1040.59069170
0.40100002 15573.79873543  1126.92012989
0.40200002 15425.93088669  1025.74732291
0.40300002 15282.65622085  1018.74191195
0.40400002 15145.07286808  1104.07586439
0.40500002 15012.63410031  1005.69640603
0.40600002 14885.07082771  1272.22706392
0.40700002 14762.27781194  903.45144490
0.40800002 14644.43734126  988.27990080
0.40900002 14531.00210367  1072.38800606
0.41000002 14422.67099047  978.07347956
0.41100002 14318.39615184  1150.34000134
0.41200002 14218.26776704  968.90390289
0.41300002 14123.16845942  1315.57320433
0.41400002 14031.66352473  960.81820538
0.41500002 13944.52670797  1218.19391093
0.41600002 13860.82974099  1127.09342379
0.41700002 13781.43856016  1036.91548640
0.41800002 13706.75675274  1033.76364328
0.41900002 13633.85239000  1116.61256365
0.42000002 13565.85074833  942.35186689
0.42100002 13501.71051201  854.65831591
0.42200002 13440.99083843  1023.39709093
0.42300002 13383.00762647  1021.39119045
0.42400002 13328.38553740  1019.62154193
0.42500002 13277.30520193  933.26182687
0.42600002 13228.52950810  847.28735514
0.42700002 13184.05781760  846.41655200
0.42800002 13141.64291051  930.23123750
0.42900002 13103.26039353  1183.22446961
0.43000002 13067.04115067  1182.69795059
0.43100002 13032.71578557  1013.42402751
0.43200002 13002.18652974  928.94126064
0.43300002 12974.00145643  929.06828832
0.43400002 12948.31844448  1098.34116410
0.43500002 12924.92376024  1183.40607557
0.43600002 12904.27879962  1015.05061848
0.43700002 12885.36693083  1185.19610646
0.43800002 12868.67810119  1101.62324106
0.43900002 12854.87828896  1357.47521164
0.44000002 12842.60191685  1359.26105129
0.44100002 12832.76509823  1106.05607623
0.44200002 12824.68756124  1448.74089901
0.44300002 12818.67228695  1024.46833772
0.44400002 12814.80010906  1026.46553738
0.44500002 12811.43487074  1028.50204016
0.44600002 12810.34597463  1202.50723363
0.44700002 12811.91559219  860.96076860
0.44800002 12813.58082456  949.29418038
0.44900002 12818.40140667  951.76634955
0.45000002 12824.07445579  1214.56814927
0.45100002 12830.86078533  1304.89860371
0.45200002 12839.32856643  959.67565918
0.45300002 12848.77096704  1312.50201649
0.45400002 12859.99502732  1141.00311287
0.45500002 12872.36401681  1056.56368857
0.45600002 12885.73447175  1059.98056788
0.45700002 12900.28713634  1240.74967558
0.45800002 12915.59406419  978.16256281
0.45900002 12932.04564098  1070.77342982
0.46000002 12950.20231252  1253.70914529
0.46100002 12968.17292868  898.69442655
0.46200002 12987.99462509  1172.62115030
0.46300002 13008.54317677  1086.47357762
0.46400002 13029.19050097  1090.54329662
0.46500002 13051.18225769  1185.96098797
0.46600002 13073.65107139  1465.29488153
0.46700002 13096.47581479  1195.18443951
0.46800002 13120.97494561  1199.97882053
0.46900002 13144.99031008  1112.06623294
0.47000002 13169.92420649  1488.72830286
0.47100002 13195.44488256  1214.50880455
0.47200002 13221.61878022  938.07389692
0.47300002 13248.26902677  1036.14716969
0.47400002 13274.70236072  1040.40484683
0.47500002 13301.89688257  1234.68212716
0.47600002 13329.94769309  1144.50936318
0.47700002 13357.41355042  1245.04457605
