# SAXS profile: number of points = 501, q_min = 0, q_max = 0.5, delta_q = 0.001
#    q    intensity    error
0.00000000 1646666.22097350 246.99993315
0.00100000 1646580.57823410 740.96127780
0.00200000 1646323.62122294 889.01478361
0.00300000 1645895.56148154 1185.04484648
0.00400000 1645296.26695190 1604.16392123
0.00500000 1644526.40951374 2516.12550615
0.00600000 1643585.79938039 1898.34167557
0.00700000 1642475.21326578 2562.26143918
0.00800000 1641194.40344192 2215.61253819
0.00900000 1639744.79406637 2705.57902587
0.01000000 1638125.74693374 3513.77987890
0.01100000 1636338.85191363 2945.41006169
0.01200000 1634384.00860889 4143.16364348
0.01300000 1632262.51565150 4798.85200767
0.01400000 1629974.60291278 5501.16452870
0.01500000 1627521.66947974 5468.47305296
0.01600000 1624903.59025917 7043.95737866
0.01700000 1622122.37926024 4817.70368252
0.01800000 1619178.58309853 6921.98875422
0.01900000 1616073.15941130 5817.86363640
0.02000000 1612806.90155739 7620.51295458
0.02100000 1609382.50690231 5842.05876493
0.02200000 1605798.51547120 6648.00615609
0.02300000 1602058.17766178 8074.37358295
0.02400000 1598162.04337469 8390.35111030
0.02500000 1594112.37896624 6838.74241809
0.02600000 1589909.60927927 7083.04763331
0.02700000 1585555.76189022 7325.26795544
0.02800000 1581051.09601571 8253.08709969
0.02900000 1576399.10512309 9221.93518839
0.03000000 1571600.41576764 8769.53072308
0.03100000 1566656.52178462 9023.94198070
0.03200000 1561568.66028426 8502.74174687
0.03300000 1556340.93102158 8731.07302554
0.03400000 1550971.76250493 8142.60212885
0.03500000 1545465.51744832 8345.51417960
0.03600000 1539822.53056752 11109.82007147
0.03700000 1534045.89574592 10492.87441217
0.03800000 1528136.98712351 11621.48232491
0.03900000 1522098.45217259 11872.36847676
0.04000000 1515930.24236904 9322.97142259
0.04100000 1509636.79753609 13314.99717164
0.04200000 1503219.16796562 16482.79894143
0.04300000 1496679.29268342 12841.50892730
0.04400000 1490020.11623929 15086.45437757
0.04500000 1483243.71041043 12281.25849285
0.04600000 1476350.85001353 14571.58356702
0.04700000 1469345.61635819 12695.14671576
0.04800000 1462229.35544880 12896.86351513
0.04900000 1455004.90283818 12003.79100716
0.05000000 1447673.78824148 16612.05749363
0.05100000 1440240.03768527 13480.64738072
0.05200000 1432703.05177056 22779.97958473
0.05300000 1425067.84041942 12697.35505006
0.05400000 1417335.53112233 17539.52801557
0.05500000 1409509.90717102 14207.86052707
0.05600000 1401591.31460943 13181.96692903
0.05700000 1393585.16619268 13336.61066300
0.05800000 1385490.51006371 17166.22822122
0.05900000 1377311.36626826 16114.54373798
0.06000000 1369051.61375729 15032.18742134
0.06100000 1360712.17558999 16451.01097166
0.06200000 1352296.11933753 19168.79838763
0.06300000 1343806.69528704 14190.59936572
0.06400000 1335243.09410179 14320.48285396
0.06500000 1326612.04610720 15760.15184498
0.06600000 1317914.46628302 22516.56970996
0.06700000 1309151.55407170 17359.35041939
0.06800000 1300327.78368113 17495.91114840
0.06900000 1291446.26886969 20340.27968701
0.07000000 1282506.96691404 19122.17977215
0.07100000 1273514.10484770 22006.32476250
0.07200000 1264469.28559179 17999.72112363
0.07300000 1255376.42284410 20902.01841973
0.07400000 1246238.22736591 16824.21685789
0.07500000 1237055.08742157 14102.42865762
0.07600000 1227830.48784092 15599.58707934
0.07700000 1218568.12954343 18534.42211941
0.07800000 1209269.26128200 15762.82556003
0.07900000 1199935.55954594 18718.99560691
0.08000000 1190572.64152217 14465.45827308
0.08100000 1181180.63180938 17434.22694349
0.08200000 1171761.13945714 20423.79761913
0.08300000 1162317.96094305 19038.76909377
0.08400000 1152853.77249156 19108.55217598
0.08500000 1143370.42840046 25074.11467193
0.08600000 1133870.56906017 19236.11510727
0.08700000 1124356.16058878 14841.50201669
0.08800000 1114829.21990445 16371.26786315
0.08900000 1105293.00930118 19397.89322435
0.09000000 1095749.40811675 17948.37614809
0.09100000 1086200.48628513 22484.35112244
0.09200000 1076647.93096598 15019.23934268
0.09300000 1067096.25543668 21064.48107219
0.09400000 1057543.97400426 16577.00257159
0.09500000 1047995.52060087 22636.70430896
0.09600000 1038452.19704711 19642.32423049
0.09700000 1028919.13269293 18150.13435399
0.09800000 1019394.70976729 16651.81336698
0.09900000 1009883.27967088 16663.07489811
0.10000000 1000384.05829818 22733.72879393
0.10100000 990900.94311858 21225.09919985
0.10200000 981435.68774029 19712.13671545
0.10300000 971990.13925549 16679.35157423
0.10400000 962566.40962902 15160.42166488
0.10500000 953168.07282407 18186.44768514
0.10600001 943791.31332547 15147.85129163
0.10700001 934443.94367398 18165.59111985
0.10800001 925123.85118575 15125.77567873
0.10900001 915835.18113054 18133.53743985
0.11000001 906578.64965934 15094.53522732
0.11100001 897354.98071374 16583.12082421
0.11200001 888167.54463115 16559.88464924
0.11300001 879016.09355902 19540.52867980
0.11400001 869903.19378052 15005.83079925
0.11500001 860830.66403923 20969.83596342
0.11600001 851799.55178119 22423.62425660
0.11700001 842810.87691046 20884.85451341
0.11800001 833865.80549580 17861.40639496
0.11900001 824965.31394320 20789.12689057
0.12000001 816111.37304511 19256.14875406
0.12100001 807306.55409161 14773.71063584
0.12200001 798550.18725424 16206.57681384
0.12300001 789844.52299965 16160.21970195
0.12400001 781189.78692404 16112.04011447
0.12500001 772586.67591679 18982.45552174
0.12600001 764038.51945425 18921.41482593
0.12700001 755543.99298014 14506.44534885
0.12800001 747104.87272922 18793.42395922
0.12900001 738722.45445677 14405.08854085
0.13000001 730397.25541910 17222.76809458
0.13100001 722129.51266708 15727.98152727
0.13200001 713920.60078199 15666.98832271
0.13300001 705772.29881689 18441.83103749
0.13400001 697683.69779909 18366.52421046
0.13500001 689656.78442465 14068.99906559
0.13600001 681691.07488653 26616.62927394
0.13700001 673788.26251041 15342.15946079
0.13800001 665947.45732264 16662.00616792
0.13900001 658171.39826184 15203.76001683
0.14000001 650458.83773506 13757.20506689
0.14100001 642810.96102457 15061.06152713
0.14200001 635227.63273121 17713.32337416
0.14300001 627710.94802262 20337.83567522
0.14400001 620257.51632375 16188.72193967
0.14500001 612872.28447431 21475.04586100
0.14600001 605552.79027931 14687.68362111
0.14700001 598301.81210675 15938.76102646
0.14800001 591114.80173792 13211.41644214
0.14900001 583996.55735238 17081.90010849
0.15000001 576944.96676516 14374.58452519
0.15100001 569961.30291727 14294.63015166
0.15200001 563045.47341210 16798.46249192
0.15300001 556198.34051034 14133.00049929
0.15400001 549416.67021215 16606.11964082
0.15500001 542704.56392972 16509.07361385
0.15600001 536057.82671201 16411.41113932
0.15700001 529482.37142460 16313.35263353
0.15800001 522970.90075764 13720.14222895
0.15900001 516529.63079099 16115.72524135
0.16000001 510153.32672193 13552.22376407
0.16100001 503847.48053160 13467.84379035
0.16200001 497607.50986056 13383.15460947
0.16300001 491434.67787153 18133.94046952
0.16400001 485328.81273387 13213.07755046
0.16500001 479289.29038524 16708.02545164
0.16600001 473316.96593221 16599.22677894
0.16700001 467409.43728724 12956.59021334
0.16800001 461567.13026445 12870.80003514
0.16900001 455792.65210552 13947.25581299
0.17000001 450081.88489644 16162.44124982
0.17100001 444435.93466376 11466.44765579
0.17200001 438855.37117443 12527.12716174
0.17300001 433338.43846826 12441.14715595
0.17400001 427885.32478349 13478.38836721
0.17500001 422495.65407023 17846.21727076
0.17600001 417167.48375426 11075.79721678
0.17700001 411903.52554169 19796.08437251
0.17800001 406700.23589956 12011.89203464
0.17900001 401559.03442794 10842.09444167
0.18000001 396478.90842388 12917.28344660
0.18100001 391460.66923951 11755.56445255
0.18200001 386500.08707614 14853.19904797
0.18300001 381599.84436494 10532.15620200
0.18400001 376758.56485683 11500.55573555
0.18500001 371977.11136059 12453.79427670
0.18600001 367251.90854252 13391.84147768
0.18700001 362583.88959564 11247.35278664
0.18800001 357972.78221446 12178.23462631
0.18900001 353419.72007727 13094.20124753
0.19000001 348918.46891701 10996.16606747
0.19100001 344476.62486117 9920.92726477
0.19200001 340086.15866579 13783.69266202
0.19300001 335751.93392685 12701.49626063
0.19400001 331468.81851922 12604.10241979
0.19500001 327239.62908189 14431.26832446
0.19600001 323062.17580688 11455.78529547
0.19700001 318935.85108654 11366.87426990
0.19800001 314860.83722091 11278.31572225
0.19900001 310836.56625369 11190.11691398
0.20000001 306860.33896163 9251.83965695
0.20100001 302934.91880547 10096.82132099
0.20200001 299056.14371935 10927.51200798
0.20300001 295226.97933123 12647.52439233
0.20400001 291444.26414365 13442.86731901
0.20500001 287707.73679893 10668.20338476
0.20600001 284017.32230119 10582.48592916
0.20700001 280372.80791705 9622.39522256
0.20800001 276771.76537486 12147.51335652
0.20900001 273217.24165970 10327.61222294
0.21000001 269704.39392283 9389.75891830
0.21100001 266235.01305757 10159.52857855
0.21200001 262807.79768937 12595.06429969
0.21300001 259421.69147217 10825.66769692
0.21400001 256077.81411154 8258.50989553
0.21500001 252775.11457329 9008.90550931
0.21600001 249511.46938611 9745.91845499
0.21700001 246287.57747324 9664.32499697
0.21800001 243102.77827701 8784.51930838
0.21900001 239955.33949889 9502.23189344
0.22000001 236845.63881551 11777.14994695
0.22100001 233774.53581163 10898.56937486
0.22200001 230740.14962868 8490.08420704
0.22300001 227740.64571774 8417.29466374
0.22400001 224776.38453857 7586.20333690
0.22500001 221849.60733805 9024.84245327
0.22600001 218955.09205637 8946.50548449
0.22700001 216096.85273650 10346.71779831
0.22800001 213271.06167888 10256.20584115
0.22900001 210477.44710360 10166.06117587
0.23000001 207717.61373927 9356.64035338
0.23100001 204990.66209903 7133.67537842
0.23200001 202293.72042622 7777.18244960
0.23300001 199628.50395572 9109.04906631
0.23400001 196994.83457012 7638.47507172
0.23500001 194389.73679260 8257.67640951
0.23600001 191816.06960943 6819.06159714
0.23700001 189271.10327723 10135.46805988
0.23800001 186755.45910038 7364.70187796
0.23900001 184268.02466330 10613.83872264
0.24000001 181808.74951813 7229.62526655
0.24100001 179378.27523320 7813.71803876
0.24200001 176974.71925233 10966.23899720
0.24300001 174598.30778215 9585.44755066
0.24400001 172248.12184335 8229.15441033
0.24500001 169924.34078655 8778.29186028
0.24600001 167626.62408371 8073.73673092
0.24700001 165354.87485519 7996.56212628
0.24800001 163108.08780345 7919.71357795
0.24900001 160885.46352140 9653.12826795
0.25000001 158688.55375348 6572.08676461
0.25100001 156514.71671469 6507.88222888
0.25200001 154366.49021101 9958.95458712
0.25300001 152241.66705760 6960.48934718
0.25400001 150139.71351092 6317.12874484
0.25500001 148060.55230970 7959.73566876
0.25600001 146004.94477927 7317.03815380
0.25700001 143970.98235720 8914.68364934
0.25800001 141960.20081712 6066.66946896
0.25900001 139971.29492637 6004.76883646
0.26000001 138004.27792655 5943.15451011
0.26100001 136057.85495459 6416.48874326
0.26200001 134133.90002823 5291.58260649
0.26300001 132230.13014842 6807.20742214
0.26400001 130347.41674401 7771.96509112
0.26500001 128485.98811220 5639.25028509
0.26600001 126643.84241373 6593.71196728
0.26700001 124822.99799006 6523.25018364
0.26800001 123022.56330409 6949.54492991
0.26900001 121240.41075881 5892.28424171
0.27000001 119479.14037490 9713.65457215
0.27100001 117736.56066303 5284.01709261
0.27200001 116014.77083977 6176.04661793
0.27300001 114311.14275195 6107.64464628
0.27400001 112624.63841323 6504.07317617
0.27500001 110959.91389138 5053.11471775
0.27600001 109311.35793607 4996.07585091
0.27700001 107682.88599383 5837.48952599
0.27800001 106071.67878873 7102.55994784
0.27900001 104479.93603872 7021.05203409
0.28000001 102904.65928628 6072.40423188
0.28100001 101348.24279955 5144.43704799
0.28200001 99810.02548015  5084.32293860
0.28300001 98288.87767548  4187.10638715
0.28400001 96784.97273972  4551.31355850
0.28500001 95299.14703921  4088.33360149
0.28600001 93830.12051139  4039.38687921
0.28700001 92378.35487804  6385.19219140
0.28800001 90942.86309156  5125.08529211
0.28900001 89526.16707020  3894.38845189
0.29000001 88124.68690695  4231.30704212
0.29100001 86740.78736582  4939.02066640
0.29200001 85373.40362651  5253.02577379
0.29300001 84022.54070821  4075.93364269
0.29400001 82687.34925057  4390.69845305
0.29500001 81369.68635633  5419.22136786
0.29600001 80067.47256060  4637.10789286
0.29700001 78781.48039864  3873.68557457
0.29800001 77511.40151239  3476.38652240
0.29900001 76257.83230483  6176.88470910
0.30000001 75019.35327754  4741.97354516
0.30100001 73797.88062458  3677.34856561
0.30200001 72590.13425409  3629.14393384
0.30300001 71399.68055955  5534.90349901
0.30400001 70224.58295179  4176.60726879
0.30500001 69064.48234593  3487.06587873
0.30600001 67918.82161849  3440.42807196
0.30700001 66789.71657212  3394.25355689
0.30800001 65675.13253776  3957.25529841
0.30900001 64575.88640887  3603.33463221
0.31000001 63491.92755461  4146.65798491
0.31100001 62421.80243698  3797.74264007
0.31200001 61367.36550524  3457.43753626
0.31300001 60326.92982082  4830.37749945
0.31400001 59302.26871797  3362.43879551
0.31500001 58291.38283315  3591.91518025
0.31600002 57295.25701239  3541.70647991
0.31700002 56313.52698888  2954.77090101
0.31800002 55345.97920696  2913.13575349
0.31900002 54392.92305533  3133.03251633
0.32000002 53454.09586798  2831.19632170
0.32100002 52528.72181988  2537.13738403
0.32200002 51618.47850843  2500.91540215
0.32300002 50720.64365335  2958.02807793
0.32400002 49837.09019990  3887.29321966
0.32500002 48967.17067014  3591.74213873
0.32600002 48111.33918064  3067.81968812
0.32700002 47268.30252301  3023.28077253
0.32800002 46439.74835327  2291.80168976
0.32900002 45623.60200244  2258.36840606
0.33000002 44821.74595718  2670.47975059
0.33100002 44030.39392029  3069.79920949
0.33200002 43255.51365375  2376.67431025
0.33300002 42492.00135154  2554.61924223
0.33400002 41741.62132067  2307.26822776
0.33500002 41003.29612688  2893.19271172
0.33600002 40278.53645016  2239.68812537
0.33700002 39565.34412912  2808.34825928
0.33800002 38865.63087118  2173.94916573
0.33900002 38177.36219279  2920.56834606
0.34000002 37501.90023041  1918.22228763
0.34100002 36838.27440886  2078.78392334
0.34200002 36187.30014598  2048.02034875
0.34300002 35547.30112458  2751.36123735
0.34400002 34920.36199616  2168.55458266
0.34500002 34304.39331451  1780.39809734
0.34600002 33700.98961340  2455.79122944
0.34700002 33107.40229599  2419.48907438
0.34800002 32526.75617058  3064.99637912
0.34900002 31956.76696041  1845.50337937
0.35000002 31397.98108763  2149.03491733
0.35100002 30851.04312155  1791.82866936
0.35200002 30313.54482924  2086.63295715
0.35300002 29787.61018945  2056.23882877
0.35400002 29272.71297523  1558.77203976
0.35500002 28768.41798595  1689.85695253
0.35600002 28273.71177814  1968.27453866
0.35700002 27789.97618406  1790.78615012
0.35800002 27317.08624019  2059.43522919
0.35900002 26854.05327264  2030.16652357
0.36000002 26401.28905983  1572.59285734
0.36100002 25957.79888113  1973.31196441
0.36200002 25525.18259926  1667.81551003
0.36300002 25101.25217077  1507.58127679
0.36400002 24686.96836372  1486.77274013
0.36500002 24282.18730853  2132.94743421
0.36600002 23886.96501557  1709.47073231
0.36700002 23500.46631987  1945.83870346
0.36800002 23124.54306868  1407.93787143
0.36900002 22756.55236671  1515.58645941
0.37000002 22397.12199813  1869.59984736
0.37100002 22046.34174037  1230.18592739
0.37200002 21705.02384577  1457.27537004
0.37300002 21371.72859093  1438.74483690
0.37400002 21046.76877994  1302.26887995
0.37500002 20730.56584654  1636.88555678
0.37600002 20422.68845129  1270.39339529
0.37700002 20122.14431882  1825.48101908
0.37800002 19829.48302600  1352.76739612
0.37900002 19545.29103462  1225.48980593
0.38000002 19268.75241247  1321.45110305
0.38100002 18998.87174515  1197.49894283
0.38200002 18737.33473309  1184.10592455
0.38300002 18482.49805207  1277.51032588
0.38400002 18235.73428050  1474.35918642
0.38500002 17994.91266855  1667.04878859
0.38600002 17762.13710143  1237.31052910
0.38700002 17535.71147495  1428.80983867
0.38800002 17316.09352854  1111.43351578
0.38900002 17102.59544332  1200.60225700
0.39000002 16896.83945051  1684.69945723
0.39100002 16696.44857338  1276.27658941
0.39200002 16502.84037477  1459.26372927
0.39300002 16315.19216966  1157.07348349
0.39400002 16134.74302827  1147.18028366
0.39500002 15959.07628075  1421.95376398
0.39600002 15789.47581502  1222.34232813
0.39700002 15625.56791181  1119.41573824
0.39800002 15467.56037145  1203.45359172
0.39900002 15314.89978777  1010.78343388
0.40000002 15167.42962176  1094.78512197
0.40100002 15025.73489342  1177.86741410
0.40200002 14889.31410331  1350.08862028
0.40300002 14757.38121892  1073.15681309
0.40400002 14630.95831078  888.83075949
0.40500002 14509.63144915  1148.72757626
0.40600002 14392.94199465  878.68915041
0.40700002 14280.85342256  1573.17888757
0.40800002 14173.58231872  1391.27890633
0.40900002 14070.55811290  951.87330144
0.41000002 13972.47623185  947.54352056
0.41100002 13878.35920536  1029.21916744
0.41200002 13788.21371326  1025.01585601
0.41300002 13702.96543611  1106.24045207
0.41400002 13621.07201353  932.70295032
0.41500002 13543.51689043  1014.13859281
0.41600002 13469.30491980  1011.00607519
0.41700002 13399.13801523  1092.16379137
0.41800002 13333.69875684  838.02300658
0.41900002 13269.77562661  1170.39426573
0.42000002 13210.53116630  1001.09409922
0.42100002 13155.26959332  1082.54718613
0.42200002 13103.12620953  997.67207687
0.42300002 13053.68322697  1079.27858035
0.42400002 13007.37539482  912.14224278
0.42500002 12964.59446459  994.12515065
0.42600002 12923.89940253  1158.88611434
0.42700002 12887.52073533  1075.59253154
0.42800002 12852.88339680  992.49970293
0.42900002 12822.32897097  909.74428360
0.43000002 12793.73303198  1075.24934363
0.43100002 12766.91442736  827.29609410
0.43200002 12743.76728773  1076.02004193
0.43300002 12722.94451174  993.91647236
0.43400002 12704.38147110  1077.64920935
0.43500002 12688.13363373  1161.72557056
0.43600002 12674.40919479  996.96907451
0.43700002 12662.36894216  998.30121471
0.43800002 12652.45981339  1083.11387365
0.43900002 12645.29053086  1168.42490042
0.44000002 12639.58043117  1254.16242772
0.44100002 12636.19522911  921.55776173
0.44200002 12634.43271131  1091.42552149
0.44300002 12634.73072356  1009.76772728
0.44400002 12636.95513645  927.86847487
0.44500002 12639.67354242  1014.71304007
0.44600002 12644.59604872  932.60222577
0.44700002 12651.99018400  850.21378066
0.44800002 12659.42227859  1364.17940939
0.44900002 12670.00965240  940.74826127
0.45000002 12681.20108045  1201.03661125
0.45100002 12693.49552965  1032.74284524
0.45200002 12707.34399159  949.81047167
0.45300002 12722.16276067  1212.93105509
0.45400002 12738.68473255  869.41527420
0.45500002 12756.18205388  1396.03663014
0.45600002 12774.61767202  875.70008292
0.45700002 12794.16925032  1318.43920373
0.45800002 12814.40091161  882.27154458
0.45900002 12835.72574024  885.66511805
0.46000002 12858.64128665  1155.92761325
0.46100002 12881.40159383  1339.02175914
0.46200002 12905.72203885  896.30243808
0.46300002 12930.89303639  1079.98823759
0.46400002 12955.96579992  994.04652311
0.46500002 12982.36800327  1179.70783637
0.46600002 13009.16198949  1184.67939272
0.46700002 13036.30998785  1098.17880543
0.46800002 13064.97695015  1102.94540641
0.46900002 13093.10958526  923.06426951
0.47000002 13122.07334909  1205.19688387
0.47100002 13151.68226827  1210.48089334
0.47200002 13181.69404442  1215.81360781
0.47300002 13212.22043073  1033.32780886
0.47400002 13242.43165572  1037.87563021
0.47500002 13273.42523559  1137.26712809
0.47600002 13305.05343788  1332.76726604
0.47700002 13336.19424262  1051.82568977
0.47800002 13367.67810367  960.46771727
