# SAXS profile: number of points = 501, q_min = 0, q_max = 0.5, delta_q = 0.001
#    q    intensity    error
0.00000000 1664650.74656090 274.66737318
0.00100000 1664564.63043754 549.30634109
0.00200000 1664306.24883818 748.93783569
0.00300000 1663875.81852359 1098.15807935
0.00400000 1663273.20576789 1746.43693242
0.00500000 1662499.07457234 1945.12399424
0.00600000 1661553.25928910 2093.55719194
0.00700000 1660436.50657109 2590.28105790
0.00800000 1659148.58164442 2911.80588372
0.00900000 1657690.91062780 2486.53647224
0.01000000 1656062.88664110 3279.00465714
0.01100000 1654266.06469388 3573.21485531
0.01200000 1652300.31516203 4510.78005816
0.01300000 1650167.03410910 4504.95620181
0.01400000 1647866.35868930 3707.69947142
0.01500000 1645399.74729473 6318.33531096
0.01600000 1642767.04019990 5864.67859569
0.01700000 1639970.29599884 7084.67199652
0.01800000 1637010.03273409 5598.57456387
0.01900000 1633887.20666505 5881.99420940
0.02000000 1630602.60401206 5650.03827849
0.02100000 1627158.97553698 7517.47480781
0.02200000 1623554.81715890 7841.77012315
0.02300000 1619793.42934480 7580.63359439
0.02400000 1615875.31404642 6665.48597437
0.02500000 1611802.68114798 8800.44304099
0.02600000 1607576.19604444 9766.02583765
0.02700000 1603197.56829277 8080.11611427
0.02800000 1598667.37398363 8345.04407490
0.02900000 1593988.91442020 8607.54053308
0.03000000 1589162.82543625 12562.33271250
0.03100000 1584190.68075548 10645.76186452
0.03200000 1579073.65898098 8598.05646916
0.03300000 1573815.89742826 8829.10759160
0.03400000 1568415.90373738 9881.02064946
0.03500000 1562877.81890385 10127.44873416
0.03600000 1557202.24288698 10370.96741691
0.03700000 1551392.09450554 11495.81595194
0.03800000 1545448.94695869 9040.87675812
0.03900000 1539375.20381187 10159.87681566
0.04000000 1533171.02515950 12257.70291416
0.04100000 1526840.66523197 12504.82562806
0.04200000 1520385.42246715 12748.43235882
0.04300000 1513807.09499154 9991.12729071
0.04400000 1507108.43095603 10172.98238141
0.04500000 1500291.98757443 11387.21671480
0.04600000 1493358.15764653 12633.81060100
0.04700000 1486311.25805524 11771.58571127
0.04800000 1479152.39813101 13046.12475853
0.04900000 1471884.62037523 16558.70274999
0.05000000 1464509.38912282 14564.54655304
0.05100000 1457030.80501879 15910.77713199
0.05200000 1449448.15642609 12675.42471864
0.05300000 1441766.58456839 15181.80284325
0.05400000 1433987.05268132 15379.51185721
0.05500000 1426113.51231748 17969.03109344
0.05600000 1418146.29008443 12125.15134603
0.05700000 1410090.79581236 13494.56954583
0.05800000 1401946.03973541 14888.66763718
0.05900000 1393716.06657351 13797.78970351
0.06000000 1385404.69947399 15211.74431090
0.06100000 1377013.05350886 19209.33299413
0.06200000 1368544.04628000 14226.01602605
0.06300000 1360000.97043861 13056.00992665
0.06400000 1351383.02587397 15811.18214216
0.06500000 1342696.98683216 15951.24094973
0.06600000 1333943.77890965 18768.58984741
0.06700000 1325124.59278357 24329.28866209
0.06800000 1316243.77517597 17710.06082398
0.06900000 1307304.75820736 19217.38084539
0.07000000 1298307.16564443 19357.76074625
0.07100000 1289255.43777008 16708.75125610
0.07200000 1280151.29369527 19624.72025170
0.07300000 1270998.28202768 19751.31422817
0.07400000 1261799.47293217 17034.29368288
0.07500000 1252554.90602156 17134.95191753
0.07600000 1243268.54207250 18667.67803437
0.07700000 1233943.65317259 15880.85556096
0.07800000 1224581.87603330 17413.55509382
0.07900000 1215184.72064162 18956.88253116
0.08000000 1205757.56515629 16114.95061428
0.08100000 1196300.99935278 17657.40357890
0.08200000 1186816.39435278 20686.21072427
0.08300000 1177307.55418365 19284.29864258
0.08400000 1167777.18235827 16378.07575134
0.08500000 1158227.19371896 17929.35780047
0.08600000 1148660.07253873 20986.02051061
0.08700000 1139078.13877803 24057.33142067
0.08800000 1129482.94142940 27141.47635721
0.08900000 1119878.11386510 19653.86182147
0.09000000 1110265.55047700 24248.20076149
0.09100000 1100647.12386053 19745.61032973
0.09200000 1091024.68170001 21307.71303478
0.09300000 1081402.72274423 16772.55701794
0.09400000 1071779.58478208 18327.43176112
0.09500000 1062159.91042621 18354.12411486
0.09600000 1052545.11802315 15314.53218714
0.09700000 1042940.17625774 16864.34344293
0.09800000 1033343.32634962 18414.17894134
0.09900000 1023759.13019120 19963.30397745
0.10000000 1014186.95385078 18437.91968809
0.10100000 1004630.39388565 15370.84574937
0.10200000 995091.51218045 23061.24687950
0.10300000 985571.85062458 19987.39807089
0.10400000 976073.55065308 18447.79097522
0.10500000 966600.48366727 16905.84325475
0.10600001 957148.74432026 16898.46187611
0.10700001 947726.23746846 19959.11550032
0.10800001 938330.45771927 16875.87407629
0.10900001 928965.97257180 22991.90890328
0.11000001 919633.29302554 26030.22158432
0.11100001 910333.25697723 18352.31932457
0.11200001 901069.27803094 19855.06247613
0.11300001 891840.80468479 21350.66986936
0.11400001 882651.00323540 19793.44967952
0.11500001 873501.06781596 16718.81122525
0.11600001 864392.48099511 16687.09763143
0.11700001 855326.30732420 15139.27635262
0.11800001 846303.20422088 16617.16419752
0.11900001 837324.80029555 15071.84711523
0.12000001 828392.63576021 22552.99057093
0.12100001 819509.33216313 31493.74511864
0.12200001 810674.54278749 17948.33522288
0.12300001 801890.23859900 16406.67505473
0.12400001 793156.58304792 22307.52994930
0.12500001 784474.59169534 22239.85572252
0.12600001 775847.48380473 14779.89526296
0.12700001 767273.96307953 16204.82686391
0.12800001 758755.60359722 19086.49810802
0.12900001 750294.05362788 14630.73473532
0.13000001 741889.46114552 21867.19289797
0.13100001 733542.26092687 21786.20617648
0.13200001 725253.68335235 17362.57399793
0.13300001 717026.08936575 15853.44758326
0.13400001 708857.65171320 17225.24174873
0.13500001 700751.31938561 18583.92586630
0.13600001 692705.94087599 22776.17240992
0.13700001 684723.68689330 17008.53718444
0.13800001 676803.05530885 19755.88211607
0.13900001 668947.51150318 14047.89840404
0.14000001 661155.35833005 15381.78013696
0.14100001 653427.85354751 15309.81533067
0.14200001 645765.06512868 15236.82743036
0.14300001 638168.91538012 19298.22891135
0.14400001 630635.91936481 17831.23146114
0.14500001 623171.36514562 15012.19889452
0.14600001 615772.57340020 13577.78588400
0.14700001 608442.46006431 17559.65022586
0.14800001 601176.20323600 13436.28877623
0.14900001 593978.88277232 20046.78823939
0.15000001 586848.40505465 21267.38720264
0.15100001 579785.79283782 18506.76338062
0.15200001 572791.39399779 15774.67573506
0.15300001 565865.70727089 14378.64830027
0.15400001 559005.52521907 20795.00651949
0.15500001 552215.09373449 12921.83380321
0.15600001 545490.03660383 14130.92006513
0.15700001 538836.63216604 12770.42878506
0.15800001 532247.35450812 17771.74000583
0.15900001 525728.18181677 16402.72004690
0.16000001 519274.46861697 13794.52690995
0.16100001 512891.31111200 26172.84484151
0.16200001 506574.20884953 14862.88798926
0.16300001 500324.33234800 12307.97915679
0.16400001 494141.70724644 14676.00939807
0.16500001 488025.60531610 13367.02196068
0.16600001 481977.01689995 19317.63974939
0.16700001 475993.25616778 11995.03062177
0.16800001 470075.21322141 13108.04793959
0.16900001 464225.05415580 16572.83521590
0.17000001 458438.86996331 19990.22786868
0.17100001 452717.88558344 12848.13419956
0.17200001 447062.29924365 11601.26721322
0.17300001 441470.83875683 12674.62837926
0.17400001 435943.47371021 12587.86839786
0.17500001 430479.67342172 13637.59669807
0.17600001 425077.68681199 15800.13836503
0.17700001 419740.36116349 13448.48180686
0.17800001 414463.68366162 12241.18547512
0.17900001 409249.45048046 11049.73568489
0.18000001 404096.79607255 13165.47423792
0.18100001 399006.29924910 11982.15973245
0.18200001 393973.72290469 10814.57920459
0.18300001 389001.94047888 17178.32650304
0.18400001 384089.13133042 11724.32128773
0.18500001 379236.60855638 16929.12300572
0.18600001 374440.80304607 13653.98452814
0.18700001 369702.46500492 11468.17100626
0.18800001 365021.38066230 17592.20627218
0.18900001 360398.56742727 13352.76755406
0.19000001 355828.06997593 12233.36962378
0.19100001 351317.21699532 13153.31722580
0.19200001 346858.08361829 16066.46719236
0.19300001 342455.71649456 12955.10036715
0.19400001 338104.71590963 10878.51974844
0.19500001 333807.98186509 10795.35064365
0.19600001 329563.37475793 10712.45800274
0.19700001 325370.45589368 12562.55389573
0.19800001 321229.11949668 9588.68967013
0.19900001 317138.81201167 13319.83073398
0.20000001 313097.03196915 9439.87596001
0.20100001 309106.38843728 10302.51641354
0.20200001 305162.84220687 11150.65078126
0.20300001 301269.32229843 10140.72586786
0.20400001 297422.51379265 10974.89127769
0.20500001 293622.42694843 10887.52010587
0.20600001 289869.03564870 10800.52077879
0.20700001 286161.79057213 9821.07311667
0.20800001 282498.33072301 9741.95539549
0.20900001 278881.72670915 8784.77480661
0.21000001 275307.43669964 10456.17694014
0.21100001 271777.12848197 9506.76440372
0.21200001 268289.16699200 10286.20714875
0.21300001 264842.83824908 9351.60106068
0.21400001 261439.11848929 9274.55316688
0.21500001 258077.11747972 10870.20870216
0.21600001 254754.56538942 12438.39224321
0.21700001 251472.08179558 8223.13746350
0.21800001 248229.26209618 11416.06430356
0.21900001 245024.23135695 9702.96002051
0.22000001 241857.13341044 8017.56435165
0.22100001 238729.35708748 11924.53195035
0.22200001 235638.71662444 7882.11544379
0.22300001 232583.28858872 10159.23852594
0.22400001 229563.37379405 7747.76423191
0.22500001 226581.84512239 9217.34989544
0.22600001 223632.88616125 12944.99022759
0.22700001 220720.53181065 14342.42083530
0.22800001 217840.92495699 8979.40335136
0.22900001 214994.10106864 10384.21557269
0.23000001 212181.58498960 8822.51072110
0.23100001 209402.28769961 8744.63994789
0.23200001 206653.39825833 7944.79027178
0.23300001 203936.90584268 10737.27860043
0.23400001 201252.33376906 9931.80314123
0.23500001 198596.57798421 8436.38303178
0.23600001 195972.90905572 6966.83724644
0.23700001 193378.33816784 7593.96769903
0.23800001 190813.54968544 7524.73268776
0.23900001 188277.34208688 8811.38002644
0.24000001 185769.77373917 8730.25092982
0.24100001 183291.55869510 9314.87745349
0.24200001 180840.44510917 7250.79798963
0.24300001 178417.20212031 9795.10485974
0.24400001 176020.58321801 7115.63241318
0.24500001 173650.65269718 7048.48032640
0.24600001 171307.55913144 8251.02897588
0.24700001 168990.62439658 7543.74182993
0.24800001 166699.11822575 6848.83359630
0.24900001 164432.12519206 8016.06648233
0.25000001 162191.39740717 6717.15704139
0.25100001 159974.18470711 7256.42936161
0.25200001 157782.95602311 6586.64981080
0.25300001 155615.60300262 5928.95475490
0.25400001 153471.61360855 7044.34739791
0.25500001 151350.85419430 8717.80961405
0.25600001 149254.03192810 6904.49184366
0.25700001 147179.24964645 5695.83723081
0.25800001 145128.14755707 6765.87455923
0.25900001 143099.34804173 7255.13728899
0.26000001 141092.69462873 5523.77925608
0.26100001 139107.37414317 7106.99608125
0.26200001 137144.66894860 8115.53616903
0.26300001 135202.65948102 7495.63579630
0.26400001 133282.26268974 5827.76721187
0.26500001 131383.35541850 8387.51380680
0.26600001 129504.25749185 5705.31033378
0.26700001 127646.89366662 10262.81073643
0.26800001 125810.27966446 7614.66753702
0.26900001 123992.42232795 5523.86267611
0.27000001 122195.72246443 6954.15889454
0.27100001 120418.19928879 8352.20669792
0.27200001 118661.93740640 4859.20656675
0.27300001 116924.16329909 6247.25834072
0.27400001 115203.87587166 5227.37611506
0.27500001 113505.76913320 5638.96687740
0.27600001 111824.31407005 7898.71079815
0.27700001 110163.24534370 6890.71132236
0.27800001 108519.84765632 5904.02259116
0.27900001 106896.32991920 4938.61067600
0.28000001 105289.60689677 4881.75285481
0.28100001 103702.10022252 4386.59904703
0.28200001 102133.21476546 4335.55517199
0.28300001 100581.88751656 5570.22519431
0.28400001 99048.09264422  5504.59800924
0.28500001 97532.59264668  4184.14842258
0.28600001 96034.44809701  4547.71150489
0.28700001 94553.88197818  4493.20068428
0.28800001 93089.88367429  4438.99131312
0.28900001 91645.07730753  4783.87326189
0.29000001 90215.77763189  4331.71076803
0.29100001 88804.51148219  5834.45668055
0.29200001 87410.01944802  4610.00464390
0.29300001 86032.38705091  5691.04267281
0.29400001 84670.89203372  5245.36200979
0.29500001 83327.16331110  4439.67147138
0.29600001 81999.23146125  5114.29230834
0.29700001 80687.81723132  5410.11840146
0.29800001 79392.64501321  5341.14044611
0.29900001 78114.39014404  5624.23635662
0.30000001 76851.54676388  3469.84750065
0.30100001 75605.93832077  4109.93900168
0.30200001 74374.52752213  5408.51589745
0.30300001 73160.46737789  3669.72921740
0.30400001 71962.15413851  4609.17619078
0.30500001 70779.24867875  4223.39796861
0.30600001 69611.08547354  4808.38595673
0.30700001 68459.65816250  4111.68726390
0.30800001 67323.14487730  3432.47070408
0.30900001 66202.23929495  3694.08512755
0.31000001 65096.74876034  4555.14521017
0.31100001 64005.57515284  3594.55327077
0.31200001 62930.32683499  4136.41057871
0.31300001 61869.37226183  3205.45232865
0.31400001 60824.49458136  4023.54050706
0.31500001 59793.57176802  3401.05852320
0.31600002 58777.71686070  3353.85668287
0.31700002 57776.46588459  3031.53130850
0.31800002 56789.77295829  3804.34707061
0.31900002 55817.63133331  2947.17107394
0.32000002 54860.27935452  3169.82709119
0.32100002 53916.44592712  5729.16181549
0.32200002 52988.01002535  3850.90381093
0.32300002 52072.23678939  3542.99515891
0.32400002 51170.84881404  3242.95269715
0.32500002 50283.43486169  2458.86008117
0.32600002 49410.48147091  2665.94265400
0.32700002 48550.45292433  3344.15535578
0.32800002 47705.02430256  2825.09167297
0.32900002 46872.38152559  3712.29279262
0.33000002 46054.23729299  2515.25228886
0.33100002 45246.84943251  2929.28117098
0.33200002 44455.94782133  2220.57469883
0.33300002 43676.76805975  2844.66803844
0.33400002 42911.00304673  3665.67260886
0.33500002 42157.30681307  2337.20120040
0.33600002 41417.61912329  2303.02682041
0.33700002 40689.45257527  2681.84194624
0.33800002 39975.10983360  2642.55476069
0.33900002 39272.33966551  2403.46730135
0.34000002 38582.55624453  2170.84762991
0.34100002 37904.90158428  2138.97369770
0.34200002 37240.07459554  2107.60212155
0.34300002 36586.22900387  2265.41940721
0.34400002 35945.79062762  2232.23370369
0.34500002 35316.40837365  2566.09035396
0.34600002 34699.82697398  2889.80172726
0.34700002 34093.16012713  2847.46086868
0.34800002 33499.68079138  1929.07920974
0.34900002 32917.00350400  2419.39987213
0.35000002 32345.64835818  1873.29831339
0.35100002 31786.33511958  2013.98228856
0.35200002 31236.62392416  2315.57104117
0.35300002 30698.55358422  2119.12125429
0.35400002 30171.78738422  2088.64208060
0.35500002 29655.77580911  1900.34220386
0.35600002 29149.40977929  2341.42645142
0.35700002 28654.11964084  1846.47155711
0.35800002 28169.96184270  1668.64776879
0.35900002 27695.66462897  1794.67915296
0.36000002 27231.83057366  1622.06406495
0.36100002 26777.34851504  1599.41110256
0.36200002 26333.98904368  2294.21723415
0.36300002 25899.30324691  1555.51222669
0.36400002 25474.46601339  1394.72708030
0.36500002 25059.15734231  1788.47214424
0.36600002 24653.68064640  1492.90370226
0.36700002 24256.87141119  1338.97936532
0.36800002 23870.91776384  1717.63196906
0.36900002 23492.93108528  1695.01505809
0.37000002 23123.63244433  1415.51322713
0.37100002 22763.00843288  1524.21111687
0.37200002 22412.16143226  1504.75258984
0.37300002 22069.23348613  1485.70086866
0.37400002 21734.81050918  1344.84146396
0.37500002 21409.23563289  1328.22904158
0.37600002 21092.06776505  1550.58343520
0.37700002 20782.36000199  2121.04776228
0.37800002 20480.64342454  1280.75709723
0.37900002 20187.53105233  1265.75825694
0.38000002 19902.03301974  1478.62161325
0.38100002 19623.33965126  1236.85915681
0.38200002 19353.12821222  1223.02099531
0.38300002 19089.59068921  1649.34071368
0.38400002 18834.33574405  1522.75611705
0.38500002 18584.88632379  1183.67146604
0.38600002 18343.86214718  1277.83349771
0.38700002 18109.06498173  1370.13192143
0.38800002 17881.14753875  1356.37451081
0.38900002 17659.58004943  1239.70257820
0.39000002 17445.66934669  1023.18855566
0.39100002 17237.17965359  1216.25545398
0.39200002 17035.62741202  1405.95039692
0.39300002 16840.04606526  1492.87015441
0.39400002 16651.77638021  1381.26491618
0.39500002 16468.37234735  1076.04350016
0.39600002 16290.98123087  1067.14077609
0.39700002 16119.43320666  1154.79624964
0.39800002 15953.85158555  954.83806263
0.39900002 15793.59979987  1326.66244604
0.40000002 15638.65112617  1222.86438275
0.40100002 15489.48866632  1027.41783192
0.40200002 15345.78924712  1113.18360473
0.40300002 15206.54237323  1105.81981377
0.40400002 15072.85801655  1281.94663505
0.40500002 14944.28943175  910.10726951
0.40600002 14820.37595325  1357.17599222
0.40700002 14701.16947067  1169.62509850
0.40800002 14586.91669051  1252.87033391
0.40900002 14476.86044851  979.35965575
0.41000002 14371.76404688  1329.02894321
0.41100002 14270.71755356  1234.70254124
0.41200002 14173.67553240  1053.67108900
0.41300002 14081.47726747  961.90575772
0.41400002 13992.88852954  1132.37455791
0.41500002 13908.57364714  954.68454038
0.41600002 13827.57198885  951.40613577
0.41700002 13750.74700567  1120.82344154
0.41800002 13678.62349215  1031.64183266
0.41900002 13608.05726403  943.03841308
0.42000002 13542.36055213  1111.76014221
0.42100002 13480.43580577  1109.30511502
0.42200002 13421.85857183  1277.42545011
0.42300002 13365.93319548  1275.11008727
0.42400002 13313.21302063  1018.46084434
0.42500002 13263.97252471  847.56788449
0.42600002 13216.90261522  931.19691788
0.42700002 13174.13563654  1184.09136712
0.42800002 13133.21723025  929.63482570
0.42900002 13096.35600562  1013.65800287
0.43000002 13061.51512459  1013.31239138
0.43100002 13028.49679389  928.67129548
0.43200002 12999.18220470  844.29692420
0.43300002 12972.16451445  1013.38553989
0.43400002 12947.55040494  1013.79324475
0.43500002 12925.11505382  1437.01435978
0.43600002 12905.33450105  930.53918830
0.43700002 12887.29054910  846.69502920
0.43800002 12871.32599100  1017.09222801
0.43900002 12858.18006378  1103.23190175
0.44000002 12846.51397019  934.77663334
0.44100002 12837.19593480  1106.43797005
0.44200002 12829.59857983  937.77955263
0.44300002 12823.93134157  854.07386782
0.44400002 12820.34526647  941.33389580
0.44500002 12817.24541168  1028.96851041
0.44600002 12816.28994219  945.26550948
0.44700002 12818.00667767  861.37008956
0.44800002 12819.61638347  949.74132478
0.44900002 12824.45252156  865.65058623
0.45000002 12830.00345523  867.94977488
0.45100002 12836.55152402  1044.38188149
0.45200002 12844.84303627  1134.64926338
0.45300002 12854.02583074  1313.03880084
0.45400002 12864.87770196  965.83073925
0.45500002 12876.86738089  1056.93332472
0.45600002 12889.72771751  1060.30905229
0.45700002 12903.74595444  1241.08234472
0.45800002 12918.50867357  1067.32723720
0.45900002 12934.35428396  1070.96458547
0.46000002 12951.87862307  1074.74693908
0.46100002 12969.12636951  988.63655000
0.46200002 12988.19302002  902.03004799
0.46300002 13007.88500314  1176.95349087
0.46400002 13027.65939964  999.54721481
0.46500002 13048.72101779  1003.31620661
0.46600002 13070.27594177  1007.13016043
0.46700002 13092.10986143  1010.97277142
0.46800002 13115.57901108  1107.21723259
0.46900002 13138.50079053  1204.14365452
0.47000002 13162.27021860  1301.88020903
0.47100002 13186.69546736  1026.97989167
0.47200002 13211.64480549  1406.04936507
0.47300002 13237.05381047  1317.61639875
0.47400002 13262.18506399  1039.42380366
0.47500002 13288.11969391  1328.28050756
0.47600002 13314.81181390  1047.94231348
0.47700002 13340.92530999  1339.16214609
