# SAXS profile: number of points = 501, q_min = 0, q_max = 0.5, delta_q = 0.001
#    q    intensity    error
0.00000000 1646666.22097350 321.09991309
0.00100000 1646580.91386674 642.16657166
0.00200000 1646324.97741910 963.10014229
0.00300000 1645898.60506367 1185.04703786
0.00400000 1645301.68695942 1480.77157453
0.00500000 1644534.86395548 1628.08957976
0.00600000 1643597.98670886 2243.51134320
0.00700000 1642491.76935116 2365.18824616
0.00800000 1641216.04199783 2658.77010029
0.00900000 1639772.19248864 3197.55591204
0.01000000 1638159.53762839 3784.14869532
0.01100000 1636379.67331265 3534.58024825
0.01200000 1634432.52783456 3505.85792592
0.01300000 1632319.42185181 4799.01931190
0.01400000 1630040.55240950 4034.35054606
0.01500000 1627597.30864039 3906.23371468
0.01600000 1624989.52613227 4558.09582456
0.01700000 1622219.26450021 5693.98987382
0.01800000 1619287.01942773 5537.96185564
0.01900000 1616193.87629867 4848.58184768
0.02000000 1612940.37669365 5588.83865806
0.02100000 1609529.48324815 6373.73704264
0.02200000 1605959.57974051 7756.78512256
0.02300000 1602233.95697300 6344.84675842
0.02400000 1598353.04806112 8990.73630530
0.02500000 1594319.30383000 9326.76835336
0.02600000 1590132.88962042 7728.04619702
0.02700000 1585796.15401911 9324.48181270
0.02800000 1581309.07702219 7566.56428055
0.02900000 1576675.21294321 9223.55041921
0.03000000 1571895.27184664 8771.17602007
0.03100000 1566970.55275517 9777.89669910
0.03200000 1561902.51572396 10823.98493250
0.03300000 1556695.24436717 7939.14611227
0.03400000 1551346.96534050 8959.02913821
0.03500000 1545861.93742989 9182.42033236
0.03600000 1540240.86671287 9403.17092584
0.03700000 1534486.58310391 13119.86089230
0.03800000 1528600.52420424 9836.54482849
0.03900000 1522585.32485247 15530.37103271
0.04000000 1516440.91367074 13056.55687173
0.04100000 1510171.56948947 17125.34639205
0.04200000 1503778.57226236 9699.37224107
0.04300000 1497263.65864757 10870.13466635
0.04400000 1490630.12810759 13080.27998162
0.04500000 1483879.61951174 11262.64683541
0.04600000 1477012.95221776 13536.82433636
0.04700000 1470034.26597715 10584.24720729
0.04800000 1462945.22998912 13978.44232294
0.04900000 1455748.09409456 14193.54457810
0.05000000 1448444.79459318 12188.66351408
0.05100000 1441039.01991261 12364.11536682
0.05200000 1433530.49080429 13675.88151959
0.05300000 1425923.82298309 12704.98185506
0.05400000 1418220.64384393 16380.44920028
0.05500000 1410424.29368248 15401.83400550
0.05600000 1402535.55292048 19186.68725928
0.05700000 1394559.03384151 14559.19699291
0.05800000 1386494.50045745 15951.61997258
0.05900000 1378345.57165777 17367.15501404
0.06000000 1370116.22365745 16297.53324181
0.06100000 1361807.53516742 20263.69707024
0.06200000 1353422.54823384 17905.78115011
0.06300000 1344964.12776837 19367.48434540
0.06400000 1336431.89964196 18242.29628325
0.06500000 1327832.05980596 19718.30701050
0.06600000 1319165.97558159 14583.38054239
0.06700000 1310434.80116218 16039.72271687
0.06800000 1301642.82757470 17513.60506481
0.06900000 1292793.29358378 14931.76323998
0.07000000 1283885.88398586 13673.38530475
0.07100000 1274924.99667159 16523.02873077
0.07200000 1265912.25005069 19406.43570241
0.07300000 1256851.50078258 15346.15754361
0.07400000 1247745.49294584 19651.99243487
0.07500000 1238594.40915227 19767.96769664
0.07600000 1229401.85287334 17039.51047965
0.07700000 1220171.82074559 17131.21316653
0.07800000 1210904.86705440 15784.14568227
0.07900000 1201603.42560162 17303.09014024
0.08000000 1192272.45698236 20280.55544465
0.08100000 1182912.37239924 18914.76972211
0.08200000 1173524.83047697 18993.50027254
0.08300000 1164113.55134897 24935.31344016
0.08400000 1154680.75485385 19138.83441005
0.08500000 1145228.84294216 17728.14332100
0.08600000 1135760.51228488 14821.67538122
0.08700000 1126277.30917594 17840.23341508
0.08800000 1116781.45267086 17890.83971201
0.08900000 1107276.20834886 16443.05246631
0.09000000 1097763.18549625 14984.46818593
0.09100000 1088244.83590061 15017.77944098
0.09200000 1078722.59576799 19562.63519344
0.09300000 1069200.87225736 18090.87960872
0.09400000 1059678.67948769 16610.46408162
0.09500000 1050159.72373790 27220.14131871
0.09600000 1040645.55892363 22712.09039115
0.09700000 1031141.60720386 16673.56057236
0.09800000 1021646.02715979 18205.73305998
0.09900000 1012162.98566650 18218.93459870
0.10000000 1002691.75067261 18228.93688448
0.10100000 993236.65168490 16716.17363405
0.10200000 983799.07755207 16719.66610943
0.10300000 974380.36667924 24320.53509637
0.10400000 964983.52520607 19758.03860811
0.10500000 955611.38097535 15194.22167239
0.10600001 946260.88936737 16706.23678787
0.10700001 936938.89887642 21249.77522648
0.10800001 927644.21993065 22750.47556448
0.10900001 918380.40037947 19699.26051530
0.11000001 909148.19660796 22705.97727904
0.11100001 899948.67211464 15119.13840323
0.11200001 890784.49553457 19628.43728315
0.11300001 881656.28005894 21106.85233834
0.11400001 872566.03078330 18062.11768766
0.11500001 863515.75423030 27045.31469600
0.11600001 854506.19320218 19495.55971598
0.11700001 845538.70748370 16462.63941001
0.11800001 836614.37099402 19413.63739327
0.11900001 827734.10705815 20858.90048035
0.12000001 818899.99924322 20808.24996094
0.12100001 810114.47605670 16307.60517124
0.12200001 801376.72126288 19221.02156502
0.12300001 792689.19918639 20641.62771933
0.12400001 784052.18511918 16171.07708002
0.12500001 775465.77144005 16121.93414791
0.12600001 766934.40960776 24837.17202556
0.12700001 758455.98956434 34949.65364618
0.12800001 750032.30276728 14513.12574254
0.12900001 741664.47986105 17354.94964672
0.13000001 733353.88280119 14410.40447628
0.13100001 725099.78421461 17228.37168504
0.13200001 716904.00824528 18592.90633032
0.13300001 708768.34158318 17095.49320492
0.13400001 700691.79558360 15607.91048247
0.13500001 692676.12310421 15543.65293531
0.13600001 684721.16900380 16885.22482378
0.13700001 676828.51401806 15411.38599089
0.13800001 668997.36050046 20922.89343629
0.13900001 661230.35781814 15274.42198591
0.14000001 653526.24858236 17968.70505219
0.14100001 645886.09859548 15133.11200381
0.14200001 638309.86426787 16430.09668119
0.14300001 630799.93156216 13625.27916441
0.14400001 623352.58106245 17625.29506092
0.14500001 615972.63122145 18885.72176413
0.14600001 608657.87916231 13420.90686865
0.14700001 601410.75255508 18691.84707123
0.14800001 594227.40303566 19921.47462664
0.14900001 587112.18233748 14531.02719844
0.15000001 580062.70265976 13138.42083515
0.15100001 573080.86986964 15679.49333947
0.15200001 566165.92410086 22088.96457111
0.15300001 559319.13658536 19380.40899723
0.15400001 552537.19276608 16700.43743947
0.15500001 545824.42526762 17881.20901563
0.15600001 539176.34070755 13967.36376522
0.15700001 532598.85031494 13884.85268303
0.15800001 526084.81834690 16311.26056272
0.15900001 519640.11132397 18707.04489065
0.16000001 513259.87469272 17353.31718248
0.16100001 506949.68377147 12318.87789715
0.16200001 500704.78435037 13466.45581080
0.16300001 494526.35228710 15814.95349273
0.16400001 488414.34156048 12088.25552430
0.16500001 482367.84458691 14413.15187672
0.16600001 476388.29630290 16706.93834013
0.16700001 470472.76871475 18969.46293022
0.16800001 464622.13257983 12955.98877872
0.16900001 458838.47719375 21060.68709764
0.17000001 453118.30607607 19758.22466942
0.17100001 447461.98420293 11544.51973758
0.17200001 441870.58513872 14906.50489358
0.17300001 436342.33247514 11388.53541542
0.17400001 430877.53858175 12441.58951411
0.17500001 425475.32514789 16848.82367159
0.17600001 420134.30482807 15616.39284801
0.17700001 414856.85626332 16615.01787808
0.17800001 409639.63910407 13198.58979533
0.17900001 404484.03757704 13105.28343651
0.18000001 399388.98260878 15180.77594602
0.18100001 394355.23840269 15072.25792371
0.18200001 389378.68866740 12826.13461058
0.18300001 384462.20618990 13794.50460974
0.18400001 379603.91577341 13694.21190845
0.18500001 374805.23256421 12548.47977907
0.18600001 370062.12675383 13494.31608960
0.18700001 365375.76017118 11333.95661598
0.18800001 360745.86764195 12272.57499701
0.18900001 356173.82842577 12181.14550769
0.19000001 351653.01587319 13097.31719503
0.19100001 347191.16723134 12998.83791534
0.19200001 342780.52408542 10915.84630529
0.19300001 338425.21358489 9848.17418067
0.19400001 334121.11518506 12704.95600527
0.19500001 329870.18204261 10668.00219138
0.19600001 325670.90952164 9623.57583114
0.19700001 321522.26702686 10504.13296017
0.19800001 317424.71762515 10422.64109578
0.19900001 313377.31002865 12221.71566872
0.20000001 309377.87991284 10260.51787223
0.20100001 305428.61563085 12030.83373830
0.20200001 301526.14358068 11017.76580718
0.20300001 297672.48231053 10930.53406707
0.20400001 293865.32324731 11747.26685205
0.20500001 290103.93648329 12549.89688546
0.20600001 286388.19283722 9781.58918871
0.20700001 282718.42158560 12349.14123859
0.20800001 279091.61832082 9624.47491274
0.20900001 275511.43291979 9546.47160194
0.21000001 271972.32587053 10329.50942486
0.21100001 268476.57418109 9391.31100881
0.21200001 265022.78327802 8467.47832603
0.21300001 261609.71772734 9237.43956966
0.21400001 258238.75229270 10826.66020172
0.21500001 254909.03834307 9910.86387934
0.21600001 251617.86445335 12285.24281276
0.21700001 248366.57090518 10558.06342836
0.21800001 245153.92487542 12885.29090068
0.21900001 241978.73516284 11977.94795690
0.22000001 238841.00435025 10292.85356915
0.22100001 235741.90401915 8635.22635253
0.22200001 232679.22046298 13231.30449726
0.22300001 229651.42734159 9259.54598825
0.22400001 226658.82985793 9179.68304332
0.22500001 223703.39316128 9100.25446413
0.22600001 220780.26580263 11276.35260911
0.22700001 217893.36279225 9687.53936786
0.22800001 215038.84738026 8863.90170819
0.22900001 212216.53985599 11714.35355403
0.23000001 209427.97470312 7982.34763331
0.23100001 206672.25531519 7911.41430762
0.23200001 203946.46193230 7127.92918164
0.23300001 201252.24346812 8476.74489578
0.23400001 198589.67596211 7000.28640875
0.23500001 195955.74982039 11792.61758194
0.23600001 193353.23949410 8935.82038586
0.23700001 190779.50643122 7491.91157191
0.23800001 188235.07587459 8772.69612607
0.23900001 185718.93609010 6685.88201548
0.24000001 183230.82902647 8610.93321740
0.24100001 180771.89591049 9843.03019791
0.24200001 178339.93931967 6500.49109569
0.24300001 175934.73909985 9658.81763347
0.24400001 173556.24982033 7016.01173087
0.24500001 171204.30738859 7580.92708978
0.24600001 168878.16436271 8134.01717131
0.24700001 166578.27075287 6196.71196515
0.24800001 164303.73439405 11046.14058587
0.24900001 162053.31365000 7292.39945923
0.25000001 159828.74423869 7221.06300632
0.25100001 157627.22797598 10129.12614894
0.25200001 155451.62925738 7079.26753130
0.25300001 153299.62954783 7008.85939452
0.25400001 151170.42373334 8095.17657391
0.25500001 149064.49682802 6868.89233882
0.25600001 146982.04700055 7366.00563394
0.25700001 144921.76332951 6169.31975683
0.25800001 142884.50299138 7216.38216502
0.25900001 140869.42583154 6043.29865411
0.26000001 138876.55241931 5980.71901292
0.26100001 136904.15200899 7532.46679994
0.26200001 134954.89238670 7453.55905920
0.26300001 133025.78981281 6848.16798360
0.26400001 131118.00280868 5733.13494409
0.26500001 129231.71805318 6187.61495318
0.26600001 127365.07806524 6631.26310326
0.26700001 125519.84409717 7064.25716007
0.26800001 123695.29322203 6987.54744477
0.26900001 121889.21513637 5430.16479129
0.27000001 120104.35555704 5370.46651288
0.27100001 118338.50731442 6276.67472499
0.27200001 116593.67885226 4774.51137495
0.27300001 114867.28513903 5193.15020690
0.27400001 113158.30919950 5134.55852292
0.27500001 111471.42961913 5076.40914510
0.27600001 109800.87461043 5474.67186717
0.27700001 108150.77465919 4960.87626840
0.27800001 106518.06861712 4457.78138260
0.27900001 104905.33683172 5287.22922655
0.28000001 103309.33409881 5660.83522986
0.28100001 101732.49274325 5594.27004072
0.28200001 100174.11270429 5953.34779979
0.28300001 98633.11644152  4621.94805521
0.28400001 97109.71397424  5812.01665645
0.28500001 95604.61316625  4511.58190885
0.28600001 94116.68442047  5672.41283851
0.28700001 92646.17085194  4402.54624727
0.28800001 91192.37182331  3953.18950566
0.28900001 89757.81735126  4294.91176355
0.29000001 88338.69177681  4241.58248644
0.29100001 86937.42207910  4188.64519404
0.29200001 85553.08212926  5640.08720635
0.29300001 84185.50372630  4455.09706808
0.29400001 82833.95394626  4765.02342632
0.29500001 81500.22401203  5789.77618789
0.29600001 80182.38272220  4643.76291518
0.29700001 78880.92192838  7404.55249193
0.29800001 77595.88996660  3828.19341272
0.29900001 76327.61337579  4808.63987031
0.30000001 75074.65134845  6101.31720392
0.30100001 73839.04429028  3344.90886470
0.30200001 72617.51104506  3630.51263657
0.30300001 71413.78816519  4233.40956285
0.30400001 70225.42713257  3855.37613210
0.30500001 69052.55504465  5071.21988256
0.30600001 67894.46916104  3751.84854346
0.30700001 66753.25149936  3392.40040180
0.30800001 65626.69900374  3345.97740712
0.30900001 64516.06316765  4799.99532693
0.31000001 63420.94967584  3254.44618670
0.31100001 62340.08646484  3209.26780315
0.31200001 61275.07027885  4027.61056012
0.31300001 60224.52269055  3403.89018363
0.31400001 59189.77870852  3635.73232931
0.31500001 58169.20871371  3032.94268593
0.31600002 57163.93299191  2989.95965671
0.31700002 56173.16449492  3215.35208793
0.31800002 55196.99356467  3169.41152055
0.31900002 54235.62077433  3123.97190452
0.32000002 53288.63968624  2565.84812238
0.32100002 52355.37035601  3034.51740952
0.32200002 51437.76002317  2741.37555024
0.32300002 50532.71780021  2455.89020138
0.32400002 49642.21384503  3146.07545140
0.32500002 48765.80293661  2623.11266417
0.32600002 47903.56378487  3759.47186386
0.32700002 47054.42569817  3704.12456636
0.32800002 46220.14763939  2737.15727282
0.32900002 45398.51586071  2696.67196982
0.33000002 44591.25602989  2435.35156340
0.33100002 43795.07957352  2399.09457265
0.33200002 43015.39432308  2793.20476264
0.33300002 42247.49549296  2539.91954932
0.33400002 41492.84016330  2293.51684864
0.33500002 40750.67772238  2669.98453081
0.33600002 40022.12366634  2427.74213657
0.33700002 39305.54094079  2192.07012208
0.33800002 38602.74287348  2159.24452488
0.33900002 37911.46252367  2320.18161633
0.34000002 37233.30239558  3237.62196314
0.34100002 36567.15120056  2438.66342906
0.34200002 35913.84028815  3325.98090660
0.34300002 35271.94839910  2366.04241067
0.34400002 34643.20137994  2509.90005885
0.34500002 34025.56693921  1942.51970856
0.34600002 33420.64215475  2261.40785850
0.34700002 32825.94130055  1884.86563875
0.34800002 32244.17836556  2025.57938086
0.34900002 31673.43496141  3824.56745273
0.35000002 31114.16115623  1801.97672871
0.35100002 30566.65848754  2259.48750241
0.35200002 30029.12437974  2544.06753795
0.35300002 29503.10765324  1723.27659965
0.35400002 28988.23717567  1543.62370272
0.35500002 28484.29485166  1521.06141712
0.35600002 27990.03450616  1648.75306068
0.35700002 27507.10010410  1920.27074922
0.35800002 27034.73941183  2183.73117942
0.35900002 26572.80929247  1578.42494674
0.36000002 26121.23643907  1555.91152219
0.36100002 25679.00573162  2370.42913136
0.36200002 25247.67239051  1512.20940946
0.36300002 24825.43685871  1355.46891669
0.36400002 24412.87674123  1603.92607787
0.36500002 24009.85942542  3163.53922774
0.36600002 23616.58185592  2080.14862840
0.36700002 23232.25420906  1282.42049309
0.36800002 22858.46563783  1391.73774628
0.36900002 22492.85092113  1622.85927083
0.37000002 22135.79802351  1231.85721836
0.37100002 21787.63222140  1702.04990976
0.37200002 21448.88537944  1200.06519383
0.37300002 21118.27769214  1303.20897812
0.37400002 20796.26136068  1520.72668404
0.37500002 20482.86412477  1386.28030963
0.37600002 20178.07595183  1597.49834878
0.37700002 19880.57993688  1690.84340373
0.37800002 19591.18086965  1447.88629076
0.37900002 19310.34737862  1761.10376436
0.38000002 19037.14821711  1414.36499379
0.38100002 18770.59052894  1613.33233239
0.38200002 18512.54667447  1276.25502820
0.38300002 18261.28484021  1577.77508494
0.38400002 18018.05944369  1352.70587682
0.38500002 17781.11749762  1132.47942707
0.38600002 17552.08701665  1324.56830946
0.38700002 17329.25403739  1210.27515931
0.38800002 17113.56514709  1098.43423100
0.38900002 16903.87968626  1384.42781189
0.39000002 16702.09228797  1273.45108683
0.39100002 16505.73021416  1067.59068083
0.39200002 16316.07625216  1058.01601470
0.39300002 16132.50055247  1430.14624173
0.39400002 15956.05600936  1418.09454502
0.39500002 15784.45436249  1125.11596026
0.39600002 15619.04465806  1302.15981484
0.39700002 15459.19700373  1107.49692582
0.39800002 15305.50163070  1190.84461080
0.39900002 15156.93495245  1455.06582437
0.40000002 15013.70454472  1083.68924538
0.40100002 14876.29505764  1435.26501516
0.40200002 14744.01683069  1158.65861754
0.40300002 14616.36835732  1151.47755375
0.40400002 14494.09059709  1496.87727734
0.40500002 14377.08165210  963.12074551
0.40600002 14264.59490183  1219.19498403
0.40700002 14156.93253365  1126.32560574
0.40800002 14053.69146801  1034.63281490
0.40900002 13955.01630738  944.05689793
0.41000002 13861.28404552  1196.36748266
0.41100002 13771.31953038  1191.49462222
0.41200002 13685.44275184  847.81321865
0.41300002 13604.42825390  1098.28554498
0.41400002 13526.77677485  1094.65446237
0.41500002 13453.36073213  1259.23462419
0.41600002 13383.30779574  1004.55113075
0.41700002 13317.33917567  1085.49636764
0.41800002 13256.02861826  916.45558195
0.41900002 13196.28896109  997.63949273
0.42000002 13141.14207821  995.83579387
0.42100002 13089.99231121  911.45620782
0.42200002 13041.83775403  993.00557365
0.42300002 12996.39973248  1074.54238080
0.42400002 12954.18585540  990.99526490
0.42500002 12915.41305337  1155.41290650
0.42600002 12878.64196973  1237.31558587
0.42700002 12846.22104228  1154.61840199
0.42800002 12815.69098499  824.68975396
0.42900002 12788.90052970  824.88412325
0.43000002 12764.22759793  907.72808864
0.43100002 12741.32383204  990.76538813
0.43200002 12721.98645528  908.92236537
0.43300002 12704.90513934  1157.92510927
0.43400002 12690.06079797  910.82915694
0.43500002 12677.51982749  912.02081961
0.43600002 12667.57930622  996.43183545
0.43700002 12659.20493407  914.88078394
0.43800002 12652.84631044  833.18996903
0.43900002 12649.30033881  1502.73695147
0.44000002 12647.21116684  1254.91958750
0.44100002 12647.32501497  922.36945705
0.44200002 12649.06973097  1008.63686815
0.44300002 12652.89019491  1264.02379037
0.44400002 12658.45467076  1351.92302291
0.44500002 12664.50290685  1016.70634154
0.44600002 12672.91292843  849.71885212
0.44700002 12683.56072908  1108.03591780
0.44800002 12694.41489428  1453.44710220
0.44900002 12708.29240231  1286.71466671
0.45000002 12722.70098123  1549.24337191
0.45100002 12738.23567804  1554.57435582
0.45200002 12755.33533932  953.39758512
0.45300002 12773.28734593  1304.79136422
0.45400002 12792.99759713  873.12212738
0.45500002 12813.56848767  1227.02737653
0.45600002 12835.13915157  967.83371359
0.45700002 12857.68494280  883.32299743
0.45800002 12880.98269682  1418.96912113
0.45900002 12905.21638739  1068.55196752
0.46000002 12931.09855191  983.60405797
0.46100002 12956.81673358  897.90744219
0.46200002 12983.99788767  1082.08643524
0.46300002 13012.10157469  1358.46346878
0.46400002 13039.99612631  909.53977292
0.46500002 13069.29306011  1187.60671666
0.46600002 13098.77089165  1101.08273334
0.46700002 13128.69218335  1013.79765845
0.46800002 13160.14930046  1666.46978490
0.46900002 13190.99314318  1022.96156674
0.47000002 13222.66006912  1121.01717379
0.47100002 13254.84138927  1126.13137781
0.47200002 13287.62831221  1037.03300078
0.47300002 13320.86799043  1136.53651081
0.47400002 13353.72314830  1332.03394718
0.47500002 13387.30962023  955.85395219
0.47600002 13421.43695485  1440.45578945
0.47700002 13455.20592837  1254.15980403
0.47800002 13489.21140652  1259.95985115
