# SAXS profile: number of points = 501, q_min = 0, q_max = 0.5, delta_q = 0.001
#    q    intensity    error
0.00000000 1646666.22097350 271.69992646
0.00100000 1646580.75282948 543.37166134
0.00200000 1646324.33547269 740.84597442
0.00300000 1645897.15799108 987.53832997
0.00400000 1645299.11091349 1357.37181808
0.00500000 1644530.85559797 1628.08561148
0.00600000 1643592.19959041 1898.34906781
0.00700000 1642483.90151985 2168.07884011
0.00800000 1641205.78599117 2437.19069509
0.00900000 1639759.19036959 2705.60277977
0.01000000 1638143.47124373 2702.93684426
0.01100000 1636360.25887828 3239.99345365
0.01200000 1634409.49768240 4780.64799032
0.01300000 1632292.39867681 3427.81418840
0.01400000 1630009.23478739 4767.77722311
0.01500000 1627561.34403261 3906.14739961
0.01600000 1624948.66746655 4557.98121600
0.01700000 1622173.19003533 7883.76205723
0.01800000 1619235.45024961 5537.78548904
0.01900000 1616136.43604387 5818.09143229
0.02000000 1612876.87106301 6096.67484841
0.02100000 1609459.48153449 6373.45983584
0.02200000 1605882.88543917 9418.50355101
0.02300000 1602150.16016503 6344.51492305
0.02400000 1598262.02292315 7791.52771702
0.02500000 1594220.63659031 7460.95291999
0.02600000 1590026.35414862 7727.52843461
0.02700000 1585681.44338501 7991.83484070
0.02800000 1581185.91984986 7565.97497345
0.02900000 1576543.30324428 12770.00134260
0.03000000 1571754.37195783 10232.12143177
0.03100000 1566820.40388311 9776.95977010
0.03200000 1561742.78763220 10822.87801677
0.03300000 1556525.58814634 9525.93703861
0.03400000 1551167.30059830 13844.16879662
0.03500000 1545671.98475995 12519.94365470
0.03600000 1540040.30173531 12820.83610445
0.03700000 1534275.19801202 10494.44283974
0.03800000 1528378.03123444 8941.01189651
0.03900000 1522351.46130893 13701.16378628
0.04000000 1516195.47544729 11189.52312731
0.04100000 1509914.35870506 10463.70699099
0.04200000 1503509.32125754 10667.39912921
0.04300000 1496982.26989619 12844.10847191
0.04400000 1490336.12249299 11065.74622343
0.04500000 1483572.89524925 12283.98414344
0.04600000 1476693.47781723 13533.89635334
0.04700000 1469701.62265764 12698.22261033
0.04800000 1462599.15193029 15050.14597362
0.04900000 1455388.53628655 15281.58034233
0.05000000 1448071.42125903 12185.52157733
0.05100000 1440651.79299758 13484.50141062
0.05200000 1433129.14153887 14811.39036803
0.05300000 1425508.33263834 13855.94163918
0.05400000 1417790.56192099 14036.12721758
0.05500000 1409979.66154822 13028.21268046
0.05600000 1402075.90290466 15584.07438800
0.05700000 1394084.47201087 19405.65675622
0.05800000 1386004.86780253 17172.60111390
0.05900000 1377840.64819965 17360.79297817
0.06000000 1369595.92263363 15038.16393308
0.06100000 1361271.71287410 13925.81027347
0.06200000 1352870.94201874 17898.48339955
0.06300000 1344396.68425495 18068.69228119
0.06400000 1335848.61053921 13024.52456187
0.06500000 1327232.70331466 15767.52525295
0.06600000 1318550.54012232 14576.57690307
0.06700000 1309802.95946236 21375.98529880
0.06800000 1300994.62052166 18851.41293378
0.06900000 1292128.44124993 14924.08419517
0.07000000 1283204.63927389 15032.74305305
0.07100000 1274226.95504121 16513.98211081
0.07200000 1265197.58230807 24937.04551551
0.07300000 1256119.94111221 15337.22519961
0.07400000 1246996.98463953 16834.46008157
0.07500000 1237828.98020288 19755.75145004
0.07600000 1228619.51883527 19866.77855093
0.07700000 1219372.34662597 18546.65426181
0.07800000 1210088.38351284 21509.32202565
0.07900000 1200769.63805513 15850.15996576
0.08000000 1191421.51920194 21713.65820607
0.08100000 1182044.32289050 21808.71878056
0.08200000 1172639.32768853 18979.16840924
0.08300000 1163210.80188510 17587.74814993
0.08400000 1153760.95134514 22065.67923021
0.08500000 1144291.71355930 17713.63655747
0.08600000 1134806.07674691 16290.14199655
0.08700000 1125305.62150243 14854.03490134
0.08800000 1115792.53792842 14895.83108091
0.08900000 1106269.93438334 25388.89618661
0.09000000 1096739.75546241 17964.59803837
0.09100000 1087204.14585650 22505.12687655
0.09200000 1077664.73224858 18040.10846549
0.09300000 1068125.95446408 18072.69199881
0.09400000 1058586.61732518 16593.34600642
0.09500000 1049050.59778942 18127.59518185
0.09600000 1039519.44226711 16637.50945558
0.09700000 1029998.62445131 19683.27463863
0.09800000 1020486.08442708 15154.21906626
0.09900000 1010986.30681364 15164.79531529
0.10000000 1001498.40822215 16689.97175790
0.10100000 992026.52540000 18213.60786296
0.10200000 982572.39859585 19734.96755406
0.10300000 973137.47284604 18217.13434863
0.10400000 963724.05649845 16696.52006432
0.10500000 954335.79930602 16691.33391518
0.10600001 944969.09864244 16683.43022155
0.10700001 935631.14738209 16672.94783094
0.10800001 926320.45970305 21203.47632047
0.10900001 917040.72548681 21183.64175577
0.11000001 907792.98709063 16626.22934115
0.11100001 898577.89849020 19624.94222684
0.11200001 889398.37930547 21105.42453450
0.11300001 880254.80004066 18062.82934725
0.11400001 871149.59381201 18032.79744097
0.11500001 862084.07523246 16500.28997691
0.11600001 853059.79783161 17965.44018835
0.11700001 844077.73162938 16434.19420879
0.11800001 835138.84866604 14907.22915079
0.11900001 826244.36266136 17846.87907410
0.12000001 817395.97161228 20770.03261704
0.12100001 808596.34539051 19236.50796304
0.12200001 799844.87790993 17708.56643120
0.12300001 791143.75049796 16186.80189782
0.12400001 782493.18830407 22007.62195800
0.12500001 773893.63301361 23402.54456507
0.12600001 765349.27923818 17495.88534785
0.12700001 756857.78053286 21797.50510658
0.12800001 748421.41617639 20274.73711975
0.12900001 740041.40011845 14430.80798246
0.13000001 731718.34991071 14378.26625346
0.13100001 723452.30873046 14324.35638808
0.13200001 715244.64317985 15696.04443450
0.13300001 707097.35015682 18476.45463063
0.13400001 699009.36900667 26894.38674048
0.13500001 690982.64971900 15505.65139076
0.13600001 683016.64900593 16843.19135866
0.13700001 675113.48930962 18167.30485397
0.13800001 667271.86427892 15303.88092890
0.13900001 659494.52382996 19389.13991496
0.14000001 651780.44528586 17920.70418829
0.14100001 644130.47902427 16463.97582035
0.14200001 636544.85060722 16384.66522742
0.14300001 629025.43717598 16304.34010064
0.14400001 621568.96519533 18926.77588297
0.14500001 614180.39670341 20175.82698344
0.14600001 606857.01137566 20071.79659812
0.14700001 599601.77086711 19966.73991184
0.14800001 592410.43456702 15888.44860468
0.14900001 585287.34718287 15802.75911952
0.15000001 578230.42988564 17025.99581132
0.15100001 571241.12853303 15629.15801412
0.15200001 564319.33378480 15541.35518578
0.15300001 557465.89385559 14165.20903131
0.15400001 550677.49892598 17924.55343592
0.15500001 543958.45470275 14001.49128482
0.15600001 537304.41969823 16449.57558540
0.15700001 530721.27811678 13835.90437352
0.15800001 524201.80208748 16252.87764084
0.15900001 517752.14066640 24852.10392502
0.16000001 511366.99108135 12349.51341754
0.16100001 505052.13588989 14727.32097774
0.16200001 498802.84868398 13415.30324864
0.16300001 492620.32374522 14542.15264346
0.16400001 486504.56591805 16857.38400489
0.16500001 480454.57932500 14355.98350800
0.16600001 474471.77920869 15451.17421943
0.16700001 468553.34600944 14169.05385231
0.16800001 462699.76795894 11729.43967158
0.16900001 456913.76426846 15146.69200070
0.17000001 451191.41969518 12730.36650782
0.17100001 445533.11254216 12644.23033102
0.17200001 439940.22700016 18266.31908763
0.17300001 434410.55306947 12471.92756760
0.17400001 428944.63167806 12385.77682464
0.17500001 423541.70968169 11181.50166367
0.17600001 418200.09361114 12213.53431075
0.17700001 412922.30008221 12127.52852620
0.17800001 407705.19247759 10946.88493507
0.17900001 402549.68657754 15216.37887136
0.18000001 397455.20881686 14028.18225781
0.18100001 392422.26116222 10713.12823578
0.18200001 387446.74627421 13826.03779391
0.18300001 382531.51748692 15836.80557208
0.18400001 377674.77887445 11528.52316976
0.18500001 372877.76836231 11443.61925166
0.18600001 368136.87290472 11358.86375011
0.18700001 363452.80756755 16398.99145222
0.18800001 358825.49076263 12207.24377249
0.18900001 354256.10448623 12115.55934586
0.19000001 349738.48354155 13026.01043497
0.19100001 345279.85959481 16904.90272452
0.19200001 340872.79103695 10855.09454349
0.19300001 336521.35668249 14689.15791329
0.19400001 332221.18233072 10689.21704660
0.19500001 327974.63127435 12535.19099966
0.19600001 323779.81803644 11481.23289013
0.19700001 319635.94631789 11391.82566512
0.19800001 315543.31342011 13186.55569101
0.19900001 311501.15886216 14952.05633202
0.20000001 307507.12791628 12052.74244830
0.20100001 303563.57604975 11037.57214683
0.20200001 299666.85421268 10037.34175625
0.20300001 295819.44356681 9957.28294109
0.20400001 292018.64092575 12571.40308605
0.20500001 288263.60286384 13361.01862427
0.20600001 284554.71051923 13253.13626888
0.20700001 280891.84245191 13145.73884814
0.20800001 277272.23721254 8692.48504751
0.20900001 273699.27139707 11207.98569353
0.21000001 270167.77945933 10260.97274893
0.21100001 266679.74515319 9328.45792645
0.21200001 263233.92410419 9251.35669999
0.21300001 259829.10097081 10842.66889610
0.21400001 256466.49860170 8271.04497093
0.21500001 253145.21801520 11482.66763204
0.21600001 249862.74765073 9759.63938466
0.21700001 246620.22686817 9677.37815985
0.21800001 243416.75603346 9595.48897652
0.21900001 240250.71913825 7928.27410642
0.22000001 237122.34112609 10218.78777400
0.22100001 234032.78505481 10131.27974406
0.22200001 230979.84830751 9271.53154946
0.22300001 227961.92556765 9191.42527351
0.22400001 224979.23984967 9111.65964477
0.22500001 222034.01099525 8279.64866153
0.22600001 219121.24467049 8207.18660724
0.22700001 216244.74174724 11093.35577623
0.22800001 213400.89241707 8796.38520141
0.22900001 210589.31054494 11624.53049182
0.23000001 207811.45853600 9360.86759245
0.23100001 205066.73513563 9277.21953628
0.23200001 202352.12302330 14144.41406827
0.23300001 199669.15063329 8410.06502242
0.23400001 197017.93321950 8333.85896934
0.23500001 194395.53482919 7569.76248427
0.23600001 191804.56335742 7500.51780484
0.23700001 189242.44376576 10809.52889917
0.23800001 186709.89171490 6693.54993458
0.23900001 184205.60754829 8620.82284102
0.24000001 181729.55519999 10511.23796995
0.24100001 179282.72804593 7809.55600308
0.24200001 176862.80218604 6446.64944462
0.24300001 174470.01544765 7024.16315418
0.24400001 172103.87172833 7589.78110224
0.24500001 169764.33918525 6264.30441226
0.24600001 167450.74119008 9306.07538186
0.24700001 165163.50080609 8601.71552889
0.24800001 162901.48443787 7301.24487790
0.24900001 160663.75382826 7832.35836966
0.25000001 158451.97094084 5965.71698815
0.25100001 156263.38091874 7088.10729380
0.25200001 154100.55976835 6432.92817187
0.25300001 151961.50806175 5789.73373107
0.25400001 149845.32370828 6877.90068361
0.25500001 147752.37811206 6241.06074673
0.25600001 145683.08466567 7862.51645140
0.25700001 143635.80092531 6670.44691057
0.25800001 141611.73142859 7152.10083420
0.25900001 139609.87506717 7622.69953933
0.26000001 137630.12886532 8082.32970004
0.26100001 135671.06610761 6398.24778038
0.26200001 133734.91231458 5803.42679449
0.26300001 131819.11431206 5220.03717376
0.26400001 129924.51043643 8263.19925476
0.26500001 128051.59828904 6131.11081620
0.26600001 126198.18670706 7581.35642517
0.26700001 124366.25505504 6499.38079673
0.26800001 122555.05252221 5439.60626361
0.26900001 120762.28010285 8314.48337854
0.27000001 118990.68238541 5320.66861465
0.27100001 117238.04461319 7653.29991452
0.27200001 115506.46910211 5202.98914693
0.27300001 113793.36640633 7015.36137095
0.27400001 112097.58573398 4624.02563036
0.27500001 110423.82612279 5943.01060318
0.27600001 108766.64354989 5423.10510405
0.27700001 107129.55346270 4914.03284990
0.27800001 105510.01515814 5740.27264635
0.27900001 103910.40861522 6109.93231574
0.28000001 102327.42139792 5175.72121927
0.28100001 100763.58757013 5114.75994714
0.28200001 99218.29695762  5054.18028623
0.28300001 97690.20660221  4577.76329805
0.28400001 96179.64007586  4522.84778864
0.28500001 94687.41142856  4874.50817106
0.28600001 93212.27304359  5617.90396224
0.28700001 91754.56673435  4756.55696465
0.28800001 90313.46694896  4306.59787531
0.28900001 88891.51354461  3866.78102222
0.29000001 87484.94994346  3818.71824579
0.29100001 86096.16908622  4902.31609982
0.29200001 84724.30483118  4095.99671095
0.29300001 83369.09895416  4044.23518170
0.29400001 82029.85974374  5807.71434477
0.29500001 80708.38065766  3941.79749791
0.29600001 79402.73617825  3537.39206419
0.29700001 78113.35948303  4888.33426785
0.29800001 76840.28102220  3446.28676699
0.29900001 75583.92591797  4421.65987552
0.30000001 74342.87170230  4027.89697951
0.30100001 73119.12613232  3643.52622766
0.30200001 71909.23229925  3595.10223900
0.30300001 70717.10037623  4837.04989473
0.30400001 69540.37055847  4135.91373477
0.30500001 68378.87128739  4394.02647695
0.30600001 67232.14260407  4024.85240754
0.30700001 66102.15506288  3053.91970849
0.30800001 64986.79093143  4518.20685342
0.30900001 63887.23509399  4159.05920153
0.31000001 62803.05048023  4101.66742106
0.31100001 61733.02215107  3466.92668815
0.31200001 60678.80568484  2848.87006178
0.31300001 59638.81513378  3089.88715838
0.31400001 58614.67061295  2769.54331759
0.31500001 57604.65924010  3822.64536816
0.31600002 56609.65782377  3230.14722836
0.31700002 55629.18535037  3714.91717359
0.31800002 54663.09348332  2877.19206173
0.31900002 53711.68002287  3867.24114476
0.32000002 52774.71948956  2795.21315012
0.32100002 51851.35919261  3255.74699786
0.32200002 50943.35037415  2715.02598675
0.32300002 50047.98460610  2918.79860044
0.32400002 49166.91151614  2876.26445989
0.32500002 48299.80718815  2598.04675167
0.32600002 47446.81550389  3025.44633387
0.32700002 46606.88513671  2293.05885731
0.32800002 45781.58523483  2937.11773982
0.32900002 44968.87814930  2671.15148856
0.33000002 44170.49034959  3070.29092959
0.33100002 43382.92536186  2376.51676386
0.33200002 42611.88235822  2341.30998704
0.33300002 41852.35478760  2096.80307415
0.33400002 41106.10404812  2478.69819148
0.33500002 40372.09243770  2441.70426626
0.33600002 39651.68183073  2806.14965605
0.33700002 38943.06393258  2764.17880884
0.33800002 38247.98483389  2139.40113300
0.33900002 37564.55260748  2490.52995582
0.34000002 36893.99408107  2075.84067528
0.34100002 36235.35385322  2416.53586291
0.34200002 35589.44049848  2563.50752051
0.34300002 34954.70032071  2344.76140856
0.34400002 34333.06468575  2309.75703612
0.34500002 33722.49713290  1925.21745250
0.34600002 33124.55835574  1724.13334407
0.34700002 32536.61587691  2038.09371506
0.34800002 31961.54909768  1840.50589196
0.34900002 31397.36047639  2307.70610431
0.35000002 30844.43939029  1786.35579189
0.35100002 30303.37123782  1760.01988485
0.35200002 29771.86771529  1576.42047019
0.35300002 29251.98630848  2329.92081982
0.35400002 28743.10661522  1530.57049975
0.35500002 28244.92658155  1960.76289616
0.35600002 27756.43499152  1486.35716420
0.35700002 27279.00972015  1611.37118049
0.35800002 26812.33137763  1732.61293569
0.35900002 26355.66753792  1423.20611446
0.36000002 25909.28738933  2385.07956360
0.36100002 25472.23878751  1383.14263168
0.36200002 25045.94551170  1500.12697748
0.36300002 24628.57135202  2689.44011903
0.36400002 24220.77665778  1326.08758483
0.36500002 23822.57441171  1438.64533687
0.36600002 23433.80302692  1677.04019306
0.36700002 23053.83272551  1399.82878940
0.36800002 22684.51685587  1883.38210117
0.36900002 22323.03911904  1238.92872979
0.37000002 21970.15812069  1833.95903600
0.37100002 21625.92605153  1568.74475009
0.37200002 21291.14979039  1667.73584208
0.37300002 20964.41991270  1411.32481538
0.37400002 20646.01977158  1161.33866717
0.37500002 20336.28720416  1835.14664424
0.37600002 20034.97764764  1812.76486343
0.37700002 19740.92749609  2126.69021990
0.37800002 19454.73778591  1106.00189552
0.37900002 19177.02944315  1311.70887605
0.38000002 18906.93529949  1404.69082462
0.38100002 18643.40641171  1281.92068560
0.38200002 18388.27477977  1584.60965421
0.38300002 18139.79586837  1044.85229152
0.38400002 17899.27734764  1343.78831053
0.38500002 17664.82061615  1329.63111077
0.38600002 17438.16483635  1214.74262005
0.38700002 17217.95072610  1202.50173568
0.38800002 17004.45139554  1190.65174312
0.38900002 16797.05536850  1572.20445698
0.39000002 16597.33505728  1168.12049667
0.39100002 16402.98055627  1350.29342336
0.39200002 16215.31210621  1147.07123274
0.39300002 16033.60194399  1516.13747165
0.39400002 15858.93109189  939.64171171
0.39500002 15689.01662819  1025.12039505
0.39600002 15525.15917233  1016.97559977
0.39700002 15366.82259926  1009.13928790
0.39800002 15214.53142144  1092.70769846
0.39900002 15067.34473442  994.44479959
0.40000002 14925.34742955  897.75969042
0.40100002 14789.06570441  1070.13684507
0.40200002 14657.97596585  1151.89709585
0.40300002 14531.32479794  968.65815693
0.40400002 14410.03403644  875.40960919
0.40500002 14293.90650424  1218.69852629
0.40600002 14182.20910027  865.82390659
0.40700002 14075.19694722  947.54230338
0.40800002 13972.74392701  1200.11903275
0.40900002 13874.59073171  853.28737043
0.41000002 13781.29911728  934.57884392
0.41100002 13691.83936626  1269.23356939
0.41200002 13606.32932258  927.20335562
0.41300002 13525.60899160  923.93439399
0.41400002 13448.20692365  1004.58110480
0.41500002 13375.00645308  834.60044222
0.41600002 13305.09795402  915.45730810
0.41700002 13239.17344297  1162.13469989
0.41800002 13177.90043543  993.87729793
0.41900002 13118.05554762  1074.36880026
0.42000002 13062.75628195  1072.38702778
0.42100002 13011.53845109  988.35650758
0.42200002 12963.13114890  822.51071037
0.42300002 12917.46532079  1232.32625000
0.42400002 12874.89015281  820.77428613
0.42500002 12835.76067298  984.24617504
0.42600002 12798.56872881  901.72320252
0.42700002 12765.71733489  1147.38272843
0.42800002 12734.50000892  1475.03720593
0.42900002 12707.25589746  901.57984865
0.43000002 12681.93293781  1147.84180459
0.43100002 12658.29434506  902.28326367
0.43200002 12638.23171210  902.93850746
0.43300002 12620.46259108  1314.54744578
0.43400002 12604.82434509  1069.20427574
0.43500002 12591.48050274  905.83115029
0.43600002 12580.61226329  1072.05692482
0.43700002 12571.33611414  1156.31155058
0.43800002 12564.07107093  827.34411923
0.43900002 12559.55632550  1077.60998380
0.44000002 12556.42358786  1079.78969761
0.44100002 12555.48752388  1165.40040719
0.44200002 12556.17279088  1001.22926579
0.44300002 12558.86671466  1087.34673169
0.44400002 12563.29559645  922.46002289
0.44500002 12568.29314221  1093.06450638
0.44600002 12575.43819928  843.18317122
0.44700002 12584.91596312  930.27703208
0.44800002 12594.39602251  1272.34891847
0.44900002 12607.10925597  1021.17589813
0.45000002 12620.16475896  1366.00669825
0.45100002 12634.38700991  1113.59492383
0.45200002 12650.17146278  1031.49502996
0.45300002 12666.72984867  948.86477793
0.45400002 12685.08393424  1212.05982736
0.45500002 12704.25723682  1129.66260704
0.45600002 12724.39210641  1395.61139237
0.45700002 12745.55928202  963.18196059
0.45800002 12767.39963073  879.03550624
0.45900002 12790.20126230  970.77632182
0.46000002 12814.65762524  1063.36034014
0.46100002 12838.91876144  1156.65824604
0.46200002 12864.60483919  982.79153327
0.46300002 12891.24501026  986.95376476
0.46400002 12917.65740421  1081.20797598
0.46500002 12945.43029052  1176.35130625
0.46600002 12973.41376749  999.66644523
0.46700002 13001.85050176  912.72994848
0.46800002 13031.80077726  1466.85956501
0.46900002 13061.13901005  1012.89137824
0.47000002 13091.27258131  1017.38829688
0.47100002 13122.01623853  1207.75043184
0.47200002 13153.18737885  1306.50616427
0.47300002 13184.86142278  1031.18806075
0.47400002 13216.20468688  1600.81286857
0.47500002 13248.27405247  1135.11217462
0.47600002 13280.93444695  950.25090472
0.47700002 13313.17242848  1145.46541004
0.47800002 13345.69413259  1342.44343643
