# SAXS profile: number of points = 501, q_min = 0, q_max = 0.5, delta_q = 0.001
#    q    intensity    error
0.00000000 1646666.22097350 395.19989303
0.00100000 1646580.77201477 592.76909200
0.00200000 1646324.40481073 1111.26900844
0.00300000 1645897.32359219 1481.30764400
0.00400000 1645299.40140389 1727.56443712
0.00500000 1644531.30766318 2516.13300032
0.00600000 1643592.85073003 1898.34981988
0.00700000 1642484.78660819 2365.17819101
0.00800000 1641206.92647357 2658.75533314
0.00900000 1639760.63062048 3443.49747150
0.01000000 1638145.27282106 3513.82176193
0.01100000 1636362.44132193 3829.08827941
0.01200000 1634412.05077911 3505.81400263
0.01300000 1632295.41518361 5484.51283691
0.01400000 1630012.71895568 5134.54029233
0.01500000 1627565.38388214 3906.15709525
0.01600000 1624953.24260125 6215.44643080
0.01700000 1622178.33620635 4817.86987466
0.01800000 1619241.24282885 6922.25662458
0.01900000 1616142.90537753 4848.42893491
0.02000000 1612884.00402771 6604.76029526
0.02100000 1609467.33910164 6904.61519779
0.02200000 1605891.49033076 7756.45625069
0.02300000 1602159.61630152 8074.88483372
0.02400000 1598272.24019632 7192.22540883
0.02500000 1594231.72247407 9326.25600241
0.02600000 1590038.35668301 8371.55233084
0.02700000 1585694.33680663 7325.90817158
0.02800000 1581199.79371995 9629.50718536
0.02900000 1576558.20376626 10641.76836403
0.03000000 1571770.24430727 8770.47836637
0.03100000 1566837.33449977 7520.81955166
0.03200000 1561760.81483391 8503.78802844
0.03300000 1556544.74526440 8732.21642349
0.03400000 1551187.63060761 13844.35024196
0.03500000 1545693.44531682 10016.09398818
0.03600000 1540062.95215640 9402.08475742
0.03700000 1534299.03192735 11369.15635238
0.03800000 1528403.19837679 11623.50686159
0.03900000 1522377.92714463 9134.26798588
0.04000000 1516223.28626857 10257.25100692
0.04100000 1509943.49013821 12366.43775762
0.04200000 1503539.91927058 11637.39951505
0.04300000 1497014.25560930 11856.35345477
0.04400000 1490369.44165762 15089.99129759
0.04500000 1483607.80755531 11260.58378257
0.04600000 1476729.86013798 13534.22979733
0.04700000 1469739.59458725 13756.76324514
0.04800000 1462638.70979939 15050.55302411
0.04900000 1455429.55554161 15282.01104453
0.05000000 1448114.10440107 15509.30278034
0.05100000 1440696.20305039 11237.43090728
0.05200000 1433175.09623076 15951.23956440
0.05300000 1425556.06328703 13856.40558111
0.05400000 1417839.98630923 17545.77064880
0.05500000 1410030.76419397 13028.68486893
0.05600000 1402128.75408816 13187.02154756
0.05700000 1394139.14902705 12129.01116270
0.05800000 1386061.35228732 14719.97224860
0.05900000 1377899.03250359 14881.31024608
0.06000000 1369656.10354617 20051.76629271
0.06100000 1361333.76633793 17724.56646601
0.06200000 1352934.83716930 16620.80525154
0.06300000 1344462.53256251 12906.84091606
0.06400000 1335916.30272694 16932.73992895
0.06500000 1327302.42144546 15768.35350438
0.06600000 1318622.30872788 13252.15482276
0.06700000 1309876.69051101 16032.89144218
0.06800000 1301070.19672877 17505.90031642
0.06900000 1292206.16440893 13568.16536154
0.07000000 1283284.35419049 15033.67691335
0.07100000 1274308.78030458 16515.04256627
0.07200000 1265281.54662057 16625.80030146
0.07300000 1256206.04399476 15338.27651586
0.07400000 1247085.16252213 14029.70873586
0.07500000 1237919.30837769 16934.73693238
0.07600000 1228711.89491139 15610.78535669
0.07700000 1219466.84085745 18548.09151913
0.07800000 1210185.08576752 18642.90212053
0.07900000 1200868.56347305 14410.42343758
0.08000000 1191522.59501982 14477.00020862
0.08100000 1182147.62561843 15994.45812505
0.08200000 1172744.95863573 16060.74296217
0.08300000 1163318.58730069 16123.59637670
0.08400000 1153870.96933978 16183.04110460
0.08500000 1144403.97165780 17715.37431291
0.08600000 1134920.63499908 23697.14397140
0.08700000 1125422.53684515 17826.69382073
0.08800000 1115911.58918635 16387.16245680
0.08900000 1106391.32835763 14936.28363438
0.09000000 1096863.44592405 23955.49878430
0.09100000 1087330.07469079 18006.18688283
0.09200000 1077793.04840795 15035.21373175
0.09300000 1068256.65220273 18074.90340465
0.09400000 1058719.53218496 15086.75404268
0.09500000 1049185.89920289 19640.76095625
0.09600000 1039657.10938002 25715.91980936
0.09700000 1030138.65977618 21200.25461488
0.09800000 1020628.49482718 15156.33386080
0.09900000 1011130.91358772 18200.35730040
0.10000000 1001645.45798340 24279.88704333
0.10100000 992175.99836425 15180.29348893
0.10200000 982724.17520301 18219.70706525
0.10300000 973291.64245838 19738.35543756
0.10400000 963880.58577877 24289.79190434
0.10500000 954494.56776904 19729.40364404
0.10600001 945130.21480187 19720.14285974
0.10700001 935794.78212183 16675.86380214
0.10800001 926486.22025473 15148.05041406
0.10900001 917208.98756152 18160.73880847
0.11000001 907963.57127610 19652.87242532
0.11100001 898750.70875597 15099.01261786
0.11200001 889573.71621029 18093.93023953
0.11300001 880432.32678167 16560.93284647
0.11400001 871329.53962157 19539.56584602
0.11500001 862266.35271211 18004.12229241
0.11600001 853244.36633033 23959.10293483
0.11700001 844264.71108289 20920.88052590
0.11800001 835328.03784677 20874.84864896
0.11900001 826435.90281450 17851.01634161
0.12000001 817589.71715236 17807.10487838
0.12100001 808792.49094041 25161.53557847
0.12200001 800043.38043074 19189.04138365
0.12300001 791344.44459581 16190.90809926
0.12400001 782696.14066702 14675.55332898
0.12500001 774098.88731804 21945.70448956
0.12600001 765556.71855793 17500.62741092
0.12700001 757067.56672518 17442.83755937
0.12800001 748633.48405839 15934.66445917
0.12900001 740255.58657033 18765.48000401
0.13000001 731934.80289503 27326.78715413
0.13100001 723670.93984597 24358.76498343
0.13200001 715465.41636086 15700.88930218
0.13300001 707320.40401241 14217.14079089
0.13400001 699234.43578858 18407.34738996
0.13500001 691209.88834558 15510.75062578
0.13600001 683246.06966713 21061.06109053
0.13700001 675345.10707306 15377.60881316
0.13800001 667505.57966556 15309.24119155
0.13900001 659730.20738040 18010.63551083
0.14000001 652018.27042751 20685.28060484
0.14100001 644370.27117004 16470.10490789
0.14200001 636786.76361516 17756.79974091
0.14300001 629269.39240259 17669.88537211
0.14400001 621814.91599970 16229.37007313
0.14500001 614428.17542816 14801.57544429
0.14600001 607106.82653290 17402.71800353
0.14700001 599853.67893807 15980.10276080
0.14800001 592664.12067957 19869.06558318
0.14900001 585542.82341798 14492.18556335
0.15000001 578488.01229794 15723.30491613
0.15100001 571500.61596516 16939.27905649
0.15200001 564580.64251893 14252.83899294
0.15300001 557729.07348601 18036.95908768
0.15400001 550942.42414781 15371.29435911
0.15500001 544225.24334517 12734.87129527
0.15600001 537572.86183018 15191.80979230
0.15700001 530991.50622724 16359.84907899
0.15800001 524473.76599630 13759.56990035
0.15900001 518025.70074375 14919.14088561
0.16000001 511642.36255428 13591.78000282
0.16100001 505329.27986303 23331.05395260
0.16200001 499081.56370026 14643.05377021
0.16300001 492900.64716939 13337.89214206
0.16400001 486786.40620963 14457.55694696
0.16500001 480738.02669450 19152.60388773
0.16600001 474756.74567414 17838.98556094
0.16700001 468839.75694962 14177.71491955
0.16800001 462987.84732870 11736.74248395
0.16900001 457203.29870709 13990.42160104
0.17000001 451482.28760639 20844.93820308
0.17100001 445825.50326580 14952.98808563
0.17200001 440233.89305459 13708.88407709
0.17300001 434705.67825223 15884.14623346
0.17400001 429241.16695621 15774.61363061
0.17500001 423839.52969701 13427.23693494
0.17600001 418499.27769358 13333.38761704
0.17700001 413222.82800295 11033.05002878
0.17800001 408006.73048075 13145.97747700
0.17900001 402852.44545552 10877.01654106
0.18000001 397759.22002890 10799.16333388
0.18100001 392727.55757143 16082.19424222
0.18200001 387753.09696769 13836.96991892
0.18300001 382839.00644287 17962.80703085
0.18400001 377983.30187990 15733.55568401
0.18500001 373187.36879695 12494.31369758
0.18600001 368447.42755218 12401.94099732
0.18700001 363764.49534493 10258.15925337
0.18800001 359138.18209720 12217.88153219
0.18900001 354569.68481429 11115.76014412
0.19000001 350052.97770236 11031.92011353
0.19100001 345595.35265339 9953.14662670
0.19200001 341188.90221982 9877.41918599
0.19300001 336838.40656927 12742.59752264
0.19400001 332539.02891908 15562.82728882
0.19500001 328293.32532279 12547.37148676
0.19600001 324099.21058059 9577.13212524
0.19700001 319956.08478816 13303.77463420
0.19800001 315864.21305988 12257.11136704
0.19900001 311822.60192598 10290.14634987
0.20000001 307829.23809523 11137.26236065
0.20100001 303886.38775923 9207.75798428
0.20200001 299990.22298222 15528.99462663
0.20300001 296143.36706225 12686.78244458
0.20400001 292342.88820607 10787.45308468
0.20500001 288588.47025184 8917.38415228
0.20600001 284880.17293371 8845.52978770
0.20700001 281217.63446688 11406.18779314
0.20800001 277598.48839693 14794.61213846
0.20900001 274025.84000888 11221.35867881
0.21000001 270494.67966180 10273.38841920
0.21100001 267007.15613345 11887.15915301
0.21200001 263561.48240960 10947.02668940
0.21300001 260157.05027218 8351.04170854
0.21400001 256794.61462430 8281.62671316
0.21500001 253473.61947452 9033.80022517
0.21600001 250191.35884705 14658.71240789
0.21700001 246948.99887117 8882.75590937
0.21800001 243745.69776156 8007.04655004
0.21900001 240579.70421628 14290.43510612
0.22000001 237451.32260233 9445.81405974
0.22100001 234361.86188003 11706.37555443
0.22200001 231309.06121222 10058.47500242
0.22300001 228290.99517534 7670.57780060
0.22400001 225308.29381617 7604.15527587
0.22500001 222363.13146327 11307.16576959
0.22600001 219450.20384541 8219.50777372
0.22700001 216573.63960623 8888.18258975
0.22800001 213729.65369872 8809.93674208
0.22900001 210917.82665362 9459.66497277
0.23000001 208139.88514378 7933.25209743
0.23100001 205394.85582160 7147.74132063
0.23200001 202679.92344426 7083.66365939
0.23300001 199996.75577731 9827.84104370
0.23400001 197345.33791973 9043.35053788
0.23500001 194722.50301280 7582.49462594
0.23600001 192131.23001093 8196.31865993
0.23700001 189568.79029711 7444.36674707
0.23800001 187035.75795422 10728.37158369
0.23900001 184531.06398251 9964.67792638
0.24000001 182054.53658886 6581.27180898
0.24100001 179607.26879708 10431.59066516
0.24200001 177186.76970654 9687.68709195
0.24300001 174793.65547700 10875.66175823
0.24400001 172426.88529185 9505.03250134
0.24500001 170086.67860253 6903.81861106
0.24600001 167772.70225888 8080.77258656
0.24700001 165484.79993437 9234.05227316
0.24800001 163222.12168225 6705.98118655
0.24900001 160983.68562476 7244.26619582
0.25000001 158771.21363709 7173.28377148
0.25100001 156581.85622773 8286.31222359
0.25200001 154418.44778003 7618.23448164
0.25300001 152278.55133982 7542.35700469
0.25400001 150161.66801530 6318.05248066
0.25500001 148067.91538765 5685.80821989
0.25600001 145997.78944132 6191.03655417
0.25700001 143949.59225179 6685.01938046
0.25800001 141924.76185860 7167.91043681
0.25900001 139921.97262510 6002.65290963
0.26000001 137941.23240352 7020.51935536
0.26100001 135981.34870272 5344.06725688
0.26200001 134044.22138318 8989.67613243
0.26300001 132127.48605250 6801.92330383
0.26400001 130231.92791673 5694.39131761
0.26500001 128357.96657425 7170.07635212
0.26600001 126503.49979300 5573.11194710
0.26700001 124670.59301698 5512.93388408
0.26800001 122858.23438031 5948.79599020
0.26900001 121064.47900648 6374.04512132
0.27000001 119291.74843630 5819.05176409
0.27100001 117538.04877331 4795.55261689
0.27200001 115805.28399553 5216.44926444
0.27300001 114090.99165470 5626.96797470
0.27400001 112394.08748124 6490.75885921
0.27500001 110719.07097829 5042.14673097
0.27600001 109060.63585978 5437.76356132
0.27700001 107422.35686830 7615.17123879
0.27800001 105801.64316520 6198.91856643
0.27900001 104200.79431478 4814.07692518
0.28000001 102616.53894375 5190.34478543
0.28100001 101051.32864930 5129.36568501
0.28200001 99504.71157078  4646.37272671
0.28300001 97975.29179964  4591.12239103
0.28400001 96463.47195015  4536.19498316
0.28500001 94969.80875160  5703.88698359
0.28600001 93493.35581453  4427.37807415
0.28700001 92034.25352334  5566.23191656
0.28800001 90591.81131979  5498.01728924
0.28900001 89168.40190226  4266.70823298
0.29000001 87760.39868805  6129.18653449
0.29100001 86370.23730623  4917.92154501
0.29200001 84996.88883270  5603.42016154
0.29300001 83640.18800500  4426.23895874
0.29400001 82299.46117709  3641.75132947
0.29500001 80976.53509013  4673.96582665
0.29600001 79669.32724834  3904.19556662
0.29700001 78378.51225748  3503.51966376
0.29800001 77103.88385484  5187.16403189
0.29900001 75846.00584795  4436.99155215
0.30000001 74603.41385465  4378.84758349
0.30100001 73378.06082923  3656.42894422
0.30200001 72166.62635974  3607.97065566
0.30300001 70972.86460117  3236.36277903
0.30400001 69794.49437321  3831.71792249
0.30500001 68631.53136177  3465.20618251
0.30600001 67483.12402296  4661.39701257
0.30700001 66351.50854687  3371.98382399
0.30800001 65234.58599185  3628.34784465
0.30900001 64133.32784798  3876.85985196
0.31000001 63047.46785227  2941.16451456
0.31100001 61975.73838182  4060.65057103
0.31200001 60919.85243729  3432.22464882
0.31300001 59878.15090707  2820.26104125
0.31400001 58852.49375185  3058.85850758
0.31500001 57840.65136654  2741.64700458
0.31600002 56844.04270386  4054.40153782
0.31700002 55861.82977493  3463.99222836
0.31800002 54894.03249260  3414.68345288
0.31900002 53940.84293587  3106.99270022
0.32000002 53002.18399081  2807.26080800
0.32100002 52077.08774303  3772.98518563
0.32200002 51167.32340925  3470.67971119
0.32300002 50270.11962038  3176.06630801
0.32400002 49387.34093743  2889.15958164
0.32500002 48518.43732408  3084.31720674
0.32600002 47663.76470250  2571.69854630
0.32700002 46822.09262433  2994.74118606
0.32800002 45994.94011525  2496.83544239
0.32900002 45180.42890628  3578.29013882
0.33000002 44380.31879024  3525.57269165
0.33100002 43590.94710751  2170.82926875
0.33200002 42818.08510417  2138.76345223
0.33300002 42056.70604312  2528.44928705
0.33400002 41308.73188709  2283.34026319
0.33500002 40572.81969239  2044.87020933
0.33600002 39850.66634621  2618.78666296
0.33700002 39140.20943767  1984.40871247
0.33800002 38443.31674366  2150.32702389
0.33900002 37758.05589375  2310.79313013
0.34000002 37085.59429846  2655.69953348
0.34100002 36425.17117073  2616.05591737
0.34200002 35777.42729447  2208.89846577
0.34300002 35140.81791861  1813.26629048
0.34400002 34517.33555717  2322.15385959
0.34500002 33904.94466715  1935.63338272
0.34600002 33305.15978962  2426.94710881
0.34700002 32715.30117556  1707.73880224
0.34800002 32138.47409036  1850.69411814
0.34900002 31572.37402476  1989.05965777
0.35000002 31017.57073189  1959.69021166
0.35100002 30474.68809607  2413.59541152
0.35200002 29941.33195388  2378.09040307
0.35300002 29419.52849744  2968.13637069
0.35400002 28908.88084693  1847.27757361
0.35500002 28408.84202133  2123.84513011
0.35600002 27918.42795658  1644.53507667
0.35700002 27439.13539218  1768.17796842
0.35800002 26970.62767006  1597.60520571
0.35900002 26512.08417961  1574.81787486
0.36000002 26063.83656934  1975.89954391
0.36100002 25624.87694166  1530.57397222
0.36200002 25196.77142365  1509.16069590
0.36300002 24777.49800818  1623.42174639
0.36400002 24367.84896648  1600.96775293
0.36500002 23967.65982507  1710.57196274
0.36600002 23577.11167614  1427.71206518
0.36700002 23195.28944410  1408.41804176
0.36800002 22824.05855332  1263.31170077
0.36900002 22460.69061975  1869.85258267
0.37000002 22105.93564860  1476.23445254
0.37100002 21759.89064252  1942.72312859
0.37200002 21423.29916151  1797.95046730
0.37300002 21094.67202078  1301.75227207
0.37400002 20774.39643186  1752.83978197
0.37500002 20462.82359638  1384.92396661
0.37600002 20159.56166746  1254.02559293
0.37700002 19863.69490133  1351.52586511
0.37800002 19575.68862909  1446.74133667
0.37900002 19296.12645461  1319.85511202
0.38000002 19024.16088951  1195.95393097
0.38100002 18758.73044420  1289.85036645
0.38200002 18501.80064638  1169.22134724
0.38300002 18251.40341302  1366.66515231
0.38400002 18009.08997648  1456.03499358
0.38500002 17772.72817083  1029.04100984
0.38600002 17544.30439536  1222.13630208
0.38700002 17322.22041009  1108.96860319
0.38800002 17106.83086045  1197.82035360
0.38900002 16897.65233356  1285.06652085
0.39000002 16696.07665180  1272.99242463
0.39100002 16499.81557274  1261.24596213
0.39200002 16310.32582832  1057.64312844
0.39300002 16126.74965129  1334.32732936
0.39400002 15950.30613229  1417.58352467
0.39500002 15778.56219774  1124.69596674
0.39600002 15612.87426444  929.74670650
0.39700002 15452.72014994  1014.78018032
0.39800002 15298.55207013  1648.11309260
0.39900002 15149.55037974  908.97306585
0.40000002 15005.77364206  992.85706007
0.40100002 14867.65469361  1255.12746870
0.40200002 14734.76661966  1068.86002123
0.40300002 14606.33539483  1239.20155361
0.40400002 14483.29198317  967.84603263
0.40500002 14365.23563786  874.84289180
0.40600002 14251.82062700  1044.08842860
0.40700002 14142.91819537  952.10129802
0.40800002 14038.75732982  861.27780299
0.40900002 13938.82749875  1628.75207040
0.41000002 13843.67541398  938.80889268
0.41100002 13752.46614090  1019.88293733
0.41200002 13665.16482659  1100.52410145
0.41300002 13582.57496175  927.82573960
0.41400002 13503.45866947  1008.70841041
0.41500002 13428.53734757  1173.11707827
0.41600002 13356.82563004  1002.56337930
0.41700002 13289.13571788  1249.84327349
0.41800002 13226.07225142  1330.01388862
0.41900002 13164.48121115  995.23482672
0.42000002 13107.54214567  993.28959087
0.42100002 13054.40643637  908.97836324
0.42200002 13004.34316632  990.15073560
0.42300002 12956.96087357  988.87530073
0.42400002 12912.57414691  823.17664087
0.42500002 12871.72112172  904.75332052
0.42600002 12832.81592830  904.13608907
0.42700002 12798.19700970  1232.46643044
0.42800002 12765.25160789  1150.02157185
0.42900002 12736.26089959  903.63775365
0.43000002 12709.21949368  821.65107920
0.43100002 12683.87290197  904.10650330
0.43200002 12662.11331003  1315.84687753
0.43300002 12642.55835357  987.63670538
0.43400002 12625.28238993  823.79971498
0.43500002 12610.21393061  989.64963617
0.43600002 12597.62551412  825.77439158
0.43700002 12586.66388128  992.33262743
0.43800002 12577.73119668  911.06800241
0.43900002 12571.51258560  829.71986997
0.44000002 12566.66875390  1080.67073070
0.44100002 12564.07136601  916.29776815
0.44200002 12563.13708805  918.30254897
0.44300002 12564.07435569  1004.12087009
0.44400002 12566.93542635  1006.61157535
0.44500002 12570.25044424  925.04477403
0.44600002 12575.68410646  927.51962523
0.44700002 12583.57506804  1437.54768390
0.44800002 12591.38173159  1017.63551977
0.44900002 12602.36622163  935.72573630
0.45000002 12613.85797304  1023.99303878
0.45100002 12626.43241058  1198.50102121
0.45200002 12640.53315487  1030.70912230
0.45300002 12655.52133581  861.84104381
0.45400002 12672.17992520  864.87632088
0.45500002 12689.73475896  1128.37126824
0.45600002 12708.27716850  1132.49817354
0.45700002 12727.80296162  874.40010490
0.45800002 12748.00099494  965.46990111
0.45900002 12769.25753743  969.18669302
0.46000002 12792.10557129  973.03155640
0.46100002 12814.68932835  1332.08701882
0.46200002 12838.88995049  1159.15923412
0.46300002 12863.86202761  1163.92229142
0.46400002 12888.71081215  1078.78514611
0.46500002 12914.87223336  902.74961190
0.46600002 12941.33021310  1359.81033659
0.46700002 12968.22207832  910.36923305
0.46800002 12996.58885468  914.31006926
0.46900002 13024.36166958  918.21754123
0.47000002 13052.92533846  1106.62706265
0.47100002 13082.09496597  1111.45484099
0.47200002 13111.76139780  1302.39132137
0.47300002 13141.88382122  1121.26558077
0.47400002 13171.70510111  1407.72604940
0.47500002 13202.20107526  1036.90092160
0.47600002 13233.38590162  946.84880614
0.47700002 13264.06866932  1236.34389927
0.47800002 13295.11574439  1337.35575612
