# SAXS profile: number of points = 501, q_min = 0, q_max = 0.5, delta_q = 0.001
#    q    intensity    error
0.00000000 1664650.74656091 274.66737318
0.00100000 1664564.92280282 549.30643757
0.00200000 1664307.43234331 1048.51371558
0.00300000 1663878.47314549 1098.15983140
0.00400000 1663277.93574497 1621.69604897
0.00500000 1662506.46167487 1795.50704968
0.00600000 1661563.89974147 2442.49903206
0.00700000 1660450.96126083 2590.30360722
0.00800000 1659167.48075387 2687.85143230
0.00900000 1657714.84673374 2983.88685168
0.01000000 1656092.37933072 2732.55254389
0.01100000 1654301.69032410 3573.29180668
0.01200000 1652342.71432467 3544.27527762
0.01300000 1650216.73910499 3812.00083546
0.01400000 1647923.94466553 4820.17775183
0.01500000 1645465.79669792 5923.67713189
0.01600000 1642842.09951230 5027.09704924
0.01700000 1640054.86798834 4428.14834221
0.01800000 1637104.69428569 5132.32344753
0.01900000 1633992.59681582 5392.17581280
0.02000000 1630719.14266958 6677.79519131
0.02100000 1627287.27246271 5907.05306686
0.02200000 1623695.43275130 8402.62424624
0.02300000 1619946.82351869 7581.35147916
0.02400000 1616042.00050962 8484.22088954
0.02500000 1611983.30261141 7544.08220076
0.02600000 1607771.01794704 7162.62021256
0.02700000 1603407.37021688 7407.74238968
0.02800000 1598892.45148991 8346.21897953
0.02900000 1594229.81614303 12195.85865346
0.03000000 1589420.04153687 9608.04459273
0.03100000 1584464.61222218 9887.05963520
0.03200000 1579364.87211792 11726.78471559
0.03300000 1574124.88975674 12042.05596178
0.03400000 1568743.09129873 10706.67209212
0.03500000 1563223.52805279 11817.97041781
0.03600000 1557567.01478958 9508.94706473
0.03700000 1551776.31819436 10614.15050733
0.03800000 1545852.98207588 11756.21247276
0.03900000 1539799.63409228 10162.67805564
0.04000000 1533616.07758881 12261.26110850
0.04100000 1527306.74136643 11546.43950010
0.04200000 1520872.84967147 13733.48246967
0.04300000 1514316.28965900 12992.83436838
0.04400000 1507639.93646788 11194.22704816
0.04500000 1500845.95674947 10355.83758275
0.04600000 1493934.93973381 15798.36272210
0.04700000 1486911.04367692 14988.06401733
0.04800000 1479775.82274919 11963.98808359
0.04900000 1472531.78544224 12148.38779538
0.05000000 1465180.67414280 12329.49594705
0.05100000 1457726.31103394 12507.29233131
0.05200000 1450168.34499422 16140.37443195
0.05300000 1442511.63818899 19863.38618385
0.05400000 1434757.25819380 13020.42272530
0.05500000 1426909.08481697 14383.24424592
0.05600000 1418967.70135013 15771.82673649
0.05700000 1410937.84826072 14730.19182343
0.05800000 1402819.19660293 13656.44551658
0.05900000 1394615.32470233 21337.61546454
0.06000000 1386330.29635821 15221.90736516
0.06100000 1377965.26473808 12815.07756093
0.06200000 1369523.04735354 15530.39208293
0.06300000 1361006.81936609 13065.66607680
0.06400000 1352416.08099611 15823.26888766
0.06500000 1343756.93646429 17294.15258128
0.06600000 1335031.00615047 14758.76846353
0.06700000 1326239.05113197 21644.22232740
0.06800000 1317385.80795957 17725.42687581
0.06900000 1308474.17091857 16486.77532547
0.07000000 1299504.15551394 13839.71990432
0.07100000 1290479.93580366 15330.90235541
0.07200000 1281403.38972629 21047.05166224
0.07300000 1272278.09764064 22595.66007283
0.07400000 1263106.94047393 24156.92136866
0.07500000 1253890.02650797 22870.95515552
0.07600000 1244631.22172593 15813.04041335
0.07700000 1235334.09581142 24570.79631778
0.07800000 1225999.70005819 18886.52626510
0.07900000 1216630.26595178 21899.34581429
0.08000000 1207230.53310914 16134.63683190
0.08100000 1197801.45429159 17679.55029484
0.08200000 1188344.08863802 17753.86151736
0.08300000 1178862.65882579 16339.03721815
0.08400000 1169359.25117128 26836.79607406
0.08500000 1159836.04690741 16458.07427824
0.08600000 1150296.00410904 22517.04533764
0.08700000 1140740.70273170 15057.77798314
0.08800000 1131172.17237918 16611.26413152
0.08900000 1121593.71987637 19683.97070838
0.09000000 1112007.24782344 19732.56953957
0.09100000 1102414.94585168 15213.32696749
0.09200000 1092818.33964064 18293.77986515
0.09300000 1083221.94635348 18328.11619358
0.09400000 1073624.37694799 16829.06289958
0.09500000 1064029.87889084 15322.03097620
0.09600000 1054439.83455261 19944.73040812
0.09700000 1044859.60296342 21503.21163991
0.09800000 1035287.22795067 19986.22087529
0.09900000 1025727.32701460 21540.27488018
0.10000000 1016178.81324987 23092.66461709
0.10100000 1006645.94900962 20022.18886748
0.10200000 997130.50675601 18486.80046481
0.10300000 987633.65655947 18488.50292051
0.10400000 978158.22974114 16946.59212752
0.10500000 968707.36470786 20023.18217059
0.10600001 959277.67114610 15396.40734635
0.10700001 949876.62947268 21543.20297021
0.10800001 940502.37912452 16914.93608460
0.10900001 931158.71505663 18436.94342587
0.11000001 921846.62018624 15348.74694856
0.11100001 912566.91005638 16864.23729170
0.11200001 903322.47384252 16842.44831769
0.11300001 894113.62810058 18347.21251243
0.11400001 884942.76227638 15265.26336802
0.11500001 875811.53575671 16763.03358372
0.11600001 866720.96662602 19774.23978477
0.11700001 857672.64228642 21253.12907677
0.11800001 848666.86648289 15148.70428020
0.11900001 839705.41547804 16626.16800958
0.12000001 830789.69345426 16586.71701113
0.12100001 821922.53893148 24065.89307361
0.12200001 813103.16395130 22502.63112248
0.12300001 804334.16257734 17952.73935456
0.12400001 795615.24923612 14917.78662607
0.12500001 786947.11182707 16360.63122581
0.12600001 778333.92022675 19275.44044274
0.12700001 769773.70273959 14779.65578911
0.12800001 761268.02481482 20622.75176417
0.12900001 752818.59471859 14679.96328891
0.13000001 744426.07103690 23404.75677658
0.13100001 736090.09047412 20404.41826976
0.13200001 727812.41341194 18875.81583165
0.13300001 719595.16656476 23142.18164771
0.13400001 711436.70909201 20169.23165365
0.13500001 703339.53400168 20087.37803817
0.13600001 695302.90934032 14288.47546066
0.13700001 687328.88725129 17073.25036438
0.13800001 679416.24581349 15582.41233253
0.13900001 671567.93740491 23974.97649597
0.14000001 663782.66661153 19654.60568529
0.14100001 656061.37280116 23755.98342953
0.14200001 648404.35304746 19471.58364040
0.14300001 640813.35109920 15225.72594028
0.14400001 633285.37226176 13773.95749641
0.14500001 625825.01033530 15076.12521015
0.14600001 618429.86932760 16363.65511435
0.14700001 611102.83821389 16279.78037804
0.14800001 603839.47176671 16194.97539684
0.14900001 596644.32951776 18794.29726654
0.15000001 589515.44647011 13352.52549256
0.15100001 582454.12758016 21247.92757671
0.15200001 575460.11614303 22451.57749074
0.15300001 568534.57113335 15759.77905551
0.15400001 561673.86225858 14364.80970515
0.15500001 554882.81935076 19476.38787836
0.15600001 548156.41692191 14199.99265053
0.15700001 541501.04710903 14116.93296441
0.15800001 534909.37372565 15309.10699860
0.15900001 528387.47436157 12681.29998324
0.16000001 521930.29104554 16386.00226083
0.16100001 515543.22849954 15033.24125268
0.16200001 509221.79844541 14940.56827167
0.16300001 502967.17233120 17322.19023283
0.16400001 496779.31566125 12295.28864307
0.16500001 490657.38058785 17104.31709481
0.16600001 484602.60507565 13353.22541331
0.16700001 478612.36269695 15679.34174225
0.16800001 472687.21942321 17973.93236723
0.16900001 466829.44447827 13094.56653592
0.17000001 461035.39133321 18920.89335375
0.17100001 455305.59005440 12921.57325592
0.17200001 449641.13457568 12835.00679257
0.17300001 444040.28405475 11589.45196113
0.17400001 438503.28960875 13812.85427500
0.17500001 433029.19973557 12575.16855422
0.17600001 427616.57279573 12488.54259832
0.17700001 422268.16752115 13529.47272638
0.17800001 416980.20697767 12315.51099477
0.17900001 411754.20289102 13340.83680380
0.18000001 406589.25430159 12142.78865328
0.18100001 401486.20657030 13152.68874853
0.18200001 396440.52476105 14146.98079437
0.18300001 391455.51254797 11884.58992238
0.18400001 386528.97306541 11798.79746021
0.18500001 381662.50684941 11713.22288857
0.18600001 376852.21885826 20084.33995290
0.18700001 372099.00891644 16789.10807551
0.18800001 367402.76848731 16665.39036596
0.18900001 362764.65716830 12406.55186133
0.19000001 358178.39734571 13340.35503946
0.19100001 353651.58383562 18333.29897229
0.19200001 349176.25917199 15162.97977101
0.19300001 344756.95555867 15048.64182122
0.19400001 340389.21926541 9956.38513399
0.19500001 336075.18741774 15808.97756319
0.19600001 331813.18050644 11766.09593678
0.19700001 327602.43515836 12648.73061921
0.19800001 323443.10056335 11585.73240971
0.19900001 319334.50176297 13412.04970790
0.20000001 315274.27935429 11406.62396613
0.20100001 311264.84967020 10374.45792983
0.20200001 307302.49968403 12164.57002493
0.20300001 303389.78130434 10212.10052138
0.20400001 299523.72095762 10131.39034026
0.20500001 295704.06900346 10964.70739692
0.20600001 291930.66096160 10877.33694158
0.20700001 288203.55995476 9891.14664519
0.20800001 284519.93796967 10703.64057238
0.20900001 280883.39174781 11502.17543580
0.21000001 277288.48851871 10531.41729179
0.21100001 273737.64844497 13927.77221129
0.21200001 270228.95838076 9497.19719127
0.21300001 266761.73368561 9419.35726174
0.21400001 263337.00362250 9341.88064516
0.21500001 259954.01353898 8422.51043686
0.21600001 256610.13396822 10023.19230668
0.21700001 253306.43888371 12424.68141468
0.21800001 250042.20447922 9856.66416660
0.21900001 246815.69999343 17104.32881826
0.22000001 243627.21286172 8076.24248823
0.22100001 240477.91083835 10410.28925243
0.22200001 237365.49211176 11115.82652120
0.22300001 234288.49089428 9446.51239954
0.22400001 231246.99425649 8585.04506773
0.22500001 228243.48399501 10832.43626264
0.22600001 225272.62504738 9204.63989471
0.22700001 222338.55309420 12166.36620065
0.22800001 219437.18348440 8291.43437006
0.22900001 216568.50889424 12701.74364732
0.23000001 213734.23910448 10368.24842929
0.23100001 210933.26997373 8074.52595646
0.23200001 208162.56274128 7275.28191188
0.23300001 205424.12799214 10094.54212695
0.23400001 202717.88198767 8574.96681363
0.23500001 200040.48417492 7789.57682219
0.23600001 197395.17739540 9824.35844363
0.23700001 194779.01783766 10430.41689854
0.23800001 192192.72118328 8957.14219441
0.23900001 189635.08205636 8192.23593232
0.24000001 187106.04998654 9469.43763773
0.24100001 184606.64208573 6701.22142469
0.24200001 182134.55133120 8630.44612307
0.24300001 179689.87506018 9864.97460744
0.24400001 177272.34119047 7166.23473161
0.24500001 174881.63110911 7743.75899183
0.24600001 172517.45662571 8948.48089848
0.24700001 170179.78986738 7596.82617905
0.24800001 167867.90035884 6896.85301251
0.24900001 165580.55409407 6209.27107227
0.25000001 163319.61528163 7378.78056750
0.25100001 161082.16074072 8524.46834968
0.25200001 158870.94178324 6632.06777850
0.25300001 156683.83600855 7760.55076466
0.25400001 154519.98362571 5910.38965331
0.25500001 152379.65994749 5851.37921882
0.25600001 150263.42888296 6371.92100325
0.25700001 148169.63667520 7454.41477382
0.25800001 146099.38195923 6243.55738344
0.25900001 144051.67813520 6179.81728440
0.26000001 142026.44819050 7784.46999365
0.26100001 140022.36170641 5502.87907544
0.26200001 138041.51922573 7624.03346758
0.26300001 136081.35089182 5927.70392533
0.26400001 134142.93510510 5332.18192274
0.26500001 132226.38531207 6330.99962832
0.26600001 130329.75019230 6785.61876485
0.26700001 128455.03435548 6196.67115054
0.26800001 126601.30284822 8173.38049865
0.26900001 124766.41809020 8084.86427483
0.27000001 122953.04374938 5997.64975792
0.27100001 121159.11840168 5931.95071766
0.27200001 119386.47606487 6844.42699670
0.27300001 117632.68877546 5801.64448496
0.27400001 115896.60760558 5736.88234797
0.27500001 114182.91254202 8036.19376502
0.27600001 112485.95286246 7478.06650020
0.27700001 110809.75737027 8317.38078185
0.27800001 109151.33690118 5024.78203205
0.27900001 107513.07274566 4515.54926903
0.28000001 105891.92262701 5802.34817496
0.28100001 104290.15337318 5293.76843577
0.28200001 102707.25820055 6975.87730715
0.28300001 101142.01682056 5170.38014458
0.28400001 99594.66099327  5534.97354668
0.28500001 98065.83531867  4627.72698772
0.28600001 96554.55895446  4988.00875168
0.28700001 95061.01407387  4927.96320284
0.28800001 93584.30346393  5679.63164606
0.28900001 92127.14313056  4408.28400746
0.29000001 90685.69280627  5541.80294971
0.29100001 89262.37944277  4691.63088559
0.29200001 87856.21262364  4247.40880034
0.29300001 86467.01747462  3813.19565113
0.29400001 85094.23495773  4141.96208263
0.29500001 83739.43680104  4089.83428696
0.29600001 82400.77891099  4038.05036168
0.29700001 81078.69738131  4711.48332786
0.29800001 79773.14268247  3935.60818055
0.29900001 78484.81451440  3531.81682034
0.30000001 77211.86673100  6275.00870629
0.30100001 75956.54566281  4128.99801770
0.30200001 74715.56689121  4074.98721116
0.30300001 73492.41401190  4356.63050887
0.30400001 72284.98304156  3637.74194378
0.30500001 71093.10733092  3263.17378098
0.30600001 69916.32358548  4185.54090960
0.30700001 68756.48509621  3494.20473802
0.30800001 67611.68141294  3447.18174004
0.30900001 66482.72113762  3400.59134719
0.31000001 65369.58981448  3049.49150922
0.31100001 64270.74245646  4511.80633406
0.31200001 63188.05226400  3560.01503311
0.31300001 62119.91044140  3218.43271235
0.31400001 61067.90309372  4328.18783669
0.31500001 60030.03095849  3699.05068280
0.31600002 59007.59053016  3647.55438132
0.31700002 57999.79467099  2766.59033680
0.31800002 57006.85961405  3000.55619786
0.31900002 56028.68691927  3496.19022930
0.32000002 55065.30071068  2916.53379024
0.32100002 54115.61937543  3659.29835543
0.32200002 53181.67041380  2834.31725891
0.32300002 52260.37561356  2793.83981259
0.32400002 51353.73661612  2753.84425644
0.32500002 50461.28784728  2961.06851109
0.32600002 49583.33014474  3404.88744227
0.32700002 48718.47274885  3116.03366457
0.32800002 47868.43699669  2598.53822541
0.32900002 47031.24580001  3259.26548828
0.33000002 46208.60925634  2982.53482568
0.33100002 45397.08319279  2260.77485006
0.33200002 44602.08338494  2673.44900469
0.33300002 43818.86336477  2414.85767439
0.33400002 43049.26198843  3461.16082778
0.33500002 42291.99775402  2984.12350284
0.33600002 41548.56716848  2310.30818681
0.33700002 40816.99153528  2276.36372572
0.33800002 40099.42838367  2446.86723585
0.33900002 39393.37488881  2410.87465737
0.34000002 38700.52954273  2177.48539784
0.34100002 38019.77042045  2340.49717793
0.34200002 37351.97458524  1921.75918342
0.34300002 36695.42613773  2650.87770973
0.34400002 36052.30913484  2052.27779470
0.34500002 35420.27417625  2573.63724353
0.34600002 34801.05225676  1992.53434133
0.34700002 34191.99759124  1963.30459467
0.34800002 33596.11235718  2286.38353475
0.34900002 33011.07112989  2079.69757968
0.35000002 32437.67910037  2390.98143973
0.35100002 31876.09351953  1851.36359930
0.35200002 31324.45406770  1658.62992144
0.35300002 30784.36606964  2288.50988201
0.35400002 30255.55800301  2416.66280995
0.35500002 29737.67272508  1905.59015848
0.35600002 29229.47123689  1721.76208476
0.35700002 28732.51884828  1851.52360228
0.35800002 28246.39680381  1977.38910191
0.35900002 27770.59105028  1949.49558407
0.36000002 27305.18415629  1626.43337131
0.36100002 26849.08231443  2478.43890584
0.36200002 26404.08427262  1725.24294809
0.36300002 25968.00052579  1701.42347504
0.36400002 25541.74090358  1538.25141878
0.36500002 25124.95766665  1379.36024124
0.36600002 24718.07768607  1632.87628929
0.36700002 24319.96145820  1610.95432330
0.36800002 23932.58107247  2516.87000771
0.36900002 23553.30296661  1830.09172720
0.37000002 23182.66437949  1806.16146736
0.37100002 22820.80001872  2037.44112218
0.37200002 22468.55913053  1634.25072577
0.37300002 22124.34123236  1365.29316212
0.37400002 21788.76996295  2573.79857380
0.37500002 21461.84514686  1452.53774835
0.37600002 21143.49695785  1913.06369537
0.37700002 20832.55149540  1417.44687089
0.37800002 20529.62010858  1633.95254185
0.37900002 20235.30744557  1960.80138436
0.38000002 19948.62697812  1596.08972013
0.38100002 19668.57159611  1577.81288819
0.38200002 19397.13132907  1560.11134671
0.38300002 19132.40247506  1322.43172172
0.38400002 18875.76199021  1417.09789855
0.38500002 18625.29063585  1186.24481679
0.38600002 18382.93537340  1600.69417347
0.38700002 18146.70522425  1372.97978231
0.38800002 17917.65385404  1568.24272787
0.38900002 17694.63051888  1242.16312127
0.39000002 17479.47542237  1332.72266672
0.39100002 17269.71547324  1117.00524973
0.39200002 17066.77081513  1106.69480594
0.39300002 16869.81698953  1296.10810071
0.39400002 16680.17892879  1087.13071319
0.39500002 16495.35746444  1077.80670779
0.39600002 16316.70503164  1263.15777987
0.39700002 16143.59489292  1060.14992685
0.39800002 15976.69187803  1243.06657046
0.39900002 15814.91350166  948.89485506
0.40000002 15658.49697725  1506.97382049
0.40100002 15507.89658169  1122.15144982
0.40200002 15362.56523899  1207.26724651
0.40300002 15221.83555573  1752.64222893
0.40400002 15086.52749960  1099.80790683
0.40500002 14956.42805773  1548.43907018
0.40600002 14830.85614875  995.96619186
0.40700002 14710.17010972  1080.31494404
0.40800002 14594.09549764  984.88258132
0.40900002 14482.43254646  890.66964381
0.41000002 14375.76686058  1063.51928274
0.41100002 14272.91529676  970.27282785
0.41200002 14174.17844689  1141.51751531
0.41300002 14080.32047697  1049.26553166
0.41400002 13989.93614850  1219.22299311
0.41500002 13903.81201113  954.35770166
0.41600002 13821.03315134  864.50566458
0.41700002 13742.42940155  1033.98043717
0.41800002 13668.46442272  1116.78193858
0.41900002 13596.13190468  1027.86762070
0.42000002 13528.55394324  1025.19386640
0.42100002 13464.83662551  937.55661866
0.42200002 13404.30962859  1020.60418348
0.42300002 13346.46242974  1188.36907106
0.42400002 13291.88030134  1271.03611404
0.42500002 13240.82091383  1353.74159438
0.42600002 13191.81227603  1013.92273958
0.42700002 13147.18516971  1097.26412626
0.42800002 13104.49292635  1180.58382368
0.42900002 13065.65398084  1516.92249906
0.43000002 13028.91703025  926.55147851
0.43100002 12994.05917786  1515.62713433
0.43200002 12962.79431573  1178.70694299
0.43300002 12933.84472571  1010.39199785
0.43400002 12907.31194025  842.20214401
0.43500002 12883.02568321  1432.33486334
0.43600002 12861.41363634  927.37227420
0.43700002 12841.43151517  1349.89134484
0.43800002 12823.55471654  1013.31734172
0.43900002 12808.59121648  1268.05059052
0.44000002 12795.12985474  1100.31724400
0.44100002 12783.93466559  1271.36236274
0.44200002 12774.52049223  1273.30039040
0.44300002 12767.08112436  1020.34517181
0.44400002 12761.66125611  1277.76139382
0.44500002 12756.81037672  938.77372011
0.44600002 12754.21222369  1026.20396415
0.44700002 12754.08189735  857.07434412
0.44800002 12754.10152922  1116.68541231
0.44900002 12757.36589076  861.12223844
0.45000002 12761.18411878  1122.28239051
0.45100002 12766.22889381  1211.77050403
0.45200002 12772.94059164  954.71348977
0.45300002 12780.56194182  957.39194044
0.45400002 12789.92888100  1047.49522500
0.45500002 12800.41812277  963.10350520
0.45600002 12811.96375681  1317.39023573
0.45700002 12824.63123132  1145.36786955
0.45800002 12838.05378212  1325.85006719
0.45900002 12852.50887727  1152.87010093
0.46000002 12868.80225644  1423.80434913
0.46100002 12884.91222185  892.92445929
0.46200002 12902.71293406  1075.31214689
0.46300002 12921.41860824  1169.13001108
0.46400002 12940.11099333  1083.08734148
0.46500002 12960.23488665  996.51250766
0.46600002 12980.68893662  1636.73514559
0.46700002 13001.70074446  1095.26332262
0.46800002 13024.34064837  1282.76737126
0.46900002 13046.50015023  919.77830419
0.47000002 13069.56964710  1015.70165326
0.47100002 13093.26852239  1668.60621958
0.47200002 13117.63249317  1768.32253206
0.47300002 13142.58882192  1121.32573143
0.47400002 13167.31186272  1125.80521762
0.47500002 13192.82742134  1130.36150704
0.47600002 13219.11112403  945.82744575
0.47700002 13245.02082599  949.66803824
