# SAXS profile: number of points = 501, q_min = 0, q_max = 0.5, delta_q = 0.001
#    q    intensity    error
0.00000000 1646666.22097351 370.49989972
0.00100000 1646580.86873654 493.97427235
0.00200000 1646324.79800878 1185.35389210
0.00300000 1645898.20047090 987.53895546
0.00400000 1645300.97093184 1727.56608512
0.00500000 1644533.75146609 2368.12869584
0.00600000 1643596.38140874 1898.35389781
0.00700000 1642489.58122678 2759.38261114
0.00800000 1641213.19236890 2437.20169357
0.00900000 1639768.58695169 2705.61828413
0.01000000 1638155.07047796 3784.13837620
0.01100000 1636374.27157922 3240.02119880
0.01200000 1634426.15344839 4143.27048065
0.01300000 1632311.92465266 3770.64071225
0.01400000 1630031.84929971 5134.60055292
0.01500000 1627587.32810767 5078.07268982
0.01600000 1624978.19746160 4558.06404764
0.01700000 1622206.46234392 5255.94917377
0.01800000 1619272.68902061 5537.91284564
0.01900000 1616177.91933786 5818.24077215
0.02000000 1612922.74639420 6096.84825717
0.02100000 1609510.03404112 5842.52168846
0.02200000 1605938.29698235 5540.48737631
0.02300000 1602210.65103176 7498.34618814
0.02400000 1598327.74098530 7791.84809259
0.02500000 1594291.90787814 6839.51259716
0.02600000 1590103.27975651 7083.91043532
0.02700000 1585764.30697946 7992.25247323
0.02800000 1581274.83459869 8942.10959974
0.02900000 1576638.56230654 9223.33601298
0.03000000 1571856.10450772 9501.87058851
0.03100000 1566928.79524067 10529.76198852
0.03200000 1561858.09914880 7731.19794687
0.03300000 1556648.04459449 10320.57701144
0.03400000 1551296.98595397 10587.60241765
0.03500000 1545809.11817063 9182.10658595
0.03600000 1540185.09056188 12822.04147148
0.03700000 1534427.80572691 10495.48667656
0.03800000 1528538.56133489 16095.51179575
0.03900000 1522520.29152024 13702.68325825
0.04000000 1516372.57454022 13055.96847179
0.04100000 1510100.02461659 13319.08283468
0.04200000 1503703.61150592 13578.44424184
0.04300000 1497185.34251190 10869.56609118
0.04400000 1490548.31117266 12073.44188121
0.04500000 1483794.24993864 11261.99888032
0.04600000 1476924.03417254 10412.31492495
0.04700000 1469941.64292858 13758.65441770
0.04800000 1462848.84943238 16127.90931539
0.04900000 1455647.98821976 15284.30458775
0.05000000 1448340.84250921 12187.78875725
0.05100000 1440931.16375230 15734.96904117
0.05200000 1433418.69921570 12535.24710880
0.05300000 1425808.12032229 17323.56946950
0.05400000 1418100.83285176 17548.99862492
0.05500000 1410300.36865892 13031.17601430
0.05600000 1402407.54885948 11990.58510228
0.05700000 1394426.79292053 19410.42186350
0.05800000 1386358.06671719 13496.19640966
0.05900000 1378204.81077486 12403.84387631
0.06000000 1369971.19370142 15042.28440960
0.06100000 1361658.18467872 12663.42170929
0.06200000 1353268.70978050 19182.58485780
0.06300000 1344805.93396684 14201.15132667
0.06400000 1336269.35169346 18240.07750364
0.06500000 1327665.01681767 13143.88428134
0.06600000 1318994.47873775 14581.48464469
0.06700000 1310258.57563590 14701.10190663
0.06800000 1301462.17062606 14817.14750615
0.06900000 1292607.84881811 14929.62135284
0.07000000 1283695.89532954 19139.90669566
0.07100000 1274730.34578591 19273.92373103
0.07200000 1265712.90718716 13859.55698298
0.07300000 1256647.51002490 16738.54561783
0.07400000 1247536.70889450 14034.78863279
0.07500000 1238380.98912470 16941.05272530
0.07600000 1229183.74181218 18456.19474855
0.07700000 1219948.93153143 21410.10475226
0.07800000 1210677.20672459 15781.17812973
0.07900000 1201370.96678393 17299.74273311
0.08000000 1192035.24220497 15931.55175944
0.08100000 1182670.43052016 16001.53167570
0.08200000 1173277.98078484 14607.31154622
0.08300000 1163861.92196431 19064.05917649
0.08400000 1154424.46015414 20606.47758099
0.08500000 1144967.72037194 19201.10957204
0.08600000 1135494.62975048 17781.84673678
0.08700000 1126006.61343908 17835.94559441
0.08800000 1116506.04820261 14905.35644352
0.08900000 1106995.96782338 17933.33552106
0.09000000 1097478.17149152 14980.57774458
0.09100000 1087955.12095062 18016.53764938
0.09200000 1078428.20832685 24070.51874085
0.09300000 1068901.78815255 18085.81910543
0.09400000 1059374.84024175 19624.91983780
0.09500000 1049851.22598461 16629.64420123
0.09600000 1040332.39991966 21191.57198253
0.09700000 1030823.81968947 19699.04412037
0.09800000 1021323.63319663 16683.32233268
0.09900000 1011836.11865448 16695.29674285
0.10000000 1002360.29466008 21260.06284954
0.10100000 992900.61627668 25825.34624397
0.10200000 983458.50029672 18233.32145313
0.10300000 974035.51035892 18233.94561166
0.10400000 964634.31419500 18231.58939599
0.10500000 955257.86447747 16707.46083579
0.10600001 945902.95867017 16699.91752111
0.10700001 936576.75515698 16689.79856228
0.10800001 927277.85777987 15160.99368820
0.10900001 918009.72540278 24235.45789129
0.11000001 908773.51362014 22696.61957098
0.11100001 899569.94270604 19646.60847353
0.11200001 890401.66118522 15092.30886759
0.11300001 881269.49540345 19590.62180516
0.11400001 872175.30820591 25576.54211740
0.11500001 863121.13195081 21025.63176438
0.11600001 854107.78597596 16488.55158474
0.11700001 845136.61662089 14958.91881868
0.11800001 836208.61141844 16418.95685851
0.11900001 827324.80642330 19359.40138216
0.12000001 818487.01289332 19312.20197892
0.12100001 809698.05431918 17780.97011048
0.12200001 800956.81281906 14777.65389271
0.12300001 792266.06753218 20630.60937054
0.12400001 783625.74419357 17631.58007511
0.12500001 775036.12885500 19042.63858327
0.12600001 766501.71525056 20442.60170906
0.12700001 758020.15576326 20375.58274714
0.12800001 749593.48708229 15955.09812450
0.12900001 741222.82011060 21680.76851009
0.13000001 732909.37523765 20162.33786314
0.13100001 724652.52258510 20087.36887293
0.13200001 716454.08356883 17151.91156918
0.13300001 708315.90644797 17084.58046894
0.13400001 700236.96899547 14179.79929067
0.13500001 692218.89787475 15533.39280068
0.13600001 684261.57327231 22498.52159002
0.13700001 676366.78298208 18201.03098829
0.13800001 668533.56201032 18120.60305278
0.13900001 660764.52218914 18038.87230644
0.14000001 653058.49274827 16574.62532762
0.14100001 645416.44852576 19246.31940275
0.14200001 637838.55363549 20522.45643117
0.14300001 630326.77635081 14976.56491250
0.14400001 622877.95900110 17611.87512151
0.14500001 615496.74444906 20219.06900893
0.14600001 608180.60560519 18774.53618071
0.14700001 600932.28692950 16008.83687904
0.14800001 593747.88852105 13270.26593452
0.14900001 586631.56931994 17158.97421218
0.15000001 579581.18473408 15753.01734435
0.15100001 572598.50745763 13055.24658605
0.15200001 565682.82230206 16877.14779976
0.15300001 558835.50720478 20654.56132096
0.15400001 552053.03545000 16685.80378390
0.15500001 545339.90171337 19141.43145348
0.15600001 538691.58280618 13954.80611119
0.15700001 532113.87235287 13872.20930696
0.15800001 525599.70173726 20056.88556495
0.15900001 519155.24821723 17443.61716345
0.16000001 512775.19061209 17336.93001294
0.16100001 506465.18751250 14768.52556500
0.16200001 500220.59604605 14676.47298081
0.16300001 494042.66862306 14584.14026624
0.16400001 487931.28317069 18114.44974289
0.16500001 481885.60067406 16798.53283258
0.16600001 475906.88767693 14305.76171899
0.16700001 469992.40893113 15396.95204355
0.16800001 464142.79208459 15295.82643536
0.16900001 458360.35878057 14025.82764096
0.17000001 452641.45941240 12771.27938038
0.17100001 446986.49033207 11532.25199514
0.17200001 441396.69351242 13745.09368506
0.17300001 435870.04616410 12513.82961633
0.17400001 430406.99651102 12428.00261118
0.17500001 425006.75004145 13464.21447720
0.17600001 419667.62469018 20055.91673117
0.17700001 414392.31957165 12170.70300065
0.17800001 409177.40637671 14282.33804416
0.17900001 404024.14472331 11999.51766506
0.18000001 398931.48927245 15163.38662349
0.18100001 393900.34835537 12904.17602167
0.18200001 388926.43847647 12811.23748859
0.18300001 384012.73349720 11658.62713972
0.18400001 379157.37376914 14730.26466680
0.18500001 374361.64857654 11489.15953759
0.18600001 369621.64176366 12441.46504954
0.18700001 364938.58119949 12349.52217124
0.18800001 360311.98102076 11236.32965901
0.18900001 355743.34358982 14194.16007987
0.19000001 351226.08128883 18112.72986787
0.19100001 346767.90179953 12982.99085682
0.19200001 342361.10841131 10902.49001252
0.19300001 338009.59534598 10819.68765828
0.19400001 333709.45379474 12689.30258016
0.19500001 329462.70900469 13560.68574344
0.19600001 325267.62865900 10572.82476919
0.19700001 321123.18681778 13352.30273888
0.19800001 317030.02405161 14195.01999775
0.19900001 312987.04438183 9389.61177521
0.20000001 308992.23030926 15837.39751299
0.20100001 305047.63089520 10167.23801826
0.20200001 301149.94489954 15589.02763452
0.20300001 297301.23471802 10916.90185483
0.20400001 293499.02576425 9927.60501571
0.20500001 289742.61786218 9848.35204664
0.20600001 286032.01566639 10657.55340749
0.20700001 282367.51837524 9690.85368872
0.20800001 278746.01790255 10486.42568919
0.20900001 275171.30672310 10401.47588582
0.21000001 271637.58232238 12036.26184169
0.21100001 268147.40204243 13643.34046089
0.21200001 264699.31264338 9302.85778264
0.21300001 261291.98739362 9226.22051104
0.21400001 257926.84577912 9149.95528659
0.21500001 254602.97846527 10723.87795996
0.21600001 251317.74367614 8998.43223776
0.21700001 248072.49876796 10545.56242122
0.21800001 244865.97051833 10457.00176540
0.21900001 241696.92783499 8773.59889524
0.22000001 238565.47999391 8699.29063930
0.22100001 235472.70394441 11761.86211817
0.22200001 232416.33771833 7774.32686428
0.22300001 229394.99155962 10790.74091321
0.22400001 226408.86594807 8405.42954578
0.22500001 223460.00457190 9090.35341584
0.22600001 220543.48962647 8260.45679458
0.22700001 217663.22386789 7444.08260831
0.22800001 214815.38784471 9592.58159784
0.22900001 211999.80718415 15359.38675685
0.23000001 209218.07186265 9424.22849274
0.23100001 206469.19327089 7185.12826563
0.23200001 203750.34191065 7833.18226521
0.23300001 201063.00577908 9880.23657126
0.23400001 198407.43383698 8392.63484824
0.23500001 195780.50005549 10395.94504464
0.23600001 193184.99450168 8928.04494317
0.23700001 190618.35273077 8846.59816866
0.23800001 188081.03885090 8765.51723024
0.23900001 185572.01857238 6680.59298459
0.24000001 183091.05084895 9266.23852176
0.24100001 180639.28935588 9180.08911929
0.24200001 178214.51077528 8444.69499254
0.24300001 175816.52453114 9652.32765334
0.24400001 173445.28273648 8286.34877471
0.24500001 171100.57077734 7576.33363241
0.24600001 168781.74902339 6878.70050685
0.24700001 166489.07219982 9909.43004611
0.24800001 164221.77887036 7360.42047717
0.24900001 161978.65219958 6681.61971932
0.25000001 159761.30910670 6616.51492967
0.25100001 157567.09657362 6551.64018548
0.25200001 155398.69452251 6487.11880975
0.25300001 153254.00617238 7590.67128484
0.25400001 151132.07235598 7515.04265345
0.25500001 149033.29602155 9728.89402458
0.25600001 146958.12941212 7364.80700394
0.25700001 144905.07868857 6168.60949163
0.25800001 142874.93639414 6660.82984985
0.25900001 140867.07823826 6043.19794235
0.26000001 138881.33034471 5437.20434026
0.26100001 136916.04804683 7533.12131997
0.26200001 134973.89759133 5857.19256312
0.26300001 133051.86435454 8430.16652440
0.26400001 131151.10811397 5213.25679421
0.26500001 129271.85084706 6189.53651144
0.26600001 127412.14280197 5613.14221675
0.26700001 125573.82049323 8076.90851633
0.26800001 123756.20580608 6491.63208275
0.26900001 121956.93488794 5927.10731603
0.27000001 120178.87426524 5862.32576408
0.27100001 118419.79754055 6280.98635878
0.27200001 116681.59961180 6689.35642231
0.27300001 114961.89041544 4724.93391968
0.27400001 113259.50020684 5139.15006509
0.27500001 111579.15638994 6005.19048110
0.27600001 109915.07030112 7763.85135815
0.27700001 108271.39853368 5417.90103904
0.27800001 106645.00062128 4909.40283595
0.27900001 105038.57375955 5293.94436803
0.28000001 103448.80449180 5232.44077884
0.28100001 101878.11272640 6033.22212120
0.28200001 100325.78774480 5962.36184787
0.28300001 98790.77899587  7996.12603038
0.28400001 97273.28979459  4574.27666909
0.28500001 95774.03463019  6573.93004817
0.28600001 94291.89895526  4871.11973059
0.28700001 92827.10759774  5614.18373324
0.28800001 91378.88301051  5545.78467241
0.28900001 89949.84847196  3912.81859374
0.29000001 88536.16621593  3864.60383825
0.29100001 87140.21282815  4961.76395330
0.29200001 85761.13798983  4523.04263168
0.29300001 84398.75328456  6327.37483326
0.29400001 83052.28080779  4777.58267962
0.29500001 81723.49660578  3628.52342106
0.29600001 80410.54970237  4298.74819058
0.29700001 79113.84874953  4597.30596846
0.29800001 77833.47399395  3490.83147388
0.29900001 76569.82228732  5168.46324906
0.30000001 75321.29623858  4420.98369201
0.30100001 74090.09933536  4363.16615641
0.30200001 72872.82763937  3974.48420761
0.30300001 71673.28441993  3595.13211670
0.30400001 70489.00532344  4192.33379008
0.30500001 69320.04220646  5090.86414066
0.30600001 68165.83042776  4394.65129573
0.30700001 67028.33217978  3716.05091198
0.30800001 65905.41815203  4887.54604155
0.30900001 64798.26827493  3314.43157918
0.31000001 63706.56754671  3269.10266843
0.31100001 62628.93547605  3224.13775095
0.31200001 61567.09160910  3468.69010548
0.31300001 60519.55801841  3420.56558115
0.31400001 59487.78072383  2810.79777228
0.31500001 58469.96714635  3048.62423135
0.31600002 57467.38296901  3279.08902747
0.31700002 56479.18119580  4310.49131296
0.31800002 55505.48730630  2655.93769336
0.31900002 54546.38165751  2618.22644353
0.32000002 53601.61287379  3355.19311670
0.32100002 52670.46219945  3815.97516704
0.32200002 51754.84881645  3510.53156145
0.32300002 50851.61659732  3707.08302548
0.32400002 49962.79908300  2922.82388476
0.32500002 49087.96361159  3120.52199455
0.32600002 48227.21072362  2602.09927781
0.32700002 47379.44277813  2797.28243408
0.32800002 46546.36053933  2526.76930153
0.32900002 45725.80495619  3395.14117877
0.33000002 44919.54603541  2453.28112290
0.33100002 44124.20266881  2856.60101605
0.33200002 43345.21760142  2381.60309389
0.33300002 42577.92387684  2133.15408725
0.33400002 41823.77770997  2732.13840829
0.33500002 41081.96340310  2277.58415893
0.33600002 40353.59840765  2447.84939533
0.33700002 39637.13151571  2612.48346192
0.33800002 38934.29191649  1979.80883771
0.33900002 38242.86234354  2535.50189345
0.34000002 37564.47706733  2113.56540229
0.34100002 36897.90266624  2650.00749499
0.34200002 36244.10029165  2424.18676281
0.34300002 35601.53194136  2571.85478925
0.34400002 34972.06594707  1990.78494832
0.34500002 34353.58294977  1782.95103953
0.34600002 33747.63574888  3161.81614306
0.34700002 33151.86684160  2595.79129664
0.34800002 32568.89782710  2216.47644660
0.34900002 31996.76765427  2183.77949583
0.35000002 31436.06053726  1655.10866568
0.35100002 30886.97448495  1793.91556305
0.35200002 30347.73705797  1928.29530399
0.35300002 29819.94023730  1741.78279176
0.35400002 29303.15034046  1872.47139544
0.35500002 28797.19136315  1845.32410995
0.35600002 28300.80964514  1818.61011393
0.35700002 27815.62562325  2091.17883340
0.35800002 27340.90259869  1913.99997708
0.35900002 26876.53605658  1741.59961896
0.36000002 26422.36421974  2861.54218054
0.36100002 25977.44455141  1410.57530596
0.36200002 25543.37926880  1808.08818718
0.36300002 25118.26010517  1645.74848004
0.36400002 24702.73901945  1487.72252792
0.36500002 24296.63988119  1467.27415193
0.36600002 23900.19543158  1315.70582083
0.36700002 23512.57753948  1297.89434166
0.36800002 23135.45815819  1536.65720366
0.36900002 22766.37466330  1516.24062440
0.37000002 22405.78673880  1620.94671840
0.37100002 22053.97338592  1230.61177323
0.37200002 21711.49379118  1822.13720274
0.37300002 21377.08677411  2038.73286222
0.37400002 21051.19429175  1894.60757601
0.37500002 20733.83427307  1286.32713924
0.37600002 20424.96695108  1270.53512938
0.37700002 20123.35794336  1140.99444944
0.37800002 19829.74924880  1803.71407712
0.37900002 19544.60677756  1448.25543082
0.38000002 19267.03966477  1321.33364280
0.38100002 18996.05853682  1523.86388801
0.38200002 18733.49529920  1183.86329152
0.38300002 18477.68280709  1383.60895414
0.38400002 18229.81540168  1579.15783398
0.38500002 17988.14620961  1145.66508637
0.38600002 17754.32514989  1442.89407329
0.38700002 17526.67703161  1224.06318188
0.38800002 17306.10875996  1110.79264338
0.38900002 17091.44060853  1099.83425526
0.39000002 16884.65282796  1188.34192233
0.39100002 16683.26320951  1569.56147711
0.39200002 16488.46422876  1069.19451357
0.39300002 16299.72798054  1155.97676315
0.39400002 16118.10536584  1145.99734581
0.39500002 15941.28428790  1041.60356472
0.39600002 15770.59143730  1126.96651750
0.39700002 15605.37621180  1024.80510438
0.39800002 15446.34230698  1201.80272013
0.39900002 15292.37826031  1009.29701300
0.40000002 15143.67644517  1275.24905387
0.40100002 15000.77861373  1266.36579057
0.40200002 14863.01851427  1347.70426763
0.40300002 14729.84750373  1249.68032143
0.40400002 14602.03660928  1508.02540227
0.40500002 14479.45893832  1322.69863669
0.40600002 14361.34188485  1139.78795270
0.40700002 14248.06193653  871.98143183
0.40800002 14139.21470637  1127.67312234
0.40900002 14034.87497541  1035.77382226
0.41000002 13935.47735111  1374.59555104
0.41100002 13839.80151465  940.82975154
0.41200002 13748.25690795  936.87501138
0.41300002 13661.56056991  1187.73613223
0.41400002 13578.17523016  1183.33802738
0.41500002 13499.06529467  1179.27840002
0.41600002 13423.33315385  923.59248141
0.41700002 13351.63989213  920.86264699
0.41800002 13284.67700627  1001.93038729
0.41900002 13219.22085508  999.37314400
0.42000002 13158.38983031  997.14282859
0.42100002 13101.56212071  1078.12759800
0.42200002 13047.73398812  1241.81814116
0.42300002 12996.68267021  909.24796269
0.42400002 12948.80185528  1238.22923609
0.42500002 12904.42680446  907.05220307
0.42600002 12862.05742835  1153.34074425
0.42700002 12824.08054599  987.96721208
0.42800002 12787.95708151  1152.06710807
0.42900002 12755.67527139  1069.56342219
0.43000002 12725.51841979  1069.51624627
0.43100002 12697.14056790  987.32969735
0.43200002 12672.33990809  905.37536764
0.43300002 12649.84273463  905.85528115
0.43400002 12629.62568253  988.89973780
0.43500002 12611.75713936  1484.65612080
0.43600002 12596.52497040  908.27247603
0.43700002 12582.87248939  1157.37266642
0.43800002 12571.28784045  910.60127788
0.43900002 12562.57534602  912.04301334
0.44000002 12555.34926350  1079.69731108
0.44100002 12550.38204669  1164.92651678
0.44200002 12547.12433712  1000.50774206
0.44300002 12545.91288976  1086.22518947
0.44400002 12546.56555305  1507.46992264
0.44500002 12547.79013706  1091.28135994
0.44600002 12551.35264303  1178.19552844
0.44700002 12557.20920607  1687.68899728
0.44800002 12563.34596939  1523.05450405
0.44900002 12572.59665059  933.51534555
0.45000002 12582.38524591  936.31824245
0.45100002 12593.39787902  1109.98214166
0.45200002 12606.00282401  1113.55131223
0.45300002 12619.57136233  1031.27142060
0.45400002 12634.90561811  1034.79881917
0.45500002 12651.20195795  1038.41070592
0.45600002 12668.57922447  1128.96049109
0.45700002 12687.00379208  871.59720182
0.45800002 12706.23896726  1049.78951323
0.45900002 12726.44542019  1229.37468586
0.46000002 12748.43918637  1057.86553382
0.46100002 12770.30983567  1415.97202169
0.46200002 12793.71168996  977.37565088
0.46300002 12818.11081946  1070.56866638
0.46400002 12842.38569359  895.75644458
0.46500002 12868.13850048  899.48292382
0.46600002 12894.13870334  1174.20479667
0.46700002 12920.71620173  907.03432035
0.46800002 12948.84651727  910.95139567
0.46900002 12976.47727687  1280.77836793
0.47000002 13005.00047952  1102.56399291
0.47100002 13034.13998493  1291.94401654
0.47200002 13063.92730966  1761.08280445
0.47300002 13094.27360260  931.00289727
0.47400002 13124.33179723  1496.17389580
0.47500002 13155.20560343  939.28172460
0.47600002 13186.68057947  1037.85774420
0.47700002 13217.90721776  1232.04119016
0.47800002 13249.46910564  951.97440036
