# SAXS profile: number of points = 501, q_min = 0, q_max = 0.5, delta_q = 0.001
#    q    intensity    error
0.00000000 1664650.74656090 299.63713438
0.00100000 1664564.40847490 699.11706816
0.00200000 1664305.36859271 748.93743958
0.00300000 1663873.83357586 1098.15676928
0.00400000 1663269.68484238 1496.94277324
0.00500000 1662493.58563967 1795.49314356
0.00600000 1661545.34096760 2093.54721485
0.00700000 1660425.74559986 1992.51097753
0.00800000 1659134.56029991 2911.78127626
0.00900000 1657673.17354017 2735.16085326
0.01000000 1656040.95465875 4098.70153976
0.01100000 1654239.53295371 3870.92067565
0.01200000 1652268.84923095 5155.07903562
0.01300000 1650130.11324266 4158.32806877
0.01400000 1647823.63109473 4449.12400119
0.01500000 1645350.72798898 5528.37869222
0.01600000 1642711.32287861 5445.58827878
0.01700000 1639907.52585226 5313.30062211
0.01800000 1636939.78966262 6531.39005465
0.01900000 1633809.08560802 7842.28396478
0.02000000 1630516.20889112 5649.73891938
0.02100000 1627063.82632600 5906.24195734
0.02200000 1623450.71524934 6721.08626649
0.02300000 1619679.79509049 6997.01703328
0.02400000 1615751.83110403 7876.79053579
0.02500000 1611669.08010049 6914.06066940
0.02600000 1607432.00280860 7812.11989096
0.02700000 1603042.48751077 10772.44600946
0.02800000 1598500.96046033 7648.82744657
0.02900000 1593810.91696476 8606.57934677
0.03000000 1588972.83184795 7388.72400772
0.03100000 1583988.36278063 10644.40228767
0.03200000 1578858.68790500 8596.88595160
0.03300000 1573587.91810661 9630.35850278
0.03400000 1568174.86796064 12349.37765499
0.03500000 1562623.15228830 8438.16541202
0.03600000 1556933.60207633 9505.08007994
0.03700000 1551109.44086211 13261.98633270
0.03800000 1545151.73482047 9039.13806703
0.03900000 1539063.28313283 12004.69416437
0.04000000 1532844.21552486 9426.99236232
0.04100000 1526498.47509710 10578.63492292
0.04200000 1520027.77381464 11765.01551514
0.04300000 1513433.71159454 10987.52925620
0.04400000 1506719.10426646 10170.35442613
0.04500000 1499886.47737738 12419.06060974
0.04600000 1492936.41834162 11577.72246245
0.04700000 1485872.62124439 12837.94004462
0.04800000 1478696.95973149 13042.10779166
0.04900000 1471412.18702783 11035.59191639
0.05000000 1464019.81696323 11199.75212130
0.05100000 1456523.83655616 12496.97509981
0.05200000 1448923.53661779 14974.62544878
0.05300000 1441224.38161076 12841.30983879
0.05400000 1433427.03741564 14190.92833219
0.05500000 1425535.59669776 15566.84944212
0.05600000 1417550.17566791 15756.07093779
0.05700000 1409476.47132226 15941.17963477
0.05800000 1401313.53369176 19842.60056357
0.05900000 1393065.08416230 15045.10361165
0.06000000 1384735.17986178 17738.45848275
0.06100000 1376325.00560906 14079.80546535
0.06200000 1367837.41789338 18096.48988462
0.06300000 1359275.54962244 18268.66424108
0.06400000 1350639.10970888 15802.47832262
0.06500000 1341934.22185544 15942.17930138
0.06600000 1333162.30088733 13398.28175080
0.06700000 1324324.17219610 14858.91790742
0.06800000 1315424.57378855 14976.10947360
0.06900000 1306466.71468362 17833.27149037
0.07000000 1297450.44519925 22108.55662151
0.07100000 1288379.72221848 15305.95181685
0.07200000 1279256.96038211 18210.22368413
0.07300000 1270085.14645474 16917.53494346
0.07400000 1260867.65671927 21277.14270427
0.07500000 1251604.72340780 15695.12396720
0.07600000 1242299.70697132 15783.41851701
0.07700000 1232956.56325917 18753.27020648
0.07800000 1223576.44354166 23199.01045750
0.07900000 1214160.80917831 20397.90255093
0.08000000 1204715.51763672 17564.75307112
0.08100000 1195241.04377387 16171.61208100
0.08200000 1185738.43914977 26572.39966826
0.08300000 1176211.87826024 16302.29739779
0.08400000 1166664.01461287 19337.45694988
0.08500000 1157096.47442740 23882.47235335
0.08600000 1147512.06189700 17970.03973303
0.08700000 1137913.04864537 19526.58883168
0.08800000 1128300.77204168 16569.09761558
0.08900000 1118679.05944214 18122.60161418
0.09000000 1109050.00888386 19680.09333213
0.09100000 1099415.04729597 18206.31403858
0.09200000 1089776.60235911 15202.38431722
0.09300000 1080138.68301932 15229.95614626
0.09400000 1070499.95921028 15254.62513568
0.09500000 1060864.70383275 15276.45245323
0.09600000 1051234.60800722 16825.01069206
0.09700000 1041614.54988758 18374.08152383
0.09800000 1032002.96763128 16857.76926887
0.09900000 1022404.27634144 18403.27783951
0.10000000 1012817.74467511 18413.02746411
0.10100000 1003247.28007143 16884.65251772
0.10200000 993694.93798754 24564.14002246
0.10300000 984161.90604384 23029.38968475
0.10400000 974650.51930025 18420.89568139
0.10500000 965164.51952721 15346.11658251
0.10600001 955700.18980789 16872.88764499
0.10700001 946265.59894374 18395.40410911
0.10800001 936857.77633011 22976.43804581
0.10900001 927481.65309289 26015.86159371
0.11000001 918137.94611843 16815.69727467
0.11100001 908826.85460148 27482.92537686
0.11200001 899552.25478474 21346.37601097
0.11300001 890313.63968629 25881.41872420
0.11400001 881113.89222334 19758.97996345
0.11500001 871954.22639987 15172.00425378
0.11600001 862836.41134418 18171.33567862
0.11700001 853761.40011373 21156.20849117
0.11800001 844729.70326823 16586.26850486
0.11900001 835743.27112356 19556.39346543
0.12000001 826803.12508411 16507.12516987
0.12100001 817912.52741870 16464.57995255
0.12200001 809070.54345582 19405.55789901
0.12300001 800279.54841187 25304.84051301
0.12400001 791539.42835662 20777.91097336
0.12500001 782851.33189240 16275.47995695
0.12600001 774218.72320714 14748.86737211
0.12700001 765639.78192581 16170.31295632
0.12800001 757116.54072107 19045.26747943
0.12900001 748650.44602363 16058.55282408
0.13000001 740241.75568883 16000.32630339
0.13100001 731890.64552352 18838.86610379
0.13200001 723598.92979896 17322.95919600
0.13300001 715368.11266707 17254.67969097
0.13400001 707197.16232317 15752.81753342
0.13500001 699088.42090530 19965.96624241
0.13600001 691040.96810913 15620.98182065
0.13700001 683057.39735906 14139.28879205
0.13800001 675135.73285424 18299.55490194
0.13900001 667279.01955494 14012.86007147
0.14000001 659486.57231777 15342.95582856
0.14100001 651758.87109320 15270.71106993
0.14200001 644096.37572137 17960.62828411
0.14300001 636500.92368972 19247.78884025
0.14400001 628968.97517116 19152.10619736
0.14500001 621505.81017811 17694.27125045
0.14600001 614108.68907718 14895.20695624
0.14700001 606780.67282572 16164.63788667
0.14800001 599516.84079731 21438.72323836
0.14900001 592322.22022219 19990.87587568
0.15000001 585194.86006265 18556.52988814
0.15100001 578135.69995430 14499.64403902
0.15200001 571145.10527027 15729.33694136
0.15300001 564223.46454582 16943.63143986
0.15400001 557367.73963001 12958.80055794
0.15500001 550582.08538092 14171.98354652
0.15600001 543862.07581436 17931.13348586
0.15700001 537214.10503588 15278.36986831
0.15800001 530630.41085015 12655.53589610
0.15900001 524117.45727229 17610.34739557
0.16000001 517669.96979718 20002.76857714
0.16100001 511293.38257818 12424.42978314
0.16200001 504983.17884000 12346.83930548
0.16300001 498740.43520330 22084.22751335
0.16400001 492565.38958055 18286.49095148
0.16500001 486456.90420600 13324.05523525
0.16600001 480416.47580618 14441.31994455
0.16700001 474440.95068588 15542.68627831
0.16800001 468531.41938137 17815.90806318
0.16900001 462690.30926177 17697.90516492
0.17000001 456913.15089433 17579.73431077
0.17100001 451201.31580132 18625.59119580
0.17200001 445555.29105094 18499.45655803
0.17300001 439973.53195690 17224.96458955
0.17400001 434456.16943890 13685.36998363
0.17500001 429002.60091435 14723.36995873
0.17600001 423610.98279571 12371.55933685
0.17700001 418284.18728111 12285.00716067
0.17800001 413018.54751580 15525.36793441
0.17900001 407815.34668392 12112.11636861
0.18000001 402673.89620964 12025.85647834
0.18100001 397594.91077874 13025.20989238
0.18200001 392573.78143594 15086.61113324
0.18300001 387613.68629270 11767.95207176
0.18400001 382712.79801198 13806.36484050
0.18500001 377872.24215807 14759.69047597
0.18600001 373088.65917614 16744.21981488
0.18700001 368362.72882118 17659.31005400
0.18800001 363694.06045398 13403.94523132
0.18900001 359083.82659758 14327.44535818
0.19000001 354526.20133022 12188.61137763
0.19100001 350028.22382849 12096.97598710
0.19200001 345582.05897611 12005.52129611
0.19300001 341192.66221549 10921.57763359
0.19400001 336854.82063633 10838.30436613
0.19500001 332571.41591670 13688.64012599
0.19600001 328340.07699712 11642.93968052
0.19700001 324160.51174978 10590.32441934
0.19800001 320032.72203084 10508.27492449
0.19900001 315955.82711794 10426.54278765
0.20000001 311927.75420614 12226.00890392
0.20100001 307950.79055937 12130.18221343
0.20200001 304020.84691948 12034.66579411
0.20300001 300141.11350115 9184.31850723
0.20400001 296308.13256319 9111.47550698
0.20500001 292521.74985540 10846.70699733
0.20600001 288782.07173765 11656.68887668
0.20700001 285088.66659228 14231.62690900
0.20800001 281439.09240325 14999.29713865
0.20900001 277836.42121821 13127.77152313
0.21000001 274275.92570782 13021.25018852
0.21100001 270759.45564526 9471.16620621
0.21200001 267285.23197017 8539.76356516
0.21300001 263852.76502958 11010.57640521
0.21400001 260462.79922089 10079.91080639
0.21500001 257114.52134170 13328.81741651
0.21600001 253805.60364208 14044.33374153
0.21700001 250536.86253988 9831.06695087
0.21800001 247307.71933167 9748.87075699
0.21900001 244116.19498929 8055.83481554
0.22000001 240962.51939311 12780.65263291
0.22100001 237848.30638955 12672.55836364
0.22200001 234771.03670564 7853.09154913
0.22300001 231728.89666202 8564.70042561
0.22400001 228722.29211910 10807.12881366
0.22500001 225753.90413061 9183.66925430
0.22600001 222817.87254007 9104.33870252
0.22700001 219918.55231157 9777.57929815
0.22800001 217051.95655499 9692.45557832
0.22900001 214217.94970134 8129.57157562
0.23000001 211418.07425388 9523.32760514
0.23100001 208651.37224150 10165.49533636
0.23200001 205915.08475464 9355.75231829
0.23300001 203210.88832843 8559.24302120
0.23400001 200538.51133457 10603.47428831
0.23500001 197895.07365249 8406.58312636
0.23600001 195283.34919923 7636.55573162
0.23700001 192700.66895659 6879.41420713
0.23800001 190147.77872957 10225.19728482
0.23900001 187623.24361502 6754.43708962
0.24000001 185127.15254864 8030.81625742
0.24100001 182660.45629845 7293.63236499
0.24200001 180220.60394518 7882.84958944
0.24300001 177808.50471176 12364.80400255
0.24400001 175422.84504312 8380.82681838
0.24500001 173063.82147013 6386.05531434
0.24600001 170731.37765993 8223.27719399
0.24700001 168424.99291512 10651.19705582
0.24800001 166143.94470577 7446.57195399
0.24900001 163887.29378893 6760.35118861
0.25000001 161656.75628507 7303.65259448
0.25100001 159449.45362435 6629.90859535
0.25200001 157268.08915112 7161.98911877
0.25300001 155110.38762191 5909.70604799
0.25400001 152975.99169145 5851.33195903
0.25500001 150864.60669525 8689.80175678
0.25600001 148777.02369219 6882.42544163
0.25700001 146711.35431556 6813.27561677
0.25800001 144669.12371339 7868.55401106
0.25900001 142649.11597040 5563.31578607
0.26000001 140651.08247259 8810.38422295
0.26100001 138674.20360007 5449.89645935
0.26200001 136719.87208727 8090.39881358
0.26300001 134785.99617715 6405.03084141
0.26400001 132873.53402571 5281.72322744
0.26500001 130982.55241834 6271.44490655
0.26600001 129111.12882765 6722.17124050
0.26700001 127261.33966500 10231.81219324
0.26800001 125432.11145486 9110.13468607
0.26900001 123621.50571547 6008.00546208
0.27000001 121831.86926377 5447.71229193
0.27100001 120061.34404273 6857.90429626
0.27200001 118311.80316145 6782.81599623
0.27300001 116580.75640232 5270.61624638
0.27400001 114866.95508646 4738.26212155
0.27500001 113175.12652405 6091.08559779
0.27600001 111499.99110607 5096.10733468
0.27700001 109844.98351357 5954.69683809
0.27800001 108207.49737171 4528.48397933
0.27900001 106589.83332959 4924.45053289
0.28000001 104988.83852617 5310.33570398
0.28100001 103406.78353951 4374.10715074
0.28200001 101843.38085614 5620.22723855
0.28300001 100297.21926375 6408.99261429
0.28400001 98768.58425712  7178.00720063
0.28500001 97258.06955345  4589.60851946
0.28600001 95764.85095782  4534.94473176
0.28700001 94288.98692008  4073.28442775
0.28800001 92829.61914966  6438.66268898
0.28900001 91389.40387948  5565.61495970
0.29000001 89964.44194306  5497.72730737
0.29100001 88557.51991312  3878.81955580
0.29200001 87167.21674462  3830.99935727
0.29300001 85793.64543865  4161.84993723
0.29400001 84435.97956400  5604.43840885
0.29500001 83096.18565903  3689.47081791
0.29600001 81772.03442811  4735.82759809
0.29700001 80464.25518132  3596.75237687
0.29800001 79172.62215684  6036.51686211
0.29900001 77897.83556223  5608.64442599
0.30000001 76638.37390137  4152.26729454
0.30100001 75396.03915628  5806.24925029
0.30200001 74167.74844393  4382.20162427
0.30300001 72956.85424518  3659.51598218
0.30400001 71761.58319195  4268.02036240
0.30500001 70581.55820072  3563.66304227
0.30600001 69416.23082742  3516.27933903
0.30700001 68267.63638948  4730.94742577
0.30800001 67133.80886591  3422.81740708
0.30900001 66015.61850928  3376.69904662
0.31000001 64912.67139691  3633.81151684
0.31100001 63824.03749017  4779.14415353
0.31200001 62751.19166037  3830.01916433
0.31300001 61692.57182464  4068.00837872
0.31400001 60650.09853850  3725.43247911
0.31500001 59621.38288732  3956.47515573
0.31600002 58607.80726690  3065.48150424
0.31700002 57608.72497105  3847.11083572
0.31800002 56624.07293765  4064.19302753
0.31900002 55654.09171198  3739.95514013
0.32000002 54698.71795826  3950.61509159
0.32100002 53756.90887502  3375.39646809
0.32200002 52830.42284868  3839.45116233
0.32300002 51916.50669405  3027.77081376
0.32400002 51017.12565880  2487.08499363
0.32500002 50131.56256642  2696.57687814
0.32600002 49260.35477104  3141.08667071
0.32700002 48402.20833899  2381.38876304
0.32800002 47558.53582826  2347.01385426
0.32900002 46727.66921809  3006.92565657
0.33000002 45911.19976603  3647.18588212
0.33100002 45105.54961267  2695.50777250
0.33200002 44316.34421352  4205.84284675
0.33300002 43538.77655808  2617.55137063
0.33400002 42774.76448534  3224.14802576
0.33500002 42022.66223796  2329.73650480
0.33600002 41284.59400105  2295.62995814
0.33700002 40558.18397629  3495.71004246
0.33800002 39845.42776374  3039.21014661
0.33900002 39144.31980403  2395.63248546
0.34000002 38456.19245256  2557.14463823
0.34100002 37780.11243388  2131.93184561
0.34200002 37116.90514889  2291.59783242
0.34300002 36464.70685782  2257.89475557
0.34400002 35825.84239362  2224.78491801
0.34500002 35198.17363698  2374.82088776
0.34600002 34583.18048608  2520.07648137
0.34700002 33978.21434158  1951.02915990
0.34800002 33386.35766032  1922.55349692
0.34900002 32805.40597531  1894.51228480
0.35000002 32235.69626309  1866.93043750
0.35100002 31678.11092973  2007.12520357
0.35200002 31130.05508741  1978.00379394
0.35300002 30593.78020850  1949.43576722
0.35400002 30068.70997492  1761.27477020
0.35500002 29554.37619331  2367.30564521
0.35600002 29049.81811839  2022.30318410
0.35700002 28556.33683948  2606.90811355
0.35800002 28073.97635391  1511.78369826
0.35900002 27601.50065738  1639.52921671
0.36000002 27139.48616145  1910.48421883
0.36100002 26686.89254253  1883.82783381
0.36200002 26245.37025658  2000.68466942
0.36300002 25812.57789497  1832.17686577
0.36400002 25389.70144230  1668.10346377
0.36500002 24976.37711311  1645.44380215
0.36600002 24572.83131535  1893.82819918
0.36700002 24177.98008134  1735.01193282
0.36800002 23794.08085091  1712.10316873
0.36900002 23418.01689388  1559.63999901
0.37000002 23050.79729546  1539.33231631
0.37100002 22692.27267581  2025.96620047
0.37200002 22343.50692822  2000.19083496
0.37300002 22002.72825858  1481.22373653
0.37400002 21670.38749572  1462.75122525
0.37500002 21346.98893640  1805.95534957
0.37600002 21031.95937336  1427.22883069
0.37700002 20724.51044223  1175.07979774
0.37800002 20425.06417096  1509.51443906
0.37900002 20134.13139303  1491.93920690
0.38000002 19850.96138725  1928.62024494
0.38100002 19574.52282287  1233.78223197
0.38200002 19306.65943148  1220.08440057
0.38300002 19045.41420912  1316.41909250
0.38400002 18792.54646309  1519.37745352
0.38500002 18545.45692518  1395.91660889
0.38600002 18306.74821633  1275.24814116
0.38700002 18074.39773241  1367.50899722
0.38800002 17848.93267678  1145.63379813
0.38900002 17629.75169980  1134.47457563
0.39000002 17418.34299253  1021.58586491
0.39100002 17212.25789715  1619.32929968
0.39200002 17013.19917837  1103.22095299
0.39300002 16820.15498266  1192.88544789
0.39400002 16634.37892193  1379.82179695
0.39500002 16453.49215577  1466.00622053
0.39600002 16278.69617298  1066.33604333
0.39700002 16109.68695895  1154.09802842
0.39800002 15946.64148730  1049.84719206
0.39900002 15788.97836735  1421.00812039
0.40000002 15636.60362955  1034.59592817
0.40100002 15490.03498744  934.04915400
0.40200002 15348.97422113  1298.98374988
0.40300002 15212.31064629  1382.79910326
0.40400002 15081.23805789  916.18525543
0.40500002 14955.28548991  1092.93231539
0.40600002 14833.97610225  1086.73714074
0.40700002 14717.40601810  1080.84634918
0.40800002 14605.80784951  1164.88626023
0.40900002 14498.38905789  1337.47645396
0.41000002 14395.89399245  1508.76174137
0.41100002 14297.48486290  1148.65998831
0.41200002 14203.12799943  1055.86058551
0.41300002 14113.55787187  1489.96837513
0.41400002 14027.56837767  1222.50264204
0.41500002 13945.94207384  1131.29487463
0.41600002 13867.52975075  1040.89683241
0.41700002 13793.32253615  951.32550040
0.41800002 13723.81015493  948.79566002
0.41900002 13655.90268603  1118.41848298
0.42000002 13592.80076025  858.38540868
0.42100002 13533.48904174  856.66989694
0.42200002 13477.45457719  1539.26016020
0.42300002 13424.12221991  939.15163501
0.42400002 13373.97407009  1364.14541979
0.42500002 13327.30678953  1192.26092189
0.42600002 13282.86386787  935.84421816
0.42700002 13242.66883953  1275.26906968
0.42800002 13204.21179400  934.66017613
0.42900002 13169.92407090  1019.35217139
0.43000002 13137.59047521  934.27979092
0.43100002 13107.00850604  1019.20102973
0.43200002 13080.16198750  1104.42352975
0.43300002 13055.61197577  1104.89649387
0.43400002 13033.43157645  1020.51774080
0.43500002 13013.46835843  1361.72939356
0.43600002 12996.06719347  1107.45991837
0.43700002 12980.43510195  1023.37755193
0.43800002 12966.82839830  1024.63882859
0.43900002 12956.04960849  1197.13904056
0.44000002 12946.70561860  942.06707898
0.44100002 12939.69330672  1286.85256034
0.44200002 12934.38562126  1289.23494790
0.44300002 12930.97995259  1291.80495848
0.44400002 12929.65592692  1208.27640363
0.44500002 12928.83315700  1297.40846879
0.44600002 12930.07426553  1127.04997677
0.44700002 12933.95890391  956.07828749
0.44800002 12937.69250775  958.48899486
0.44900002 12944.72026672  873.76865941
0.45000002 12952.34968952  1314.33974703
0.45100002 12961.05163349  966.63527664
0.45200002 12971.34218576  1057.68329195
0.45300002 12982.56691432  884.11284877
0.45400002 12995.49234698  1153.02511313
0.45500002 13009.39302489  1423.74804012
0.45600002 13024.27739306  1071.37710913
0.45700002 13040.25141469  1254.21144051
0.45800002 13056.90237922  1168.65810284
0.45900002 13074.66128633  1082.58200582
0.46000002 13094.05125906  1267.63516247
0.46100002 13113.12085792  999.61325038
0.46200002 13133.96656530  912.15402119
0.46300002 13155.52716956  1007.18720784
0.46400002 13177.03550182  1378.64740472
0.46500002 13199.84539265  1107.20308401
0.46600002 13223.14539078  926.28137853
0.46700002 13246.65665927  1301.88147818
0.46800002 13271.78882177  1307.13854301
0.46900002 13296.34109143  1312.34892792
0.47000002 13321.75186786  1223.53635829
0.47100002 13347.75936348  1228.52783004
0.47200002 13374.25148427  1138.68382534
0.47300002 13401.18455574  1238.67154720
0.47400002 13427.86157995  1243.75573779
0.47500002 13455.26300514  1633.19990097
0.47600002 13483.41446835  1061.21218603
0.47700002 13510.98398343  1453.10639629
