# SAXS profile: number of points = 501, q_min = 0, q_max = 0.5, delta_q = 0.001
#    q    intensity    error
0.00000000 1682732.95097188 252.40994265
0.00100000 1682646.24742269 605.75266346
0.00200000 1682386.10845550 757.07377278
0.00300000 1681952.74584780 1816.50903023
0.00400000 1681346.04143829 1387.11053689
0.00500000 1680566.64665507 2268.76506278
0.00600000 1679614.38792280 2292.67373285
0.00700000 1678490.04139679 2215.60694672
0.00800000 1677193.36737197 2943.47448401
0.00900000 1675725.77512269 3519.02427819
0.01000000 1674086.61893385 3038.46734456
0.01100000 1672277.55194052 5117.16953174
0.01200000 1670298.44750773 4234.20675008
0.01300000 1668150.59888700 4203.73969460
0.01400000 1665834.27120565 4122.94000401
0.01500000 1663350.83948207 4790.45063102
0.01600000 1660700.13330332 7199.13539970
0.01700000 1657884.31283558 5819.17419909
0.01800000 1654903.87368141 5188.12387744
0.01900000 1651759.74981352 5450.80742034
0.02000000 1648452.67494238 5192.62616096
0.02100000 1644985.47374384 9228.36892610
0.02200000 1641356.76625084 5662.68110083
0.02300000 1637569.58257702 7074.30091874
0.02400000 1633624.56149865 7351.31086195
0.02500000 1629524.13846652 7626.17331632
0.02600000 1625268.63210379 6582.33826109
0.02700000 1620860.00599125 8849.89603805
0.02800000 1616298.68333461 8437.07951393
0.02900000 1611588.15897187 8702.57645802
0.03000000 1606728.82974946 10459.80516246
0.03100000 1601722.46051777 9225.92179710
0.03200000 1596570.19021391 8693.32508611
0.03300000 1591276.24096423 12173.26380457
0.03400000 1585839.25224189 8325.65645842
0.03500000 1580262.86823678 9386.76187079
0.03600000 1574547.99763735 11360.36432796
0.03700000 1568697.81984745 8941.57798666
0.03800000 1562713.44744444 10056.06149970
0.03900000 1556597.74203803 12141.46295017
0.04000000 1550350.72047428 13348.52032184
0.04100000 1543976.18851016 12645.16557021
0.04200000 1537476.28861280 9916.72252162
0.04300000 1530852.22674283 11113.98768204
0.04400000 1524106.96359188 14402.81147484
0.04500000 1517243.12065756 13609.67142467
0.04600000 1510261.17382492 14906.27847860
0.04700000 1503164.74010740 10822.78663212
0.04800000 1495956.02738341 12094.80504414
0.04900000 1488637.37363282 11164.78082194
0.05000000 1481210.58343787 13597.51378914
0.05100000 1473679.52471967 16092.58115960
0.05200000 1466043.49974709 13986.05563936
0.05300000 1458308.10178894 11812.29617515
0.05400000 1450473.84298384 16752.97366772
0.05500000 1442544.86005923 12117.37738976
0.05600000 1434521.37823998 17171.22169881
0.05700000 1426408.98042292 18614.63806342
0.05800000 1418206.68371676 16316.46865802
0.05900000 1409918.34176574 20302.82506969
0.06000000 1401547.92293393 14106.58050337
0.06100000 1393096.70216020 12955.79993553
0.06200000 1384567.45105414 14392.57932647
0.06300000 1375963.50942620 17172.02540052
0.06400000 1367284.21479094 17330.32823296
0.06500000 1358535.92823323 17484.35821424
0.06600000 1349720.14219074 14921.15687006
0.06700000 1340837.62425811 16411.85328898
0.06800000 1331893.03885667 16542.11231692
0.06900000 1322889.74554538 15279.37727641
0.07000000 1313827.26834631 20988.39159469
0.07100000 1304709.94249505 19727.21525450
0.07200000 1295540.09897675 18442.01417288
0.07300000 1286320.74557897 21417.24141741
0.07400000 1277055.10466483 20113.61884108
0.07500000 1267743.51818113 18787.95982008
0.07600000 1258389.32407969 14534.39737450
0.07700000 1248996.48104998 20458.56331887
0.07800000 1239566.24927345 16157.74681702
0.07900000 1230100.07122435 14761.20154705
0.08000000 1220603.57280613 14830.33410530
0.08100000 1211077.51650297 16385.87956708
0.08200000 1201523.04675821 16454.85889750
0.08300000 1191943.86349367 18022.19206184
0.08400000 1182342.95788260 21104.82278884
0.08500000 1172721.98261425 19666.54857169
0.08600000 1163083.80737004 15178.24439882
0.08700000 1153430.40368332 18270.33845228
0.08800000 1143763.44917334 18323.09131628
0.08900000 1134086.53469156 19903.21961869
0.09000000 1124401.91171295 19952.51286063
0.09100000 1114711.02711028 18459.61547620
0.09200000 1105016.17510417 15414.97636700
0.09300000 1095321.40184331 24710.45198678
0.09400000 1085625.45522750 18564.19615686
0.09500000 1075932.67679855 17042.77440155
0.09600000 1066244.57651354 15513.85931754
0.09700000 1056566.09607630 15531.52234250
0.09800000 1046895.79988179 24874.24537472
0.09900000 1037238.04302358 15558.57137696
0.10000000 1027591.96954399 20238.42479192
0.10100000 1017961.75150712 20247.26018974
0.10200000 1008349.41040711 21810.59877300
0.10300000 998755.77756878 18696.70903559
0.10400000 989183.59888977 18695.57089855
0.10500000 979636.32826395 20249.08385792
0.10600001 970110.44258569 20241.35533698
0.10700001 960614.23395739 21786.73185139
0.10800001 951144.27586665 17106.33060651
0.10900001 941705.73399666 27968.66161606
0.11000001 932299.23600307 18627.33961212
0.11100001 922925.16808431 21707.20097517
0.11200001 913587.26443329 21679.42680561
0.11300001 904285.08394075 21648.58592877
0.11400001 895021.45514806 18526.94499390
0.11500001 885797.85773811 16954.17179545
0.11600001 876615.61170977 19999.98612299
0.11700001 867475.97687618 16889.75806520
0.11800001 858379.33358597 19918.69337400
0.11900001 849327.87043359 18345.48286547
0.12000001 840322.48288941 18302.22453946
0.12100001 831366.32151010 18256.80528041
0.12200001 822458.56117994 21244.10563612
0.12300001 813601.56265285 16646.28875616
0.12400001 804795.23884889 15089.91143942
0.12500001 796040.72507359 18054.20449539
0.12600001 787341.46992568 17998.62685066
0.12700001 778695.88385920 14950.96167468
0.12800001 770105.66591711 19372.00893913
0.12900001 761572.35130002 22275.99232544
0.13000001 753096.50319817 17758.01638243
0.13100001 744677.80390496 17693.54545481
0.13200001 736318.43556903 19096.41952669
0.13300001 728019.89609227 17559.84072157
0.13400001 719780.93889784 23320.90351977
0.13500001 711604.26213521 18871.74592159
0.13600001 703488.48127879 17348.02676631
0.13700001 695436.73085515 15835.09510825
0.13800001 687446.39095949 21499.88689110
0.13900001 679521.22231438 24258.90878063
0.14000001 671660.21029020 18467.29835286
0.14100001 663863.70620375 15554.32736994
0.14200001 656132.28872213 15481.44208259
0.14300001 648468.01882224 16808.29184068
0.14400001 640867.06869393 22302.17504254
0.14500001 633334.64417510 15257.03229788
0.14600001 625868.30857491 16560.47622612
0.14700001 618471.13989793 15103.06594882
0.14800001 611137.93077173 15024.82673687
0.14900001 603873.93878697 17663.31354289
0.15000001 596677.09002587 14866.21039943
0.15100001 589548.61642262 17474.22181529
0.15200001 582488.35690302 17378.54094824
0.15300001 575497.35162471 14623.38839485
0.15400001 568572.05705900 13219.30095045
0.15500001 561716.78813613 17087.42550151
0.15600001 554927.16448013 15682.24240833
0.15700001 548209.67875206 15591.08399956
0.15800001 541556.40872207 16790.95724494
0.15900001 534973.73911328 14123.30737922
0.16000001 528456.66623649 16590.89781963
0.16100001 522010.59066616 16490.31533756
0.16200001 515630.91129481 13867.89401392
0.16300001 509318.46994743 15035.08194262
0.16400001 503073.99930465 18676.62310590
0.16500001 496895.93163375 18559.06392272
0.16600001 490786.10813217 18441.28888374
0.16700001 484741.23470141 13437.02766035
0.16800001 478762.46797712 14563.95496352
0.16900001 472852.00446352 15675.04468811
0.17000001 467005.69599550 16770.17533508
0.17100001 461224.68096636 14279.51679702
0.17200001 455509.38404906 14184.56288912
0.17300001 449858.76656201 11741.31436175
0.17400001 444272.66999472 13994.58976574
0.17500001 438750.06576844 12741.30251166
0.17600001 433289.71328870 17255.76364670
0.17700001 427894.35178185 15994.69162504
0.17800001 422559.96483425 13614.88271002
0.17900001 417288.35696085 11266.78617011
0.18000001 412078.41500473 15663.10129418
0.18100001 406931.18719701 15552.91070933
0.18200001 401841.95322063 16545.84320545
0.18300001 396814.00083143 16428.10041047
0.18400001 391845.14665617 10873.70333339
0.18500001 386936.96632010 10795.54187033
0.18600001 382085.73350315 18219.75906286
0.18700001 377292.35463867 10639.64490348
0.18800001 372556.36677803 14786.76289604
0.18900001 367879.04711651 13629.91933965
0.19000001 363254.12916438 10407.23129229
0.19100001 358689.44163636 13429.33332940
0.19200001 354176.50363388 13329.43334409
0.19300001 349720.56612461 14247.61653715
0.19400001 345316.34846800 13130.65477097
0.19500001 340966.68316419 14034.18934223
0.19600001 336669.34540109 12933.15351476
0.19700001 332423.93326432 11847.58954143
0.19800001 328230.54704488 13716.75520924
0.19900001 324088.09881936 12639.43645129
0.20000001 319994.77312478 10612.62715225
0.20100001 315952.65296304 11488.03900469
0.20200001 311957.86778644 10449.02927536
0.20300001 308013.21394476 16022.84814672
0.20400001 304115.78161943 12157.02894485
0.20500001 300265.19458329 12061.65343653
0.20600001 296461.48521212 11046.15546113
0.20700001 292704.18076875 15525.03048183
0.20800001 288990.90970910 13589.79817146
0.20900001 285324.94473077 9886.50980227
0.21000001 281701.10823196 11590.59264612
0.21100001 278121.72947150 11497.55283988
0.21200001 274584.69169389 9650.27944579
0.21300001 271089.63388679 10442.37319099
0.21400001 267637.31916175 10357.56474123
0.21500001 264227.10089004 10273.15016829
0.21600001 260856.29962356 8490.87295418
0.21700001 257526.06422866 11789.54377779
0.21800001 254235.55946115 11692.29393244
0.21900001 250982.95246440 9938.92538752
0.22000001 247768.46321333 9034.87743827
0.22100001 244593.67168776 9773.96358279
0.22200001 241456.09505085 9692.04811362
0.22300001 238353.90032843 9610.42971568
0.22400001 235287.38447996 11911.42440255
0.22500001 232259.50203552 13385.11573525
0.22600001 229264.28351749 8587.09414522
0.22700001 226306.07361153 7739.66808352
0.22800001 223380.54566199 7673.12210635
0.22900001 220488.11200241 12931.62838049
0.23000001 217630.16951098 8294.97430320
0.23100001 214805.55111204 10465.32694511
0.23200001 212011.46367365 9632.74130758
0.23300001 209250.01699038 8079.14353810
0.23400001 206520.61787908 9463.80776190
0.23500001 203820.29994755 7936.76285534
0.23600001 201152.07540056 10011.33926619
0.23700001 198513.21557766 9921.69098385
0.23800001 195904.33042745 9130.12175141
0.23900001 193324.15054981 8351.60369878
0.24000001 190772.66160228 9655.00486038
0.24100001 188250.97197112 8200.21272694
0.24200001 185756.27751310 10156.22495344
0.24300001 183289.72018823 6708.40407622
0.24400001 180849.93050167 8640.10583843
0.24500001 178436.99823983 7901.19065582
0.24600001 176051.04943074 8479.49919696
0.24700001 173691.26619768 9045.84157150
0.24800001 171357.32138306 7040.21588207
0.24900001 169048.08424571 7607.16415093
0.25000001 166765.13549550 8162.31994297
0.25100001 164505.64847709 6840.14518728
0.25200001 162272.66091238 9237.37165945
0.25300001 160063.44869730 6098.41768389
0.25400001 157877.92515018 7246.59710724
0.25500001 155715.69463987 8969.22443561
0.25600001 153577.51402529 7696.53747952
0.25700001 151461.73672717 6447.72643754
0.25800001 149369.63104362 6383.31148467
0.25900001 147299.94041931 6893.63753779
0.26000001 145252.60940886 6255.30392017
0.26100001 143226.74863752 6754.57378535
0.26200001 141223.76560313 5571.27781666
0.26300001 139241.51570422 6616.75713935
0.26400001 137281.17055061 5456.92678760
0.26500001 135342.48749773 6480.19860803
0.26600001 133423.61874792 6412.33942045
0.26700001 131526.75480119 7931.06368981
0.26800001 129650.70437311 7323.96863661
0.26900001 127793.71711479 6210.77494568
0.27000001 125957.85583872 6144.22449857
0.27100001 124141.62097629 6077.97405063
0.27200001 122346.59269943 5511.10252895
0.27300001 120570.34780470 5946.52983514
0.27400001 118811.66802954 7351.47230723
0.27500001 117075.32497340 5816.30241994
0.27600001 115355.88516209 6230.94843192
0.27700001 113657.08630198 5213.45079541
0.27800001 111976.00078945 5154.81544031
0.27900001 110315.03168959 5096.55470527
0.28000001 108671.07899530 5496.58343573
0.28100001 107046.36564475 4980.86762919
0.28200001 105440.61098204 4475.95414803
0.28300001 103852.41209749 5751.34685417
0.28400001 102282.19741408 4809.82056105
0.28500001 100730.26372774 4321.32851845
0.28600001 99195.99406476  5978.54284526
0.28700001 97679.32282176  4641.72164019
0.28800001 96179.55522459  6254.07587450
0.28900001 94699.20909747  6179.12368609
0.29000001 93234.50506902  4476.65497279
0.29100001 91788.13757446  6834.54504731
0.29200001 90358.56788322  3971.25924645
0.29300001 88946.16973557  4314.77889812
0.29400001 87550.01390475  6198.54127787
0.29500001 86171.97981570  4591.24330192
0.29600001 84809.86337746  5289.59142925
0.29700001 83464.52384332  5969.38302785
0.29800001 82135.51968954  4420.53387895
0.29900001 80823.81518098  5091.90059745
0.30000001 79527.69400082  4667.87822035
0.30100001 78248.86316676  4962.54313696
0.30200001 76984.66790927  3848.84865433
0.30300001 75737.96492361  3799.01650042
0.30400001 74507.18878365  6135.66728681
0.30500001 73291.96907828  3700.51169395
0.30600001 72091.85700906  3983.79620692
0.30700001 70908.69885328  5241.57126739
0.30800001 69740.66587528  4525.47202290
0.30900001 68588.47667967  3827.23717992
0.31000001 67451.92706472  3775.95905585
0.31100001 66329.94052228  4345.93790878
0.31200001 65224.04183797  3980.94958206
0.31300001 64132.72061457  3926.84666915
0.31400001 63057.86528864  3575.38113115
0.31500001 61996.93457727  3526.38580572
0.31600002 60951.48770238  3767.71639072
0.31700002 59920.79623703  3715.68875059
0.31800002 58904.93038483  3382.32126284
0.31900002 57903.97830231  3057.33019912
0.32000002 56917.96067796  3562.77991733
0.32100002 55945.65328306  2702.17518152
0.32200002 54989.16248264  3463.49256297
0.32300002 54045.25295127  4202.55906849
0.32400002 53116.41711731  3366.25309421
0.32500002 52201.62394104  2807.92548475
0.32600002 51301.45059482  2767.96989791
0.32700002 50414.64046560  3224.52055687
0.32800002 49542.46232667  2689.41269476
0.32900002 48683.43734543  3132.77934153
0.33000002 47839.13380434  2612.73441645
0.33100002 47006.03799212  2809.08096343
0.33200002 46189.42773378  2768.59442947
0.33300002 45384.78625653  3638.04463860
0.33400002 44594.10090143  2464.93904406
0.33500002 43815.43294050  3091.61709469
0.33600002 43051.16340704  2393.86005461
0.33700002 42298.77217724  2573.45742113
0.33800002 41560.51870651  2113.35247631
0.33900002 40833.82941145  2082.52539861
0.34000002 40120.58918639  2257.38505748
0.34100002 39419.60160503  2426.67078973
0.34200002 38731.82688510  2391.30310514
0.34300002 38055.22957685  2749.10991483
0.34400002 37392.34446484  3096.08626832
0.34500002 36740.71426961  2288.21179308
0.34600002 36102.10578725  2818.67204283
0.34700002 35473.75346654  2222.07602238
0.34800002 34858.86107505  3649.72292741
0.34900002 34255.02030875  2158.06638166
0.35000002 33662.78714272  2658.51874051
0.35100002 33082.75559304  2096.12349365
0.35200002 32512.71682117  2065.85812466
0.35300002 31954.52911669  2205.82124940
0.35400002 31407.87240831  2006.96314195
0.35500002 30872.23934922  1978.29319120
0.35600002 30346.55552496  2112.57556293
0.35700002 29832.09330285  2082.57853211
0.35800002 29329.02560026  1737.30491372
0.35900002 28836.18650613  1557.15414509
0.36000002 28354.06075863  2303.05869421
0.36100002 27881.42951033  1968.15020236
0.36200002 27420.20172637  2538.15109302
0.36300002 26967.87200480  1472.44588121
0.36400002 26525.77314610  1742.74337825
0.36500002 26093.32953531  1432.52385934
0.36600002 25671.04546627  1554.51023184
0.36700002 25257.59150121  1533.64102860
0.36800002 24855.31371404  1375.74167924
0.36900002 24461.09982074  1357.59110436
0.37000002 24075.93479066  1875.75616839
0.37100002 23699.72617521  1454.68926154
0.37200002 23333.51339462  1827.71419078
0.37300002 22975.32267587  1288.91566317
0.37400002 22625.94201135  1909.06394764
0.37500002 22285.61553357  1633.98140832
0.37600002 21953.90255550  1365.64257316
0.37700002 21630.00440417  1471.70556938
0.37800002 21314.35938161  1454.06566590
0.37900002 21007.43947155  1556.65133858
0.38000002 20708.35679500  1301.83091159
0.38100002 20416.20841152  1637.78831636
0.38200002 20132.90448948  1850.61666834
0.38300002 19856.38926337  1143.72807575
0.38400002 19588.47505789  1470.60483464
0.38500002 19326.49914156  1342.80522397
0.38600002 19073.23010963  1660.80159048
0.38700002 18826.22428885  1424.39219717
0.38800002 18586.52581349  1301.42859912
0.38900002 18353.17117128  1395.75873370
0.39000002 18127.92996774  1275.84377157
0.39100002 17907.98634328  1579.48447031
0.39200002 17695.36361766  1356.08425509
0.39300002 17488.84658753  1136.94997052
0.39400002 17289.95211207  1536.64456676
0.39500002 17096.03394722  1421.70625041
0.39600002 16908.39135783  1308.96317898
0.39700002 16726.67353105  1098.44070283
0.39800002 16551.08409419  1584.93188795
0.39900002 16381.02942143  1277.72035541
0.40000002 16216.53171344  1072.96687166
0.40100002 16057.93295832  1065.12274359
0.40200002 15905.01082426  1538.33271981
0.40300002 15756.68967441  1145.82652741
0.40400002 15614.08911027  1043.41155423
0.40500002 15476.71715220  1225.29175499
0.40600002 15344.20307188  1217.79273450
0.40700002 15216.61842666  1117.50851020
0.40800002 15094.07393440  1574.23651558
0.40900002 14975.97143558  1197.32897301
0.41000002 14862.91299234  1099.55835527
0.41100002 14753.99461449  1094.15629245
0.41200002 14649.36801723  1179.78690917
0.41300002 14549.60018085  1174.58927826
0.41400002 14453.67289000  1079.68941604
0.41500002 14362.18764084  1165.06071663
0.41600002 14274.00153696  982.12272229
0.41700002 14190.28161604  1423.56911918
0.41800002 14111.23843260  975.58051526
0.41900002 14034.07275877  1149.39061341
0.42000002 13961.93144623  1058.03521513
0.42100002 13893.48473001  1231.24067512
0.42200002 13828.58826781  1228.39355404
0.42300002 13766.44319942  1225.76416056
0.42400002 13707.67788925  873.86450685
0.42500002 13652.45204547  1046.87007245
0.42600002 13599.66828950  1219.48231331
0.42700002 13551.14753812  1391.97394108
0.42800002 13504.66811811  1216.63560841
0.42900002 13462.30546376  955.15061792
0.43000002 13422.06412424  1128.05743278
0.43100002 13383.73276066  953.99251639
0.43200002 13349.25332330  1040.44085332
0.43300002 13317.11918049  866.94449973
0.43400002 13287.57709409  1040.41733577
0.43500002 13260.29450315  1387.55728256
0.43600002 13235.69942949  1041.12016646
0.43700002 13212.96570760  1562.56539863
0.43800002 13192.35612312  1129.33169944
0.43900002 13174.75817241  1304.30112088
0.44000002 13158.63696210  957.48826392
0.44100002 13144.99077210  958.66422244
0.44200002 13133.15265785  1047.23764257
0.44300002 13123.24739093  961.40914942
0.44400002 13115.62273587  1138.10821684
0.44500002 13108.52527726  1052.35245913
0.44600002 13103.57844973  1405.75196271
0.44700002 13101.41921001  1320.62311895
0.44800002 13099.20167181  1146.90065673
0.44900002 13100.30717532  1061.12493149
0.45000002 13102.23747384  1418.18625138
0.45100002 13105.29025148  1066.24646539
0.45200002 13110.01411761  1425.32080242
0.45300002 13115.66893774  1250.44793579
0.45400002 13123.15413491  895.65531216
0.45500002 13131.73917784  1257.49540327
0.45600002 13141.42135275  900.84447643
0.45700002 13152.26568548  1084.27283450
0.45800002 13163.82206569  1178.22794983
0.45900002 13176.55623512  1545.61011963
0.46000002 13191.06580015  1277.02714064
0.46100002 13205.21562682  1006.63363494
0.46200002 13221.38509665  1101.87028618
0.46300002 13238.21744433  1105.65597335
0.46400002 13255.14019200  1294.36450110
0.46500002 13273.46254825  1298.94110654
0.46600002 13292.26403085  931.12313949
0.46700002 13311.36805113  1121.34969777
0.46800002 13332.24300987  1594.46967834
0.46900002 13352.54865587  1035.49019734
0.47000002 13373.80613105  1039.34539274
0.47100002 13395.63855174  1232.93463074
0.47200002 13418.13001262  1523.22619123
0.47300002 13441.12711651  1433.49627492
0.47400002 13463.90262315  1438.95466105
0.47500002 13487.41383596  1444.50209030
0.47600002 13511.87641838  1160.12976427
0.47700002 13535.69110184  1067.56000780
