# SAXS profile: number of points = 501, q_min = 0, q_max = 0.5, delta_q = 0.001
#    q    intensity    error
0.00000000 1664650.74656089 324.60689558
0.00100000 1664564.42740210 649.18014210
0.00200000 1664305.43824785 1348.08744767
0.00300000 1663873.99967654 1397.65420952
0.00400000 1663269.97517506 1871.17879317
0.00500000 1662494.03718888 2244.36703904
0.00600000 1661545.98739747 2442.47270091
0.00700000 1660426.62617558 2590.26564449
0.00800000 1659135.70661662 2463.81662835
0.00900000 1657674.61478198 2735.16323131
0.01000000 1656042.75002642 3825.45891774
0.01100000 1654241.71646749 4168.68930700
0.01200000 1652271.40219905 3544.12231310
0.01300000 1650133.12522119 4851.39160212
0.01400000 1647827.11650847 4078.37229416
0.01500000 1645354.75941495 5528.39223781
0.01600000 1642715.87700619 5864.49594308
0.01700000 1639912.66978560 7084.42305127
0.01800000 1636945.56635103 8397.53113325
0.01900000 1633815.53552621 5391.59151052
0.02000000 1630523.32622118 7190.60819391
0.02100000 1627071.65570975 5906.27037801
0.02200000 1623459.29603502 6721.12179094
0.02300000 1619689.20528562 8746.32210666
0.02400000 1615762.04717989 8482.75113449
0.02500000 1611680.12535215 7542.66333113
0.02600000 1607443.99109820 8463.19300022
0.02700000 1603055.34804214 8079.39932418
0.02800000 1598514.82187619 6953.53979405
0.02900000 1593825.77988792 8606.65960656
0.03000000 1588988.64732849 9605.43681462
0.03100000 1584005.25913739 9123.87071245
0.03200000 1578876.66061413 10160.07177901
0.03300000 1573607.02521511 8827.93581843
0.03400000 1568195.15335611 13172.83989599
0.03500000 1562644.58427592 10125.93737370
0.03600000 1556956.20467356 15553.99320350
0.03700000 1551133.26379647 14146.33602006
0.03800000 1545176.84373060 11751.07044041
0.03900000 1539089.73712599 12928.35439057
0.04000000 1532871.99226261 15083.46110282
0.04100000 1526527.56776997 16349.11100887
0.04200000 1520058.31192660 10784.81422346
0.04300000 1513465.65792174 10987.76118654
0.04400000 1506752.37885861 15255.86854446
0.04500000 1499921.33214514 15524.18650903
0.04600000 1492972.77055891 14735.64193043
0.04700000 1485910.52550515 11768.41190933
0.04800000 1478736.44586598 11955.58472110
0.04900000 1471453.13205970 14346.66870538
0.05000000 1464062.43983432 22400.15637255
0.05100000 1456568.17648191 12497.35553639
0.05200000 1448969.42306672 16127.03043027
0.05300000 1441272.05101138 16344.02582039
0.05400000 1433476.40563857 14191.41707762
0.05500000 1425586.63527066 11974.92829490
0.05600000 1417602.93512910 12120.50566095
0.05700000 1409531.06547826 18394.38126311
0.05800000 1401369.92784073 13642.33688452
0.05900000 1393123.35448527 13791.92185357
0.06000000 1384795.26406050 13937.96498393
0.06100000 1376386.92888252 15360.47884415
0.06200000 1367901.18932881 18097.33358075
0.06300000 1359341.28239163 16964.57999743
0.06400000 1350706.70236332 22387.96463868
0.06500000 1342003.81347604 14614.42221238
0.06600000 1333233.92966162 20098.50243003
0.06700000 1324397.85602420 20263.28814547
0.06800000 1315500.03606241 16338.51121269
0.06900000 1306544.29453357 16462.45888188
0.07000000 1297530.06867210 16582.43505416
0.07100000 1288461.48046522 18090.00003303
0.07200000 1279340.82763783 15409.66099079
0.07300000 1270171.15114763 16918.68052602
0.07400000 1260955.73305753 14185.75266170
0.07500000 1251694.84864502 15696.25413773
0.07600000 1242391.95714634 15784.59055554
0.07700000 1233050.93513378 15869.36627926
0.07800000 1223673.03818702 15950.57880079
0.07900000 1214259.60268328 23313.78546502
0.08000000 1204816.46008730 16102.37274445
0.08100000 1195344.14775861 14702.73370726
0.08200000 1185843.95653251 16240.13374678
0.08300000 1176319.47608197 16303.78870367
0.08400000 1166773.90908478 17851.64164693
0.08500000 1157208.63850999 17913.59056509
0.08600000 1147626.52680023 20967.13762908
0.08700000 1138029.81534296 15021.99426793
0.08800000 1128419.75327751 16570.84485511
0.08900000 1118800.34212763 19634.94692659
0.09000000 1109173.53155611 16654.24135866
0.09100000 1099540.85822391 15173.66455637
0.09200000 1089904.82362709 16724.59030439
0.09300000 1080269.17462334 16754.97568576
0.09400000 1070632.71474879 22884.77535328
0.09500000 1060999.87504745 18334.07870257
0.09600000 1051372.13258264 19886.70482263
0.09700000 1041754.37458690 21439.30603692
0.09800000 1032145.29386705 16860.09416804
0.09900000 1022548.70816402 26074.99328429
0.10000000 1012964.73083869 18415.69967269
0.10100000 1003396.53848826 19957.55808917
0.10200000 993846.56125054 23032.39514034
0.10300000 984315.95328424 18426.39551227
0.10400000 974806.94441239 16888.53110647
0.10500000 965323.12035801 18418.36600300
0.10600001 955861.19858434 19944.04484690
0.10700001 946429.10587947 18398.58268409
0.10800001 937023.44270501 22980.50101384
0.10900001 927649.74258829 22959.33220966
0.11000001 918308.41477178 16818.81940820
0.11100001 908999.64305476 16798.31419441
0.11200001 899727.40590344 18300.45629761
0.11300001 890491.04088751 22841.09627414
0.11400001 881293.78810545 24323.70969698
0.11500001 872136.38600294 18210.20859722
0.11600001 863020.96357028 15146.01862391
0.11700001 853948.35064225 16626.37517002
0.11800001 844918.82863058 22622.70270207
0.11900001 835934.77925079 18056.19208229
0.12000001 826996.87125111 21013.99148835
0.12100001 818108.56403865 22457.08114077
0.12200001 809268.99887157 25382.72334542
0.12300001 800480.19713184 16377.82560495
0.12400001 791742.25360089 16329.68474993
0.12500001 783056.51265367 16279.74566518
0.12600001 774426.21754083 16228.10215329
0.12700001 765849.56138171 19115.60595294
0.12800001 757328.63848986 17585.17181451
0.12900001 748864.64391384 14602.86124458
0.13000001 740458.19309465 14550.00418012
0.13100001 732109.29050715 17394.91756240
0.13200001 723819.71824397 21660.30608952
0.13300001 715591.11214781 15821.72023547
0.13400001 707422.23824489 15757.83109982
0.13500001 699315.78441983 14266.04267478
0.13600001 691270.37405998 18467.28891376
0.13700001 683289.06220649 19801.71795646
0.13800001 675369.43488560 14081.45338139
0.13900001 667514.79345846 19624.93585315
0.14000001 659724.46723894 15348.49045416
0.14100001 651998.80490538 16665.09023936
0.14200001 644338.31406027 15203.16323731
0.14300001 636744.96217434 20630.53774754
0.14400001 629214.93391997 16422.51054996
0.14500001 621753.72079785 16339.68855335
0.14600001 614358.67284631 18965.25312544
0.14700001 607032.65837912 17518.96334731
0.14800001 599770.69717717 16085.85085720
0.14900001 592577.87909292 25332.70552644
0.15000001 585452.52106821 17238.65029622
0.15100001 578395.32473046 13187.41402610
0.15200001 571406.56713753 15736.53760153
0.15300001 564486.84548774 16951.54076992
0.15400001 557632.88955148 14261.46182329
0.15500001 550848.99696556 19334.80070596
0.15600001 544130.74543610 15377.13559175
0.15700001 537484.63530214 16559.90239523
0.15800001 530902.61626434 17726.83919375
0.15900001 524391.27915571 16361.00868191
0.16000001 517945.57330562 16260.90204148
0.16100001 511570.77257349 13674.28739637
0.16200001 505262.21118469 16059.76014062
0.16300001 499021.00394470 13503.50900421
0.16400001 492847.55260460 21956.35950509
0.16500001 486740.70319689 13331.82848998
0.16600001 480701.84692414 12041.58183397
0.16700001 474727.76163108 14355.76818953
0.16800001 468819.88889274 17826.87711687
0.16900001 462980.20193573 12986.59527750
0.17000001 457204.48161937 12900.02505803
0.17100001 451494.13609519 13978.25911358
0.17200001 445849.37022104 16197.70838503
0.17300001 440269.18836790 11491.02635906
0.17400001 434753.19205910 15977.18056271
0.17500001 429300.83257433 12466.89676674
0.17600001 423910.62850578 11254.82771838
0.17700001 418585.23584350 16764.33948732
0.17800001 413320.55301726 13317.18884721
0.17900001 408118.70517227 13223.04667215
0.18000001 402978.45935726 13129.03882601
0.18100001 397900.65865423 17380.30159100
0.18200001 392880.71153056 10784.57604095
0.18300001 387921.77619968 12847.96983466
0.18400001 383021.93727726 11691.74518771
0.18500001 378182.43778507 13716.67766647
0.18600001 373399.90920602 11521.25474286
0.18700001 368675.07609127 11436.30140066
0.18800001 364007.46998672 11351.57348785
0.18900001 359398.08406224 15364.26881958
0.19000001 354841.33551982 13216.06616588
0.19100001 350344.37584143 10089.91850098
0.19200001 345898.95416776 13017.90775522
0.19300001 341510.58125065 11925.55006079
0.19400001 337173.47891102 10848.55719660
0.19500001 332890.98205647 9786.99533495
0.19600001 328660.31346898 12625.48653855
0.19700001 324481.53186127 13491.94273239
0.19800001 320354.52499536 10518.84132533
0.19900001 316278.18392745 10437.18056287
0.20000001 312250.76613088 10355.79714816
0.20100001 308274.50185750 13077.00498684
0.20200001 304345.15555965 10194.04146728
0.20300001 300465.84876359 11952.53202875
0.20400001 296633.31630057 13682.21236106
0.20500001 292847.61933322 10858.79023814
0.20600001 289108.50510817 9874.50145872
0.20700001 285415.45901884 12466.94783924
0.20800001 281766.45304347 8833.37872047
0.20900001 278164.09856031 8762.16951885
0.21000001 274603.94788562 12167.70150601
0.21100001 271087.94438577 10344.71644679
0.21200001 267613.95006602 9405.29271970
0.21300001 264181.75630654 12720.35216752
0.21400001 260792.03085000 9251.59773179
0.21500001 257444.07452347 8341.18840891
0.21600001 254135.34192520 9099.31634783
0.21700001 250866.84661449 9844.01552657
0.21800001 247637.84563119 11388.86505905
0.21900001 244446.32215889 12906.76642024
0.22000001 241292.80298267 11198.39951591
0.22100001 238178.59306515 8724.48227650
0.22200001 235101.56521585 13369.05113815
0.22300001 232059.29549930 10136.35050671
0.22400001 229052.70460897 10822.74080454
0.22500001 226084.24788108 8430.68200215
0.22600001 223148.25572372 12157.11754672
0.22700001 220248.79694891 9039.01105423
0.22800001 217382.03289571 7467.07318309
0.22900001 214547.88508903 9622.47310130
0.23000001 211747.95556530 7337.06700732
0.23100001 208980.97458796 11636.06121536
0.23200001 206244.36308365 7929.06491374
0.23300001 203540.01631079 9287.53138351
0.23400001 200867.40957815 9204.74947926
0.23500001 198223.62554164 7017.11667606
0.23600001 195611.50339209 9040.18605684
0.23700001 193028.56498066 7580.23210532
0.23800001 190475.21577535 10925.65889364
0.23900001 187950.27864041 8119.45242131
0.24000001 185453.77246404 7374.56961085
0.24100001 182986.67570146 7970.89997059
0.24200001 180546.17330518 7238.99916109
0.24300001 178133.76745244 8475.60505631
0.24400001 175747.54669036 8396.33944031
0.24500001 173387.88167345 8957.21839097
0.24600001 171055.15096346 8238.87173590
0.24700001 168748.01954306 10671.62526073
0.24800001 166466.32131329 8082.77261374
0.24900001 164209.03375346 7389.40686848
0.25000001 161977.77022122 6708.30967107
0.25100001 159769.66962254 9662.87007591
0.25200001 157587.76866920 8970.68415589
0.25300001 155429.24557921 7698.41089775
0.25400001 153294.15614468 6449.85192494
0.25500001 151182.00011903 7547.00580301
0.25600001 149093.59266039 9196.09323038
0.25700001 147027.00631124 5689.94541346
0.25800001 144984.07903064 7885.68443158
0.25900001 142963.10006012 7805.78563261
0.26000001 140964.11227674 8278.11788513
0.26100001 138986.33738224 6554.59598108
0.26200001 137031.08953554 5946.46441176
0.26300001 135096.35136745 5884.79734402
0.26400001 133182.94918875 7941.03372113
0.26500001 131290.92827301 6286.20994317
0.26600001 129418.44639258 7774.81353494
0.26700001 127567.71001962 7179.51105964
0.26800001 125737.31011076 6595.55091397
0.26900001 123925.76650118 7026.59129313
0.27000001 122134.96824127 6454.22270214
0.27100001 120363.42398825 5892.99351734
0.27200001 118612.74791895 5828.63070857
0.27300001 116880.43894534 7686.05802878
0.27400001 115165.52787435 6650.80954949
0.27500001 113472.51767513 5167.53869948
0.27600001 111796.10508986 6038.66690221
0.27700001 110139.95139696 5511.40342874
0.27800001 108501.22565231 5448.93181014
0.27900001 106882.37181170 6284.68375997
0.28000001 105280.07991519 6212.57780983
0.28100001 103696.69154323 6579.55538982
0.28200001 102131.96621522 6069.70303945
0.28300001 100584.48915969 4284.89944101
0.28400001 99054.61006936  5081.50173707
0.28500001 97542.66541705  4603.03859890
0.28600001 96048.10720055  4961.84545283
0.28700001 94570.85919457  4085.46131058
0.28800001 93110.22182131  5650.85962981
0.28900001 91668.48006867  5183.85279325
0.29000001 90242.12988357  5908.60373381
0.29100001 88833.79790306  4669.10463880
0.29200001 87442.01991406  5380.30773999
0.29300001 86066.97166643  4554.66435619
0.29400001 84707.88468229  5622.48611194
0.29500001 83366.53674462  4811.91672868
0.29600001 82040.89764103  5116.89102809
0.29700001 80731.65268799  4691.31655978
0.29800001 79438.48630869  4275.37953552
0.29900001 78162.16680374  4220.75720721
0.30000001 76901.22837008  3472.09062528
0.30100001 75657.21089154  3769.99899720
0.30200001 74427.41997426  4397.54431736
0.30300001 73214.90997334  4006.32006341
0.30400001 72018.00729239  3953.78878753
0.30500001 70836.45137705  4877.08990820
0.30600001 69669.51827538  3529.10961532
0.30700001 68519.28092760  3482.15002160
0.30800001 67383.81670220  3435.56405721
0.30900001 66263.97987669  4313.78529421
0.31000001 65159.33216851  3647.61958749
0.31100001 64069.03720683  2998.43108324
0.31200001 62994.49723156  3253.35096356
0.31300001 61934.20749869  3500.52157356
0.31400001 60890.17091196  3164.76678299
0.31500001 59859.65976624  3404.81760871
0.31600002 58844.43292797  3357.66350185
0.31700002 57843.59673057  4414.62351150
0.31800002 56857.25980913  3536.80601389
0.31900002 55885.44387122  3219.00171940
0.32000002 54928.42068275  2909.28393921
0.32100002 53984.81693269  3128.96013757
0.32200002 53056.62169278  3084.71213128
0.32300002 52140.86702972  3040.85550916
0.32400002 51239.79398510  4246.49812759
0.32500002 50352.42693500  3939.57406994
0.32600002 49479.49216136  2669.66612598
0.32700002 48619.58371062  3109.70872138
0.32800002 47774.03930752  2593.41384661
0.32900002 46941.34968452  3020.67599524
0.33000002 46123.15933245  2977.01946009
0.33100002 45315.71993954  2708.06755183
0.33200002 44524.67142695  2668.80893171
0.33300002 43745.27877071  2849.13014126
0.33400002 42979.49006553  2375.69142587
0.33500002 42225.49070409  2340.98131549
0.33600002 41485.64117805  2516.51911303
0.33700002 40757.40306996  2479.68052021
0.33800002 40042.82521944  2036.17775884
0.33900002 39339.83979155  2206.96511682
0.34000002 38649.80099301  2174.63115586
0.34100002 37971.93128109  2727.14423376
0.34200002 37306.90328455  2495.27234436
0.34300002 36652.81492911  1891.28533991
0.34400002 36012.10373089  2609.07703887
0.34500002 35382.54647724  1836.35424914
0.34600002 34765.72500221  1990.51167927
0.34700002 34158.80880503  1961.39889448
0.34800002 33565.18855063  1757.13770385
0.34900002 32982.31724618  2770.51477990
0.35000002 32410.72626484  2559.63722800
0.35100002 31851.25880687  1849.92119912
0.35200002 31301.33843797  2320.36832831
0.35300002 30763.12537668  2450.28305231
0.35400002 30236.27438248  1932.09802455
0.35500002 29720.04501125  1745.75552665
0.35600002 29213.60549844  1720.82751339
0.35700002 28718.22052390  1696.38536670
0.35800002 28233.98337301  1824.48009198
0.35900002 27759.60336044  2398.42984394
0.36000002 27295.68809518  2069.28621251
0.36100002 26841.16515791  1603.22287082
0.36200002 26397.81766299  1581.09736382
0.36300002 25963.09900892  1842.86085494
0.36400002 25538.33980241  2376.98108970
0.36500002 25123.00759936  1930.95445555
0.36600002 24717.65000244  2177.13071534
0.36700002 24320.92925846  2013.77303799
0.36800002 23935.12051205  1854.73257634
0.36900002 23557.13319901  1830.38933627
0.37000002 23187.99475971  1677.53556035
0.37100002 22827.64619183  1783.29580498
0.37200002 22477.04937444  1634.86826369
0.37300002 22134.33822656  1365.91007666
0.37400002 21800.09668716  1716.75769544
0.37500002 21474.81909871  1937.88776727
0.37600002 21157.81817425  1794.71201165
0.37700002 20848.52620247  1654.95608835
0.37800002 20547.23245051  1635.35430821
0.37900002 20254.42105418  1269.95226026
0.38000002 19969.28825803  1597.74282921
0.38100002 19690.97101872  1241.12196211
0.38200002 19421.28153977  1450.47848051
0.38300002 19158.10092553  1213.85733215
0.38400002 18903.42731078  1091.67297891
0.38500002 18654.41220977  1296.10862174
0.38600002 18413.87365339  1068.92541622
0.38700002 18179.62012984  1269.66473002
0.38800002 17952.23757311  1257.01573442
0.38900002 17731.21524019  1659.64182511
0.39000002 17517.98133417  1130.17261932
0.39100002 17309.93186774  1221.38885045
0.39200002 17109.01230071  1109.43395520
0.39300002 16914.08410419  1099.58465971
0.39400002 16726.50287361  1090.14987644
0.39500002 16543.77040702  1277.51001136
0.39600002 16367.09134596  1072.12636941
0.39700002 16196.21157672  1353.67942772
0.39800002 16031.27265255  1343.26039920
0.39900002 15871.77073012  1142.76754671
0.40000002 15717.56678665  1229.03519311
0.40100002 15569.12435698  1126.58189185
0.40200002 15426.24915551  1398.77520845
0.40300002 15287.76337312  1760.23315818
0.40400002 15154.87099541  1104.79014791
0.40500002 15026.99948615  1372.71646810
0.40600002 14903.92365915  1273.83841550
0.40700002 14785.48177593  1085.84583307
0.40800002 14672.10623746  1080.16051238
0.40900002 14562.88138114  1164.30242159
0.41000002 14458.51273815  980.50408780
0.41100002 14358.29044846  976.07663093
0.41200002 14262.11952037  1236.95368461
0.41300002 14170.65346889  1055.99714654
0.41400002 14082.92975949  1051.99490288
0.41500002 13999.51846624  960.92699305
0.41600002 13919.27608888  870.65076061
0.41700002 13843.26383772  867.97268375
0.41800002 13771.94525911  952.12348060
0.41900002 13702.26678975  1122.21570326
0.42000002 13637.47970129  861.20688394
0.42100002 13576.23378481  1031.25076716
0.42200002 13518.46770620  1115.07086158
0.42300002 13463.37215534  1113.15166255
0.42400002 13411.40383439  854.97703496
0.42500002 13362.97777348  1110.06261624
0.42600002 13316.78094237  1108.82181771
0.42700002 13274.79176460  1022.69000601
0.42800002 13234.56188304  1021.97291704
0.42900002 13198.48317515  936.43242565
0.43000002 13164.43428725  936.18878870
0.43100002 13132.09185118  850.95959228
0.43200002 13103.52862791  1531.93360448
0.43300002 13077.15844106  936.45536034
0.43400002 13053.29435907  851.72749729
0.43500002 13031.57209595  937.49134101
0.43600002 13012.40332567  1108.85200194
0.43700002 12995.05636897  939.15276829
0.43800002 12979.73899396  1196.60219456
0.43900002 12967.24927002  1198.17388933
0.44000002 12956.16161019  942.75514424
0.44100002 12947.45517190  1030.09958229
0.44200002 12940.47745560  1031.87372121
0.44300002 12935.32433984  1033.79117023
0.44400002 12932.37558216  1035.88333322
0.44500002 12929.85133825  951.50780507
0.44600002 12929.36875692  953.60563786
0.44700002 12931.60066268  955.90396629
0.44800002 12933.61102870  958.18661847
0.44900002 12938.86928152  1048.04846147
0.45000002 12944.92338932  1226.01375231
0.45100002 12951.95017410  1229.39916879
0.45200002 12960.54737634  1056.80308315
0.45300002 12970.12472871  1148.24519665
0.45400002 12981.34951984  974.57486139
0.45500002 12993.61544178  1244.26867367
0.45600002 13006.83884104  1337.42826722
0.45700002 13021.16007491  1162.91986141
0.45800002 13036.14963692  1166.80062855
0.45900002 13052.32434798  1170.79354950
0.46000002 13070.08694399  1446.07448802
0.46100002 13087.47072846  1088.35411736
0.46200002 13106.77064302  1183.34484359
0.46300002 13126.64765337  1004.97619197
0.46400002 13146.54451188  1192.06298011
0.46500002 13167.75816997  1196.55424162
0.46600002 13189.48204622  1108.70791335
0.46700002 13211.41460529  1112.92961910
0.46800002 13234.94705884  1303.50999761
0.46900002 13257.91309534  1495.49266803
0.47000002 13281.70083769  1313.69309212
0.47100002 13306.14176102  942.07488133
0.47200002 13331.08035596  945.84019609
0.47300002 13356.44405014  1044.60753867
0.47400002 13381.55659058  1048.77954750
0.47500002 13407.36825842  1531.65782244
0.47600002 13434.02145696  1153.44513697
0.47700002 13460.02357249  1447.62560384
