# SAXS profile: number of points = 501, q_min = 0, q_max = 0.5, delta_q = 0.001
#    q    intensity    error
0.00000000 1682732.95097188 277.65093691
0.00100000 1682646.36396055 706.71148965
0.00200000 1682386.57305655 1135.61097277
0.00300000 1681953.79213971 1110.08954236
0.00400000 1681347.90999682 1765.41537258
0.00500000 1680569.55412244 1663.76392444
0.00600000 1679618.58769995 1763.59958888
0.00700000 1678495.74517876 3222.71196468
0.00800000 1677200.80169929 2717.06541347
0.00900000 1675735.20830479 3519.04408787
0.01000000 1674098.25991040 2762.26224813
0.01100000 1672291.61485346 3311.13754157
0.01200000 1670315.17049646 3582.82619780
0.01300000 1668170.20732250 4203.78910786
0.01400000 1665856.96706685 4497.81401047
0.01500000 1663376.91765116 4790.52573615
0.01600000 1660729.77561964 4658.34722886
0.01700000 1657917.71902109 4476.37804216
0.01800000 1654941.26541726 4716.58281867
0.01900000 1651801.37961143 5450.94479868
0.02000000 1648498.74871619 6750.60268136
0.02100000 1645036.22264081 7057.20571509
0.02200000 1641412.38924482 6795.44760021
0.02300000 1637630.30388730 7074.56323482
0.02400000 1633690.52946174 6738.97374131
0.02500000 1629595.70304047 6990.96588533
0.02600000 1625345.83741908 7240.91603689
0.02700000 1620943.20981499 10892.73886886
0.02800000 1616387.97196786 8437.54560061
0.02900000 1611683.75935139 7977.83497509
0.03000000 1606830.99132597 9713.29378904
0.03100000 1601831.28912520 8457.66959575
0.03200000 1596685.99614972 7903.59604497
0.03300000 1591399.19916498 9739.36354788
0.03400000 1585969.47925364 9158.97416529
0.03500000 1580400.58485879 11094.41261803
0.03600000 1574693.37833324 11361.41324973
0.03700000 1568851.06113751 11625.18690066
0.03800000 1562874.68977904 11885.66256583
0.03900000 1556767.27111378 11208.72487110
0.04000000 1550528.57054109 11442.90138085
0.04100000 1544162.64129915 11673.87010950
0.04200000 1537671.44293707 10909.77939377
0.04300000 1531056.16058292 11115.46824179
0.04400000 1524320.04950482 11318.07689321
0.04500000 1517465.44444002 12564.61446378
0.04600000 1510492.79279292 12778.76962107
0.04700000 1503405.82978256 15154.33146900
0.04800000 1496206.88295212 13196.54532165
0.04900000 1488897.99263698 13400.08255747
0.05000000 1481481.19489657 13599.99800245
0.05100000 1473960.12787955 13796.26743964
0.05200000 1466334.35829160 18651.77390667
0.05300000 1458609.24069144 15359.15602049
0.05400000 1450785.56239993 13165.87959276
0.05500000 1442867.09624217 13332.09259121
0.05600000 1434854.51840246 13494.80737530
0.05700000 1426752.89938738 14895.30096489
0.05800000 1418561.52826216 12554.27011131
0.05900000 1410284.24218096 15231.07052693
0.06000000 1401925.02984045 14110.37608456
0.06100000 1393484.99021550 12959.41101462
0.06200000 1384967.16256516 19631.91044703
0.06300000 1376374.75503951 15855.83791940
0.06400000 1367707.00876717 17335.68714686
0.06500000 1358970.39572140 17489.94981108
0.06600000 1350166.26140627 14926.08871822
0.06700000 1341295.54765484 16417.45827162
0.06800000 1332362.95532675 13789.95723313
0.06900000 1323371.62792037 19453.56384122
0.07000000 1314321.07796283 18196.77617652
0.07100000 1305215.89300695 15505.96553519
0.07200000 1296058.12017531 22706.93932922
0.07300000 1286851.12593067 15712.45298383
0.07400000 1277597.68140077 15810.27204827
0.07500000 1268298.48763820 15904.46378046
0.07600000 1258956.63309694 15995.04477335
0.07700000 1249576.20829204 14620.04232253
0.07800000 1240158.25858711 19104.63886947
0.07900000 1230704.72324550 16245.30310881
0.08000000 1221220.74161546 17805.39924802
0.08100000 1211707.19405138 19375.19894193
0.08200000 1202165.35847689 16463.65535690
0.08300000 1192598.63081468 19534.76648955
0.08400000 1183010.29023913 16591.72009940
0.08500000 1173401.97700242 16650.57483533
0.08600000 1163776.45129205 22780.92510364
0.08700000 1154135.46361891 24375.34213624
0.08800000 1144481.28893269 18334.59110976
0.08900000 1134816.96341581 16852.03269826
0.09000000 1125144.86640981 29180.63348111
0.09100000 1115466.62956002 21550.81629558
0.09200000 1105784.32626173 24681.10732185
0.09300000 1096102.10268720 20091.55248640
0.09400000 1086418.71009943 18577.76081581
0.09500000 1076738.43230662 17055.53756939
0.09600000 1067062.81386822 17078.34113878
0.09700000 1057396.72862198 17098.10590565
0.09800000 1047738.85540448 23338.38410145
0.09900000 1038093.52880104 17128.54403064
0.10000000 1028459.67101173 15581.16474857
0.10100000 1018841.76461308 18705.93567807
0.10200000 1009241.64785378 23389.17628915
0.10300000 999659.97547393 18713.63562118
0.10400000 990100.23119061 20272.30318734
0.10500000 980564.85622868 17150.08014234
0.10600001 971051.01089872 23378.05418741
0.10700001 961566.64421384 20250.59448009
0.10800001 952108.54524583 18680.37053685
0.10900001 942681.88452832 18665.10219215
0.11000001 933287.02661899 15539.22972463
0.11100001 923924.65425578 17074.12841438
0.11200001 914598.12647203 24803.90235762
0.11300001 905307.50867232 21673.06277800
0.11400001 896055.07326763 17002.64581581
0.11500001 886843.05512457 18517.28386294
0.11600001 877671.81894739 23104.71172183
0.11700001 868543.27282642 23059.82497954
0.11800001 859457.65557308 21477.84782434
0.11900001 850417.08834141 16838.25914227
0.12000001 841422.45755500 18326.18198880
0.12100001 832477.10494468 16757.76491196
0.12200001 823579.84943801 18234.05872559
0.12300001 814733.41242375 21215.65905908
0.12400001 805937.44396347 21155.85890085
0.12500001 797193.05977972 15066.94953980
0.12600001 788503.99389802 18025.20214992
0.12700001 779868.45762574 16470.82260127
0.12800001 771288.14114512 16416.86885799
0.12900001 762764.41154228 16361.29739872
0.13000001 754298.29905870 19268.55095768
0.13100001 745888.98153695 28060.34480812
0.13200001 737539.09865182 17656.68685407
0.13300001 729249.86114565 23452.67664007
0.13400001 721020.13021612 18980.85582280
0.13500001 712852.33760647 14542.18837281
0.13600001 704745.39744666 17379.02232047
0.13700001 696702.18932766 20190.43039876
0.13800001 688720.52449500 17231.78833544
0.13900001 680803.83284644 15726.56928039
0.14000001 672951.22389485 19926.08667925
0.14100001 665162.81725067 19835.15614590
0.14200001 657439.44192959 18332.69970287
0.14300001 649782.87866684 14035.31084122
0.14400001 642189.87766041 20951.44574695
0.14500001 634664.94056833 16678.99542492
0.14600001 627206.09100419 13829.89495906
0.14700001 619816.04581725 13759.91686629
0.14800001 612490.13332651 15058.07063825
0.14900001 605233.03850943 16341.29281075
0.15000001 598043.06985986 16254.81140574
0.15100001 590921.29615405 20209.50928205
0.15200001 583867.41768396 16079.70944177
0.15300001 576882.82710647 14658.59332850
0.15400001 569963.72557775 17227.15441855
0.15500001 563114.42530818 22400.69289591
0.15600001 556330.90495731 14411.75277308
0.15700001 549619.06763792 14328.56976958
0.15800001 542971.34235595 12949.86712641
0.15900001 536394.14340610 16735.49806420
0.16000001 529882.40368531 17915.32491425
0.16100001 523441.43891422 16535.51583585
0.16200001 517066.74133831 16434.96714927
0.16300001 510759.18859287 16334.07962230
0.16400001 504519.27815122 17481.59381324
0.16500001 498345.80362051 12408.81109599
0.16600001 492240.28927686 16029.80577712
0.16700001 486199.66334606 14702.67851377
0.16800001 480225.00848874 14608.44544799
0.16900001 474318.45040465 16933.16947900
0.17000001 468475.78432371 12016.40443531
0.17100001 462698.36382893 15518.90385565
0.17200001 456986.52395922 13044.68094242
0.17300001 451339.18874099 14135.94405893
0.17400001 445756.21294328 14041.32137083
0.17500001 440236.57574631 12784.47076345
0.17600001 434779.04732108 13852.06110187
0.17700001 429386.29852967 12611.07618345
0.17800001 424054.47425450 12524.44948866
0.17900001 418785.23592749 13568.64228495
0.18000001 413577.43383785 13474.35343090
0.18100001 408432.31075110 12265.22287122
0.18200001 403345.00242306 18822.09542719
0.18300001 398318.81849453 15391.03987369
0.18400001 393351.56526018 14190.15838711
0.18500001 388445.04183079 14088.90233279
0.18600001 383594.96434050 10759.83925808
0.18700001 378802.88428257 10682.24184145
0.18800001 374067.80794165 11665.30514180
0.18900001 369391.55015658 14738.72354761
0.19000001 364767.25635335 16720.93182128
0.19100001 360203.28706570 16598.16825225
0.19200001 355690.86479163 10297.25102228
0.19300001 351235.13607928 17375.60300288
0.19400001 346831.28254405 12173.77859255
0.19500001 342481.69225773 10068.96222819
0.19600001 338184.34085283 15989.35639112
0.19700001 333938.61499720 9917.97733412
0.19800001 329744.98333664 10827.17703954
0.19900001 325602.03240176 11721.67372043
0.20000001 321508.21965081 12601.51526478
0.20100001 317465.34454390 11543.04047317
0.20200001 313469.83822392 14317.73553758
0.20300001 309524.12537279 10418.58255248
0.20400001 305625.61102137 11277.58557973
0.20500001 301773.91703403 12122.25882024
0.20600001 297968.84659759 10177.12643659
0.20700001 294210.13954720 11933.16382410
0.20800001 290495.26699522 9107.02705079
0.20900001 286827.79039953 10842.09098962
0.21000001 283202.06035561 9859.68019737
0.21100001 279620.69270400 8891.93844834
0.21200001 276081.83219603 10584.97794679
0.21300001 272584.48290511 13124.94347237
0.21400001 269129.90267568 14755.04761176
0.21500001 265717.40587047 8609.24435723
0.21600001 262344.12838429 9393.23196090
0.21700001 259011.41533642 10163.60841833
0.21800001 255718.14598399 15960.64883622
0.21900001 252462.82041200 10830.65550776
0.22000001 249245.48806790 8262.48832012
0.22100001 246067.70197071 11471.67680830
0.22200001 242927.06626338 13001.45720118
0.22300001 239821.73580482 12892.81712651
0.22400001 236752.09470334 9588.46028889
0.22500001 233720.76228178 8715.44763762
0.22600001 230722.02782676 9427.30250280
0.22700001 227760.31085681 10126.22389955
0.22800001 224831.16646578 12356.72149331
0.22900001 221935.02017078 9188.11026958
0.23000001 219073.40576519 9109.07264250
0.23100001 216244.87277008 10535.45069961
0.23200001 213446.83154996 8205.96382703
0.23300001 210681.25455472 8873.89486153
0.23400001 207947.68149401 10262.21856708
0.23500001 205243.08501255 10898.40832962
0.23600001 202570.73430854 9361.80692886
0.23700001 199927.46189111 9278.63394523
0.23800001 197314.08321852 7781.08123976
0.23900001 194729.39599888 9113.33616380
0.24000001 192173.32283817 8336.47913904
0.24100001 189646.92771032 8949.43894197
0.24200001 187147.59280639 8185.83609656
0.24300001 184676.13276440 8786.89081257
0.24400001 182231.44890382 10045.50909601
0.24500001 179813.58938455 7298.63393838
0.24600001 177422.56959765 7230.85716601
0.24700001 175057.69310920 7163.36114090
0.24800001 172718.72404577 7096.14911312
0.24900001 170404.31978086 10224.25967054
0.25000001 168116.03958629 7595.48302784
0.25100001 165851.16451628 8776.84404143
0.25200001 163612.85283630 6209.10805889
0.25300001 161398.18327080 8608.97950296
0.25400001 159207.10228395 6698.63914552
0.25500001 157039.26542445 6633.33888536
0.25600001 154895.47376477 8359.70911460
0.25700001 152774.13472683 6503.59522303
0.25800001 150676.20934554 6439.14811104
0.25900001 148600.77273907 6954.51649324
0.26000001 146547.61742059 7458.54134153
0.26100001 144515.77993778 5679.47042029
0.26200001 142506.96628032 8432.85012865
0.26300001 140518.66773554 5564.53950563
0.26400001 138552.33595621 6058.20117635
0.26500001 136607.52753408 6540.76872783
0.26600001 134682.57953441 6472.84507872
0.26700001 132779.52661672 6939.05838935
0.26800001 130897.23229104 11091.57750304
0.26900001 129033.98024053 5748.46409174
0.27000001 127191.89080292 8272.56096930
0.27100001 125369.40026112 7672.60765907
0.27200001 123567.92348635 5566.11737685
0.27300001 121785.27205884 6506.98739404
0.27400001 120020.16443490 5940.99842068
0.27500001 118277.35040078 5876.01904600
0.27600001 116551.18375559 5326.97210565
0.27700001 114845.97899609 5267.98530587
0.27800001 113158.32121685 7577.08154728
0.27900001 111490.61518320 5150.86666524
0.28000001 109839.94669995 5092.72936977
0.28100001 108208.50977370 4577.22018006
0.28200001 106595.98402040 5882.49965658
0.28300001 105000.96455886 4473.04130192
0.28400001 103424.01712609 4863.51463555
0.28500001 101865.16265711 5244.01882179
0.28600001 100324.08646201 5182.74255194
0.28700001 98800.44941687  4694.99757852
0.28800001 97293.75790235  5904.75844658
0.28900001 95806.43839814  4584.33829434
0.29000001 94334.71076488  4529.48135178
0.29100001 92881.34917129  5695.48460078
0.29200001 91444.65923585  4420.89226002
0.29300001 90025.28884072  5558.16159613
0.29400001 88621.96977823  5490.13128764
0.29500001 87236.75726984  5809.96830920
0.29600001 85867.37573118  4207.93094690
0.29700001 84514.96271636  4533.38281471
0.29800001 83178.73905158  5222.79327229
0.29900001 81859.85165698  4788.80154863
0.30000001 80556.31653960  4728.25322313
0.30100001 79270.24528218  4668.22496566
0.30200001 77998.68028867  3545.04018694
0.30300001 76744.65968335  5249.33497085
0.30400001 75506.49254522  4490.74885673
0.30500001 74283.87170621  4773.48182183
0.30600001 73076.32792482  4374.71457833
0.30700001 71885.73975569  4317.45773413
0.30800001 70710.29287869  5571.61779116
0.30900001 69550.59494328  3880.92338157
0.31000001 68406.56417509  3510.28300684
0.31100001 67277.12041770  4093.14020000
0.31200001 66163.65515618  4348.93725932
0.31300001 65064.85614675  3064.55486961
0.31400001 63982.44638677  3023.17073491
0.31500001 62913.83499306  3876.75069583
0.31600002 61860.76111677  3235.62726341
0.31700002 60822.45086452  3771.60035669
0.31800002 59798.98479569  2861.38155796
0.31900002 58790.44922558  2821.94169644
0.32000002 57796.67704238  3617.78317077
0.32100002 56816.62413505  2744.24307566
0.32200002 55852.56191805  3517.87377898
0.32300002 54900.81321821  2934.99761362
0.32400002 53964.30456878  2893.83596953
0.32500002 53041.81308680  3890.61717414
0.32600002 52133.82224094  2812.88051221
0.32700002 51239.25922779  2773.06884072
0.32800002 50359.31898531  2982.27901153
0.32900002 49492.50007752  2449.87886985
0.33000002 48640.34375585  3380.99045457
0.33100002 47799.44960583  2380.41270309
0.33200002 46974.96577383  4692.79930303
0.33300002 46162.54600974  3006.56676399
0.33400002 45363.99185674  2963.40290838
0.33500002 44577.46567864  2471.37481426
0.33600002 43805.27084057  2435.79220044
0.33700002 43045.05308806  2618.86115390
0.33800002 42298.92692548  3011.26075043
0.33900002 41564.37853762  2331.76174639
0.34000002 40843.23102144  2924.78391196
0.34100002 40134.33728592  2882.44824038
0.34200002 39438.69066592  2434.94487703
0.34300002 38754.17947824  2199.68733136
0.34400002 38083.47395545  2759.14781874
0.34500002 37423.85806262  2524.98782307
0.34600002 36777.25962798  2297.10774516
0.34700002 36141.05884248  2641.18870530
0.34800002 35518.23117246  2603.13128592
0.34900002 34906.38865362  1832.58549111
0.35000002 34306.41612104  2889.97263091
0.35100002 33718.35208294  1958.36198173
0.35200002 33140.46985617  2105.74555440
0.35300002 32574.36938318  2248.60882502
0.35400002 32019.72040387  2046.06023072
0.35500002 31476.19819135  1848.91196933
0.35600002 30942.64937957  1822.67684803
0.35700002 30420.31948095  1796.92835685
0.35800002 29909.25959221  2254.85918746
0.35900002 29408.58535364  1746.87005275
0.36000002 28918.63819535  2505.51093192
0.36100002 28438.07765088  1698.60645854
0.36200002 27969.02196440  2132.07864534
0.36300002 27508.88849440  2403.17661270
0.36400002 27058.91624213  1629.62330787
0.36500002 26618.61097681  1753.63417422
0.36600002 26188.50267123  1585.84485437
0.36700002 25767.32773996  2275.77049379
0.36800002 25357.17276583  1684.22349489
0.36900002 24955.28892151  1523.52046083
0.37000002 24562.27605407  1913.64701802
0.37100002 24178.39533479  1888.81633303
0.37200002 23804.33975714  1731.40873425
0.37300002 23438.48092241  1446.38872624
0.37400002 23081.45699911  1687.83162301
0.37500002 22733.48532955  2307.90353998
0.37600002 22394.03191028  2026.21210323
0.37700002 22062.56850863  1876.42154055
0.37800002 21739.34485520  1235.88181356
0.37900002 21424.85805157  1465.46036015
0.38000002 21118.23220782  1448.28843342
0.38100002 20818.57613766  1431.48536304
0.38200002 20527.63963726  1415.17554363
0.38300002 20243.73407408  2098.87044823
0.38400002 19968.34548472  1268.48920701
0.38500002 19699.02837231  1938.97545454
0.38600002 19438.39540795  1354.07868827
0.38700002 19183.97536975  1116.50741941
0.38800002 18936.96231329  1325.96616399
0.38900002 18696.31927911  1203.10820261
0.39000002 18463.79460070  1191.19176510
0.39100002 18236.69087004  1072.31747396
0.39200002 18016.89697155  1168.30573947
0.39300002 17803.17767894  1052.16785067
0.39400002 17597.18809376  1251.16013274
0.39500002 17396.21205221  1446.66906280
0.39600002 17201.54543114  1638.96332633
0.39700002 17012.86084989  1015.66784086
0.39800002 16830.38289302  1410.21784942
0.39900002 16653.34073455  999.20049141
0.40000002 16482.02819631  1288.81225587
0.40100002 16316.66489278  983.89493965
0.40200002 16156.94438317  976.68733424
0.40300002 16001.96808067  1163.66317396
0.40400002 15852.69828675  1733.49263979
0.40500002 15708.68162430  1147.99050750
0.40600002 15569.59963077  950.52410249
0.40700002 15435.57283737  944.65710241
0.40800002 15306.44786110  1032.95568285
0.40900002 15181.95544551  1120.42836497
0.41000002 15062.62106174  1207.19382219
0.41100002 14947.35769756  1016.12142443
0.41200002 14836.45534455  1102.94214257
0.41300002 14730.62472302  1372.15775797
0.41400002 14628.55441813  910.62755568
0.41500002 14530.98024591  997.40653134
0.41600002 14436.80183742  1083.62639726
0.41700002 14347.11857402  1079.47725266
0.41800002 14262.16616266  1075.65262296
0.41900002 14179.21053967  1071.94836759
0.42000002 14101.32168739  1068.59820811
0.42100002 14027.13987516  887.91799617
0.42200002 13956.59469093  1593.98275518
0.42300002 13888.89147309  1060.00024745
0.42400002 13824.61969785  1233.84736650
0.42500002 13763.97234263  1143.37323668
0.42600002 13705.81482655  1141.21472561
0.42700002 13651.98597270  1051.74904918
0.42800002 13600.36773422  962.70207569
0.42900002 13552.83050004  1223.82065215
0.43000002 13507.49401750  873.25952961
0.43100002 13464.21512338  1221.47365388
0.43200002 13424.76253769  1307.90755221
0.43300002 13387.73612838  1045.84999591
0.43400002 13353.43221317  1132.70494116
0.43500002 13321.36317306  958.33891208
0.43600002 13292.20942030  1132.69567943
0.43700002 13264.87223527  1132.95279130
0.43800002 13239.78455992  871.83985459
0.43900002 13217.77334375  959.61039023
0.44000002 13197.33002880  1134.90444961
0.44100002 13179.39584686  961.17338466
0.44200002 13163.38610459  1836.88480102
0.44300002 13149.35817548  963.32202559
0.44400002 13137.74474336  1227.72230445
0.44500002 13126.65648399  965.99069644
0.44600002 13117.83950765  1407.28188907
0.44700002 13111.88687035  1057.34260733
0.44800002 13106.03666282  1500.57573882
0.44900002 13103.48332340  1149.83071612
0.45000002 13101.87938025  1152.24483670
0.45100002 13101.51477900  888.28274411
0.45200002 13102.87156513  1068.40819806
0.45300002 13105.23109716  1249.45279202
0.45400002 13109.48028600  894.72207192
0.45500002 13114.96518552  986.77002732
0.45600002 13121.62807071  1079.38517625
0.45700002 13129.51276657  1443.19611170
0.45800002 13138.16497561  1085.47524173
0.45900002 13148.09420421  997.94039740
0.46000002 13159.83221793  1001.00268510
0.46100002 13171.39683853  1095.33341301
0.46200002 13184.99367192  1465.11656626
0.46300002 13199.36941018  1010.54376994
0.46400002 13213.90793940  1474.67219593
0.46500002 13229.97897177  1202.20824614
0.46600002 13246.48507138  1020.70795555
0.46700002 13263.49023753  931.09705880
0.46800002 13282.27813567  1308.17163558
0.46900002 13300.62412837  1406.54106824
0.47000002 13320.03628165  1223.37879027
0.47100002 13339.98338949  1038.91795562
0.47200002 13360.79883091  1042.74359418
0.47300002 13382.22565845  951.47628941
0.47400002 13403.40444394  1145.99113427
0.47500002 13425.45160419  958.57728997
0.47600002 13448.50933865  1154.68906655
0.47700002 13471.02115774  965.87226279
