# SAXS profile: number of points = 501, q_min = 0, q_max = 0.5, delta_q = 0.001
#    q    intensity    error
0.00000000 1682732.95097188 252.40994265
0.00100000 1682646.25473840 555.27327725
0.00200000 1682386.13531314 1287.02543427
0.00300000 1681952.80832540 1211.00606513
0.00400000 1681346.15142941 1261.00966149
0.00500000 1680566.81834026 2117.51427492
0.00600000 1679614.64055778 2116.31453326
0.00700000 1678490.37689756 3222.70165758
0.00800000 1677193.79969382 3396.31758777
0.00900000 1675726.33459639 2764.94857028
0.01000000 1674087.31735961 3314.69303150
0.01100000 1672278.38817214 3612.12147572
0.01200000 1670299.42651580 3908.50082941
0.01300000 1668151.76759840 6305.61395963
0.01400000 1665835.59013171 4122.94326835
0.01500000 1663352.35893332 5189.65959096
0.01600000 1660701.86859705 5505.22694050
0.01700000 1657886.25360745 4476.29308554
0.01800000 1654906.00757789 5188.13056721
0.01900000 1651762.12239074 5946.34390892
0.02000000 1648455.29259029 5711.89784721
0.02100000 1644988.32728440 5971.30789877
0.02200000 1641359.85881843 5662.69177019
0.02300000 1637572.95861244 8253.36808709
0.02400000 1633628.22171934 9801.76977725
0.02500000 1629528.07648997 8261.70772512
0.02600000 1625272.85368579 7240.59089434
0.02700000 1620864.51929797 9530.68380999
0.02800000 1616303.48071236 7030.92046353
0.02900000 1611593.24485629 8702.60392180
0.03000000 1606734.23988915 8965.57747069
0.03100000 1601728.15372922 10763.61368833
0.03200000 1596576.23334744 8693.35799098
0.03300000 1591282.53429855 11361.75781867
0.03400000 1585845.84560234 11655.96750299
0.03500000 1580269.74706515 8533.45702821
0.03600000 1574555.20513297 13108.17268851
0.03700000 1568705.31023414 14306.59309098
0.03800000 1562721.26836337 11884.49579591
0.03900000 1556605.87952817 11207.56285163
0.04000000 1550359.07326126 10488.17961662
0.04100000 1543984.91902928 10699.81598499
0.04200000 1537485.26045003 10908.45842897
0.04300000 1530861.44110710 14145.16037242
0.04400000 1524116.44056379 16460.45832254
0.04500000 1517252.90787551 13609.75921602
0.04600000 1510271.11067924 13841.63537283
0.04700000 1503175.03393518 10822.86074768
0.04800000 1495966.48700487 13194.42502929
0.04900000 1488648.04377040 17863.77735676
0.05000000 1481221.42647474 21529.55443636
0.05100000 1473690.55939153 13793.74427847
0.05200000 1466054.74845443 13986.16295203
0.05300000 1458319.44363707 17718.58206619
0.05400000 1450485.32579941 16753.10629425
0.05500000 1442556.43689562 13329.22209871
0.05600000 1434533.10533142 13491.78448522
0.05700000 1426420.75698093 17373.80563101
0.05800000 1418218.52671762 15061.48145700
0.05900000 1409930.17839004 13958.30941800
0.06000000 1401559.80824369 20518.83655130
0.06100000 1393108.52012325 15547.09181111
0.06200000 1384579.24848466 13084.27450979
0.06300000 1375975.16288222 17172.17083566
0.06400000 1367295.84726700 15997.36216117
0.06500000 1358547.47420405 18829.46887327
0.06600000 1349731.51416441 17634.24305764
0.06700000 1340848.78714945 15044.32409588
0.06800000 1331904.01943777 24813.37304362
0.06900000 1322900.50033352 16668.54708461
0.07000000 1313837.75481640 18190.08456725
0.07100000 1304720.18054329 16909.17433183
0.07200000 1295549.94765921 15604.89985059
0.07300000 1286330.34235310 22845.22795062
0.07400000 1277064.26315687 17240.36836057
0.07500000 1267752.17318026 14452.37545167
0.07600000 1258397.60533564 18894.84092992
0.07700000 1249004.20594196 27765.36479997
0.07800000 1239573.35508720 24971.20640929
0.07900000 1230106.76796413 16237.41009872
0.08000000 1220609.59652857 14830.40729353
0.08100000 1211082.94576351 22344.48139770
0.08200000 1201527.74063222 19446.72739467
0.08300000 1191947.81309214 15018.54314981
0.08400000 1182346.14391501 19597.38825527
0.08500000 1172724.47711465 22692.21969746
0.08600000 1163085.38844384 22767.39754775
0.08700000 1153431.09215957 16747.82024460
0.08800000 1143763.27254132 21376.93656774
0.08900000 1134085.32858202 18372.18318596
0.09000000 1124399.61107699 16882.86095340
0.09100000 1114707.78585401 16921.26498424
0.09200000 1105011.73947778 16956.40593901
0.09300000 1095315.85907598 20077.14064033
0.09400000 1085618.65585367 21658.09320216
0.09500000 1075924.67464417 21690.64246034
0.09600000 1066235.36199010 18616.47029547
0.09700000 1056555.59161400 23297.05189035
0.09800000 1046883.86621499 17100.84875866
0.09900000 1037224.79938434 18670.04726683
0.10000000 1027577.32314731 17124.57689557
0.10100000 1017945.48747989 23361.85003641
0.10200000 1008331.56582301 15578.72342473
0.10300000 998736.24735235 29602.54376405
0.10400000 989162.53599478 18695.17280982
0.10500000 979613.55460137 18691.02750119
0.10600001 970086.12965487 17126.87142494
0.10700001 960588.06734573 20229.98565028
0.10800001 951116.28005841 18660.90229296
0.10900001 941675.96155062 24860.24655500
0.11000001 932267.55995692 17074.48116430
0.11100001 922891.61558480 15504.57987168
0.11200001 913551.62131692 15484.70071030
0.11300001 904247.46196284 20101.42202583
0.11400001 894981.74263594 20069.96652359
0.11500001 885756.14518332 16953.37341711
0.11600001 876571.70743870 18460.60102800
0.11700001 867430.07371741 16888.86433066
0.11800001 858331.16435713 19917.57560699
0.11900001 849277.48070175 24459.19259628
0.12000001 840269.69432503 18301.07480447
0.12100001 831311.23643449 18255.59561209
0.12200001 822401.03918867 18207.95986544
0.12300001 813541.82531519 15131.87866379
0.12400001 804732.97264211 19615.36713238
0.12500001 795976.00404699 28583.49965220
0.12600001 787274.38553020 16497.33552620
0.12700001 778626.27353953 23919.40025037
0.12800001 770033.48540690 19370.19323831
0.12900001 761497.54887054 16334.12319313
0.13000001 753019.08314066 22195.23852174
0.13100001 744597.70809863 17691.64237837
0.13200001 736235.67143076 19094.27303867
0.13300001 727934.52321074 17557.78152757
0.13400001 719692.82259836 18945.91444812
0.13500001 711513.45778272 17417.85026774
0.13600001 703394.87627250 23127.62462232
0.13700001 695340.09253204 18711.60277235
0.13800001 687347.08503262 20063.66235822
0.13900001 679419.24161465 15694.58522143
0.14000001 671555.37091949 22725.43482366
0.14100001 663755.95362932 18379.40322282
0.14200001 656021.73375003 19700.33359369
0.14300001 648354.40875653 15404.90147867
0.14400001 640750.64975842 16723.59274754
0.14500001 633215.38145294 16640.90100957
0.14600001 625746.11644650 20696.55377781
0.14700001 618345.94321460 15100.00864567
0.14800001 611009.91499219 16387.28669322
0.14900001 603742.87721647 14942.63691611
0.15000001 596543.20916362 14862.87475759
0.15100001 589411.76254432 13438.58882011
0.15200001 582348.59813531 22720.33162835
0.15300001 575354.65467279 25252.31698522
0.15400001 568426.30375129 18502.27706025
0.15500001 561568.17466901 21025.11345185
0.15600001 554775.67211083 13064.96769481
0.15700001 548055.20855487 15586.69086694
0.15800001 541399.03955815 16786.07801378
0.15900001 534813.44819932 17969.73270768
0.16000001 528293.53677370 19137.43427296
0.16100001 521844.51004193 13948.90441187
0.16200001 515461.96867628 13863.35030198
0.16300001 509146.72484558 13777.51102473
0.16400001 502899.34967363 17425.46328884
0.16500001 496718.64244450 14841.95373695
0.16600001 490605.97909149 14747.61642777
0.16700001 484558.34677270 12210.87091520
0.16800001 478576.89576529 12131.92488048
0.16900001 472663.69087454 13258.21715506
0.17000001 466814.63082245 15565.93459979
0.17100001 461031.00581498 16652.44071639
0.17200001 455313.09615654 16541.52556451
0.17300001 449659.93101744 15256.96217992
0.17400001 444071.23883670 13988.24468397
0.17500001 438546.17291870 15050.90536539
0.17600001 433083.37056650 12648.20043476
0.17700001 427685.49671012 14844.96429194
0.17800001 422348.72681470 15876.08939083
0.17900001 417074.80880233 13513.22444347
0.18000001 411862.64885651 15654.90002250
0.18100001 406713.18419048 15544.57863403
0.18200001 401621.67091884 12126.96692625
0.18300001 396591.57503162 10945.92798795
0.18400001 391620.54671176 16301.20602696
0.18500001 386710.38883299 11868.14239396
0.18600001 381857.03313418 11782.19931399
0.18700001 377061.79378051 15949.71463046
0.18800001 372323.89402387 12666.45947313
0.18900001 367644.65128495 12573.44766801
0.19000001 363017.99232389 13520.60576294
0.19100001 358451.61772835 10323.40707836
0.19200001 353937.05452619 12295.77385523
0.19300001 349479.49249326 12203.82445453
0.19400001 345073.77756032 11102.74931765
0.19500001 340722.71844116 10017.24839554
0.19600001 336423.97921123 10935.46196103
0.19700001 332177.16201517 10852.22839589
0.19800001 327982.47765728 10769.30516282
0.19900001 323838.90073457 12629.71772553
0.20000001 319744.36045154 10604.32221555
0.20100001 315701.30184104 15305.19983661
0.20200001 311705.53078797 10440.57724720
0.20300001 307760.05174507 12242.69543707
0.20400001 303861.62394396 12146.86899129
0.20500001 300010.46936115 14832.51830630
0.20600001 296206.03967904 10116.91776344
0.20700001 292448.12448206 10949.25829817
0.20800001 288734.37246327 9051.82300460
0.20900001 285067.92196301 11673.53195621
0.21000001 281443.74012937 9798.46427580
0.21100001 277864.04797190 11486.90028618
0.21200001 274326.86565425 9641.21814920
0.21300001 270831.68443827 11301.80672591
0.21400001 267379.35245496 10347.58142920
0.21500001 263969.19094020 10263.12262897
0.21600001 260598.55620252 10178.98008652
0.21700001 257268.52120476 13460.28966583
0.21800001 253978.35889275 10011.82738092
0.21900001 250726.09415660 9101.35764821
0.22000001 247512.02069467 11487.03342358
0.22100001 244337.85183514 8950.09593591
0.22200001 241200.97409124 8874.99026134
0.22300001 238099.49096896 8800.15760233
0.22400001 235033.84671715 10312.11051234
0.22500001 232006.86690370 8651.53647595
0.22600001 229012.66703188 10917.03435366
0.22700001 226055.48756306 11596.64706038
0.22800001 223131.15337050 8431.01102881
0.22900001 220239.95519260 9117.93457617
0.23000001 217383.36515491 7532.33395884
0.23100001 214560.13782853 9706.70109442
0.23200001 211767.59963794 12582.17252754
0.23300001 209007.71060146 8069.78808798
0.23400001 206279.99317523 7998.50711366
0.23500001 203581.42488632 7206.78278183
0.23600001 200915.18386319 9285.29566140
0.23700001 198278.18091411 7786.38453278
0.23800001 195671.33082356 9119.26280436
0.23900001 193093.24448376 9036.76426927
0.24000001 190543.92270646 9643.42838431
0.24100001 188024.46234395 6825.28830593
0.24200001 185532.14653395 8791.44117936
0.24300001 183068.06514947 10050.43725212
0.24400001 180630.77827225 6638.18141552
0.24500001 178220.35833733 8549.23099386
0.24600001 175837.15644412 7817.72034532
0.24700001 173480.15159391 8389.50052795
0.24800001 171148.99161101 6392.41513908
0.24900001 168842.57481856 7597.91622627
0.25000001 166562.63296232 8152.40845602
0.25100001 164306.23710612 8074.00887337
0.25200001 162076.29166609 7996.03422764
0.25300001 159870.26848831 6700.16326933
0.25400001 157688.00083632 8444.19284429
0.25500001 155529.03757556 6569.54685801
0.25600001 153394.30448653 7096.02086128
0.25700001 151281.93082602 7025.53319996
0.25800001 149193.38563366 8114.62862855
0.25900001 147127.32817006 5737.96607012
0.26000001 145083.55367912 6248.02353482
0.26100001 143061.42307887 6184.54561233
0.26200001 141062.22604059 6121.39558868
0.26300001 139083.86691842 9363.12636399
0.26400001 137127.30851716 6540.97292578
0.26500001 135192.50040404 6473.01722564
0.26600001 133277.67592907 5871.54829089
0.26700001 131384.89071931 5809.84014253
0.26800001 129512.90813029 5748.43069938
0.26900001 127659.95278098 5687.25116552
0.27000001 125828.39091386 6649.40163251
0.27100001 124016.37532350 6577.82885844
0.27200001 122225.61367154 5505.65302838
0.27300001 120453.63772263 5445.70921915
0.27400001 118699.32433500 5875.61683264
0.27500001 116967.40063765 6295.18580024
0.27600001 115252.28704553 5746.47930405
0.27700001 113557.95991020 5682.44058284
0.27800001 111881.38776023 5150.45992930
0.27900001 110224.93246195 6481.22633551
0.28000001 108585.47358409 5492.25351382
0.28100001 106965.34172887 6334.48783699
0.28200001 105364.15755426 6261.79217982
0.28300001 103780.60407504 6189.47551998
0.28400001 102215.01330866 5243.63043092
0.28500001 100667.71472345 4750.50968265
0.28600001 99138.12224566  5975.05491056
0.28700001 97626.18200786  4639.19638860
0.28800001 96131.13292039  5000.74177122
0.28900001 94655.46181845  5352.76661920
0.29000001 93195.44717713  4474.77960802
0.29100001 91753.75914413  4822.57780889
0.29200001 90328.92817324  5954.93487170
0.29300001 88921.26599004  5882.14202368
0.29400001 87529.82071980  4647.83370023
0.29500001 86156.44335677  5738.01939918
0.29600001 84799.06554735  4155.57840386
0.29700001 83458.45444584  4103.65239936
0.29800001 82134.16802951  4788.83289366
0.29900001 80827.17658385  4728.39005399
0.30000001 79535.66462929  5027.44959922
0.30100001 78261.50174893  4254.29543647
0.30200001 77001.93735720  5249.60732785
0.30300001 75759.86610685  3454.65005802
0.30400001 74533.71899193  5114.87670797
0.30500001 73323.06296717  4711.74024933
0.30600001 72127.52837192  3321.47283877
0.30700001 70948.85300242  3933.40459667
0.30800001 69785.39466701  4851.82979393
0.30900001 68637.63932692  3510.81541779
0.31000001 67505.54660176  3464.04728787
0.31100001 66387.92673816  3417.65063029
0.31200001 65286.39180042  3371.71586417
0.31300001 64199.42852867  3326.17254955
0.31400001 63128.89706496  3579.40863306
0.31500001 62072.14115619  4707.55140817
0.31600002 61030.92396479  3192.22262912
0.31700002 60004.39640888  4293.31476634
0.31800002 58992.70251256  3387.36113866
0.31900002 57995.72441133  2783.79490355
0.32000002 57013.70268652  3294.25189721
0.32100002 56045.38932030  2977.69167558
0.32200002 55092.81170256  2669.24685338
0.32300002 54152.68570354  3947.73097472
0.32400002 53227.59770735  2854.33006221
0.32500002 52316.55366908  2558.27959556
0.32600002 51420.08162730  2522.15512325
0.32700002 50536.88981137  2735.05660610
0.32800002 49668.22779575  3186.46530513
0.32900002 48812.69216955  2657.85121449
0.33000002 47971.80363626  3334.52022866
0.33100002 47141.98700207  2347.67106388
0.33200002 46328.71469678  3008.35523130
0.33300002 45527.24643635  2737.09818537
0.33400002 44739.70420439  2697.80429128
0.33500002 43964.08956576  3766.84337238
0.33600002 43202.82216469  2839.07359300
0.33700002 42453.29316011  3443.81130424
0.33800002 41717.82102751  2333.48642968
0.33900002 40993.97137922  2926.96969509
0.34000002 40283.34732265  2060.49331313
0.34100002 39584.96688602  2639.92156665
0.34200002 38899.68302591  2001.38878647
0.34300002 38225.48639527  2366.92222969
0.34400002 37564.99541534  2138.38746529
0.34500002 36915.59272109  2873.87902944
0.34600002 36279.19071812  2454.83155620
0.34700002 35652.90235882  2605.51422778
0.34800002 35040.03395487  2201.21503730
0.34900002 34438.04983200  2531.19678253
0.35000002 33847.75484599  1960.29281475
0.35100002 33269.40704369  1756.62477510
0.35200002 32701.03977918  2077.82416598
0.35300002 32144.41413132  1877.55531834
0.35400002 31599.23357564  2187.45704788
0.35500002 31064.94828383  2322.41564370
0.35600002 30540.56740430  1635.44746196
0.35700002 30027.28859653  1934.95856881
0.35800002 29525.37425711  1748.93562696
0.35900002 29033.55442706  1567.81201332
0.36000002 28552.31893308  2164.55140084
0.36100002 28080.52023668  1982.20401740
0.36200002 27620.10712841  1654.30639482
0.36300002 27168.44712353  2225.09592481
0.36400002 26726.89384023  2341.27601130
0.36500002 26294.85748346  1876.66406749
0.36600002 25872.95211293  1566.73668941
0.36700002 25459.80435922  1826.99564736
0.36800002 25057.72622670  1803.02877605
0.36900002 24663.60811582  1642.59637832
0.37000002 24278.45479266  2431.97293178
0.37100002 23902.16103296  2000.61097323
0.37200002 23535.73878914  2370.28436574
0.37300002 23177.35834886  1690.32482445
0.37400002 22827.64375994  2054.48803572
0.37500002 22486.90899757  1521.91407305
0.37600002 22154.60319233  1503.41144385
0.37700002 21830.13703299  1732.87635977
0.37800002 21513.75201418  1345.36254594
0.37900002 21206.03952429  1329.61874116
0.38000002 20906.13114435  1911.65672240
0.38100002 20613.00834371  1417.35052086
0.38200002 20328.65565377  1401.45758716
0.38300002 20051.01906402  1270.43262808
0.38400002 19781.87434941  1713.60494670
0.38500002 19518.62229843  1582.17959847
0.38600002 19263.98072996  1341.92896122
0.38700002 19015.51643823  1438.71404188
0.38800002 18774.27125422  1424.12241346
0.38900002 18539.33764821  1626.82695570
0.39000002 18312.35834595  1288.82384145
0.39100002 18090.65996844  1489.22319916
0.39200002 17876.23117334  1475.32542863
0.39300002 17667.77202147  1148.58191353
0.39400002 17466.89448877  1448.87896649
0.39500002 17270.90802745  1641.42717670
0.39600002 17081.13461605  1017.18161458
0.39700002 16897.20911376  1109.63977507
0.39800002 16719.37869573  1400.91680729
0.39900002 16547.00564830  1290.66650172
0.40000002 16380.08687370  985.26227213
0.40100002 16218.99182973  1173.60630440
0.40200002 16063.58227844  1262.35667316
0.40300002 15912.68798822  1446.46340666
0.40400002 15767.45366765  957.87285569
0.40500002 15627.38266010  1237.21994382
0.40600002 15492.05790442  1134.94821585
0.40700002 15361.67680927  1128.16159833
0.40800002 15236.28149168  934.74591380
0.40900002 15115.19030849  929.58424802
0.41000002 14999.18214024  1109.63954731
0.41100002 14887.28103100  1104.04081357
0.41200002 14779.52356343  1007.15068095
0.41300002 14676.68537024  911.42220468
0.41400002 14577.59185737  1088.94616334
0.41500002 14482.88486588  1174.85167599
0.41600002 14391.46157140  1080.22315673
0.41700002 14304.44129956  1165.95506557
0.41800002 14222.10608291  1072.63129160
0.41900002 14141.56356728  1069.10225634
0.42000002 14065.99824287  1243.57496358
0.42100002 13994.12255624  1151.57639972
0.42200002 13925.78694020  1148.66859019
0.42300002 13860.18159742  1234.11062791
0.42400002 13797.88285256  1231.46110294
0.42500002 13739.14706112  877.93153881
0.42600002 13682.77055560  1139.29594430
0.42700002 13630.68805992  1575.16238685
0.42800002 13580.56991999  961.30068734
0.42900002 13534.62426333  1222.17662889
0.43000002 13490.72056079  872.17512559
0.43100002 13448.75436881  1394.36691903
0.43200002 13410.56142976  1045.21920737
0.43300002 13374.75942264  957.76656764
0.43400002 13341.53966577  1392.85680711
0.43500002 13310.49650587  957.55716401
0.43600002 13282.20607852  957.71351468
0.43700002 13255.76190158  1132.17467767
0.43800002 13231.45266557  1045.54943918
0.43900002 13210.10260812  1133.42685749
0.44000002 13190.31511477  1134.30120205
0.44100002 13172.90405449  1484.71808634
0.44200002 13157.39419429  874.30888564
0.44300002 13143.74188655  1050.44790135
0.44400002 13132.42768723  1227.22542553
0.44500002 13121.65557581  965.62267959
0.44600002 13113.02677627  1055.07418442
0.44700002 13107.15184133  1409.28103277
0.44800002 13101.26708395  1058.84445591
0.44900002 13098.75608108  972.58268511
0.45000002 13097.03671038  1063.21749054
0.45100002 13096.50345293  1065.53157143
0.45200002 13097.62266357  978.98185239
0.45300002 13099.73406436  1070.51031847
0.45400002 13103.61099671  1252.05009007
0.45500002 13108.72607172  896.63690580
0.45600002 13114.86802249  899.02424555
0.45700002 13122.23668658  901.49770309
0.45800002 13130.32903913  1084.82783663
0.45900002 13139.63551180  906.63489328
0.46000002 13150.78192198  1364.06491951
0.46100002 13161.60963346  1003.30954991
0.46200002 13174.40619192  1097.95506407
0.46300002 13187.99558401  1193.24989700
0.46400002 13201.65978520  1012.89739503
0.46500002 13216.74629755  923.85060999
0.46600002 13232.31774558  1112.30868241
0.46700002 13248.33832638  1116.04007351
0.46800002 13266.08481293  933.26911082
0.46900002 13283.34060476  936.47555702
0.47000002 13301.55175138  1503.60748124
0.47100002 13320.41113895  1037.39366867
0.47200002 13339.99034636  1041.11959593
0.47300002 13360.13336421  1234.87718538
0.47400002 13380.01331822  953.32599411
0.47500002 13400.78204264  1339.54223647
0.47600002 13422.47723151  1344.52960801
0.47700002 13443.59265412  1156.68676679
