# SAXS profile: number of points = 501, q_min = 0, q_max = 0.5, delta_q = 0.001
#    q    intensity    error
0.00000000 1646666.22097350 321.09991309
0.00100000 1646580.43771208 790.35862887
0.00200000 1646323.06075182 1111.26810120
0.00300000 1645894.30602533 1678.81225195
0.00400000 1645294.04122034 1233.97057780
0.00500000 1644522.92862082 1776.08483321
0.00600000 1643580.77802283 2416.06384206
0.00700000 1642468.39498904 1970.96215590
0.00800000 1641185.51541222 2658.72064722
0.00900000 1639733.54240795 4427.28075376
0.01000000 1638111.83852363 2702.88465027
0.01100000 1636322.03555900 4123.53170914
0.01200000 1634364.04997301 3505.71104090
0.01300000 1632239.11176705 4456.01297166
0.01400000 1629947.49982965 3667.38203720
0.01500000 1627490.63705718 5077.77101373
0.01600000 1624868.27804019 4972.09715307
0.01700000 1622082.61592190 4379.62325945
0.01800000 1619134.10686784 5998.89213588
0.01900000 1616023.67261760 6787.29973125
0.02000000 1612752.21471177 6096.20364738
0.02100000 1609322.25870513 7966.14554176
0.02200000 1605732.62792635 7201.71116344
0.02300000 1601986.27331484 5767.15084644
0.02400000 1598083.90170827 7191.37788560
0.02500000 1594027.81777652 7460.05052790
0.02600000 1589818.43115018 7726.51792879
0.02700000 1585457.65572100 9988.38368852
0.02800000 1580945.87409600 8940.24932801
0.02900000 1576286.58883445 12767.92195579
0.03000000 1571480.29508478 8038.12207883
0.03100000 1566528.63068647 9775.13910527
0.03200000 1561432.81024901 9274.91132006
0.03300000 1556196.84403652 11111.24597865
0.03400000 1550819.57318568 8955.98344838
0.03500000 1545304.68908089 10848.03941829
0.03600000 1539652.86738550 9399.58118978
0.03700000 1533867.39785516 9617.34902933
0.03800000 1527949.44185545 9832.35511338
0.03900000 1521901.61524696 9131.41011436
0.04000000 1515724.09386473 13050.38505292
0.04100000 1509420.97355878 15214.96411894
0.04200000 1502993.72302197 9694.30996324
0.04300000 1496443.97556028 10864.18376686
0.04400000 1489774.67936293 11061.57750799
0.04500000 1482988.29872185 12279.14368397
0.04600000 1476085.22998548 13528.32176171
0.04700000 1469069.49603393 11635.03094971
0.04800000 1461942.72148706 11819.80745318
0.04900000 1454707.59978887 10910.30750626
0.05000000 1447365.85243149 13286.81914404
0.05100000 1439921.32838333 15723.94163843
0.05200000 1432373.26144400 13664.84155097
0.05300000 1424727.15595198 18464.46480191
0.05400000 1416983.75955180 14028.13987375
0.05500000 1409147.02438300 13020.51911270
0.05600000 1401217.20393775 15574.52994854
0.05700000 1393199.73247114 13332.92206211
0.05800000 1385093.84492466 14709.69731993
0.05900000 1376903.28135250 19827.40817753
0.06000000 1368632.06775374 12522.98400501
0.06100000 1360281.09352800 21506.04509368
0.06200000 1351853.59320099 20440.02728464
0.06300000 1343352.57691847 20633.89654621
0.06400000 1334777.56228440 16918.30639317
0.06500000 1326134.97157275 14441.61051597
0.06600000 1317425.94156900 14564.14446548
0.06700000 1308651.33712992 20022.36639511
0.06800000 1299815.96590762 14798.40546456
0.06900000 1290922.99512601 17621.09970847
0.07000000 1281972.21037548 13653.00467985
0.07100000 1272967.77820390 15122.85791338
0.07200000 1263911.69824418 16607.80049295
0.07300000 1254807.40528270 19499.70799176
0.07400000 1245657.85848132 21020.47734698
0.07500000 1236463.52442500 16914.82180697
0.07600000 1227227.58164339 15591.92715574
0.07700000 1217954.12452787 19950.08949520
0.07800000 1208644.19048003 15754.67776174
0.07900000 1199299.31989509 18709.07026789
0.08000000 1189925.40327652 18794.87262644
0.08100000 1180522.63554299 23232.68655752
0.08200000 1171092.40070566 20412.14150214
0.08300000 1161638.48717892 21954.96843807
0.08400000 1152163.85638507 17628.10783013
0.08500000 1142670.07230211 19162.57801210
0.08600000 1133159.82322491 16266.51002613
0.08700000 1123635.28109461 16315.18504762
0.08800000 1114098.11884497 17847.85270210
0.08900000 1104551.86488718 14911.45087636
0.09000000 1094998.54818167 14946.73088481
0.09100000 1085439.68948120 16476.97526043
0.09200000 1075877.84796431 16509.34635273
0.09300000 1066316.82124764 19545.58825196
0.09400000 1056755.37418038 21082.27070571
0.09500000 1047197.68279960 21111.50627754
0.09600000 1037645.54343049 19627.06637661
0.09700000 1028103.71291602 21158.37540653
0.09800000 1018570.76428640 18150.93187300
0.09900000 1009050.84375627 18162.91604168
0.10000000 999543.37551331 16657.39113628
0.10100000 990052.25735472 21206.92034994
0.10200000 980579.34798520 18179.94196676
0.10300000 971126.06343405 19694.43749288
0.10400000 961694.95117194 19690.70505160
0.10500000 952289.19979043 21197.95858469
0.10600001 942905.26309759 18160.35622177
0.10700001 933551.25784424 16635.88419763
0.10800001 924224.23649765 25688.81386241
0.10900001 914929.13727805 19625.23091829
0.11000001 905666.45614128 15079.34720453
0.11100001 896436.56245749 19578.17544568
0.11200001 887243.39483498 19550.40912557
0.11300001 878086.36744134 18018.33310821
0.11400001 868968.03414744 14989.69929482
0.11500001 859890.16981000 14962.08965923
0.11600001 850854.17062167 17918.98967712
0.11700001 841860.85967716 14900.93791804
0.11800001 832911.17029613 16354.21159902
0.11900001 824006.58815769 20764.96699964
0.12000001 815148.29416056 19233.42490671
0.12100001 806339.89089155 14756.02069844
0.12200001 797579.89492451 16186.88473008
0.12300001 788870.86310339 16140.29861954
0.12400001 780212.82533275 16091.89028070
0.12500001 771606.71174404 20416.71455479
0.12600001 763055.97295804 14536.21696985
0.12700001 754559.00877733 20282.54711178
0.12800001 746117.72763255 15881.11658112
0.12900001 737733.20642777 17262.95784405
0.13000001 729406.30996544 18632.68506632
0.13100001 721136.78438225 15706.35990421
0.13200001 712926.75236277 27023.48982221
0.13300001 704777.36863265 19832.43608828
0.13400001 696687.90420803 15518.72379787
0.13500001 688660.19795370 21073.00305094
0.13600001 680693.94164008 13988.26116026
0.13700001 672791.23794377 16712.13513855
0.13800001 664950.55456213 13864.21971640
0.13900001 657174.36950651 13800.66241045
0.14000001 649462.42113986 13736.13085491
0.14100001 641815.01353938 13670.66043314
0.14200001 634232.62354405 14964.71945834
0.14300001 626717.06472241 14890.79816017
0.14400001 619265.00469917 21550.42318006
0.14500001 611881.28948146 22780.34148199
0.14600001 604563.51643992 15996.75139964
0.14700001 597314.56691759 15912.46081338
0.14800001 590129.54350468 15827.27510351
0.14900001 583013.47431470 18364.92530738
0.15000001 575964.56911949 16959.27753791
0.15100001 568983.54996783 18161.95577194
0.15200001 562070.68077180 14189.47500564
0.15300001 555226.64107193 12825.73601400
0.15400001 548448.18772680 16576.84725632
0.15500001 541739.51509080 15212.04630165
0.15600001 535096.32796529 17642.12676563
0.15700001 528524.69681376 16283.84667738
0.15800001 522017.10730635 17430.15203564
0.15900001 515579.93400801 13611.31090027
0.16000001 509208.01563960 13527.11157398
0.16100001 502906.69337846 14664.75987115
0.16200001 496671.22063346 15786.69549306
0.16300001 490503.15283710 20512.84282001
0.16400001 484402.12192408 15585.63900870
0.16500001 478367.59300511 15484.75971663
0.16600001 472400.61380456 17750.45390176
0.16700001 466498.15274126 18809.20640660
0.16800001 460661.45448275 18684.42947603
0.16900001 454892.74987151 12759.74223639
0.17000001 449187.51108221 13825.99224397
0.17100001 443547.46324906 14876.58261987
0.17200001 437972.76226024 13638.47246083
0.17300001 432461.82310812 12415.97952777
0.17400001 427014.90036128 14571.88416300
0.17500001 421631.49196391 13357.28629625
0.17600001 416309.67379746 14368.92906975
0.17700001 411052.15237412 16462.63948012
0.17800001 405855.35879053 10897.21689822
0.17900001 400720.75022094 10819.46076701
0.18000001 395647.48189211 17186.92742522
0.18100001 390636.20154979 12797.24256727
0.18200001 385682.31380469 11645.67801545
0.18300001 380789.00529295 12611.73245107
0.18400001 375954.64676220 17735.66129885
0.18500001 371180.21421819 12427.11415911
0.18600001 366461.97888736 11307.18489276
0.18700001 361801.38083533 12243.35930590
0.18800001 357197.38936933 10126.54646706
0.18900001 352651.46259246 12060.68059050
0.19000001 348157.71644580 14962.07857120
0.19100001 343723.21437865 9899.22904184
0.19200001 339340.05849558 11788.67418917
0.19300001 335013.15620971 13648.43662891
0.19400001 330737.43806502 11608.88462465
0.19500001 326515.80471820 10559.52162358
0.19600001 322345.68922338 12382.91023669
0.19700001 318226.76051627 10396.46875738
0.19800001 314159.36094653 14066.48605115
0.19900001 310142.33056805 12095.55146379
0.20000001 306173.77479743 15692.93756891
0.20100001 302255.83842475 10074.18757083
0.20200001 298384.46477641 10902.96885824
0.20300001 294562.76751182 10816.34533426
0.20400001 290787.41354552 9835.88472808
0.20500001 287058.26153066 9757.11077062
0.20600001 283375.37107971 11438.44739430
0.20700001 279738.19264873 11346.18163016
0.20800001 276144.52784195 9522.84449278
0.20900001 272597.29328050 9445.49665867
0.21000001 269091.72010043 8516.75334379
0.21100001 265629.72971612 10981.13354558
0.21200001 262209.59654612 11728.63580797
0.21300001 258830.71727675 10801.00634258
0.21400001 255493.90590849 9063.64674060
0.21500001 252198.32706846 8988.34880167
0.21600001 248941.68632514 8103.05227298
0.21700001 245724.93323475 9642.24683601
0.21800001 242547.02935763 10357.97137845
0.21900001 239406.42811360 9480.49500155
0.22000001 236303.31149260 9400.14617564
0.22100001 233239.06641142 10096.91966237
0.22200001 230211.49039734 9240.68966149
0.22300001 227218.41619596 10688.35480326
0.22400001 224260.82308163 8325.68345060
0.22500001 221340.58946233 7503.44633759
0.22600001 218452.40563603 7438.30476365
0.22700001 215600.47729870 8848.24400676
0.22800001 212781.05315926 8039.93247383
0.22900001 209993.56574493 9418.21186906
0.23000001 207239.93659389 8617.03697109
0.23100001 204518.89268658 8540.70936251
0.23200001 201827.97117919 7759.27671895
0.23300001 199168.59238268 7689.89971559
0.23400001 196540.77265151 9006.48133272
0.23500001 193941.38368342 7552.07783782
0.23600001 191373.34309308 8163.98720248
0.23700001 188833.98036977 7415.51075986
0.23800001 186323.84742278 10019.56536907
0.23900001 183841.78862190 9265.62658480
0.24000001 181387.74407679 9180.03416195
0.24100001 178962.59557748 9744.51379012
0.24200001 176564.09930845 6435.76172422
0.24300001 174192.89606033 8288.09838660
0.24400001 171847.59928711 8210.01944431
0.24500001 169528.63363999 9383.41031585
0.24600001 167235.90216511 7435.30856199
0.24700001 164968.83794140 6750.52516790
0.24800001 162726.67618039 9724.54662858
0.24900001 160508.54306012 7222.88477940
0.25000001 158316.11564899 6556.66223979
0.25100001 156146.54575738 8263.27559241
0.25200001 154002.76718815 7597.72687867
0.25300001 151882.06270450 6944.04823538
0.25400001 149784.33950816 6302.17638297
0.25500001 147709.28016251 5672.03662660
0.25600001 145657.61961607 7299.63195242
0.25700001 143627.51205693 6114.22347755
0.25800001 141620.53819882 6052.15398628
0.25900001 139635.41831800 7624.09420089
0.26000001 137671.95645008 7006.81455506
0.26100001 135729.22082537 6934.40622008
0.26200001 133808.84112799 7390.26264518
0.26300001 131908.49931141 5745.93450189
0.26400001 130029.22428456 5168.66190988
0.26500001 128171.03654803 5625.42706028
0.26600001 126332.16679541 6071.52422349
0.26700001 124514.62436473 8509.32983175
0.26800001 122717.21733606 5941.96794459
0.26900001 120938.15833811 6367.39433782
0.27000001 119179.87272728 5329.12826119
0.27100001 117440.26436779 5749.87561555
0.27200001 115721.33512011 5212.66778717
0.27300001 114020.52064053 5154.86798211
0.27400001 112336.84463078 6487.45308444
0.27500001 110674.67984750 6872.89794379
0.27600001 109028.88248588 4530.15028168
0.27700001 107403.04731920 5822.31947072
0.27800001 105794.39390395 4427.49559442
0.27900001 104205.34490374 7002.59950895
0.28000001 102632.54085131 5623.75034211
0.28100001 101078.46337209 6413.42880450
0.28200001 99542.69957208  4225.58779683
0.28300001 98023.90942004  4593.40061283
0.28400001 96522.43609849  4951.60120622
0.28500001 95038.76527184  6115.74483471
0.28600001 93572.15959195  4028.28166110
0.28700001 92122.56347959  4377.66442376
0.28800001 90689.37929080  5110.80021184
0.28900001 89274.85007997  4660.14739476
0.29000001 87875.50552442  6137.22559633
0.29100001 86493.85840685  3788.43117754
0.29200001 85128.57599077  4863.82141946
0.29300001 83779.86043367  3694.69202002
0.29400001 82446.66899606  4742.74485850
0.29500001 81131.15039433  4682.89022243
0.29600001 79831.04014877  3912.12030768
0.29700001 78547.11519570  4564.37308009
0.29800001 77279.15598636  3812.56734107
0.29900001 76027.69581046  4105.49576812
0.30000001 74791.34336044  3714.51224384
0.30100001 73571.89271222  3999.36827717
0.30200001 72366.15303510  4275.75435450
0.30300001 71177.77501388  3894.84803315
0.30400001 70004.73607936  3522.98850998
0.30500001 68846.80752916  3160.06861519
0.30600001 67703.18966738  4364.82484450
0.30700001 66576.19727131  3690.98455146
0.30800001 65463.77415172  3641.09529070
0.30900001 64366.69409409  3292.35655879
0.31000001 63284.73623339  3247.45639357
0.31100001 62216.79262815  3494.09523943
0.31200001 61164.56281315  4307.51454006
0.31300001 60126.28244462  4247.92205584
0.31400001 59104.02223886  3351.19821961
0.31500001 58095.21239359  2753.71319784
0.31600002 57101.45432786  3258.20913822
0.31700002 56121.96574017  3212.42147107
0.31800002 55156.75098710  3958.87598955
0.31900002 54205.97339070  3382.45289974
0.32000002 53269.58223931  3077.91660753
0.32100002 52346.60899207  3286.84373424
0.32200002 51438.83935065  3489.09663836
0.32300002 50543.31728963  2702.04587025
0.32400002 49662.35322561  2905.24780127
0.32500002 48794.96835069  2386.07406533
0.32600002 47941.70578395  2821.84893606
0.32700002 47101.41754385  2549.12883818
0.32800002 46275.35870796  2512.05796642
0.32900002 45461.95718360  2700.44038458
0.33000002 44662.83014098  2661.01154581
0.33100002 43874.21535829  3277.40404246
0.33200002 43102.06892286  2583.53813358
0.33300002 42341.33755010  2545.56133406
0.33400002 41593.98472537  3971.18587971
0.33500002 40858.40055861  2882.96887994
0.33600002 40136.65952038  2637.58070529
0.33700002 39426.52959181  2398.71017396
0.33800002 38729.75493481  2560.23057121
0.33900002 38044.61874800  3492.49616646
0.34000002 37372.17396593  2293.90414666
0.34100002 36711.76027714  2636.63874797
0.34200002 36063.98102379  1855.49191155
0.34300002 35427.17768251  1828.04245499
0.34400002 34803.47939202  1801.08014384
0.34500002 34190.84338242  2306.85631226
0.34600002 33590.77544989  1923.23993947
0.34700002 33000.54292360  1894.89126442
0.34800002 32423.39885240  1697.36501031
0.34900002 31856.86367611  2341.47959109
0.35000002 31301.55831148  1812.82983547
0.35100002 30758.21746898  2111.24414706
0.35200002 30224.26776937  2240.52507586
0.35300002 29701.95589571  1892.60871932
0.35400002 29190.79438797  1554.40987478
0.35500002 28690.11224674  2144.87289316
0.35600002 28199.12244674  1661.06938640
0.35700002 27719.16950849  1786.22336773
0.35800002 27250.11629036  1614.16071491
0.35900002 26790.86927012  1446.70700911
0.36000002 26341.95361707  1569.05854152
0.36100002 25902.31499206  1406.49577069
0.36200002 25473.63974767  2357.96757493
0.36300002 25053.60282505  1367.92677904
0.36400002 24643.33981423  1484.14521061
0.36500002 24242.51220968  1464.00538169
0.36600002 23851.36056966  1313.01746155
0.36700002 23468.84917018  1684.12469623
0.36800002 23097.00085321  1534.10286934
0.36900002 22733.01007380  1387.85033075
0.37000002 22377.73615492  1618.91739881
0.37100002 22031.13213553  1475.20467768
0.37200002 21694.00173272  1577.91329078
0.37300002 21364.84719709  1198.56798453
0.37400002 21044.03135098  1657.21754739
0.37500002 20732.02367390  1403.14342872
0.37600002 20428.22280422  2079.38889775
0.37700002 20131.98317766  1483.92855032
0.37800002 19843.61331243  1128.10947025
0.37900002 19563.61854149  1338.15157163
0.38000002 19291.32458995  1653.74887882
0.38100002 19025.60568466  1417.21743459
0.38200002 18768.39059757  1293.89290909
0.38300002 18517.73940124  1599.93276006
0.38400002 18275.26004794  1477.55484487
0.38500002 18038.63212956  1253.32421974
0.38600002 17810.10563479  1344.03968540
0.38700002 17587.95248169  1023.61888293
0.38800002 17372.49796194  1013.68530410
0.38900002 17163.29852687  1606.48481822
0.39000002 16961.73915673  1293.24786327
0.39100002 16765.38929671  1084.38543109
0.39200002 16576.02299301  977.15660173
0.39300002 16392.51396546  1162.55714551
0.39400002 16216.28084592  1249.05909133
0.39500002 16044.71947671  1143.66765848
0.39600002 15879.27847904  1607.53883299
0.39700002 15719.46915289  1313.83329405
0.39800002 15565.48814528  1117.91341156
0.39900002 15416.92312249  1202.52006053
0.40000002 15273.45792651  1194.30809915
0.40100002 15135.76470586  1369.02998251
0.40200002 15003.35520571  1088.34343819
0.40300002 14875.38779055  1171.88310566
0.40400002 14752.93257939  985.86476633
0.40500002 14635.37549899  1158.68273315
0.40600002 14522.58205315  1152.58477926
0.40700002 14414.23670596  970.36646102
0.40800002 14310.83332838  1141.36056618
0.40900002 14211.55030804  874.01038536
0.41000002 14117.08847644  957.35040039
0.41100002 14026.68065861  866.84890578
0.41200002 13940.15460457  1122.67040427
0.41300002 13858.41351227  1032.72902387
0.41400002 13780.10632339  1029.37399113
0.41500002 13706.09759555  940.78658354
0.41600002 13635.28677222  1364.61956482
0.41700002 13568.49510570  935.81915178
0.41800002 13506.42558116  848.87888800
0.41900002 13445.80119164  931.79406673
0.42000002 13389.91643810  1099.24524207
0.42100002 13337.69458970  1013.13132904
0.42200002 13288.71791296  1433.38762560
0.42300002 13242.41398446  1010.66108318
0.42400002 13199.08403120  1262.16247029
0.42500002 13159.31342759  1009.05620144
0.42600002 13121.58518188  924.48132780
0.42700002 13088.07848492  924.28014640
0.42800002 13056.15282213  840.16347392
0.42900002 13028.39757270  1260.49752489
0.43000002 13002.50523742  1429.04040584
0.43100002 12978.29681456  1093.29177547
0.43200002 12957.73076810  925.76511860
0.43300002 12939.34861963  1095.05712557
0.43400002 12923.29266207  1096.21835201
0.43500002 12909.39784538  928.70212501
0.43600002 12897.96039227  1099.09974691
0.43700002 12888.17751757  846.75330303
0.43800002 12880.50690766  932.99956207
0.43900002 12875.43527103  1274.66815224
0.44000002 12871.79845814  1192.05731170
0.44100002 12870.38423601  938.63716681
0.44200002 12870.64627850  1282.88172861
0.44300002 12872.67528573  943.05223612
0.44400002 12876.80504314  859.52677736
0.44500002 12881.31430515  1034.11196142
0.44600002 12887.80852512  1036.95312307
0.44700002 12896.87762548  953.33723926
0.44800002 12905.73517508  1216.88182733
0.44900002 12917.76997165  1046.33941729
0.45000002 12930.42415547  1049.69188269
0.45100002 12944.07014977  965.36879752
0.45200002 12959.14581951  1232.80360024
0.45300002 12975.20111446  1060.33348533
0.45400002 12992.79744523  1330.13770149
0.45500002 13011.31725988  1334.96121413
0.45600002 13030.79196810  1250.56516445
0.45700002 13051.25855505  986.28365575
0.45800002 13072.30700934  990.03121827
0.45900002 13094.50265678  993.87279875
0.46000002 13118.13935219  1088.54325504
0.46100002 13141.45869468  1001.77344377
0.46200002 13166.47327456  914.41161226
0.46300002 13192.15186587  1469.07810141
0.46400002 13217.69731529  1014.12787458
0.46500002 13244.48686204  1110.94761064
0.46600002 13271.66948357  929.68049139
0.46700002 13299.11786135  1120.31774174
0.46800002 13327.99740042  1500.19945850
0.46900002 13356.28480106  1129.94174772
0.47000002 13385.32787802  1229.37549722
0.47100002 13414.97169580  949.78004108
0.47200002 13444.96761972  1049.31254762
0.47300002 13475.40211012  1341.34158962
0.47400002 13505.47688922  1924.53054793
0.47500002 13536.24539449  1353.08315377
0.47600002 13567.67772726  1164.92086488
0.47700002 13598.43299048  1170.00922996
0.47800002 13629.58091407  1077.21397860
