# SAXS profile: number of points = 501, q_min = 0, q_max = 0.5, delta_q = 0.001
#    q    intensity    error
0.00000000 1664650.74656090 399.51617917
0.00100000 1664564.59738114 599.24326929
0.00200000 1664306.11950275 748.93777749
0.00300000 1663875.53282037 1497.48803288
0.00400000 1663272.70707519 1247.45457771
0.00500000 1662498.29079723 1945.12307722
0.00600000 1661552.11981590 1744.62979683
0.00700000 1660434.97653144 2590.27867104
0.00800000 1659146.59660825 2239.84799999
0.00900000 1657688.40487376 2486.53271360
0.01000000 1656059.74814351 3005.74857267
0.01100000 1654262.28327845 3870.97391141
0.01200000 1652295.86404477 4832.96561423
0.01300000 1650161.79444521 4158.40790541
0.01400000 1647860.31760809 5190.76023058
0.01500000 1645392.90154730 5133.62608142
0.01600000 1642759.21351896 5026.84341809
0.01700000 1639961.51562882 7084.63406532
0.01800000 1637000.27335114 6998.17648348
0.01900000 1633876.38054455 6862.28110793
0.02000000 1630590.71258705 5136.36097700
0.02100000 1627145.90421406 8054.37259103
0.02200000 1623540.64626480 6161.33703250
0.02300000 1619777.98630700 6414.32111775
0.02400000 1615858.52769572 7271.36370619
0.02500000 1611784.72954798 8171.74895202
0.02600000 1607556.87952518 7812.72679183
0.02700000 1603176.95587518 8080.01222768
0.02800000 1598645.34157524 8344.92906572
0.02900000 1593965.51929436 9324.69871601
0.03000000 1589137.96062408 10345.28859919
0.03100000 1584164.33514636 10645.58482202
0.03200000 1579045.88791700 8597.90525571
0.03300000 1573786.69453203 10434.20626577
0.03400000 1568385.43397274 11527.63347159
0.03500000 1562845.81727732 12659.05170452
0.03600000 1557168.63436650 11234.97221616
0.03700000 1551357.09834072 11495.55663035
0.03800000 1545412.43766496 9944.72949661
0.03900000 1539337.29115552 12006.83142705
0.04000000 1533131.75379501 11314.51286731
0.04100000 1526799.78561878 11542.60691447
0.04200000 1520343.27113882 12748.07891992
0.04300000 1513763.48353670 10989.92340061
0.04400000 1507063.45510335 13224.48243270
0.04500000 1500245.80803995 15527.54483470
0.04600000 1493310.78694538 12633.40984485
0.04700000 1486262.36539400 11771.19848137
0.04800000 1479102.45539999 13045.68426362
0.04900000 1471833.37824644 12142.62593574
0.05000000 1464457.15974119 14564.02713182
0.05100000 1456977.48135420 12500.86737236
0.05200000 1449393.62474837 14979.48380984
0.05300000 1441711.19510551 15181.21959218
0.05400000 1433930.82451592 15378.90881011
0.05500000 1426056.45042129 14374.64969081
0.05600000 1418088.51926757 15762.05462718
0.05700000 1410032.25133672 14720.73739110
0.05800000 1401886.95331775 12406.70011616
0.05900000 1393656.41730007 16305.78084399
0.06000000 1385344.61260997 16478.67493686
0.06100000 1376952.48575936 17927.92220238
0.06200000 1368483.29139206 12932.16770815
0.06300000 1359940.08764110 16972.05308729
0.06400000 1351322.14263517 14492.93065755
0.06500000 1342636.09455823 14621.30775369
0.06600000 1333883.07187913 16086.63059953
0.06700000 1325064.00688801 13515.65350278
0.06800000 1316183.56764425 14984.75061905
0.06900000 1307245.05710000 15098.68111641
0.07000000 1298247.99169978 17974.24428679
0.07100000 1289196.87115677 18100.32491882
0.07200000 1280093.64276324 21025.53906737
0.07300000 1270941.67499825 14107.45325349
0.07400000 1261743.90199597 17033.54347521
0.07500000 1252500.81491195 18562.06294705
0.07600000 1243215.59550505 18666.88304162
0.07700000 1233892.34396411 17323.84932155
0.07800000 1224532.21300936 21766.06110699
0.07900000 1215136.68668531 21872.46138624
0.08000000 1205711.49624951 14649.39536665
0.08100000 1196256.99985371 17656.75414626
0.08200000 1186774.83106163 17730.41680806
0.08300000 1177268.18404017 17800.29577809
0.08400000 1167740.46070991 16377.56073020
0.08500000 1158193.14404569 17928.83071150
0.08600000 1148629.04095370 17987.53162588
0.08700000 1139049.98117443 19546.09859479
0.08800000 1129458.02973780 16586.09194564
0.08900000 1119856.47792719 15118.06316211
0.09000000 1110247.51903107 19701.34315069
0.09100000 1100632.63175594 21264.22344454
0.09200000 1091014.27292027 19785.54476907
0.09300000 1081396.27727140 16772.45704865
0.09400000 1071777.49762849 16800.11306489
0.09500000 1062162.19758444 24472.21818261
0.09600000 1052551.96923130 16846.09505944
0.09700000 1042951.60452147 15331.38930724
0.09800000 1033359.84920904 26087.17061984
0.09900000 1023780.70768405 16892.38247111
0.10000000 1014213.61249973 23048.00542794
0.10100000 1004662.66087533 15371.33943433
0.10200000 995129.61530553 18449.70393557
0.10300000 985615.65525804 18450.72593437
0.10400000 976123.65121103 16911.34305283
0.10500000 966656.50668115 21517.77485112
0.10600001 957210.91447716 15363.23590025
0.10700001 947795.17635962 19960.56735343
0.10800001 938405.90843659 19945.81852250
0.10900001 929048.32702179 19928.08755255
0.11000001 919722.75015615 18376.06141307
0.11100001 910429.74588003 29060.91885649
0.11200001 901173.13670926 19857.35100222
0.11300001 891952.46530988 18302.86544987
0.11400001 882770.19875804 18273.34397468
0.11500001 873628.23139129 18241.35833040
0.11600001 864527.75143534 15172.46275218
0.11700001 855469.68111357 21198.53969634
0.11800001 846454.92479390 16620.14323111
0.11900001 837485.22117423 16582.20816030
0.12000001 828561.58488013 18046.07216875
0.12100001 819687.48626359 16500.30987578
0.12200001 810861.66127243 17952.47802634
0.12300001 802086.50052477 17902.57153518
0.12400001 793362.14186207 20825.75720514
0.12500001 784689.51742550 17796.75909380
0.12600001 776072.02816085 14784.17283315
0.12700001 767508.34183970 17683.39302934
0.12800001 758999.96211663 17623.97995095
0.12900001 750548.16409111 21953.53483438
0.13000001 742153.90150263 17499.98982229
0.13100001 733816.75795753 15982.52974169
0.13200001 725538.96661140 24606.65521259
0.13300001 717321.76184959 21627.25213934
0.13400001 709164.20486983 15796.63340822
0.13500001 701068.42248571 17162.15579161
0.13600001 693033.77899496 15666.02931285
0.13700001 685062.79155670 17016.96054467
0.13800001 677153.38797819 19766.10832717
0.13900001 669308.61588965 16866.57791582
0.14000001 661528.00726839 15390.44981492
0.14100001 653811.69605143 19496.66569577
0.14200001 646160.29785686 18018.18075557
0.14300001 638575.81333346 19310.53350604
0.14400001 631054.64021396 16470.52688650
0.14500001 623601.60411639 15022.56335181
0.14600001 616214.55479217 20381.29736123
0.14700001 608896.29923998 14869.24832892
0.14800001 601641.88993700 17480.70593684
0.14900001 594456.33765683 14712.79505117
0.15000001 587337.87791836 17294.16463129
0.15100001 580287.40517971 21168.88553981
0.15200001 573304.84265751 13157.34675985
0.15300001 566391.32844244 17008.73239575
0.15400001 559543.25175124 15611.25746057
0.15500001 552764.83955590 14228.16764164
0.15600001 546051.99462249 15431.43009632
0.15700001 539410.75991574 21732.86054273
0.15800001 532833.51618593 13978.88795692
0.15900001 526326.53211697 12631.83736704
0.16000001 519884.94975834 13810.74434223
0.16100001 513514.09133632 17469.75021191
0.16200001 507209.05227436 14881.51429623
0.16300001 500971.23106483 13556.28215258
0.16400001 494800.73674754 12246.31881265
0.16500001 488696.54012600 13385.39886599
0.16600001 482660.10669316 13299.69986785
0.16700001 476688.18588298 13213.79713656
0.16800001 470782.21063098 14321.19552359
0.16900001 464944.08656934 15412.89719754
0.17000001 459169.64736978 12955.47221229
0.17100001 453460.31018410 17548.91483281
0.17200001 447816.33569312 11620.83446001
0.17300001 442236.50167548 15005.08521046
0.17400001 436720.78910401 14903.09763199
0.17500001 431268.22783394 14801.12627828
0.17600001 425877.67164768 13568.46325952
0.17700001 420551.56089845 15720.21808886
0.17800001 415285.92008731 12265.47022910
0.17900001 410082.91978154 11072.23935708
0.18000001 404941.07091174 14292.39577293
0.18100001 399861.53570505 18557.57474867
0.18200001 394839.49209617 10838.34457002
0.18300001 389878.30701679 13988.83431659
0.18400001 384975.94091289 16024.62429751
0.18500001 380133.79783259 13787.45349874
0.18600001 375347.95802291 12634.21286394
0.18700001 370619.81939169 11496.62734069
0.18800001 365948.46400970 12449.56733380
0.18900001 361335.44652221 12357.67285493
0.19000001 356774.45862317 12265.90646701
0.19100001 352273.15354374 12174.56076172
0.19200001 347823.17847946 14097.27408989
0.19300001 343429.74860408 10993.18677227
0.19400001 339087.61299644 12893.80709347
0.19500001 334799.69729523 10827.42272218
0.19600001 330563.55138290 14652.23010746
0.19700001 326378.81714971 12601.48672567
0.19800001 322245.75794463 11542.84359508
0.19900001 318163.18610379 12408.36484447
0.20000001 314129.40390046 11365.20237025
0.20100001 310146.23716186 14096.14714522
0.20200001 306210.05016833 13053.73505564
0.20300001 302323.44467723 12026.42719768
0.20400001 298483.68578545 11931.88590324
0.20500001 294690.28446577 16390.67439672
0.20600001 290943.37686822 15357.44687390
0.20700001 287242.28896713 11650.54779122
0.20800001 283584.94050296 11557.50479652
0.20900001 279974.43460817 9701.11461776
0.21000001 276405.58013804 13997.17923987
0.21100001 272880.65504084 13016.40786078
0.21200001 269397.79507054 9467.98595535
0.21300001 265956.29454900 10244.63695035
0.21400001 262557.14430750 9314.21513465
0.21500001 259199.69397363 10077.68457814
0.21600001 255881.22143940 9161.82756680
0.21700001 252602.95547270 9086.12873794
0.21800001 249363.72244729 9010.75853667
0.21900001 246162.11260583 11372.69014011
0.22000001 242998.22490955 15305.24391960
0.22100001 239873.43923421 9585.34308503
0.22200001 236785.63753522 8712.52794508
0.22300001 233732.52018254 9424.09565938
0.22400001 230715.12923444 8565.29957785
0.22500001 227735.41038937 8492.25385500
0.22600001 224788.07657924 8419.43780642
0.22700001 221877.29924984 9105.84479182
0.22800001 218999.01580613 10531.66316816
0.22900001 216153.21381819 10440.20072115
0.23000001 213341.52582189 8870.74106319
0.23100001 210562.62977473 8060.33784897
0.23200001 207813.99574090 10894.64924196
0.23300001 205097.47575439 9358.59826128
0.23400001 202412.68975323 7135.04765126
0.23500001 199756.46068929 7778.51694714
0.23600001 197132.07152644 7708.85002165
0.23700001 194536.56555065 7639.45129050
0.23800001 191970.48901690 6882.14235677
0.23900001 189432.91976766 6819.58543420
0.24000001 186923.60559909 8784.47526064
0.24100001 184443.54227329 7364.83099134
0.24200001 181990.29778284 7296.90133476
0.24300001 179564.72089248 10515.31055287
0.24400001 177165.41592792 7812.99521200
0.24500001 174792.61702453 7739.81744797
0.24600001 172446.50095233 6389.14316252
0.24700001 170126.19679058 8227.30326599
0.24800001 167831.26759081 6895.34795516
0.24900001 165560.57825014 8691.93076933
0.25000001 163315.88057198 6763.72751387
0.25100001 161094.28299806 6089.36418541
0.25200001 158899.01185499 6633.23956370
0.25300001 156726.90584349 7165.55447417
0.25400001 154578.17677975 7686.40020403
0.25500001 152452.44871784 8195.84403083
0.25600001 150350.34213534 8114.40834896
0.25700001 148270.26340369 6885.67135825
0.25800001 146213.54380399 7952.55502377
0.25900001 144178.89204503 6185.27476139
0.26000001 142166.29244389 9461.87804130
0.26100001 140174.77921775 7161.52980909
0.26200001 138205.90145130 6542.66768428
0.26300001 136257.28610904 5935.36766376
0.26400001 134330.26447161 6407.55391849
0.26500001 132424.58778955 6340.48956339
0.26600001 130538.45168477 7319.29133231
0.26700001 128673.98532781 7759.04168243
0.26800001 126829.90812134 7676.38055230
0.26900001 125004.69539306 5568.95944329
0.27000001 123200.36777401 9014.57133661
0.27100001 121415.18434680 5449.11373135
0.27200001 119651.01350378 4899.70923485
0.27300001 117905.20748604 5815.08510841
0.27400001 116176.84046463 5271.52438556
0.27500001 114470.29923973 7108.60591920
0.27600001 112780.40802913 6560.43664553
0.27700001 111110.99760981 5559.99458353
0.27800001 109458.97083456 5497.02977547
0.27900001 107826.75297735 5434.46860726
0.28000001 106211.22825897 5372.16417959
0.28100001 104614.70094659 5752.76267733
0.28200001 103036.80490880 6998.26012063
0.28300001 101476.21730838 4322.88706194
0.28400001 99933.36872782  6408.22757298
0.28500001 98408.47218932  5488.24075376
0.28600001 96901.10340462  4588.75196892
0.28700001 95410.94204371  4533.92818052
0.28800001 93937.56998820  4479.41323691
0.28900001 92483.16456074  6436.82855811
0.29000001 91044.25472395  4768.89828817
0.29100001 89623.44461066  6280.81129562
0.29200001 88219.13737235  4652.67752525
0.29300001 86831.82239705  4212.21190387
0.29400001 85460.41420938  4537.94820933
0.29500001 84106.91563227  3734.34723085
0.29600001 82769.09786702  5162.30887834
0.29700001 81447.85345135  3640.71922162
0.29800001 80142.82981011  3594.40608714
0.29900001 78854.72553646  4613.00166226
0.30000001 77581.96561846  4903.95627889
0.30100001 76326.29996218  5186.37232795
0.30200001 75084.92361300  3412.60993977
0.30300001 73861.01599625  4041.67498665
0.30400001 72652.71164065  4321.02022939
0.30500001 71459.92955487  4592.01529059
0.30600001 70281.80607914  3883.77278780
0.30700001 69120.54036489  4470.71676246
0.30800001 67974.20903679  4095.78615942
0.30900001 66843.43488120  4351.50781678
0.31000001 65728.13050534  3066.21743324
0.31100001 64627.16348839  4536.82709168
0.31200001 63542.18043451  3281.63606391
0.31300001 62471.56126652  5002.09814744
0.31400001 61417.17639595  3482.35406653
0.31500001 60376.50019524  3434.21549371
0.31600002 59351.14683404  3668.79131525
0.31700002 58340.35555684  3061.11860101
0.31800002 57344.26492691  3292.70784801
0.31900002 56362.84204117  2705.41654608
0.32000002 55396.16290897  4801.18566665
0.32100002 54442.98204065  2892.55577278
0.32200002 53505.54823455  2851.57832818
0.32300002 52580.35828375  2555.40553359
0.32400002 51670.32412177  3022.71410425
0.32500002 50774.04863651  2979.42131507
0.32600002 49892.14596221  2447.20987533
0.32700002 49023.49320181  2653.15157772
0.32800002 48169.33470784  2852.58813648
0.32900002 47328.12254723  2577.01639473
0.33000002 46501.52449134  2770.56096039
0.33100002 45685.82002463  2275.15394497
0.33200002 44886.57850087  2466.29317252
0.33300002 44099.16300481  2430.30498828
0.33400002 43325.48130348  3047.94775404
0.33500002 42563.72330096  2145.21175596
0.33600002 41816.15005335  2747.94843089
0.33700002 41080.41658699  2291.05494155
0.33800002 40358.49440029  3078.34430616
0.33900002 39648.15895755  2022.05620260
0.34000002 38950.98360976  2590.04577779
0.34100002 38266.04825585  2944.57255274
0.34200002 37594.10675691  2127.63857267
0.34300002 36933.27472998  2477.48418622
0.34400002 36285.94098569  2441.13679542
0.34500002 35649.73066551  2035.24322008
0.34600002 35026.44675776  2370.06463211
0.34700002 34413.23181966  1976.00786467
0.34800002 33813.44687906  2301.17423634
0.34900002 33224.43353666  2093.13941194
0.35000002 32647.01510647  2234.52505479
0.35100002 32081.63453162  1863.30142185
0.35200002 31526.09927932  2337.02985026
0.35300002 30982.29386515  1809.67587038
0.35400002 30449.93152784  2270.04250292
0.35500002 29928.37583634  1757.99287989
0.35600002 29416.70775281  1732.79125225
0.35700002 28916.18644632  1552.79928572
0.35800002 28426.85666097  1530.78630370
0.35900002 27947.62859462  1660.08921715
0.36000002 27479.05038185  2083.18690812
0.36100002 27019.81846267  2347.48193923
0.36200002 26571.89661739  1736.20780722
0.36300002 26132.73112775  1997.58606202
0.36400002 25703.68428056  1688.73213722
0.36500002 25284.16660784  1388.10081252
0.36600002 24874.69599220  2054.02811885
0.36700002 24474.04563440  1486.06412131
0.36800002 24084.24828328  1999.59480844
0.36900002 23702.55933741  1973.23815831
0.37000002 23329.78154419  1557.96288532
0.37100002 22965.93058234  1409.64888592
0.37200002 22611.78840035  2024.20739349
0.37300002 22265.69281277  1498.92651116
0.37400002 21928.28299279  1603.50576981
0.37500002 21599.83856918  2436.46190602
0.37600002 21279.77314082  1444.04547374
0.37700002 20967.53574504  1426.63119967
0.37800002 20663.46994709  1527.13381878
0.37900002 20367.91532454  1277.06835135
0.38000002 20080.18532739  1606.61570415
0.38100002 19799.26401591  1474.84724641
0.38200002 19527.04734337  1458.37759993
0.38300002 19261.58149479  1442.30729066
0.38400002 19004.54796811  1317.01523658
0.38500002 18753.47210090  1628.73912912
0.38600002 18510.88252429  1182.01245959
0.38700002 18274.58468076  1169.93896669
0.38800002 18045.32941892  1263.53402577
0.38900002 17822.49358856  1251.13910919
0.39000002 17607.49936936  1445.75184171
0.39100002 17397.83700770  1329.89072387
0.39200002 17195.39175304  1520.50258780
0.39300002 16998.90141925  1406.48917006
0.39400002 16809.98267257  1095.59067259
0.39500002 16625.91037361  1185.09494758
0.39600002 16448.08983522  1469.22569414
0.39700002 16276.07618212  1166.01815293
0.39800002 16110.03465697  964.18561990
0.39900002 15949.54129722  1148.36702781
0.40000002 15794.48520040  1235.04982876
0.40100002 15645.23131875  943.40749322
0.40200002 15501.49262486  1124.47832828
0.40300002 15362.36254757  1117.15105739
0.40400002 15228.88141130  1295.21642540
0.40500002 15100.36867031  1287.45749383
0.40600002 14976.89582608  1737.24511366
0.40700002 14858.01856883  1273.03509129
0.40800002 14744.20400998  995.01265476
0.40900002 14634.70630731  1080.04137665
0.41000002 14530.17864768  1074.94266729
0.41100002 14429.77325464  1515.99204996
0.41200002 14333.47142497  1420.73375496
0.41300002 14242.05848051  884.43187355
0.41400002 14154.35511197  1057.33037696
0.41500002 14070.97631813  1492.64923855
0.41600002 13990.90930462  875.13141847
0.41700002 13915.09595378  959.72421341
0.41800002 13844.00526227  957.10534916
0.41900002 13774.62274870  954.58140172
0.42000002 13710.20330387  1038.95925560
0.42100002 13649.37069434  950.40572648
0.42200002 13592.03481539  1293.62197485
0.42300002 13537.42433432  860.98022846
0.42400002 13486.00938006  1203.62639420
0.42500002 13438.20494349  858.70133658
0.42600002 13392.64759277  943.57903086
0.42700002 13351.32119598  857.15486140
0.42800002 13311.89741825  856.62063946
0.42900002 13276.56845786  1113.24031794
0.43000002 13243.31301299  1027.41627223
0.43100002 13211.85294551  1027.35373373
0.43200002 13184.19053907  1113.20718092
0.43300002 13158.75317123  856.63487204
0.43400002 13135.84782323  942.82552219
0.43500002 13115.11989746  1029.27465833
0.43600002 13097.03407455  1459.46806126
0.43700002 13080.67057295  1031.28011684
0.43800002 13066.52704692  860.43084681
0.43900002 13055.15267586  1206.29616442
0.44000002 13045.23997068  949.23693145
0.44100002 13037.70787654  950.84008050
0.44200002 13031.95195591  1039.16789821
0.44300002 13028.00388369  954.43160975
0.44400002 13026.35412960  956.46009729
0.44500002 13025.12784927  871.38109441
0.44600002 13025.91704787  1135.40411329
0.44700002 13029.47767027  1050.69712912
0.44800002 13032.91494492  1228.87360840
0.44900002 13039.52855857  1056.20186330
0.45000002 13047.00685969  1147.41907265
0.45100002 13055.48848763  885.16216141
0.45200002 13065.55429649  1420.48713043
0.45300002 13076.54468115  1068.61528199
0.45400002 13089.22404601  1340.00937522
0.45500002 13102.95913130  1165.11518117
0.45600002 13117.74538025  899.22148843
0.45700002 13133.60096079  1263.18980028
0.45800002 13150.07089974  1810.76484871
0.45900002 13167.75573323  999.43270752
0.46000002 13187.00916323  1459.01076297
0.46100002 13205.94148388  1006.68896703
0.46200002 13226.80928442  1102.32233801
0.46300002 13248.25767658  1383.11816699
0.46400002 13269.74542428  1110.67774465
0.46500002 13292.54303754  1022.06368260
0.46600002 13315.77210968  1305.87783269
0.46700002 13339.29312201  1217.34394801
0.46800002 13364.42172221  1222.24324653
0.46900002 13388.97518576  1227.09963394
0.47000002 13414.38378878  1232.04413747
0.47100002 13440.34731520  1237.04962552
0.47200002 13466.87482562  1051.02229558
0.47300002 13493.85239281  1343.17813084
0.47400002 13520.54408948  1348.67433685
0.47500002 13547.92201829  1450.98251693
0.47600002 13576.19727744  1068.51465737
0.47700002 13603.68781285  1365.53824738
