# SAXS profile: number of points = 501, q_min = 0, q_max = 0.5, delta_q = 0.001
#    q    intensity    error
0.00000000 1646666.22097350 296.39991978
0.00100000 1646580.45653454 592.76897843
0.00200000 1646323.13089469 963.09906207
0.00300000 1645894.46963774 1283.79773205
0.00400000 1645294.32726838 1727.55910928
0.00500000 1644523.37369910 1480.07109491
0.00600000 1643581.41680412 2588.64083686
0.00700000 1642469.26328853 2759.34847700
0.00800000 1641186.64389401 2658.72247536
0.00900000 1639734.96536380 2951.52306383
0.01000000 1638113.60975493 2973.17633009
0.01100000 1636324.18809309 3239.92203349
0.01200000 1634366.57263297 3824.41794764
0.01300000 1632242.08967694 3770.47939345
0.01400000 1629950.94376798 3667.38978606
0.01500000 1627494.61435303 4687.18469805
0.01600000 1624872.77071530 4972.11090066
0.01700000 1622087.70498802 6569.45549990
0.01800000 1619139.80908044 7383.27786164
0.01900000 1616030.02957224 6787.32643047
0.02000000 1612759.24468069 6604.24940572
0.02100000 1609329.97716757 6904.02591507
0.02200000 1605741.10219058 7201.74917052
0.02300000 1601995.56100420 5767.18428213
0.02400000 1598093.98933727 6592.13800660
0.02500000 1594038.71733893 7460.10153785
0.02600000 1589830.26099378 6438.81285153
0.02700000 1585470.34813352 7324.87334386
0.02800000 1580959.54939576 11691.19640394
0.02900000 1576301.25116666 7802.69155153
0.03000000 1571495.89738246 8038.20188459
0.03100000 1566545.30492677 10527.18493350
0.03200000 1561450.55279840 8502.09865158
0.03300000 1556215.69903201 9524.04051714
0.03400000 1550839.58424795 9770.28983157
0.03500000 1545325.83650973 12517.13985375
0.03600000 1539675.17807467 11108.75692319
0.03700000 1533890.91371620 9617.49647379
0.03800000 1527974.22720073 11620.24453564
0.03900000 1521927.72590034 10957.88013394
0.04000000 1515751.50888885 9321.87221163
0.04100000 1509449.68311327 11411.44013345
0.04200000 1503023.85321213 9694.50430297
0.04300000 1496475.51014578 12839.76047305
0.04400000 1489807.50146393 12067.44132229
0.04500000 1483022.70146146 12279.42853866
0.04600000 1476121.11160397 11447.31975264
0.04700000 1469106.91675240 12693.08435107
0.04800000 1461981.67031262 12894.67893212
0.04900000 1454748.00864663 14183.79374452
0.05000000 1447407.91284868 12179.93815379
0.05100000 1439965.07375384 15724.41933790
0.05200000 1432418.53074412 15942.81899014
0.05300000 1424774.20028660 15002.87302842
0.05400000 1417032.46732599 15197.67392080
0.05500000 1409197.38456819 15388.43615734
0.05600000 1401269.25046544 15575.10844572
0.05700000 1393253.57999808 12121.30671179
0.05800000 1385149.51228438 20839.57538537
0.05900000 1376960.77645264 18588.97135032
0.06000000 1368691.35064297 18785.28966520
0.06100000 1360342.17519397 17711.65594872
0.06200000 1351916.52052606 19163.41757422
0.06300000 1343417.40680585 18055.53079166
0.06400000 1334844.22306076 14316.20496185
0.06500000 1326203.63357196 22320.00819710
0.06600000 1317496.56592842 25157.59810349
0.06700000 1308724.03675979 16018.78295960
0.06800000 1299890.41431099 17490.02634325
0.06900000 1290999.51593377 14911.04510715
0.07000000 1282050.74658085 13653.84109047
0.07100000 1273048.42439925 16498.70835298
0.07200000 1263994.42087263 15224.81351264
0.07300000 1254892.23184888 13929.30442619
0.07400000 1245744.72380782 16817.55455955
0.07500000 1236552.41350374 14096.69817469
0.07600000 1227318.55177084 21263.29490627
0.07700000 1218047.18480030 15676.26800342
0.07800000 1208739.43480275 15755.91927155
0.07900000 1199396.72482298 20149.86592213
0.08000000 1190024.92387985 18796.44455444
0.08100000 1180624.27634126 15973.84720836
0.08200000 1171196.44042237 18955.81527774
0.08300000 1161744.55755000 17565.57853454
0.08400000 1152272.23990722 17629.76609810
0.08500000 1142780.70729636 14741.87181618
0.08600000 1133272.70015959 28099.49791977
0.08700000 1123750.39808830 19283.55773671
0.08800000 1114215.44041280 17849.73219370
0.08900000 1104671.42931198 14913.06499617
0.09000000 1095120.34515828 16443.23275498
0.09100000 1085563.73309717 17976.93626467
0.09200000 1076004.22843649 19513.33759956
0.09300000 1066445.45511803 15036.88162378
0.09400000 1056886.23110932 25603.07015190
0.09500000 1047330.90398968 21114.19201686
0.09600000 1037781.11302109 21139.60226597
0.09700000 1028241.50759607 19649.69613395
0.09800000 1018711.05662131 22691.78985315
0.09900000 1009193.16502240 19679.26764330
0.10000000 999688.23364910 24232.44392324
0.10100000 990199.36507565 15150.05099819
0.10200000 980728.79283584 21213.16478683
0.10300000 971277.88284538 16667.12925366
0.10400000 961849.09879495 16664.03642058
0.10500000 952445.49122125 18172.66082751
0.10600001 943063.87671913 18163.41112026
0.10700001 933712.36467080 18151.36922336
0.10800001 924387.45283303 25693.35046067
0.10900001 915094.75745561 19628.78347126
0.11000001 905834.39933748 16590.35780477
0.11100001 896606.81207406 15062.99515191
0.11200001 887415.93220428 28579.23144207
0.11300001 878261.15289316 18021.91970585
0.11400001 869145.27060374 16492.03228622
0.11500001 860069.61635735 16461.73323223
0.11600001 851035.95144235 14935.68165116
0.11700001 842045.00026471 16394.61692726
0.11800001 833097.45595286 19332.02737589
0.11900001 824195.21657084 16319.06605676
0.12000001 815339.13821024 22197.60908339
0.12100001 806532.94822083 19187.41974206
0.12200001 797775.35093703 17662.74710186
0.12300001 789068.44320210 16144.34110855
0.12400001 780412.52092801 20485.82963960
0.12500001 771808.72304043 27715.65255036
0.12600001 763260.27836995 23264.17438100
0.12700001 754765.58592781 17389.79991929
0.12800001 746326.56273219 20217.98753727
0.12900001 737944.10959545 17267.89297841
0.13000001 729619.36764436 18638.12762498
0.13100001 721352.03052559 21424.15631649
0.13200001 713144.10693590 15649.94816445
0.13300001 704996.86657489 15587.48145481
0.13400001 696909.42291625 14112.41647939
0.13500001 688883.98677397 22485.17438844
0.13600001 680919.70573792 19590.06085777
0.13700001 673019.23407188 16717.79856264
0.13800001 665180.55490097 13869.01522369
0.13900001 657406.35442854 15186.08750345
0.14000001 649696.49493375 20611.62227383
0.14100001 642051.16204728 15043.25943625
0.14200001 634470.68211580 19053.15548259
0.14300001 626957.14859345 20313.41257256
0.14400001 619506.94148035 20211.41491917
0.14500001 612125.20860928 21448.86832146
0.14600001 604809.42342890 16003.25809887
0.14700001 597562.42217546 15919.06367776
0.14800001 590379.27253149 19792.46604540
0.14900001 583264.93655631 15748.15403003
0.15000001 576217.98811918 15661.60565604
0.15100001 569238.83486505 14276.51065205
0.15200001 562327.80802145 16777.05094398
0.15300001 555485.62672081 16681.23415760
0.15400001 548708.92427165 14033.23140049
0.15500001 542001.96150372 19024.26974659
0.15600001 535360.47676248 16390.06176961
0.15700001 528790.64941838 17545.27457578
0.15800001 522284.71036175 12456.49093006
0.15900001 515849.11160808 12380.37926296
0.16000001 509478.93008221 15995.09176494
0.16100001 503179.36472808 17118.16279610
0.16200001 496945.46422623 13365.34889129
0.16300001 490778.91012472 21731.69116623
0.16400001 484679.44430291 15594.56185666
0.16500001 478646.49370674 13110.12808157
0.16600001 472681.01254165 11840.65992320
0.16700001 466779.96177088 15291.71226961
0.16800001 460944.84230375 14021.94276495
0.16900001 455177.53974070 11607.02781145
0.17000001 449473.67779507 20752.20068371
0.17100001 443835.05012731 11450.94483401
0.17200001 438261.54840524 12510.17648999
0.17300001 432752.22786993 11294.83368080
0.17400001 427306.62342465 12338.47933408
0.17500001 421924.35576433 11138.80351824
0.17600001 416603.92140006 11060.83463556
0.17700001 411347.75283643 12081.28407141
0.17800001 406151.87465196 11995.69618443
0.17900001 401018.55350317 12993.00174721
0.18000001 395946.42209027 11824.94045428
0.18100001 390936.34650235 13874.33159274
0.18200001 385983.54901832 13773.82359737
0.18300001 381091.38846571 11569.93510037
0.18400001 376258.04868725 10441.16134432
0.18500001 371484.59686544 11400.86281640
0.18600001 366767.42972659 12345.39226784
0.18700001 362107.81457677 11232.58493885
0.18800001 357504.85261212 11148.78935545
0.18900001 352959.75788727 12071.22429008
0.19000001 348466.89447667 10981.93469832
0.19100001 344033.30240777 10898.97553526
0.19200001 339650.85831729 13766.04993806
0.19300001 335324.95818285 13661.13944189
0.19400001 331049.92089710 11619.85277257
0.19500001 326829.10866790 10569.65387379
0.19600001 322659.63909297 17162.26701438
0.19700001 318541.53009596 17975.29939278
0.19800001 314474.76838967 10325.77950806
0.19900001 310458.32284107 10245.12513794
0.20000001 306490.38656504 13861.02838749
0.20100001 302573.01756162 12835.14801158
0.20200001 298702.24851708 10005.03228695
0.20300001 294880.97761371 13535.03751220
0.20400001 291106.06521487 12532.11669984
0.20500001 287377.55264619 10655.96015579
0.20600001 283695.10534838 9689.60678118
0.20700001 280058.29341782 10485.38300120
0.20800001 276465.18074376 12134.05735642
0.20900001 272918.19340470 12035.69289809
0.21000001 269412.92902793 8526.91960682
0.21100001 265951.35743532 8457.25356625
0.21200001 262531.47993177 8387.88118035
0.21300001 259152.73680797 8318.80324481
0.21400001 255816.16720517 8250.07178240
0.21500001 252520.85126821 8999.84356469
0.21600001 249264.41399622 9736.26847101
0.21700001 246047.81100220 13677.79846029
0.21800001 242870.03531859 10371.76534866
0.21900001 239729.39483215 10284.39152456
0.22000001 236626.45337770 12550.66768058
0.22100001 233562.22045496 11666.43346335
0.22200001 230534.75473289 9253.66549253
0.22300001 227541.51049593 9939.01364843
0.22400001 224583.97752231 9095.65151975
0.22500001 221663.57337086 8265.83504187
0.22600001 218775.37363943 7449.30182469
0.22700001 215923.29064951 8861.49226731
0.22800001 213103.68948614 9516.14570402
0.22900001 210316.03671421 10158.26505369
0.23000001 207562.30558380 7911.23765146
0.23100001 204840.95994098 9267.00546599
0.23200001 202149.63262935 9891.18199234
0.23300001 199490.10517606 9802.94423198
0.23400001 196862.01876737 9021.20243668
0.23500001 194262.25077260 6876.88400260
0.23600001 191693.80238030 8177.65799632
0.23700001 189154.12498254 8103.36309752
0.23800001 186643.50566115 7360.28699388
0.23900001 184160.97971149 7292.77514152
0.24000001 181706.51774194 8539.29820519
0.24100001 179280.96197915 9111.05891874
0.24200001 176881.79976011 6447.34190623
0.24300001 174510.22946573 7664.48964069
0.24400001 172164.35352438 8225.15237871
0.24500001 169844.71226108 8147.45123257
0.24600001 167551.61971518 6828.56658452
0.24700001 165283.82282850 7378.27020010
0.24800001 163041.00609867 7307.49823904
0.24900001 160822.15694790 7840.08052210
0.25000001 158629.03452769 5972.38343251
0.25100001 156458.62095683 8871.20422794
0.25200001 154314.27397181 7613.09506657
0.25300001 152192.70047633 7538.10481122
0.25400001 150094.24984965 5741.10532837
0.25500001 148018.44907165 6820.69045592
0.25600001 145965.89781799 7315.08131524
0.25700001 143934.86842476 7241.36357306
0.25800001 141927.15846346 7168.03147735
0.25900001 139941.08962484 7640.78385504
0.26000001 137976.62791930 5941.96376249
0.26100001 136032.98862948 5880.70637670
0.26200001 134111.63918004 5819.77485759
0.26300001 132210.40270209 6806.19185316
0.26400001 130330.18494512 6216.75011605
0.26500001 128470.95035680 6663.78851033
0.26600001 126630.98798052 6593.04270119
0.26700001 124812.46042278 6020.95337571
0.26800001 123013.91512380 5956.33405215
0.26900001 121233.86582287 7364.95769726
0.27000001 119474.37805098 5827.96043712
0.27100001 117733.74015393 6244.59787328
0.27200001 116013.71068848 4750.76167752
0.27300001 114311.55017461 6107.66641487
0.27400001 112626.76437074 6968.78137524
0.27500001 110963.39107421 6431.43845103
0.27600001 109316.30478830 6813.13901837
0.27700001 107689.30069685 4939.70845674
0.27800001 106079.43680451 6659.13696056
0.27900001 104489.08574214 5266.25017064
0.28000001 102915.01666331 6506.80223649
0.28100001 101359.57710780 6431.26547188
0.28200001 99822.53049858  6779.94659236
0.28300001 98302.38607003  5025.21821374
0.28400001 96799.64643861  5379.64060545
0.28500001 95314.49227204  5315.68948561
0.28600001 93846.56951967  5656.13301267
0.28700001 92395.58536267  4789.78737191
0.28800001 90961.08445311  6309.06111629
0.28900001 89545.05435154  5842.81507300
0.29000001 88144.26145475  4616.99663354
0.29100001 86761.16206559  3800.13907835
0.29200001 85394.43334302  3753.08552308
0.29300001 84044.24235934  4447.62151619
0.29400001 82709.62416665  3659.90104262
0.29500001 81392.52792001  4336.59409286
0.29600001 80090.92265909  6422.49139206
0.29700001 78805.54251169  3874.86870873
0.29800001 77536.03982212  3477.49155064
0.29900001 76283.00470599  3432.73537427
0.30000001 75045.20975186  3388.29138070
0.30100001 73824.05867820  4347.49902137
0.30200001 72616.82761257  3300.43497124
0.30300001 71426.79688927  4885.59313852
0.30400001 70252.17642844  4499.65211326
0.30500001 69092.65833113  3488.48848429
0.30600001 67947.46128528  3128.98074032
0.30700001 66818.78284682  3395.73070504
0.30800001 65704.71329333  3959.03768693
0.30900001 64605.99609061  3605.01475253
0.31000001 63522.27647582  4444.97150684
0.31100001 62452.76498579  3215.06849369
0.31200001 61398.81430530  3170.94191493
0.31300001 60358.88712632  3127.19409008
0.31400001 59335.03851250  3925.01298344
0.31500001 58324.43889282  3041.03638786
0.31600002 57328.99272463  2725.99373313
0.31700002 56347.72726662  3762.90140503
0.31800002 55380.85915881  3974.96135433
0.31900002 54428.20294175  3918.83079736
0.32000002 53490.21017414  4120.88598694
0.32100002 52565.41305293  2792.80052774
0.32200002 51655.94084883  2502.73045263
0.32300002 50758.59957868  3453.61527886
0.32400002 49875.95801557  2674.59837523
0.32500002 49006.78861647  2396.43207682
0.32600002 48151.74246139  2598.02738753
0.32700002 47309.72566265  3491.45791923
0.32800002 46481.81489371  2982.04097571
0.32900002 45666.57203025  3842.84221832
0.33000002 44865.72146211  2895.85812890
0.33100002 44075.32124498  2414.44621213
0.33200002 43301.34671648  2379.19260800
0.33300002 42538.76939173  2557.43093694
0.33400002 41789.66062276  2729.90970946
0.33500002 41052.15813913  2275.93175501
0.33600002 40328.65023745  3261.78138567
0.33700002 39616.71313596  2209.42419622
0.33800002 38918.10654269  2572.68155484
0.33900002 38231.12422971  2534.72365647
0.34000002 37556.79224444  2497.33901856
0.34100002 36894.54771973  3028.30462025
0.34200002 36244.98359773  2237.76539330
0.34300002 35606.30193828  2021.01379373
0.34400002 34980.75850390  1991.27977214
0.34500002 34366.22398969  2497.04995335
0.34600002 33764.35398854  2108.92165000
0.34700002 33172.17007041  2424.22230356
0.34800002 32593.25657223  2218.13418108
0.34900002 32024.86007895  2521.95785066
0.35000002 31467.67072020  2319.48211864
0.35100002 30922.42694558  2775.59717409
0.35200002 30386.63036156  2252.56101539
0.35300002 29862.42013294  2378.54187624
0.35400002 29349.47434358  1875.43149938
0.35500002 28846.88382372  1848.50840298
0.35600002 28354.06048544  1973.86801418
0.35700002 27872.17365074  1796.08295513
0.35800002 27401.31376599  1623.11689781
0.35900002 26940.11868916  1600.24312593
0.36000002 26489.32029912  1864.71579078
0.36100002 26047.79754636  1414.39547376
0.36200002 25617.31958790  1952.80836468
0.36300002 25195.34717392  1375.66602086
0.36400002 24783.21812768  1899.63375947
0.36500002 24380.42303992  1740.03087478
0.36600002 23987.45460378  1980.76415773
0.36700002 23603.07837722  1433.17898695
0.36800002 23229.38878577  1928.62009530
0.36900002 22863.43486535  1649.59690367
0.37000002 22506.28773918  1252.47497201
0.37100002 22157.85378702  1730.97161984
0.37200002 21818.90448845  1464.92131675
0.37300002 21487.83767065  1446.56130051
0.37400002 21165.12898658  1190.53856189
0.37500002 20851.26644178  1176.01148303
0.37600002 20545.52506929  1161.84949771
0.37700002 20247.45504186  1262.83383078
0.37800002 19957.28293908  1248.02874772
0.37900002 19675.39991305  1121.49784817
0.38000002 19401.18259818  1330.53316561
0.38100002 19133.58239764  1534.89605265
0.38200002 18874.58084447  1409.64813715
0.38300002 18622.00031788  1072.62726912
0.38400002 18377.73385557  1061.31418044
0.38500002 18139.16883357  1365.33530278
0.38600002 17908.85223431  1455.45249003
0.38700002 17684.86144384  1132.18488327
0.38800002 17467.49011938  1324.99652578
0.38900002 17256.49311338  1312.35636345
0.39000002 17053.10533857  1100.18114304
0.39100002 16854.81286797  1387.48826103
0.39200002 16663.61402913  1375.24813098
0.39300002 16478.26492589  1071.25205358
0.39400002 16300.22598920  1158.94612274
0.39500002 16126.83086250  1341.10731806
0.39600002 15959.54356090  1235.50812330
0.39700002 15797.88788673  1226.07413698
0.39800002 15642.03398584  1029.79335625
0.39900002 15491.62543688  1022.44732728
0.40000002 15346.38194813  1292.31888508
0.40100002 15206.86104745  1008.67114107
0.40200002 15072.63420225  1640.05340525
0.40300002 14942.86684199  1267.75288294
0.40400002 14818.63509721  1170.30176225
0.40500002 14699.20692772  1521.80896533
0.40600002 14584.66103982  979.43295854
0.40700002 14474.47383014  1240.17297653
0.40800002 14369.31342755  1146.02464671
0.40900002 14268.22793740  877.49605973
0.41000002 14171.91860230  961.06870555
0.41100002 14079.73200068  1044.15297464
0.41200002 13991.43046461  866.76915835
0.41300002 13907.80997137  950.04254416
0.41400002 13827.82641903  946.86045891
0.41500002 13752.02019257  1201.37654095
0.41600002 13679.42696388  941.21301685
0.41700002 13610.83861033  1024.07954557
0.41800002 13546.99871439  1192.00047336
0.41900002 13484.62733016  1529.15681170
0.42000002 13427.06830290  1271.87910526
0.42100002 13372.98020651  931.16065590
0.42200002 13322.29401361  1183.41943331
0.42300002 13274.23968790  1013.09002099
0.42400002 13229.12330735  843.35665081
0.42500002 13187.62901882  1011.22744108
0.42600002 13148.15576495  926.35335832
0.42700002 13112.90317609  926.03326618
0.42800002 13079.23669150  925.81381308
0.42900002 13049.71828418  925.87755614
0.43000002 13022.15681598  1094.44722146
0.43100002 12996.20606721  926.36961237
0.43200002 12973.97128969  1095.45731776
0.43300002 12953.80187112  1264.93881266
0.43400002 12936.07643639  1097.30273572
0.43500002 12920.43439047  844.99644918
0.43600002 12907.27007919  930.67875316
0.43700002 12895.79635746  1186.15540517
0.43800002 12886.45166421  933.43017053
0.43900002 12879.72701193  935.06822538
0.44000002 12874.36985781  1021.96752774
0.44100002 12871.29834776  1280.05068135
0.44200002 12869.88523322  1026.24469713
0.44300002 12870.22171961  942.87248786
0.44400002 12872.72593272  1202.95629542
0.44500002 12875.59836788  1292.06635745
0.44600002 12880.37628747  863.62927100
0.44700002 12887.83240333  866.06237855
0.44800002 12895.01118002  1129.02275737
0.44900002 12905.30638593  1045.32986680
0.45000002 12916.41108759  1398.07240238
0.45100002 12928.41506456  1051.85589950
0.45200002 12941.83437512  967.33745621
0.45300002 12956.26260463  970.55367771
0.45400002 12972.19661521  1062.42295314
0.45500002 12989.12811240  1066.14768599
0.45600002 13006.95903199  1248.27791746
0.45700002 13025.81679998  1342.31048486
0.45800002 13045.23790808  1526.87994332
0.45900002 13065.88006882  1442.47322796
0.46000002 13087.89659682  995.53090182
0.46100002 13109.57952709  1453.59024686
0.46200002 13133.08911357  1003.30239038
0.46300002 13157.12790095  915.73614531
0.46400002 13181.08926561  919.38101985
0.46500002 13206.31203162  1107.74550571
0.46600002 13231.95428996  1019.58828614
0.46700002 13257.84902086  1302.98146353
0.46800002 13285.15375949  1308.45485579
0.46900002 13311.88724177  1032.33690453
0.47000002 13339.36536650  1130.91144937
0.47100002 13367.49932461  1041.06089674
0.47200002 13395.93654357  1235.57426566
0.47300002 13424.85040607  1240.85898185
0.47400002 13453.39168447  958.55420295
0.47500002 13482.60874861  1251.45580336
0.47600002 13512.57065135  1160.18937112
0.47700002 13541.79281921  1456.41988674
0.47800002 13571.46039552  975.10947564
