# SAXS profile: number of points = 501, q_min = 0, q_max = 0.5, delta_q = 0.001
#    q    intensity    error
0.00000000 1664650.74656089 299.63713438
0.00100000 1664564.31415620 649.18009794
0.00200000 1664304.99025163 898.72472319
0.00300000 1663872.98238813 1397.65335499
0.00400000 1663268.17833416 1746.43165361
0.00500000 1662491.21898729 1795.49058757
0.00600000 1661541.95078581 2093.54294322
0.00700000 1660421.12906711 2191.75598146
0.00800000 1659128.51891830 3359.73539266
0.00900000 1657665.55206440 2983.79812127
0.01000000 1656031.55985695 4098.67828762
0.01100000 1654228.18366331 4168.65520433
0.01200000 1652255.29995894 4188.46736903
0.01300000 1650114.27891180 4158.28816626
0.01400000 1647805.23907951 4819.83053798
0.01500000 1645329.75170093 4738.54989590
0.01600000 1642687.43745126 5864.39441386
0.01700000 1639880.64595906 5313.21353125
0.01800000 1636909.68663897 5598.23138021
0.01900000 1633775.61191051 5881.59246827
0.02000000 1630479.20521292 7190.41362025
0.02100000 1627023.14345085 6443.01194018
0.02200000 1623406.13159787 8401.12711270
0.02300000 1619631.25703570 5830.67279073
0.02400000 1615699.13474337 7876.53364102
0.02500000 1611612.08060796 7542.34488171
0.02600000 1607370.48298824 7811.82090462
0.02700000 1602976.39526052 8752.25151899
0.02800000 1598430.16451175 7648.48868795
0.02900000 1593735.16504273 7888.98942918
0.03000000 1588892.03676695 11082.52246586
0.03100000 1583902.42188963 9123.27836988
0.03200000 1578767.45147110 10159.36901814
0.03300000 1573491.37110882 8827.28699886
0.03400000 1568072.67539834 9878.85831082
0.03500000 1562515.39192485 11812.61690844
0.03600000 1556820.05033508 14688.59785373
0.03700000 1550990.01850137 9724.70786575
0.03800000 1545026.35582538 9942.24505986
0.03900000 1538931.85293485 9233.59154522
0.04000000 1532706.56176879 13196.60410835
0.04100000 1526354.56973444 9616.03423519
0.04200000 1519877.58320716 12744.17412643
0.04300000 1513276.93016195 11985.15384321
0.04400000 1506555.93592367 11186.17834374
0.04500000 1499716.69119666 10348.04565008
0.04600000 1492759.94751481 11576.35393113
0.04700000 1485689.42054809 11766.66075798
0.04800000 1478507.14094481 15213.83918819
0.04900000 1471215.50228454 13240.94013689
0.05000000 1463816.30333752 12318.01476619
0.05100000 1456313.35770419 17038.86707888
0.05200000 1448706.10125553 13820.65685004
0.05300000 1440999.83763471 11672.09922897
0.05400000 1433195.69851406 14188.63807696
0.05500000 1425297.16351194 11972.49673201
0.05600000 1417304.75823133 16965.13874769
0.05700000 1409223.98689444 12260.24925827
0.05800000 1401053.90272969 14879.19314173
0.05900000 1392798.49347338 13788.70572940
0.06000000 1384461.59653582 13934.60662014
0.06100000 1376044.25311603 17916.09701281
0.06200000 1367549.69108920 16800.34874034
0.06300000 1358980.87301382 15655.46038909
0.06400000 1350337.51368701 15798.94964900
0.06500000 1341625.49992429 15938.51168467
0.06600000 1332846.73820772 13395.11034573
0.06700000 1324001.90396294 20257.23007865
0.06800000 1315095.43008950 17694.60984012
0.06900000 1306130.85726943 15085.81210776
0.07000000 1297107.69696819 19339.87666745
0.07100000 1288030.50832476 18083.94918389
0.07200000 1278901.14957574 16804.76189267
0.07300000 1269722.97088539 14093.92563721
0.07400000 1260498.95064143 19852.85940299
0.07500000 1251229.69020682 21396.02870542
0.07600000 1241918.45754870 14344.15885715
0.07700000 1232569.29233700 15863.16753618
0.07800000 1223183.08646276 24641.02443236
0.07900000 1213761.63760955 17478.16840137
0.08000000 1204310.52385679 17558.84826154
0.08100000 1194830.31888383 20574.97905652
0.08200000 1185322.23706075 16232.98879828
0.08300000 1175790.23053837 17777.94912009
0.08400000 1166236.96108606 17843.42634216
0.08500000 1156664.33307112 23873.55295534
0.08600000 1147075.05300470 14969.33014454
0.08700000 1137470.98054114 16516.07941301
0.08800000 1127854.21861176 16562.53997815
0.08900000 1118228.02457070 18115.29484892
0.09000000 1108594.52426349 21185.24235386
0.09100000 1098955.29481675 15165.58378097
0.09200000 1089312.83275388 18235.09767711
0.09300000 1079670.90734720 15223.36050897
0.09400000 1070028.46243318 15247.90630629
0.09500000 1060389.84248105 18323.53733933
0.09600000 1050756.32654146 19875.05685081
0.09700000 1041133.16147585 26017.91892846
0.09800000 1031518.90745601 15318.05649594
0.09900000 1021917.28658612 18394.51202351
0.10000000 1012328.20351851 23005.15950683
0.10100000 1002755.60795125 19944.80998019
0.10200000 993200.98544248 23017.43392028
0.10300000 983665.94301188 24552.30309254
0.10400000 974153.05791897 18411.49366084
0.10500000 964665.47871767 15338.18183326
0.10600001 955200.04454517 18397.15372359
0.10700001 945764.32166234 22982.07409788
0.10800001 936355.78536568 18371.30137346
0.10900001 926979.22444701 21413.22109255
0.11000001 917635.00585394 16806.48592329
0.11100001 908324.12251063 18311.81517181
0.11200001 899049.48481752 15238.88948506
0.11300001 889811.26924184 16737.35076245
0.11400001 880612.27049892 15190.56238135
0.11500001 871453.71271143 15163.29531519
0.11600001 862336.92334557 16647.41508914
0.11700001 853263.24285241 19633.58814268
0.11800001 844233.19809385 19590.43228444
0.11900001 835248.58811962 16537.92282373
0.12000001 826310.66161740 14997.53921481
0.12100001 817422.64232910 22438.25258896
0.12200001 808583.36934615 19393.87302744
0.12300001 799795.19193434 17851.42952503
0.12400001 791058.36301957 22248.51750822
0.12500001 782373.77925434 20701.61117454
0.12600001 773744.89757467 17687.80919207
0.12700001 765170.11412283 16160.39357185
0.12800001 756651.03286314 16105.31799352
0.12900001 748189.28360468 16048.66088973
0.13000001 739785.50720009 14536.78590167
0.13100001 731439.43784587 14482.50155202
0.13200001 723153.02980814 14426.90362476
0.13300001 714927.84057271 14370.05027296
0.13400001 706762.70510455 17174.33454374
0.13500001 698660.12939103 14252.66731156
0.13600001 690619.21663419 22707.56091361
0.13700001 682642.02834175 19782.96691418
0.13800001 674727.27356312 15474.87074890
0.13900001 666877.78674716 15404.87760033
0.14000001 659092.76733441 18121.75649249
0.14100001 651372.75831194 16649.08848767
0.14200001 643718.23004681 16569.30802290
0.14300001 636130.99726098 19236.60226452
0.14400001 628607.62533915 15039.43814565
0.14500001 621153.04154950 23125.52882777
0.14600001 613764.80797144 13533.51465420
0.14700001 606445.91054439 14809.40983415
0.14800001 599191.63422340 20087.90048506
0.14900001 592006.71988493 19980.22773880
0.15000001 584889.20608774 13247.74114295
0.15100001 577840.32481803 15809.71203300
0.15200001 570859.93207322 15721.48327115
0.15300001 563948.95467484 14329.94361450
0.15400001 557104.05711264 14247.93693303
0.15500001 550329.48906839 15453.25278233
0.15600001 543620.92345803 16642.95535713
0.15700001 536984.48450243 13999.18617170
0.15800001 530412.57098057 16445.44253946
0.15900001 523911.47437363 13831.26357631
0.16000001 517476.16900633 14996.46008567
0.16100001 511112.11471750 14904.02996870
0.16200001 504814.47298563 13576.98589186
0.16300001 498584.60893187 14718.21835048
0.16400001 492422.61738838 15843.69846245
0.16500001 486327.39521023 12109.55271244
0.16600001 480300.26664698 14437.82669706
0.16700001 474338.33144835 16734.65712362
0.16800001 468442.64155127 14250.02582882
0.16900001 462615.43424918 12976.36354341
0.17000001 456852.41347674 11718.26495901
0.17100001 451154.94387619 11639.79810165
0.17200001 445523.30625446 12717.46337759
0.17300001 439956.15772507 17224.28438834
0.17400001 434453.62893706 14825.73078764
0.17500001 429014.84290375 11325.99238756
0.17600001 423638.41874673 12372.36060383
0.17700001 418326.78478025 12286.25824928
0.17800001 413076.30572941 15527.53906577
0.17900001 407888.72568975 15418.19455933
0.18000001 402762.84298922 12028.51287404
0.18100001 397699.50338508 14114.35604185
0.18200001 392694.33539962 17247.13602547
0.18300001 387750.20077343 11772.09665159
0.18400001 382865.36598452 11686.96584878
0.18500001 378041.06863462 16875.75410110
0.18600001 373273.74362304 10470.32900328
0.18700001 368564.11308567 13511.56102407
0.18800001 363911.81781569 11348.59057476
0.18900001 359318.29711865 12288.68634207
0.19000001 354777.00839773 11180.79794793
0.19100001 350295.71390223 16141.62725931
0.19200001 345866.39643276 11014.11591483
0.19300001 341493.66587368 12918.70599044
0.19400001 337172.70321516 11834.76244209
0.19500001 332906.16659475 11744.93011247
0.19600001 328691.63536394 9712.83828400
0.19700001 324529.13449727 11566.21890007
0.19800001 320418.24224137 11477.38197949
0.19900001 316358.47602061 13287.05662081
0.20000001 312347.43765566 11300.73082847
0.20100001 308387.41637885 11212.96698949
0.20200001 304474.62096916 11125.50317604
0.20300001 300611.66764887 15637.81969021
0.20400001 296795.88083821 11864.41589729
0.20500001 293026.64565712 10865.42853454
0.20600001 289303.93088377 9881.17622640
0.20700001 285627.52796712 11585.05308196
0.20800001 281994.86291818 11492.70118149
0.20900001 278409.33977233 11400.86300261
0.21000001 274865.61901090 10439.39670353
0.21100001 271365.92578776 12944.15527199
0.21200001 267908.58270932 11127.58350888
0.21300001 264492.70522500 9339.23786301
0.21400001 261119.42343194 10105.32216456
0.21500001 257787.81957252 10022.79089883
0.21600001 254495.49571681 9112.21165495
0.21700001 251243.39147348 10680.35707650
0.21800001 248030.39712408 10592.13860999
0.21900001 244855.23561042 11312.31242007
0.22000001 241717.91630315 8012.94930432
0.22100001 238619.66674198 9535.24233387
0.22200001 235558.53138996 10243.26322184
0.22300001 232532.25305457 11719.62610812
0.22400001 229541.66957149 10071.14122868
0.22500001 226588.72467054 9217.62975547
0.22600001 223668.30783558 9139.08749033
0.22700001 220784.45643545 9060.99452060
0.22800001 217933.17214333 8983.20578056
0.22900001 215114.40232233 8163.59195420
0.23000001 212329.64400436 8828.66701522
0.23100001 209577.78298422 9481.29935060
0.23200001 206856.22554460 8675.55050964
0.23300001 204166.55137296 9316.12017975
0.23400001 201508.59903471 12785.72121346
0.23500001 198879.51255338 7744.36858511
0.23600001 196281.81525252 8373.38263471
0.23700001 193713.17286637 10373.34089763
0.23800001 191173.90119865 10280.37702321
0.23900001 188662.97597422 10866.98793012
0.24000001 186180.26121501 10095.62514191
0.24100001 183726.71103123 10003.91988885
0.24200001 181300.07019386 9251.74301962
0.24300001 178900.65062380 6547.76412256
0.24400001 176527.56830917 11028.56035181
0.24500001 174181.10723062 6427.28316085
0.24600001 171860.70734030 9551.15926226
0.24700001 169566.37299728 7569.44324868
0.24800001 167297.21412172 6248.55124304
0.24900001 165052.19226583 6808.40325305
0.25000001 162832.87082554 6130.65787661
0.25100001 160636.70047956 6679.27432193
0.25200001 158466.43112705 7817.94174952
0.25300001 156319.43294865 7146.92481254
0.25400001 154195.46874465 7667.37004608
0.25500001 152094.31578554 6424.46420274
0.25600001 150016.62738536 6939.76951119
0.25700001 147960.87341739 7443.91189383
0.25800001 145928.05128696 5669.30506074
0.25900001 143917.32916635 6174.05371336
0.26000001 141928.38342461 6667.79576878
0.26100001 139960.16308344 6050.47813638
0.26200001 138014.52389518 5444.67322529
0.26300001 136088.90598428 6466.94511837
0.26400001 134184.55085746 9600.90506815
0.26500001 132301.35365972 6862.47153905
0.26600001 130437.50271912 8880.83779287
0.26700001 128594.98472100 5686.47049345
0.26800001 126772.80262353 5626.81111071
0.26900001 124968.87194895 5061.23955344
0.27000001 123185.83647362 5508.25493858
0.27100001 121421.60671122 5449.40196708
0.27200001 119678.15834292 4900.82081607
0.27300001 117952.74960743 6302.21570977
0.27400001 116244.53825869 5754.10491612
0.27500001 114557.91739640 6165.50740606
0.27600001 112887.65186989 6566.67502005
0.27700001 111237.47207431 5566.32336603
0.27800001 109604.48091394 4586.94774334
0.27900001 107990.87907607 5442.74056303
0.28000001 106393.79742495 4932.94865108
0.28100001 104815.40907608 4433.69201376
0.28200001 103255.32791815 4821.50776534
0.28300001 101712.31484843 5199.53378115
0.28400001 100186.51728932 6424.46072525
0.28500001 98678.66196193  6349.97219780
0.28600001 97187.71086351  5020.71738085
0.28700001 95713.82218389  4961.80477687
0.28800001 94256.34749895  6129.01928622
0.28900001 92817.70593439  4441.32743918
0.29000001 91394.08883664  4787.22259986
0.29100001 89988.09900808  4729.77470775
0.29200001 88598.55856035  3893.90683305
0.29300001 87225.64706621  4231.31633948
0.29400001 85868.30011238  4179.63970582
0.29500001 84528.38313537  5254.28454442
0.29600001 83203.99039618  4818.75933190
0.29700001 81895.74516499  4392.88797860
0.29800001 80603.41420017  4338.07595761
0.29900001 79327.68216530  5354.61879964
0.30000001 78066.92079649  4582.13813307
0.30100001 76823.05809314  3480.08469637
0.30200001 75593.08093591  4466.41739854
0.30300001 74380.26975575  4409.26259986
0.30400001 73182.76438793  3682.92279218
0.30500001 72000.32214863  5287.70390893
0.30600001 70832.31877217  4240.37696405
0.30700001 69680.80729440  4185.02948423
0.30800001 68543.91565981  3812.41276949
0.30900001 67422.20004787  3135.13245066
0.31000001 66315.77505194  4021.72036843
0.31100001 65223.22094657  4578.67032723
0.31200001 64146.44581450  3011.67577358
0.31300001 63083.67257583  3862.61345470
0.31400001 62036.61861135  3810.59947862
0.31500001 61003.22688094  2891.55309106
0.31600002 59984.84391888  3422.73535607
0.31700002 58980.58745889  3094.71157050
0.31800002 57990.74014136  4439.77127544
0.31900002 57015.28919630  3831.42761541
0.32000002 56054.16509091  3778.61144769
0.32100002 55106.36196522  2661.63740895
0.32200002 54173.91607787  5511.92535233
0.32300002 53253.58568971  3623.37414190
0.32400002 52347.91492838  3572.74536304
0.32500002 51455.80883832  3522.66483988
0.32600002 50577.70928488  2977.00410948
0.32700002 49712.51704194  2690.44154971
0.32800002 48861.77191396  3375.85998139
0.32900002 48023.50067440  2614.87973554
0.33000002 47199.48138420  2343.45436170
0.33100002 46386.24308023  2772.04201774
0.33200002 45589.20988950  2277.18114182
0.33300002 44803.63620872  2469.12850839
0.33400002 44031.43488581  2433.83767857
0.33500002 43271.18035086  2398.95435226
0.33600002 42524.56167444  2794.50170277
0.33700002 41789.62204447  2330.60733179
0.33800002 41068.21551317  2923.64640084
0.33900002 40358.20208001  2264.09524391
0.34000002 39661.20116190  2840.13874971
0.34100002 38975.98345733  2999.20206908
0.34200002 38303.54854883  2561.93296602
0.34300002 37642.08028113  1942.33143449
0.34400002 36993.83938696  2297.31753473
0.34500002 36356.44128700  2264.27927059
0.34600002 35731.82019403  2231.80959502
0.34700002 35117.04761371  1833.10997225
0.34800002 34515.40931726  1987.56993967
0.34900002 33924.32834112  2493.43825117
0.35000002 33344.69895477  1931.15833143
0.35100002 32776.85516441  1730.61803465
0.35200002 32218.71433734  2558.97150744
0.35300002 31672.04684206  1849.96434366
0.35400002 31136.58336826  2155.43008576
0.35500002 30611.73444027  1961.60003584
0.35600002 30096.69446874  2578.68490422
0.35700002 29592.56898981  1748.03313302
0.35800002 29099.39278570  1723.70261330
0.35900002 28616.22428523  2317.91427689
0.36000002 28143.53302072  1523.97238526
0.36100002 27680.02968956  1803.63082000
0.36200002 27227.58083772  1630.79603152
0.36300002 26783.91570097  2193.60279981
0.36400002 26350.04372942  1875.46445128
0.36500002 25925.61115844  1992.64256802
0.36600002 25511.03395780  2247.01197744
0.36700002 25105.17121649  1524.38606847
0.36800002 24710.04740607  1504.47130758
0.36900002 24322.94531955  1754.90058793
0.37000002 23944.51931047  2132.02010040
0.37100002 23574.93327552  1578.57760691
0.37200002 23214.96503124  1298.87735503
0.37300002 22862.91806260  1539.13171688
0.37400002 22519.43663745  1900.07755629
0.37500002 22184.79755053  1501.46716935
0.37600002 21858.55738505  1606.93192228
0.37700002 21539.93040590  1709.83975662
0.37800002 21229.28075806  1568.95006875
0.37900002 20927.15791685  1669.98728088
0.38000002 20632.84113189  1179.16692655
0.38100002 20345.20087071  1632.09209117
0.38200002 20066.17095794  1383.36189137
0.38300002 19793.91152234  1254.14229347
0.38400002 19529.81265942  1353.41608141
0.38500002 19271.82297146  1450.59018378
0.38600002 19022.08552296  1435.50175200
0.38700002 18778.64201412  1311.50042040
0.38800002 18542.31140828  1406.52709851
0.38900002 18312.13046676  1071.25968306
0.39000002 18089.90908602  1379.26518361
0.39100002 17872.93675647  1366.20735039
0.39200002 17663.15420281  1874.23738126
0.39300002 17459.25043673  1031.84174970
0.39400002 17262.93285371  1329.67746605
0.39500002 17071.38197350  1318.25217845
0.39600002 16886.12456747  1106.12564220
0.39700002 16706.53025950  997.37990375
0.39800002 16533.06454282  1385.30554368
0.39900002 16365.06286844  1080.09420049
0.40000002 16202.44304457  1461.86549296
0.40100002 16045.66394535  967.55358175
0.40200002 15894.27940532  1152.97108269
0.40300002 15747.65123272  1240.60002289
0.40400002 15606.59461175  1042.91073434
0.40500002 15470.66579546  1036.37995074
0.40600002 15339.52990200  1030.12617938
0.40700002 15213.28793552  1210.36924550
0.40800002 15091.88422956  1296.24199789
0.40900002 14974.91673283  1105.14890725
0.41000002 14862.95221852  916.30104769
0.41100002 14755.14062990  1641.36192144
0.41200002 14651.44481592  1089.18845922
0.41300002 14552.70816594  1084.46786391
0.41400002 14457.56441560  1529.97182678
0.41500002 14366.84063777  986.13998810
0.41600002 14279.52989538  1071.82156473
0.41700002 14196.52128711  1068.14631226
0.41800002 14118.27370247  1064.80025309
0.41900002 14041.78398004  1061.55891919
0.42000002 13970.16395750  1058.65907486
0.42100002 13902.40665030  880.02238266
0.42200002 13838.03612147  1229.23280692
0.42300002 13776.51746571  963.80520757
0.42400002 13718.22613844  961.99065354
0.42500002 13663.62753467  960.41642492
0.42600002 13611.23872945  1307.69982290
0.42700002 13563.28264650  1044.91534460
0.42800002 13517.21771276  1478.71610176
0.42900002 13475.34329546  956.07565212
0.43000002 13435.62647797  1129.19728085
0.43100002 13397.78375800  1128.62935726
0.43200002 13363.70995397  954.77030291
0.43300002 13332.01001601  1041.49667181
0.43400002 13302.89851579  1041.61700315
0.43500002 13276.04771658  1128.72963035
0.43600002 13251.94674604  1042.39818044
0.43700002 13229.62334800  956.10492467
0.43800002 13209.54157763  1304.77253116
0.43900002 13192.34372111  1044.83367223
0.44000002 13176.77787195  871.64389754
0.44100002 13163.60364975  1309.12044501
0.44200002 13152.25711784  1048.76103228
0.44300002 13142.94367557  1225.44812639
0.44400002 13135.82085222  1139.86090847
0.44500002 13129.31334538  1229.69154620
0.44600002 13124.97360581  1056.03542637
0.44700002 13123.34649017  1058.26671112
0.44800002 13121.81509698  972.12971753
0.44900002 13123.55819853  885.84022038
0.45000002 13126.13932624  1154.37837775
0.45100002 13129.92528324  1068.25077167
0.45200002 13135.32801887  981.80013930
0.45300002 13141.78430025  984.45110859
0.45400002 13150.03051409  987.23858763
0.45500002 13159.42100732  900.10443956
0.45600002 13169.88900495  993.07552748
0.45700002 13181.59732582  996.13335712
0.45800002 13194.01678565  999.24890862
0.45900002 13207.68504223  1184.72940444
0.46000002 13223.07493269  1005.81324242
0.46100002 13238.30317045  1192.63878915
0.46200002 13255.36650850  1012.64377241
0.46300002 13273.33484408  1200.97139361
0.46400002 13291.28349497  1112.48048126
0.46500002 13310.72728795  930.41988153
0.46600002 13330.57249384  1307.32930643
0.46700002 13350.91881126  1030.95799947
0.46800002 13372.90411921  1505.25415900
0.46900002 13394.48150522  1322.03538722
0.47000002 13416.97637853  1137.49131128
0.47100002 13440.12506203  1141.87307939
0.47200002 13463.90900832  1241.84370624
0.47300002 13488.26567738  1150.81888214
0.47400002 13512.41977457  1155.31194548
0.47500002 13537.35072095  1063.22357602
0.47600002 13563.14718305  1261.57619503
0.47700002 13588.49942993  1266.58409190
