# SAXS profile: number of points = 501, q_min = 0, q_max = 0.5, delta_q = 0.001
#    q    intensity    error
0.00000000 1700912.83420643 357.19169518
0.00100000 1700825.37816367 561.27238812
0.00200000 1700562.98529868 765.25336762
0.00300000 1700125.85899460 1122.08310691
0.00400000 1699513.89627151 2039.41675302
0.00500000 1698727.74262214 1681.74053176
0.00600000 1697767.22217093 1782.65565586
0.00700000 1696633.12242290 2646.74778098
0.00800000 1695325.19657246 2517.55802320
0.00900000 1693844.85868590 3557.07435530
0.01000000 1692191.45930631 2792.11602842
0.01100000 1690366.69814638 3651.19222697
0.01200000 1688370.38884904 3950.78688312
0.01300000 1686203.88746150 4249.23398381
0.01400000 1683867.39892366 5304.18254175
0.01500000 1681362.38344681 4842.32387995
0.01600000 1678688.61728698 4708.72178199
0.01700000 1675848.30345659 5882.22780900
0.01800000 1672841.89244808 6674.63945121
0.01900000 1669670.33496943 6511.71460021
0.02000000 1666334.45192782 6823.63988932
0.02100000 1662836.97232061 6584.83470894
0.02200000 1659176.59615045 6868.99142014
0.02300000 1655356.29554113 7151.13952225
0.02400000 1651376.87870823 6811.92993528
0.02500000 1647240.53560452 8351.50989693
0.02600000 1642947.82057408 6653.93897766
0.02700000 1638500.52167492 10322.55375934
0.02800000 1633899.29208618 7818.20847117
0.02900000 1629147.38348945 8064.27991854
0.03000000 1624245.40175004 9063.28975836
0.03100000 1619195.05466244 7772.13662000
0.03200000 1613997.42238695 7989.28760879
0.03300000 1608656.81621018 9024.56515498
0.03400000 1603171.93420520 10099.98365151
0.03500000 1597546.34883167 10352.10081847
0.03600000 1591781.07236191 10601.26243185
0.03700000 1585879.15107504 10847.41389502
0.03800000 1579841.92377082 12938.90595449
0.03900000 1573671.91458665 10386.23511726
0.04000000 1567369.52825807 9639.32304546
0.04100000 1560938.37549630 10817.30344375
0.04200000 1554380.74957808 16041.21007984
0.04300000 1547697.78590161 13279.24761943
0.04400000 1540892.34843063 18721.84290291
0.04500000 1533967.22170326 13759.68661802
0.04600000 1526922.91758009 10764.80706936
0.04700000 1519763.05724680 12036.52397319
0.04800000 1512489.72893509 21121.92004734
0.04900000 1505105.54620850 14674.77975861
0.05000000 1497611.99306738 13748.07873655
0.05100000 1490013.14485745 13946.52368555
0.05200000 1482308.45494626 11784.35276599
0.05300000 1474503.18052621 14332.17158285
0.05400000 1466598.21503570 15729.26658977
0.05500000 1458597.57978253 15927.88631425
0.05600000 1450501.25326510 14882.14355296
0.05700000 1442315.28809098 12548.14359212
0.05800000 1434038.45259854 13960.36498789
0.05900000 1425674.64025871 16680.39407010
0.06000000 1417227.93054586 16857.92702143
0.06100000 1408699.55327702 15721.08774924
0.06200000 1400092.27186889 19846.30888143
0.06300000 1391409.35242718 20036.29561175
0.06400000 1382650.64860851 18873.18223614
0.06500000 1373821.67947249 13600.83526299
0.06600000 1364924.80556502 19204.49291285
0.06700000 1355960.31243813 17980.03458438
0.06800000 1346933.03852028 13940.75760124
0.06900000 1337846.33929586 15452.12594232
0.07000000 1328699.73878130 16980.78345681
0.07100000 1319497.60154552 14250.57476416
0.07200000 1310242.44600469 20086.01763822
0.07300000 1300937.05107959 15884.44213796
0.07400000 1291584.76334141 20342.46097596
0.07500000 1282185.83827477 19001.99501390
0.07600000 1272743.97313615 16170.21293676
0.07700000 1263262.80170369 20692.24566214
0.07800000 1253743.79450458 17828.23759393
0.07900000 1244188.17176320 16423.28463759
0.08000000 1234601.73127803 15000.41173871
0.08100000 1224985.44490436 16574.05384718
0.08200000 1215339.99443644 22696.47546114
0.08300000 1205669.82389344 21268.01669163
0.08400000 1195977.24197803 16773.58160607
0.08500000 1186264.33520988 16833.09170686
0.08600000 1176533.71939573 21495.27206260
0.08700000 1166787.73682267 18481.91861914
0.08800000 1157027.76286712 20080.21776760
0.08900000 1147257.44122330 17036.77380238
0.09000000 1137479.23580894 17079.25152798
0.09100000 1127694.47868973 15562.18453705
0.09200000 1117905.44926151 17154.25992494
0.09300000 1108116.38209709 23436.66258269
0.09400000 1098325.67076390 17216.25569834
0.09500000 1088538.24410663 18809.94174228
0.09600000 1078755.27249572 21974.24593370
0.09700000 1068981.87021095 18856.84107703
0.09800000 1059216.27817368 20448.17121157
0.09900000 1049463.32936332 18890.34081681
0.10000000 1039721.79701206 20477.32175514
0.10100000 1029996.22114132 22062.52009449
0.10200000 1020288.36788494 17339.80162780
0.10300000 1010599.19442777 20494.95262709
0.10400000 1000931.18308540 17341.13356277
0.10500000 991288.56420039 23642.23336853
0.10600001 981667.29406952 17331.33689230
0.10700001 972075.55875503 17322.38727217
0.10800001 962510.26913625 18884.45236919
0.10900001 952976.30123175 17296.52068143
0.11000001 943474.59729612 18850.62334127
0.11100001 934005.55997549 25106.07063397
0.11200001 924572.65346789 17238.65793546
0.11300001 915175.52877089 18779.40273453
0.11400001 905817.44762240 15625.35170720
0.11500001 896499.22681865 17158.99600929
0.11600001 887222.66495117 18684.91020377
0.11700001 877989.09639975 15540.40773815
0.11800001 868798.54559168 21711.27667690
0.11900001 859653.51630084 18568.51682671
0.12000001 850554.86154804 23156.35719642
0.12100001 841505.64803931 26179.24194376
0.12200001 832505.01866088 19967.63381328
0.12300001 823555.61135042 18381.76211139
0.12400001 814657.20097357 22912.23485695
0.12500001 805810.94095001 19798.77575207
0.12600001 797020.31363867 19738.20899739
0.12700001 788283.72727734 22702.57241548
0.12800001 779602.62965672 16593.84275430
0.12900001 770979.19691836 22551.14257274
0.13000001 762413.49015050 16479.56836637
0.13100001 753905.40096388 17912.79317127
0.13200001 745456.83237455 17846.23740832
0.13300001 737069.76860837 16296.61335220
0.13400001 728742.52864490 17708.44428095
0.13500001 720478.40532818 23516.41625867
0.13600001 712275.47939793 16100.98797096
0.13700001 704136.91704453 18948.32533114
0.13800001 696060.33064445 18866.71615179
0.13900001 688049.73418326 15893.94960916
0.14000001 680103.53888124 15822.60957828
0.14100001 672222.35873438 17182.00429960
0.14200001 664407.05806471 19952.14489473
0.14300001 656659.21510690 15602.22368686
0.14400001 648975.30991630 19761.29911909
0.14500001 641360.65450402 23877.85829355
0.14600001 633812.42852876 19565.79059169
0.14700001 626334.13367414 15295.08026589
0.14800001 618920.44890232 20749.30902838
0.14900001 611576.46005947 13760.47100057
0.15000001 604300.30649698 19162.36362316
0.15100001 597093.02798621 14975.09384849
0.15200001 589954.75299157 14893.40844205
0.15300001 582886.35613625 13464.67546213
0.15400001 575884.14451825 20083.96048786
0.15500001 568952.81306470 18638.89503562
0.15600001 562087.64107655 18532.03040091
0.15700001 555295.40210387 18424.70231139
0.15800001 548567.97029429 15700.01605084
0.15900001 541911.68714050 15607.05732631
0.16000001 535321.85617624 14220.82578058
0.16100001 528803.54078668 12849.92664769
0.16200001 522352.54998878 19157.28067518
0.16300001 515969.28459175 16500.69850021
0.16400001 509654.89935116 16398.14716077
0.16500001 503407.50886292 20055.75609996
0.16600001 497228.97745685 17437.82106270
0.16700001 491116.17069821 18564.19212890
0.16800001 485070.12916207 14755.83402583
0.16900001 479093.10263262 15881.93710219
0.17000001 473181.05490384 20633.06087337
0.17100001 467334.91626300 22908.75867699
0.17200001 461555.22379094 13175.09448528
0.17300001 455840.95429064 14276.93936260
0.17400001 450191.94755469 12999.29309955
0.17500001 444607.13457289 15258.91757918
0.17600001 439085.22160068 24481.19768657
0.17700001 433629.03683766 12735.68541344
0.17800001 428234.65242842 14947.53124902
0.17900001 422903.69152419 15985.76029468
0.18000001 417635.20837089 13606.55573143
0.18100001 412430.04257333 16889.01104116
0.18200001 407283.64031632 13415.92374576
0.18300001 402199.26281899 14430.91023165
0.18400001 397174.63954800 14328.07579856
0.18500001 392211.34812737 15319.77598159
0.18600001 387305.91248046 14123.11076582
0.18700001 382458.80490808 12942.40656955
0.18800001 377670.06674927 16060.42034731
0.18900001 372940.44142467 13817.44400762
0.19000001 368264.03224690 12660.91802686
0.19100001 363648.47461127 13614.99953276
0.19200001 359085.64768774 16632.84798682
0.19300001 354580.23966851 13413.77110050
0.19400001 350127.28032636 12289.46812018
0.19500001 345729.52289543 11180.89329879
0.19600001 341384.87549783 14123.09296675
0.19700001 337093.01702574 14016.32831031
0.19800001 332853.43243428 15897.08068434
0.19900001 328665.85956988 13803.96675431
0.20000001 324527.70946548 10762.96199309
0.20100001 320441.72218776 10680.32310529
0.20200001 316403.56185180 13488.28447925
0.20300001 312416.41958282 12427.92575841
0.20400001 308476.78738005 10434.22782631
0.20500001 304584.88925834 11294.00822753
0.20600001 300740.45133074 14006.98718281
0.20700001 296943.13905176 10191.08901398
0.20800001 293190.29668144 13787.27435317
0.20900001 289485.37525476 11854.42667706
0.21000001 285823.28667864 13569.46117653
0.21100001 282206.24815939 10768.99093885
0.21200001 278632.18580293 10682.75850871
0.21300001 275100.62590307 10596.87661076
0.21400001 271612.57238563 11387.35763562
0.21500001 268167.02884955 9557.47336005
0.21600001 264761.55804492 11203.38585835
0.21700001 261397.05777437 8547.68419335
0.21800001 258073.10200176 12716.55270238
0.21900001 254787.45421827 12611.97958012
0.22000001 251540.33553611 15843.26878285
0.22100001 248333.70094033 11577.31768525
0.22200001 245164.66565272 13941.28937155
0.22300001 242031.58581412 9758.71400147
0.22400001 238934.58322940 8870.44682184
0.22500001 235876.93596992 10395.09705975
0.22600001 232852.44374109 10307.21390961
0.22700001 229865.42680245 8647.53776524
0.22800001 226911.45064295 9353.29043782
0.22900001 223991.09559299 9273.23179609
0.23000001 221105.76541905 8427.44664750
0.23100001 218254.18070981 8354.77043269
0.23200001 215433.61189330 9788.22661929
0.23300001 212646.16017810 8956.65669030
0.23400001 209891.10818446 8878.39429611
0.23500001 207165.57081858 7333.66155383
0.23600001 204472.70677712 10176.60709762
0.23700001 201809.44495938 7925.05727839
0.23800001 199176.69397613 7854.53329846
0.23900001 196572.89107839 8491.94929625
0.24000001 193998.21400943 7013.03576816
0.24100001 191453.85046500 13204.57269116
0.24200001 188936.72837403 7575.41848249
0.24300001 186448.18298649 10236.00573015
0.24400001 183986.73953342 7437.66429747
0.24500001 181552.56627212 7369.21901358
0.24600001 179145.65759600 9956.02039187
0.24700001 176765.29166956 8548.36990953
0.24800001 174411.06183455 7817.10416123
0.24900001 172081.84990917 7743.68361225
0.25000001 169779.28311079 7670.62837383
0.25100001 167500.53041942 6964.67238433
0.25200001 165248.39619369 6898.29462546
0.25300001 163020.50879767 7453.29801485
0.25400001 160816.56107795 7996.60387793
0.25500001 158636.08538386 7309.95116034
0.25600001 156479.97116634 6635.53349125
0.25700001 154346.56328509 5973.21228175
0.25800001 152237.01923355 5914.40847706
0.25900001 150150.29299967 6441.44787446
0.26000001 148086.00342490 6957.08077008
0.26100001 146043.54239987 5739.51148789
0.26200001 144023.99754254 7386.27106346
0.26300001 142025.54517748 7873.89659721
0.26400001 140049.13803160 6123.64885019
0.26500001 138094.58032044 7713.96362172
0.26600001 136160.13368735 7634.49905711
0.26700001 134247.74246284 6476.11140286
0.26800001 132356.56673047 5340.58772030
0.26900001 130484.38366821 5813.07956750
0.27000001 128633.58972085 5228.95566960
0.27100001 126802.54706284 6725.60741449
0.27200001 124993.07287784 5630.31323423
0.27300001 123202.21432152 7089.05574754
0.27400001 121429.30786622 8014.33469845
0.27500001 119678.71375371 6441.10867905
0.27600001 117945.33308735 5390.69170388
0.27700001 116232.50678210 5331.58533842
0.27800001 114537.65637567 5272.74126080
0.27900001 112862.96156884 6636.34245433
0.28000001 111205.48468443 5624.77368155
0.28100001 109567.29162960 4634.69665529
0.28200001 107948.08828546 4582.39656460
0.28300001 106346.74217789 4983.40857432
0.28400001 104763.18789621 4926.48914399
0.28500001 103198.19030549 6640.80386048
0.28600001 101650.77399559 4813.67263040
0.28700001 100121.20966298 6055.33104703
0.28800001 98608.46497137  5129.61259061
0.28900001 97115.38297891  6336.77903932
0.29000001 95637.68550429  4592.04368685
0.29100001 94178.50514908  4537.52059287
0.29200001 92736.28540756  4890.91192391
0.29300001 91311.22274029  4429.50762481
0.29400001 89902.50879013  4376.00482250
0.29500001 88511.80370534  5894.88640582
0.29600001 87137.16427104  5434.74519285
0.29700001 85779.12332897  4601.19239318
0.29800001 84437.63427105  3787.02807633
0.29900001 83113.41714856  4114.11434361
0.30000001 81804.80371423  4062.83576880
0.30100001 80513.52481978  4011.98913170
0.30200001 79236.84458108  6482.36656206
0.30300001 77977.64428136  4622.51497183
0.30400001 76734.37393641  3861.65755117
0.30500001 75506.61559754  4158.90458400
0.30600001 74294.10441968  3763.36803755
0.30700001 73098.33108718  5403.42888978
0.30800001 71917.80489463  3666.72945615
0.30900001 70753.08847394  5922.03378564
0.31000001 69603.97613506  3896.43076852
0.31100001 68469.41705150  3524.80575669
0.31200001 67350.94163657  3794.55223146
0.31300001 66247.03725796  4056.30628336
0.31400001 65159.44915376  3694.54094194
0.31500001 64085.80879282  5164.03471703
0.31600002 63027.71998387  3296.66504985
0.31700002 61984.28732047  3547.98077421
0.31800002 60955.66014549  3791.74701888
0.31900002 59941.82572186  3740.37010215
0.32000002 58943.01985682  4257.15981073
0.32100002 57957.79860869  3359.23416642
0.32200002 56988.42604072  3313.30724689
0.32300002 56031.53936483  3267.75953049
0.32400002 55089.49412893  2954.17426255
0.32500002 54161.79562221  3707.91670387
0.32600002 53248.47287798  2873.02149018
0.32700002 52348.46424218  3348.20793148
0.32800002 51463.07696038  2793.67326508
0.32900002 50590.85452086  3505.94638431
0.33000002 49733.23234309  2716.18061304
0.33100002 48886.84629688  2921.47807305
0.33200002 48056.81760058  2640.48196810
0.33300002 47238.68533535  3313.32154632
0.33400002 46434.53277740  2333.33538256
0.33500002 45642.31170389  3220.52166634
0.33600002 44864.49773677  2721.48056159
0.33700002 44098.37533920  2459.36650914
0.33800002 43346.37826614  3526.66150275
0.33900002 42605.96725443  2390.19487617
0.34000002 41878.94913830  2356.31918486
0.34100002 41164.19444248  2322.89560240
0.34200002 40462.48139229  2498.15371947
0.34300002 39771.80495064  3078.33784897
0.34400002 39095.04739800  2225.48567853
0.34500002 38429.24119120  2792.26879720
0.34600002 37776.62643453  2162.90084895
0.34700002 37134.12593860  2519.92190554
0.34800002 36504.98705081  2866.55424393
0.34900002 35886.86446177  1884.06047348
0.35000002 35280.41974178  2229.01702486
0.35100002 34686.04842155  2197.70813208
0.35200002 34101.67942459  1986.25241216
0.35300002 33529.07772847  1958.43352288
0.35400002 32967.93309023  2457.75952829
0.35500002 32417.80836262  2077.33325827
0.35600002 31877.56833853  2389.86141153
0.35700002 31348.44730567  1851.75287005
0.35800002 30830.89082531  1660.24354958
0.35900002 30323.37666298  1801.20865910
0.36000002 29826.60896375  1615.11095189
0.36100002 29339.24576252  2230.36956851
0.36200002 28863.33666830  1728.76963163
0.36300002 28396.23827634  1860.52161999
0.36400002 27939.36745024  1529.68044036
0.36500002 27492.06922580  1811.17760639
0.36600002 27054.91392833  1936.18500699
0.36700002 26626.56130625  2351.65800596
0.36800002 26209.43751039  1595.76167841
0.36900002 25800.33187468  1861.49403294
0.37000002 25400.23537767  2402.98938173
0.37100002 25009.02542078  1535.05405304
0.37200002 24627.90474044  1929.10386970
0.37300002 24254.77528666  1768.90084545
0.37400002 23890.40697312  1478.21900149
0.37500002 23535.03137766  1460.11341584
0.37600002 23188.37970436  1311.30293440
0.37700002 22849.53279537  1943.35285631
0.37800002 22518.79469138  1664.25160051
0.37900002 22196.88348369  1265.22241851
0.38000002 21882.83739627  1875.90632466
0.38100002 21575.69889053  1359.91636549
0.38200002 21277.44291763  1589.10589958
0.38300002 20985.90825225  1571.42488437
0.38400002 20703.01624747  1434.71909392
0.38500002 20426.02568951  1537.46702649
0.38600002 20157.84161174  1755.24414150
0.38700002 19895.92022958  1621.11965711
0.38800002 19641.29033293  1375.28321427
0.38900002 19393.10215486  1474.84548875
0.39000002 19152.94398126  1235.65223949
0.39100002 18918.11686946  1891.05505186
0.39200002 18690.72118486  1432.36348586
0.39300002 18469.33487029  1418.99906531
0.39400002 18255.71999918  1838.80748404
0.39500002 18047.08829254  1179.19680490
0.39600002 17844.64082903  1487.70777640
0.39700002 17648.23889538  1053.59991197
0.39800002 17458.10165005  1149.35417659
0.39900002 17273.43358729  1347.32788364
0.40000002 17094.37617520  1542.34016348
0.40100002 16921.17203361  1122.38139417
0.40200002 16753.86867900  1114.04855059
0.40300002 16591.08069788  1206.50344551
0.40400002 16434.14478114  1098.21177703
0.40500002 16282.50552169  1487.40694988
0.40600002 16135.61089363  1083.58700090
0.40700002 15993.88896615  1076.70865622
0.40800002 15857.16968137  1070.12114665
0.40900002 15724.97068014  967.08574265
0.41000002 15597.86412086  1057.76920548
0.41100002 15474.94685508  1051.98693705
0.41200002 15356.43668973  1807.52946621
0.41300002 15242.86085608  1041.23987442
0.41400002 15133.08510767  1318.84842962
0.41500002 15027.90427170  937.74127099
0.41600002 14926.05402072  1120.34966788
0.41700002 14828.79141521  1394.64789868
0.41800002 14736.27515723  926.17493752
0.41900002 14645.64022830  1014.94291591
0.42000002 14560.09603756  1011.41711917
0.42100002 14478.49745744  1191.43561223
0.42200002 14400.33732180  913.70144636
0.42300002 14325.14864184  911.07949679
0.42400002 14253.42661891  908.65599001
0.42500002 14185.21982266  997.07914858
0.42600002 14119.54669152  1446.97121351
0.42700002 14058.26922012  902.54092670
0.42800002 13999.12372475  990.92801981
0.42900002 13944.20692573  1169.22180613
0.43000002 13891.49624094  987.89380199
0.43100002 13840.74040825  986.56802305
0.43200002 13793.94132113  1612.64975627
0.43300002 13749.59900475  895.09893763
0.43400002 13707.99315413  1162.78057440
0.43500002 13668.67078558  1162.11044526
0.43600002 13632.18525376  1072.30774288
0.43700002 13597.65969732  1161.37616978
0.43800002 13565.29336375  1250.58445447
0.43900002 13536.05216563  893.37948527
0.44000002 13508.50568040  982.94646242
0.44100002 13483.42959449  893.95142448
0.44200002 13460.30667305  1073.32490497
0.44300002 13439.21983343  895.05208332
0.44400002 13420.43272773  1164.55810514
0.44500002 13402.43152828  1434.59633877
0.44600002 13386.55265671  1077.08207780
0.44700002 13373.68987944  898.71200249
0.44800002 13360.72106654  1169.79798842
0.44900002 13351.36031768  1171.58192340
0.45000002 13342.82885767  992.90665650
0.45100002 13335.52455880  1265.80805111
0.45200002 13330.12692282  1268.09503427
0.45300002 13325.65582099  1270.46808618
0.45400002 13323.18636944  1000.23826409
0.45500002 13321.89177778  1093.46092894
0.45600002 13321.78507549  1461.13345633
0.45700002 13323.00580523  1464.46486752
0.45800002 13325.08395919  917.43207407
0.45900002 13328.35613683  1011.62227873
0.46000002 13333.58780054  1383.02646016
0.46100002 13338.61220492  1201.67563049
0.46200002 13345.65497307  1112.22693817
0.46300002 13353.60139997  929.41070149
0.46400002 13361.71383599  1118.37550108
0.46500002 13371.28618154  1215.04883290
0.46600002 13381.48073867  1218.58460122
0.46700002 13392.04358188  1034.13365441
0.46800002 13404.54241763  1131.61152453
0.46900002 13416.67075922  1040.46286669
0.47000002 13429.77703527  1043.69517176
0.47100002 13443.59899700  1142.16822492
0.47200002 13458.18633136  1050.34420201
0.47300002 13473.41419993  1245.34773353
0.47400002 13488.44307147  1057.15677583
0.47500002 13504.44004193  1157.06047763
0.47600002 13521.48584286  1160.95482949
0.47700002 13537.98627622  1067.74102821
