# SAXS profile: number of points = 501, q_min = 0, q_max = 0.5, delta_q = 0.001
#    q    intensity    error
0.00000000 1700912.83420643 306.16431016
0.00100000 1700825.48867351 561.27242459
0.00200000 1700563.42798768 1147.88035024
0.00300000 1700126.85293343 1530.11422215
0.00400000 1699515.67150789 1529.56416248
0.00500000 1698730.50312461 1681.74326466
0.00600000 1697771.20480042 3387.05369147
0.00700000 1696638.53909567 3053.94949730
0.00800000 1695332.25479225 2517.56850466
0.00900000 1693853.81386964 2794.85891236
0.01000000 1692202.49931629 3071.34766888
0.01100000 1690380.04693364 3042.68421696
0.01200000 1688386.27618746 3950.82405950
0.01300000 1686222.49852875 3541.06740309
0.01400000 1683888.97215336 5304.25049743
0.01500000 1681387.16105025 4438.86230283
0.01600000 1678716.76295342 4708.80073058
0.01700000 1675880.04747394 7239.80212986
0.01800000 1672877.46664924 4767.70099449
0.01900000 1669709.94313675 6511.86907207
0.02000000 1666378.29941429 8923.45619702
0.02100000 1662885.29177752 6585.02605399
0.02200000 1659229.59341021 7441.64506454
0.02300000 1655414.15456051 7747.33859599
0.02400000 1651439.74338580 8670.05904811
0.02500000 1647308.76953315 7709.40539351
0.02600000 1643021.47901021 8650.50848265
0.02700000 1638579.92412299 8258.44319583
0.02800000 1633984.53393653 7107.83304859
0.02900000 1629238.71455557 8797.88946255
0.03000000 1624343.01138439 12085.11256020
0.03100000 1619299.12132784 8549.89975402
0.03200000 1614108.17760774 11185.77018602
0.03300000 1608774.54037210 12307.12580121
0.03400000 1603296.68337715 10942.50036894
0.03500000 1597678.36226011 10352.95626553
0.03600000 1591920.48916333 11485.70686011
0.03700000 1586026.20581030 9944.38477033
0.03800000 1579996.73197366 9242.98130981
0.03900000 1573834.78127006 15108.81459988
0.04000000 1567540.53956928 9640.37476508
0.04100000 1561117.72232712 13769.05894935
0.04200000 1554568.59207346 16043.14861449
0.04300000 1547894.26837435 12259.32317458
0.04400000 1541097.80797850 13523.13389305
0.04500000 1534181.68326845 12703.02492771
0.04600000 1527146.60440504 19379.49131079
0.04700000 1519995.96504226 12038.36860301
0.04800000 1512732.28839146 14454.15768811
0.04900000 1505357.77317495 14677.23897164
0.05000000 1497874.10855311 13750.48495682
0.05100000 1490285.16318363 15111.49225864
0.05200000 1482590.61405281 12965.25552409
0.05300000 1474795.60274130 13140.42943300
0.05400000 1466901.16171806 15732.51569309
0.05500000 1458911.06604376 13480.33887909
0.05600000 1450825.60980981 14885.47145127
0.05700000 1442650.47827187 20081.69559493
0.05800000 1434384.58199343 15233.16497204
0.05900000 1426031.91367652 15401.14538703
0.06000000 1417596.47588774 16862.31086847
0.06100000 1409079.47289050 17035.77162335
0.06200000 1400483.70508249 18528.40028432
0.06300000 1391812.58222069 14697.54155544
0.06400000 1383065.60227602 14833.37927812
0.06500000 1374248.45369624 13605.06032801
0.06600000 1365363.51970245 19210.66562105
0.06700000 1356411.13178961 17986.01244926
0.06800000 1347396.21681892 18129.21694591
0.06900000 1338321.76586187 14052.37919947
0.07000000 1329187.47638805 16987.01674372
0.07100000 1319997.88877448 15681.57565313
0.07200000 1310755.28910103 17223.32530565
0.07300000 1301462.66819014 18780.10718194
0.07400000 1292123.10768136 15990.02420692
0.07500000 1282737.19647644 19010.16614283
0.07600000 1273308.19508529 20589.39447977
0.07700000 1263840.07842291 23659.08737742
0.07800000 1254334.10517254 26754.94771804
0.07900000 1244791.71127644 17925.00148313
0.08000000 1235218.52185401 18009.48689348
0.08100000 1225615.50488893 16582.57855917
0.08200000 1215983.53142253 16652.89524427
0.08300000 1206326.67373146 19759.63184308
0.08400000 1196647.60706160 15257.25770619
0.08500000 1186948.16944786 16842.79531515
0.08600000 1177231.22295564 19971.72863515
0.08700000 1167498.72145185 16952.08223151
0.08800000 1157752.49633521 27820.79379350
0.08900000 1147995.92661045 23246.91860576
0.09000000 1138231.44819847 21751.60399687
0.09100000 1128460.47305504 15572.75525979
0.09200000 1118685.26364561 23408.49024167
0.09300000 1108910.03042661 20326.32181290
0.09400000 1099133.23202925 15662.64929252
0.09500000 1089359.67162764 23530.17001314
0.09600000 1079590.50035708 17278.84677046
0.09700000 1069830.89876113 15726.51495114
0.09800000 1060079.41073809 22039.05198547
0.09900000 1050340.36650789 18906.12748615
0.10000000 1040612.54224006 20494.86498323
0.10100000 1030900.98073231 17350.06432173
0.10200000 1021207.07416284 20510.94504932
0.10300000 1011531.68663239 20513.86356989
0.10400000 1001877.77896802 26825.27879387
0.10500000 992248.91835917 33131.19294281
0.10600001 982641.44200701 29965.65218399
0.10700001 973063.55206052 17339.99331370
0.10800001 963512.08149271 18904.10792855
0.10900001 953991.86985964 15740.86659354
0.11000001 944503.86549989 22016.38614110
0.11100001 935048.52359481 15708.81593586
0.11200001 925629.21087674 17258.35744927
0.11300001 916245.81621741 17234.58461447
0.11400001 906901.08843546 21901.66231694
0.11500001 897596.67742850 17180.00121495
0.11600001 888333.45749654 21826.35407853
0.11700001 879113.09421372 17116.33275043
0.11800001 869936.01780369 21739.70210882
0.11900001 860804.22519676 20142.81981836
0.12000001 851718.82031328 17004.56704855
0.12100001 842682.90662080 16963.20770938
0.12200001 833695.33217183 15381.67960322
0.12300001 824758.94422328 19942.67221091
0.12400001 815873.49380474 18357.15447555
0.12500001 807039.93985414 18303.66669837
0.12600001 798261.97094781 19768.95864210
0.12700001 789538.15251867 16675.04656703
0.12800001 780869.66379385 16620.81157718
0.12900001 772258.57780047 18070.85157225
0.13000001 763705.37367716 15006.81130010
0.13100001 755209.44044752 19439.09191343
0.13200001 746773.24870819 16387.93971543
0.13300001 738398.19082960 19294.34563597
0.13400001 730083.07399997 23654.69271281
0.13500001 721830.65748680 17670.41532841
0.13600001 713639.45190718 17598.34971381
0.13700001 705512.58729551 16064.52237021
0.13800001 697447.57050132 15995.96078375
0.13900001 689448.19957769 17374.09544869
0.14000001 681513.43691010 15855.41085746
0.14100001 673643.46898935 17218.32787944
0.14200001 665839.01586633 22851.59610233
0.14300001 658102.12107057 17058.00778273
0.14400001 650429.08300987 21220.24983415
0.14500001 642824.95172250 19709.01394953
0.14600001 635287.25736170 15408.89315421
0.14700001 627819.20794206 16725.10448861
0.14800001 620415.71655018 15252.92111100
0.14900001 613081.84474725 19312.07902070
0.15000001 605815.51296260 19210.41082245
0.15100001 598618.01168022 17743.03870341
0.15200001 591489.20449912 13574.67788380
0.15300001 584430.27819135 16200.40807595
0.15400001 577437.34017812 17453.04443051
0.15500001 570515.00250228 17355.06719516
0.15600001 563658.97062310 13274.16938465
0.15700001 556875.42135233 15837.53773074
0.15800001 550156.68883246 19681.85647194
0.15900001 543508.83154158 15653.05508723
0.16000001 536927.29756730 14263.47433315
0.16100001 530417.13703634 12889.13703841
0.16200001 523974.05295089 14092.28281936
0.16300001 517598.63656577 12732.92706061
0.16400001 511291.79665778 17716.26159057
0.16500001 505051.82359872 21378.84470226
0.16600001 498880.55102257 17495.74175039
0.16700001 492774.81751285 12417.92598763
0.16800001 486735.69112328 16040.37545834
0.16900001 480765.43787745 13485.47116922
0.17000001 474859.87264120 13398.17193923
0.17100001 469020.00681338 12100.71674720
0.17200001 463246.48353956 14425.49617864
0.17300001 457538.14481477 14330.09537233
0.17400001 451895.00071026 15420.91762751
0.17500001 446315.73292640 14139.28308687
0.17600001 440799.13758835 12873.53942127
0.17700001 435348.17568562 13948.55620777
0.17800001 429958.75518061 12698.83243405
0.17900001 424632.61817360 18344.12997156
0.18000001 419368.64742818 17078.78897323
0.18100001 414167.94529392 11306.78544062
0.18200001 409025.71276032 15718.85888391
0.18300001 403945.40761817 15608.45128770
0.18400001 398924.59070007 11070.15791489
0.18500001 393965.06859268 15388.27630620
0.18600001 389062.89897335 18552.46521403
0.18700001 384219.09417501 16252.46845145
0.18800001 379433.24078576 10756.93288450
0.18900001 374706.61923302 11747.05306797
0.19000001 370032.67464058 10601.43662936
0.19100001 365419.68453118 12628.90489411
0.19200001 360859.05498971 11491.55714914
0.19300001 356355.47124630 12443.93364393
0.19400001 351904.54088160 16469.13329149
0.19500001 347508.27119728 11238.41802159
0.19600001 343164.96153622 13182.68262038
0.19700001 338874.27118793 14090.39286187
0.19800001 334635.80749493 10987.76725836
0.19900001 330448.96211444 12887.51013153
0.20000001 326311.58289453 12789.78309601
0.20100001 322225.80877578 10739.78671408
0.20200001 318188.03070901 13564.35639022
0.20300001 314200.65179764 11537.44847932
0.20400001 310261.08404364 11448.63454234
0.20500001 306368.64454818 9466.79156400
0.20600001 302523.57314428 12211.36460718
0.20700001 298725.41444909 10252.25670851
0.20800001 294971.57079424 11096.83101783
0.20900001 291265.69992301 12844.81797380
0.21000001 287602.05020258 10012.86585113
0.21100001 283983.40042713 10836.80707259
0.21200001 280407.58783514 11646.72971133
0.21300001 276874.01502944 11553.95319340
0.21400001 273383.62502071 10579.94678848
0.21500001 269935.77980315 13118.87951866
0.21600001 266527.75577803 8675.47886074
0.21700001 263160.59540492 9465.88706426
0.21800001 259833.50885544 11096.19052031
0.21900001 256544.79934100 9312.57665639
0.22000001 253294.43867172 10915.72435068
0.22100001 250084.19406902 9993.36486752
0.22200001 246911.40947276 9911.02444487
0.22300001 243774.48901138 9828.98786171
0.22400001 240673.54144102 10559.55213005
0.22500001 237611.52394625 11277.04345975
0.22600001 234582.52242561 11182.54937283
0.22700001 231590.91917880 7920.40981046
0.22800001 228632.18660424 10994.92237375
0.22900001 225706.87759386 8565.57640976
0.23000001 222816.46719638 10808.82733487
0.23100001 219959.54865196 8420.05192060
0.23200001 217133.45780540 12142.10353472
0.23300001 214340.27413816 9028.01277367
0.23400001 211579.40856958 9695.62685626
0.23500001 208847.81073896 8132.53413481
0.23600001 206148.81019611 8061.44960400
0.23700001 203479.25796602 7264.20985297
0.23800001 200839.90738053 7920.12212216
0.23900001 198229.48666566 9277.14041476
0.24000001 195648.04541841 7072.67717642
0.24100001 193096.64189858 8411.29011897
0.24200001 190572.56643443 10419.55556267
0.24300001 188076.61467923 8260.32530745
0.24400001 185607.71751365 8185.30072955
0.24500001 183166.01683791 11490.00477977
0.24600001 180751.20861474 8036.19911516
0.24700001 178363.03685686 8625.63687044
0.24800001 176000.91919490 7230.99810720
0.24900001 173663.52662832 7814.85906798
0.25000001 171352.63492724 6451.42701022
0.25100001 169065.39969053 7029.73965170
0.25200001 166804.84977471 7596.29321812
0.25300001 164568.20508599 7524.05869250
0.25400001 162355.38074692 6831.10296811
0.25500001 160165.95892012 9225.55967028
0.25600001 158000.71818126 8527.29916369
0.25700001 155858.19267451 6634.88357607
0.25800001 153739.30450044 5972.77226244
0.25900001 151643.11398283 7688.30624270
0.26000001 149569.35146678 7026.76846438
0.26100001 147517.11970737 5797.42307881
0.26200001 145487.87937599 5739.49711296
0.26300001 143479.36406435 7386.31801154
0.26400001 141493.06209948 6186.78443305
0.26500001 139528.46257309 7794.06028814
0.26600001 137583.80176702 5510.23152151
0.26700001 135661.16154676 6544.29474269
0.26800001 133759.48847138 7556.07386131
0.26900001 131876.80133988 6943.31391911
0.27000001 130015.49417222 5813.64309703
0.27100001 128173.84838751 6275.39191402
0.27200001 126353.59368309 5691.59789680
0.27300001 124551.92930081 6654.80989747
0.27400001 122768.15596464 7089.86134248
0.27500001 121006.52569414 8015.47264132
0.27600001 119261.98424348 5450.86924782
0.27700001 117538.14331589 7842.14529318
0.27800001 115832.13266953 5332.33247981
0.27900001 114146.09036444 7191.20403330
0.28000001 112477.21761031 4740.91494665
0.28100001 110827.65687400 5625.61212918
0.28200001 109197.02383523 4635.41388120
0.28300001 107584.02924744 6416.31180800
0.28400001 105988.95200525 5890.33628649
0.28500001 104412.31666765 4927.21745676
0.28600001 102853.24967381 4427.83260804
0.28700001 101311.84982218 5689.67375532
0.28800001 99787.35268502  4325.78194365
0.28900001 98282.45851814  5985.40200707
0.29000001 96792.96998548  4225.01333985
0.29100001 95321.94704974  4592.61162625
0.29200001 93867.68394187  6600.77584724
0.29300001 92430.81166711  4076.19898747
0.29400001 91010.06203169  4429.91497909
0.29500001 89607.32954294  5172.13530605
0.29600001 88220.61532888  5109.29717863
0.29700001 86850.63922290  4270.44613274
0.29800001 85497.00503428  4601.44902877
0.29900001 84160.76403866  6059.57529764
0.30000001 82839.97084302  4862.29231881
0.30100001 81536.54960636  4801.68763363
0.30200001 80247.77440832  4011.98767147
0.30300001 78976.47727027  4681.72579422
0.30400001 77720.99054380  4266.88258286
0.30500001 76481.10447568  4212.57943395
0.30600001 75256.41439226  3812.11385152
0.30700001 74048.58345031  3763.14918910
0.30800001 72855.96857183  3376.87430318
0.30900001 71679.06673589  3666.38443712
0.31000001 70517.92583694  3289.66139604
0.31100001 69371.23932988  4220.54640065
0.31200001 68240.65527997  3844.67870050
0.31300001 67124.79812690  3477.73595561
0.31400001 66025.16837340  3743.62722402
0.31500001 64939.48273563  3693.75795289
0.31600002 63869.33058974  3340.68549467
0.31700002 62813.93603033  2996.22489051
0.31800002 61773.37722646  3842.61311231
0.31900002 60747.81738325  3499.07444695
0.32000002 59737.02873667  4026.87329781
0.32100002 58739.94522597  3120.85343763
0.32200002 57758.83516035  3637.94040483
0.32300002 56790.03670232  3863.99428019
0.32400002 55836.51013894  2994.23299798
0.32500002 54897.13214225  3221.36386664
0.32600002 53972.16948188  2912.06854229
0.32700002 53060.62099225  2610.58267644
0.32800002 52163.69394101  3346.56194326
0.32900002 51279.97739893  2538.35900145
0.33000002 50410.88569962  3003.48071221
0.33100002 49553.22329129  3948.40101882
0.33200002 48711.82088449  3163.10223892
0.33300002 47882.48424391  2638.80383164
0.33400002 47067.09435510  2601.63376368
0.33500002 46263.77514722  2798.03325341
0.33600002 45474.87343667  3218.25694552
0.33700002 44697.82209345  2719.41562495
0.33800002 43934.99002084  2680.91321803
0.33900002 43183.69921658  2422.60564078
0.34000002 42445.94936379  2822.44353661
0.34100002 41720.39407517  2782.33321264
0.34200002 41008.09921718  2320.85348511
0.34300002 40306.95223392  2287.82271715
0.34400002 39619.75598279  3280.51595074
0.34500002 38943.52328732  2627.51964064
0.34600002 38280.50348826  1992.50030093
0.34700002 37627.80629610  1964.17158168
0.34800002 36988.59540717  2129.98836740
0.34900002 36360.40006523  2290.70531260
0.35000002 35744.03749507  2258.30839590
0.35100002 35139.71895075  2597.52814786
0.35200002 34545.62346693  2012.10993413
0.35300002 33963.31562444  1983.79735958
0.35400002 33392.57601501  2311.60118413
0.35500002 32832.93165303  2103.93435998
0.35600002 32283.34574501  1728.77324653
0.35700002 31744.90900936  2557.05254182
0.35800002 31217.97459268  2521.63201716
0.35900002 30701.38259521  2652.59958187
0.36000002 30195.68627694  1962.11578721
0.36100002 29699.34121076  2257.74402578
0.36200002 29214.58169922  1908.88085864
0.36300002 28738.77251296  2039.87816959
0.36400002 28273.26199721  1702.75728444
0.36500002 27817.48671438  1679.89810225
0.36600002 27371.89277506  1958.86959924
0.36700002 26935.30002987  1784.19435849
0.36800002 26509.90683142  1614.05575389
0.36900002 26092.73855399  1592.96176418
0.37000002 25684.58973370  1429.34748639
0.37100002 25285.62970176  2116.40730629
0.37200002 24896.64839987  1532.26429835
0.37300002 24515.81565016  1650.40478775
0.37400002 24143.91381563  1765.52378140
0.37500002 23781.07093831  1475.37771090
0.37600002 23427.06274595  1854.72064546
0.37700002 23080.97823603  1701.29898637
0.37800002 22743.21143454  1422.24679443
0.37900002 22414.30104215  1660.89978590
0.38000002 22093.30545046  2020.21194609
0.38100002 21779.34191984  1622.34325646
0.38200002 21474.36284755  1603.81286525
0.38300002 21176.32595171  1585.68336238
0.38400002 20886.94565950  1809.33175347
0.38500002 20603.70489582  1789.43185498
0.38600002 20329.27665730  1888.18330538
0.38700002 20061.14200799  1401.07022421
0.38800002 19800.58815815  1270.90081114
0.38900002 19546.43479054  1486.50643624
0.39000002 19300.55776699  1471.57109666
0.39100002 19060.07076386  2017.31798522
0.39200002 18827.09774003  1331.82895723
0.39300002 18600.22929613  1319.12832418
0.39400002 18381.30621996  1415.82017867
0.39500002 18167.43430151  1618.71847296
0.39600002 17959.98408417  1390.37223375
0.39700002 17758.58286634  1696.29991576
0.39800002 17563.48436565  1261.40950690
0.39900002 17374.05058315  1146.68739282
0.40000002 17190.38415548  1137.40182154
0.40100002 17012.67306423  1128.45065782
0.40200002 16840.82392275  1221.63342524
0.40300002 16673.75835647  1212.51576513
0.40400002 16512.56714141  1003.13850137
0.40500002 16356.79494261  996.12885920
0.40600002 16205.92492070  1286.18329227
0.40700002 16060.34485083  1572.62904231
0.40800002 15919.74153207  1660.34952176
0.40900002 15783.86176662  1358.99056250
0.41000002 15653.21107891  965.02050874
0.41100002 15526.80486643  1151.46790345
0.41200002 15404.89111746  1431.49957492
0.41300002 15288.09658586  1329.14718015
0.41400002 15175.19227793  944.65576406
0.41500002 15066.89799257  1504.27916686
0.41600002 14962.10236027  1123.05545638
0.41700002 14862.03277092  1304.58929845
0.41800002 14766.67318766  1299.31963535
0.41900002 14673.46544250  1016.87120335
0.42000002 14585.39514078  1013.17452146
0.42100002 14501.28834992  1101.51791526
0.42200002 14420.74829130  1097.99582693
0.42300002 14343.24034738  1277.12218105
0.42400002 14269.34156335  1182.57173810
0.42500002 14199.08135766  1360.98201262
0.42600002 14131.45000913  1448.19106556
0.42700002 14068.21410755  993.49732735
0.42800002 14007.38208928  1171.78760421
0.42900002 13950.69229028  899.81969536
0.43000002 13896.33954334  1167.91791226
0.43100002 13844.11411718  1255.93809223
0.43200002 13795.85567377  985.64495532
0.43300002 13750.12221450  1342.69949787
0.43400002 13707.24005809  1073.27694741
0.43500002 13666.77164801  983.18759895
0.43600002 13629.19207996  1250.75101645
0.43700002 13593.55330640  982.40614401
0.43800002 13560.27142505  982.23830722
0.43900002 13530.19952570  1071.59185322
0.44000002 13501.84615964  982.46188236
0.44100002 13476.10447658  982.81234605
0.44200002 13452.28954238  1251.46655544
0.44300002 13430.66889645  1252.27562725
0.44400002 13411.41783888  1163.77583812
0.44500002 13392.95889886  1075.18679135
0.44600002 13376.77056857  1076.29501095
0.44700002 13363.60154815  1077.64087991
0.44800002 13350.50574108  1258.81924598
0.44900002 13340.95254923  990.56577373
0.45000002 13332.38849866  1172.51696208
0.45100002 13325.14795544  903.44507420
0.45200002 13319.79237975  995.58792861
0.45300002 13315.44786683  1450.85126833
0.45400002 13313.14663917  1090.34676142
0.45500002 13312.10171541  1274.76692068
0.45600002 13312.34386657  1003.81733683
0.45700002 13313.99268792  1280.53987741
0.45800002 13316.44540285  1283.57223321
0.45900002 13320.19150886  919.09325767
0.46000002 13325.94726045  1290.08501543
0.46100002 13331.51985764  1293.42411789
0.46200002 13339.20660010  1204.33032497
0.46300002 13347.86838716  929.01168378
0.46400002 13356.69694091  1117.95558694
0.46500002 13367.15286298  1121.23683529
0.46600002 13378.09299732  1030.84900477
0.46700002 13389.55869960  1221.93118484
0.46800002 13403.01504073  1225.77279865
0.46900002 13416.08833665  1135.00112708
0.47000002 13430.25163526  1328.38625220
0.47100002 13445.06076942  951.91034759
0.47200002 13460.74302298  1146.04771530
0.47300002 13477.11476396  1149.86748616
0.47400002 13493.37885664  1153.68394692
0.47500002 13510.54835791  1254.04915802
0.47600002 13528.83453912  1355.18342002
0.47700002 13546.61959273  1068.42193792
