# SAXS profile: number of points = 501, q_min = 0, q_max = 0.5, delta_q = 0.001
#    q    intensity    error
0.00000000 1700912.83420643 331.67800267
0.00100000 1700825.60575673 510.24769384
0.00200000 1700563.89492736 994.82991003
0.00300000 1700127.90208971 1122.08445535
0.00400000 1699517.54674547 1657.02967104
0.00500000 1698733.42249239 1681.74615483
0.00600000 1697775.41977043 1960.93068967
0.00700000 1696644.26365438 2239.57052110
0.00800000 1695339.71454762 2746.45045352
0.00900000 1693863.27673104 3557.11303319
0.01000000 1692214.18090857 3629.79957478
0.01100000 1690394.16234351 3042.70962470
0.01200000 1688403.06089103 4938.57916963
0.01300000 1686242.18494811 5311.66311686
0.01400000 1683911.74972274 3788.80160484
0.01500000 1681413.33522307 4438.93140265
0.01600000 1678746.50796567 5136.96454402
0.01700000 1675913.57915070 5429.96024003
0.01800000 1672914.99327654 5721.36953445
0.01900000 1669751.72879539 6011.10649490
0.02000000 1666424.54447797 8398.78008409
0.02100000 1662936.22548154 8780.30366863
0.02200000 1659285.41139973 7441.89540823
0.02300000 1655475.10488533 7151.65277864
0.02400000 1651505.96924228 6812.46243376
0.02500000 1647380.60763778 10279.65546114
0.02600000 1643098.96917562 8650.91646839
0.02700000 1638663.42891666 9635.34140334
0.02800000 1634074.15381825 9240.68976362
0.02900000 1629334.67355807 8798.40764119
0.03000000 1624445.54197947 8309.03932915
0.03100000 1619408.35416845 7773.16045768
0.03200000 1614224.41259978 10387.53457351
0.03300000 1608897.96863830 10666.99402383
0.03400000 1603427.38907289 12626.99127156
0.03500000 1597816.59377199 9491.03100528
0.03600000 1592066.42849638 8835.96908650
0.03700000 1586180.03657032 12657.71727722
0.03800000 1580158.58944484 13865.89226409
0.03900000 1574004.95862536 13221.64226475
0.04000000 1567719.06587549 12533.91451248
0.04100000 1561304.88077369 14754.33180742
0.04200000 1554764.49042094 11031.05457130
0.04300000 1548098.98769849 11239.19917239
0.04400000 1541311.75309873 13525.01126157
0.04500000 1534404.85561884 12704.87279485
0.04600000 1527379.10805642 17228.83713979
0.04700000 1520238.00833212 12040.28558596
0.04800000 1512984.11399033 15568.60725734
0.04900000 1505619.40246061 13550.57525289
0.05000000 1498145.77682381 22921.63145278
0.05100000 1490566.85655487 13951.70642728
0.05200000 1482882.63713062 14146.70101748
0.05300000 1475097.94353176 11948.29389961
0.05400000 1467214.12035334 12104.51705740
0.05500000 1459234.59572773 14709.08541110
0.05600000 1451160.08819015 17370.38706621
0.05700000 1442995.78200572 15064.87666735
0.05800000 1434740.89248324 13967.20324049
0.05900000 1426399.31381381 21823.91052066
0.06000000 1417975.12275108 19461.70946899
0.06100000 1409469.37105277 19662.09864502
0.06200000 1400885.08074363 17209.87402139
0.06300000 1392225.54599837 17374.97562643
0.06400000 1383490.15500948 16186.83557062
0.06500000 1374684.70903147 14970.31718163
0.06600000 1365811.49271275 13726.40614400
0.06700000 1356871.02893393 19376.11919996
0.06800000 1347868.11467322 15345.47920386
0.06900000 1338805.69690708 19680.44466595
0.07000000 1329683.42229890 24073.91948807
0.07100000 1320506.02457956 15687.61230678
0.07200000 1311275.56266596 17230.16170061
0.07300000 1301995.36358323 14452.14921294
0.07400000 1292668.04463126 17451.01942035
0.07500000 1283294.61698528 17555.47118323
0.07600000 1273877.97990283 20598.60790070
0.07700000 1264422.36602387 16273.11661375
0.07800000 1254928.72762434 19332.17795566
0.07900000 1245399.07553898 17933.74752892
0.08000000 1235838.46504914 16516.98186021
0.08100000 1226248.00889139 18099.42146043
0.08200000 1216628.75776745 19691.13736848
0.08300000 1206984.46995235 16728.80553866
0.08400000 1197318.00839059 22898.70798530
0.08500000 1187631.32018526 18384.53369953
0.08600000 1177927.10401139 15371.94942908
0.08700000 1168207.10845126 21588.46837792
0.08800000 1158473.68028090 24744.99897292
0.08900000 1148729.85337295 23261.78062340
0.09000000 1138977.95163063 21765.86967812
0.09100000 1129219.72290748 18699.87948989
0.09200000 1119457.11976208 21862.99857622
0.09300000 1109694.46979996 17211.36203540
0.09400000 1099930.36482455 17241.40927893
0.09500000 1090169.38046490 20407.97176153
0.09600000 1080412.73232540 15720.00599430
0.09700000 1070665.66265336 25182.05756949
0.09800000 1060926.69265038 18905.71455193
0.09900000 1051200.13469280 23652.00414276
0.10000000 1041484.62867064 15778.49286638
0.10100000 1031785.45318150 15786.31817614
0.10200000 1022103.86802624 23687.25825567
0.10300000 1012440.54948708 17373.48064646
0.10400000 1002799.18170388 17373.49664036
0.10500000 993182.28510836 26845.71842955
0.10600001 983586.95686246 18943.88568055
0.10700001 974020.98179457 17357.05471236
0.10800001 964481.47257359 18923.12738245
0.10900001 954973.23399007 23635.58865368
0.11000001 945496.97854190 17316.77797709
0.11100001 936053.41544078 15725.69811967
0.11200001 926645.58233839 17277.30769607
0.11300001 917273.81407191 18822.45955093
0.11400001 907940.48161006 25059.15847233
0.11500001 898647.71291179 18763.76512915
0.11600001 889395.61541779 17169.78316419
0.11700001 880186.43149362 15579.30057114
0.11800001 871020.50384583 17102.48839851
0.11900001 861899.67431245 18617.03384204
0.12000001 852825.16286912 21670.28840928
0.12100001 843800.14689413 16985.69775714
0.12200001 834823.16911733 15402.48819585
0.12300001 825897.45802036 18434.03213152
0.12400001 817022.46571806 19914.92354022
0.12500001 808199.18052429 16802.46175484
0.12600001 799431.49418530 15229.17068188
0.12700001 790717.84529531 18218.14001416
0.12800001 782059.37747888 21185.98953438
0.12900001 773457.97235515 19607.16052333
0.13000001 764914.60635945 22545.85908514
0.13100001 756428.23087002 23963.64748355
0.13200001 748001.64764520 23876.21371837
0.13300001 739635.96344718 17840.02027938
0.13400001 731330.14933525 19252.26708891
0.13500001 723086.76799174 22126.45614377
0.13600001 714904.60033150 14691.29022952
0.13700001 706786.35575670 19019.62173025
0.13800001 698730.09263698 18939.08005401
0.13900001 690739.34692324 23208.84315111
0.14000001 682813.06966729 15885.64681499
0.14100001 674951.35710217 18689.40395961
0.14200001 667155.05149207 15741.52418241
0.14300001 659426.01239628 14243.60253960
0.14400001 651761.00924210 18428.54340559
0.14500001 644164.51839778 14107.20361838
0.14600001 636634.42666359 15441.56874717
0.14700001 629173.65026470 16761.18683379
0.14800001 621777.54590433 18065.74744857
0.14900001 614450.71052055 17972.68413069
0.15000001 607191.36749270 13752.88512261
0.15100001 600000.68960678 19152.02291594
0.15200001 592878.42791769 13606.56056276
0.15300001 585826.00223832 17592.35567738
0.15400001 578839.40218480 13458.01673589
0.15500001 571923.18133084 16059.60368967
0.15600001 565073.43291155 15968.97596773
0.15700001 558295.63939872 13231.60727824
0.15800001 551582.56508809 15786.29375791
0.15900001 544940.32668771 17002.13899517
0.16000001 538364.27105729 18202.09686363
0.16100001 531859.33175027 15509.01884593
0.16200001 525421.34154686 15415.86288871
0.16300001 519050.96888841 16599.25076867
0.16400001 512748.82360726 20304.85437343
0.16500001 506513.55987827 15134.62588369
0.16600001 500346.69924948 13787.05394875
0.16700001 494245.40098742 12454.98469294
0.16800001 488210.55368596 12376.13812030
0.16900001 482244.28494631 17216.12178549
0.17000001 476342.49811229 12218.18565352
0.17100001 470506.36544901 14566.87776217
0.17200001 464736.47983428 15677.88588756
0.17300001 459031.53665607 14376.86840701
0.17400001 453391.65041316 16662.14393957
0.17500001 447815.43755557 17733.49216471
0.17600001 442301.82525969 15266.04821984
0.17700001 436853.64242802 13996.79136447
0.17800001 431466.88107927 13901.86356499
0.17900001 426143.32711088 13807.04445055
0.18000001 420881.57257182 13712.32228209
0.18100001 415683.15037779 12482.96559550
0.18200001 410542.96411839 13523.28587687
0.18300001 405464.54234644 14548.06846663
0.18400001 400445.49425064 11112.36299041
0.18500001 395487.73330917 18757.98407702
0.18600001 390586.87446715 12051.55858104
0.18700001 385744.53564895 13053.59570308
0.18800001 380959.69165021 14040.27009912
0.18900001 376234.31498623 12867.21418047
0.19000001 371561.12101340 12774.27194401
0.19100001 366949.01337236 11624.94529292
0.19200001 362388.99191523 10491.16181167
0.19300001 357885.79374572 15621.71563517
0.19400001 353435.33962551 11371.78258981
0.19500001 349039.26425471 13340.28131021
0.19600001 344696.08846903 14260.07785384
0.19700001 340405.22237579 11121.03914057
0.19800001 336166.64072260 11038.03216977
0.19900001 331979.45870377 9959.38423179
0.20000001 327841.69842322 12849.75597699
0.20100001 323755.32751116 11771.74426467
0.20200001 319716.96696768 10708.92031472
0.20300001 315728.60694630 12559.68457795
0.20400001 311788.15925683 14381.22952546
0.20500001 307894.70646080 10465.34156727
0.20600001 304048.41620207 11328.84452318
0.20700001 300248.96955188 14988.42926852
0.20800001 296493.65844404 14872.12261056
0.20900001 292786.45366778 11067.32847181
0.21000001 289121.03773146 12810.95378748
0.21100001 285500.52495273 10894.70054723
0.21200001 281922.98164071 13511.15953386
0.21300001 278387.29406724 11617.10233063
0.21400001 274894.73235290 11524.96219876
0.21500001 271444.79242032 9674.29285924
0.21600001 268034.38610027 12214.32755207
0.21700001 264664.88020679 10385.45039033
0.21800001 261335.15126464 11160.31816242
0.21900001 258043.86517512 9366.99274874
0.22000001 254790.80936253 8446.31572973
0.22100001 251577.69040340 10890.79873252
0.22200001 248401.93681581 14125.37680494
0.22300001 245262.06705838 9064.88642711
0.22400001 242158.09431778 10624.68689060
0.22500001 239092.73329650 10536.81725463
0.22600001 236060.36550457 10449.21257318
0.22700001 233065.36553315 7970.83587817
0.22800001 230103.12855990 8694.44712380
0.22900001 227174.22739006 9405.01345872
0.23000001 224280.24933161 7771.31100686
0.23100001 221419.55622809 10017.02119749
0.23200001 218589.61246489 9167.64878035
0.23300001 215792.43698104 14391.19830289
0.23400001 213027.51224517 10512.90822651
0.23500001 210291.78618379 10422.06141619
0.23600001 207588.72258522 7379.77943695
0.23700001 204914.87768578 8778.55377527
0.23800001 202271.16064743 8701.70574263
0.23900001 199656.35430671 7906.39200451
0.24000001 197070.47074239 7124.09785431
0.24100001 194514.46309616 9885.22548213
0.24200001 191985.89823413 11196.61811464
0.24300001 189485.06774609 6935.15380756
0.24400001 187011.44673062 8934.47229019
0.24500001 184564.89234905 7491.48933483
0.24600001 182145.12029267 8098.17243130
0.24700001 179751.96677819 7355.45082852
0.24800001 177384.92740694 8612.92555769
0.24900001 175042.46782757 7220.50213947
0.25000001 172726.34497777 8454.09135489
0.25100001 170433.82144729 7086.63863104
0.25200001 168168.08859746 7020.17719062
0.25300001 165926.05480861 7586.13958475
0.25400001 163707.77969232 7514.18744338
0.25500001 161512.84881383 6202.09368788
0.25600001 159342.10047177 6756.90209019
0.25700001 157194.10422799 8516.77697003
0.25800001 155069.48859475 8434.22988373
0.25900001 152967.62332079 6562.31135096
0.26000001 150888.17539705 8270.18128482
0.26100001 148830.02547822 6433.92230585
0.26200001 146795.04054017 6370.17108566
0.26300001 144780.54990116 5733.31004737
0.26400001 142788.36767214 8513.75682531
0.26500001 140817.77445906 7304.21830682
0.26600001 138867.07496114 6117.78927690
0.26700001 136938.33144635 6605.90542157
0.26800001 135030.49714448 8172.72122641
0.26900001 133141.62426018 7009.90684902
0.27000001 131274.16863582 6937.18376984
0.27100001 129426.33892512 5280.59487804
0.27200001 127599.70695406 5747.72907175
0.27300001 125791.72539658 5170.04015847
0.27400001 124001.60070407 5115.06627111
0.27500001 122233.57497921 6578.61131672
0.27600001 120482.39487494 7008.46124156
0.27700001 118752.22009969 4951.96781252
0.27800001 117039.68531589 5877.73327474
0.27900001 115346.94406159 6782.40063182
0.28000001 113671.45475723 5270.37724926
0.28100001 112015.25792391 5685.89476133
0.28200001 110377.93046744 5622.65204413
0.28300001 108758.16936653 5096.40805773
0.28400001 107156.42436743 5039.03109438
0.28500001 105572.90375371 4981.98556394
0.28600001 104007.07699945 6268.50682746
0.28700001 102458.80844025 6196.70902777
0.28800001 100927.42365495 4812.72442479
0.28900001 99415.61424244  4757.03736667
0.29000001 97919.15933227  5129.00580860
0.29100001 96441.20185650  5068.94980952
0.29200001 94979.88471650  4591.80274397
0.29300001 93536.04039931  5362.42144993
0.29400001 92108.21478567  5298.52530636
0.29500001 90698.34003568  5235.10843467
0.29600001 89304.42867422  4774.21498292
0.29700001 87927.41761768  5109.46247964
0.29800001 86566.56019892  4659.01249046
0.29900001 85223.19555333  4218.54837959
0.30000001 83895.04345596  5681.79208703
0.30100001 82584.39191031  3741.07313064
0.30200001 81288.33531233  4433.46601782
0.30300001 80009.76290290  5107.82350553
0.30400001 78746.88683325  5043.73834045
0.30500001 77499.64000047  3912.95700887
0.30600001 76267.56726413  3863.33380267
0.30700001 75052.37391375  3814.16182287
0.30800001 73852.34492456  4449.97325411
0.30900001 72667.96900168  4730.68500598
0.31000001 71499.36760161  4669.62391914
0.31100001 70345.26587517  3621.37445871
0.31200001 69207.08965596  3574.20031451
0.31300001 68083.81811437  3848.09758202
0.31400001 66976.66259220  3481.11220305
0.31500001 65883.33583870  3122.87026661
0.31600002 64805.57934216  4314.10762107
0.31700002 63742.55845411  4560.78027334
0.31800002 62694.43685239  3599.91473451
0.31900002 61661.30007418  3255.71679807
0.32000002 60642.77738430  3795.93483011
0.32100002 59637.97113325  3744.66838477
0.32200002 58649.26579221  4830.64700571
0.32300002 57672.70127177  3363.47209743
0.32400002 56711.53904751  3041.15642543
0.32500002 55764.42994279  3544.94497932
0.32600002 54831.68419951  3496.34250854
0.32700002 53912.37055949  3978.73313569
0.32800002 53007.73009342  3139.11792478
0.32900002 52116.16594652  3611.65047112
0.33000002 51239.24851250  3052.83457094
0.33100002 50373.82396690  3512.06317328
0.33200002 49524.50214056  2721.12389897
0.33300002 48687.41605198  4634.55535346
0.33400002 47864.14437568  2405.17336878
0.33500002 47053.01113298  3794.35499745
0.33600002 46256.12503608  3039.72140070
0.33700002 45471.26397000  2997.01115019
0.33800002 44700.61566447  4546.05282837
0.33900002 43941.40999217  2465.11321730
0.34000002 43195.77852263  3093.24984650
0.34100002 42462.29049877  2613.97872690
0.34200002 41742.15322242  2147.63388500
0.34300002 41033.09020792  2964.23057700
0.34400002 40338.05474701  2922.49220483
0.34500002 39653.86735377  2469.64297576
0.34600002 38982.80412317  2637.77156592
0.34700002 38322.27493013  2600.54969992
0.34800002 37675.12277297  3155.66843292
0.34900002 37038.95541090  2138.99977629
0.35000002 36414.78658535  1917.23860452
0.35100002 35802.42353807  2079.40485758
0.35200002 35200.45451674  2050.25057043
0.35300002 34610.21123462  2572.92322504
0.35400002 34031.46944843  1993.39341736
0.35500002 33463.98931659  2144.37253697
0.35600002 32906.49263012  1762.14276381
0.35700002 32360.20252059  1911.51725343
0.35800002 31825.23361108  2056.54669336
0.35900002 31300.82779722  2366.34269355
0.36000002 30787.23535808  1667.12887361
0.36100002 30282.96220806  2137.67440352
0.36200002 29790.36446581  2108.71104859
0.36300002 29306.74175516  1920.17781075
0.36400002 28833.31977352  1894.34919885
0.36500002 28369.67430350  1713.24471234
0.36600002 27916.23886281  1536.78902219
0.36700002 27471.92439402  1971.38538790
0.36800002 27038.64086513  1646.24772705
0.36900002 26613.76543139  1920.18326683
0.37000002 26197.77057905  1895.27780232
0.37100002 25791.08781429  2014.79987549
0.37200002 25394.26094480  1704.97076060
0.37300002 25005.70303249  1543.10200723
0.37400002 24626.19147711  1662.26800345
0.37500002 24255.63734830  1778.42341462
0.37600002 23893.94884052  1756.56373222
0.37700002 23540.19087777  1468.20177460
0.37800002 23194.84566311  1318.62703841
0.37900002 22858.36217810  1433.21937646
0.38000002 22529.77950532  1416.33465570
0.38100002 22208.29734261  2163.31034663
0.38200002 21895.66039729  1257.90574942
0.38300002 21590.17821358  1367.95375642
0.38400002 21293.35013146  1475.62923402
0.38500002 21002.72522673  1580.87520271
0.38600002 20720.94934059  2165.13209917
0.38700002 20445.31509620  1308.90913447
0.38800002 20177.44254563  1412.82459398
0.38900002 19915.95734530  1281.59191589
0.39000002 19662.80230730  1383.86809195
0.39100002 19415.15609405  1712.41684862
0.39200002 19174.94004308  1130.36276909
0.39300002 18940.87061795  1231.34605721
0.39400002 18714.80068661  1108.85199322
0.39500002 18493.83482899  1208.38722498
0.39600002 18279.38694105  1523.95256148
0.39700002 18071.00358787  1078.83896531
0.39800002 17868.96603695  1176.40343478
0.39900002 17672.53430769  1272.42253044
0.40000002 17482.01435914  1472.16049893
0.40100002 17297.56465220  1460.26047713
0.40200002 17118.83609555  1552.25053651
0.40300002 16945.12042863  1129.56178129
0.40400002 16777.20622557  1223.05839179
0.40500002 16614.79075060  1821.31344838
0.40600002 16457.31842297  1607.55093972
0.40700002 16305.28691349  997.88360639
0.40800002 16158.08495214  1090.42841466
0.40900002 16015.80416055  1083.46920280
0.41000002 15878.88930317  1566.29371508
0.41100002 15746.06971220  1070.41786975
0.41200002 15617.89210509  1257.78700028
0.41300002 15494.99135657  2213.14972032
0.41400002 15375.90369576  1052.86505545
0.41500002 15261.51961499  1047.55075601
0.41600002 15150.72550543  1042.44571780
0.41700002 15044.67910132  943.30142435
0.41800002 14943.38472448  1408.78766165
0.41900002 14844.38485128  1496.31406391
0.42000002 14750.58254912  1210.94913175
0.42100002 14660.68944380  1299.23036007
0.42200002 14574.48988557  1572.07742600
0.42300002 14491.39343465  1013.81793273
0.42400002 14411.97491656  1102.51613336
0.42500002 14336.26780375  1099.30506728
0.42600002 14263.25159537  913.56130797
0.42700002 14194.68224268  1002.42850748
0.42800002 14128.74865645  1181.94052486
0.42900002 14066.82754921  1179.50354589
0.43000002 14007.36107963  1811.15187342
0.43100002 13950.18832707  994.36947107
0.43200002 13897.00516254  1083.13263370
0.43300002 13846.34282765  1081.67635295
0.43400002 13798.64752352  990.39797293
0.43500002 13753.43438163  1079.36958142
0.43600002 13711.27456381  898.77409025
0.43700002 13671.01457165  1257.45997989
0.43800002 13633.23229998  987.52322845
0.43900002 13598.77920144  1166.77531078
0.44000002 13566.07852362  987.13575055
0.44100002 13536.04960990  987.18414483
0.44200002 13508.03216431  897.60877986
0.44300002 13482.30680160  987.71384309
0.44400002 13459.06938284  988.23221627
0.44500002 13436.61164951  988.80029815
0.44600002 13416.53375706  1529.28367277
0.44700002 13399.59278030  1170.58848076
0.44800002 13382.87412744  991.47027672
0.44900002 13369.68368988  902.45369184
0.45000002 13357.56567702  1084.36723305
0.45100002 13346.92450557  1266.89013411
0.45200002 13338.19999589  1268.86302574
0.45300002 13330.52931095  1089.37090692
0.45400002 13325.01827740  1000.37579459
0.45500002 13320.86159916  1366.72046485
0.45600002 13318.08770242  1004.25045080
0.45700002 13316.78266368  914.86301235
0.45800002 13316.37043596  916.83214797
0.45900002 13317.28472328  1654.00684102
0.46000002 13320.26801670  1197.42555011
0.46100002 13323.24441989  1015.63097026
0.46200002 13328.40876681  925.65803273
0.46300002 13334.59244916  1020.89644629
0.46400002 13341.05937051  1488.86229631
0.46500002 13349.26614876  1026.42512283
0.46600002 13357.97060774  1122.87106251
0.46700002 13367.29664167  1126.06112246
0.46800002 13378.69097157  1129.42914535
0.46900002 13389.82190682  1604.77023159
0.47000002 13402.15316988  1325.60703286
0.47100002 13415.09905337  949.78905800
0.47200002 13429.11570080  1524.47328661
0.47300002 13443.92639654  1720.55378178
0.47400002 13458.62849744  1150.71279107
0.47500002 13474.34416841  1250.68868499
0.47600002 13491.22240501  1158.35641060
0.47700002 13507.72411784  1065.35425167
