# SAXS profile: number of points = 501, q_min = 0, q_max = 0.5, delta_q = 0.001
#    q    intensity    error
0.00000000 1664650.74656090 299.63713438
0.00100000 1664564.32291452 798.99089397
0.00200000 1664305.02794061 1348.08711532
0.00300000 1663873.06857118 1197.98865205
0.00400000 1663268.33427000 1372.19642791
0.00500000 1662491.46410171 1795.49085230
0.00600000 1661542.28756985 2093.54336757
0.00700000 1660421.60062280 2590.25780462
0.00800000 1659129.13532234 2239.82442725
0.00900000 1657666.32708682 2735.14955661
0.01000000 1656032.50130008 3825.43524318
0.01100000 1654229.34914683 3275.37425392
0.01200000 1652256.71344465 4510.66102547
0.01300000 1650115.89231624 4158.29223204
0.01400000 1647807.12053154 3707.56618556
0.01500000 1645331.92168479 4738.55614545
0.01600000 1642689.91026331 5026.63135011
0.01700000 1639883.39781511 4427.68537272
0.01800000 1636912.78755497 6064.76215079
0.01900000 1633779.01426464 5391.47099035
0.02000000 1630483.03543064 5649.62397333
0.02100000 1627027.32239747 6443.02848881
0.02200000 1623410.76308941 6160.84412583
0.02300000 1619636.22442834 7579.89787535
0.02400000 1615704.53660470 7876.55997510
0.02500000 1611617.97144311 7542.37245082
0.02600000 1607376.85604535 7160.86422121
0.02700000 1602983.22000888 10098.79474859
0.02800000 1598437.47061426 9039.16431086
0.02900000 1593742.95545169 7889.02799170
0.03000000 1588900.35521577 8866.06438964
0.03100000 1583911.29161283 10643.88436940
0.03200000 1578776.86850014 10159.42961672
0.03300000 1573501.28806085 11234.79971468
0.03400000 1568083.23067001 9055.68107495
0.03500000 1562526.53053754 8437.64365454
0.03600000 1556831.80206002 8640.41690074
0.03700000 1551002.35614864 11492.92799058
0.03800000 1545039.36558620 9942.32877767
0.03900000 1538945.41824610 12003.77481821
0.04000000 1532720.79370982 11311.47998174
0.04100000 1526369.51515958 11539.35406965
0.04200000 1519893.14088675 11763.97345623
0.04300000 1513293.26023966 12984.05677555
0.04400000 1506572.86055186 12203.24073721
0.04500000 1499734.32980246 12417.80082776
0.04600000 1492778.24943330 12628.90457728
0.04700000 1485708.46074183 10697.10141484
0.04800000 1478526.86285702 13040.60753715
0.04900000 1471235.98880627 14344.55155856
0.05000000 1463837.52717065 15677.70064605
0.05100000 1456335.26874430 12495.35718791
0.05200000 1448728.77455494 13820.87315332
0.05300000 1441023.26167668 17508.43344558
0.05400000 1433219.82581248 11824.06411435
0.05500000 1425322.13751651 15564.51846775
0.05600000 1417330.45493540 15753.62874174
0.05700000 1409250.42759616 15938.62308010
0.05800000 1401081.10947909 16119.43891721
0.05900000 1392826.41065357 13788.98210950
0.06000000 1384490.29377746 15201.70413588
0.06100000 1376073.76523046 14077.23527616
0.06200000 1367579.89810964 16800.71983360
0.06300000 1359011.88076412 20874.42346453
0.06400000 1350369.34496668 23698.98311249
0.06500000 1341658.06277897 19923.62316425
0.06600000 1332880.11697818 25451.34702453
0.06700000 1324035.82511499 20257.74907230
0.06800000 1315130.26972328 19056.23850030
0.06900000 1306166.39958684 15086.22262155
0.07000000 1297144.05144263 19340.41871269
0.07100000 1288067.48306002 25040.03304351
0.07200000 1278938.87005986 15404.81941154
0.07300000 1269761.51028783 16913.22410951
0.07400000 1260538.25672766 14181.05605277
0.07500000 1251269.85202299 22823.16317068
0.07600000 1241959.26451523 17213.55621316
0.07700000 1232610.78467970 14421.54685696
0.07800000 1223225.35808939 15944.74329044
0.07900000 1213804.45415659 14565.65413306
0.08000000 1204354.08906385 21949.35430286
0.08100000 1194874.55745975 16166.65352094
0.08200000 1185367.10076424 16233.60320673
0.08300000 1175835.77995446 16297.08467502
0.08400000 1166283.23144107 17844.13427863
0.08500000 1156711.21928507 14921.57542927
0.08600000 1147122.43526871 19460.93302805
0.08700000 1137519.05700119 18018.30270900
0.08800000 1127902.85803573 16563.25424813
0.08900000 1118277.22496389 16606.41757071
0.09000000 1108644.30504132 15132.99547469
0.09100000 1099005.65959876 15166.27881499
0.09200000 1089363.73412606 21275.27472714
0.09300000 1079722.45984216 18268.90487902
0.09400000 1070080.41200796 22872.96988164
0.09500000 1060442.22811226 22905.55320385
0.09600000 1050809.29858687 16818.20361447
0.09700000 1041186.65675046 16835.98903116
0.09800000 1031572.79188138 18382.62801563
0.09900000 1021971.82274556 21461.40928683
0.10000000 1012382.96562110 21472.64371062
0.10100000 1002810.73102240 21480.20686875
0.10200000 993256.63250116 21484.14197153
0.10300000 983721.88946320 18415.27463702
0.10400000 974209.44173081 21481.31920075
0.10500000 964722.34715363 21474.72045801
0.10600001 955257.11264343 24531.00380695
0.10700001 945821.69825461 15322.31223276
0.10800001 936413.52466910 18372.43421865
0.10900001 927037.03610725 18355.33417883
0.11000001 917693.22366578 18335.51147189
0.11100001 908382.42317184 19839.07305596
0.11200001 899108.08017362 19811.84747931
0.11300001 889870.16815656 28911.88312460
0.11400001 880671.16513396 16710.73614523
0.11500001 871512.83203948 22746.48598732
0.11600001 862396.18106349 18162.06442848
0.11700001 853322.50545323 16614.18996362
0.11800001 844292.69913241 16577.68792825
0.11900001 835308.16013440 22553.32138593
0.12000001 826370.19471185 17998.34368863
0.12100001 817482.37079216 14959.92809023
0.12200001 808642.98203670 16411.41009360
0.12300001 799854.91845997 14877.30218429
0.12400001 791118.05281215 16316.81060806
0.12500001 782433.31824536 16266.78945282
0.12600001 773804.31175271 22111.45925030
0.12700001 765229.40313486 17630.88627911
0.12800001 756710.25407400 14642.34410641
0.12900001 748248.35394763 23345.34974348
0.13000001 739844.44682289 18899.32728491
0.13100001 731498.14565697 15932.03036341
0.13200001 723211.67608826 21642.11042716
0.13300001 714986.18613263 18682.58992440
0.13400001 706820.90950488 18607.06131996
0.13500001 698717.92039397 19955.38474731
0.13600001 690676.70889083 17032.08844432
0.13700001 682699.23039599 19784.62462979
0.13800001 674784.20970906 15476.17657947
0.13900001 666934.35216492 19607.87087832
0.14000001 659149.02838530 15335.10286860
0.14100001 651428.58851101 16650.51550763
0.14200001 643773.57360532 16570.73256616
0.14300001 636185.83057285 13741.61458853
0.14400001 628662.11838584 17775.42223582
0.14500001 621207.10828633 13604.43631322
0.14600001 613818.38573655 14888.16564838
0.14700001 606499.08364040 16157.13635042
0.14800001 599244.13226072 16071.72838548
0.14900001 592058.67564318 15985.58499658
0.15000001 584940.65400818 14573.79708225
0.15100001 577891.17638761 13175.91944334
0.15200001 570910.17953614 14412.62816248
0.15300001 563998.63454702 15634.04288740
0.15400001 557153.06591311 15544.57127254
0.15500001 550377.80438370 14166.72535341
0.15600001 543668.63079368 16644.41591728
0.15700001 537031.47826772 12727.64663565
0.15800001 530458.86577156 15181.73345494
0.15900001 523956.98271599 12574.96817873
0.16000001 517521.02813237 16247.57344514
0.16100001 511156.15646842 19873.75230162
0.16200001 504857.82422736 17281.28413908
0.16300001 498627.19796770 14719.47557888
0.16400001 492464.36605255 13407.34299874
0.16500001 486368.33712881 15743.74381614
0.16600001 480340.41823815 14439.03365395
0.16700001 474377.64946752 16736.04426340
0.16800001 468481.08126823 15438.79476216
0.16900001 462653.10499582 14157.18568135
0.17000001 456889.06755566 12891.12564980
0.17100001 451190.67509332 11640.71996710
0.17200001 445558.21788584 16187.13082020
0.17300001 439990.15465534 13780.49229458
0.17400001 434486.64419615 11405.27494877
0.17500001 429047.07865096 13592.21209359
0.17600001 423669.65480663 12373.27285301
0.17700001 418357.04670692 11170.13367465
0.17800001 413105.66083467 12201.07626903
0.17900001 407917.13187896 12115.13938905
0.18000001 402790.25654073 12029.33157979
0.18100001 397726.02308347 11943.71303738
0.18200001 392719.69266403 12936.18728743
0.18300001 387774.62398104 11772.83814021
0.18400001 382888.89159022 12750.20069228
0.18500001 378063.56418042 10547.97393894
0.18600001 373295.01417758 13612.20333507
0.18700001 368584.50977432 11433.49203337
0.18800001 363931.24252376 14444.43169821
0.18900001 359336.55823314 13313.42011156
0.19000001 354794.30719394 13214.31459580
0.19100001 350312.04405585 14124.58228372
0.19200001 345881.77658110 19025.22801981
0.19300001 341507.87252077 10931.66751594
0.19400001 337185.93780754 14794.03372038
0.19500001 332918.25787046 11745.35669270
0.19600001 328702.82952431 10684.48597860
0.19700001 324539.18082463 14458.22118900
0.19800001 320427.31916747 10521.23152208
0.19900001 316366.43829791 12338.29167673
0.20000001 312354.30958506 10359.23116698
0.20100001 308393.34499258 10278.75067440
0.20200001 304479.51346195 15761.38275930
0.20300001 300615.71225875 11038.60947588
0.20400001 296798.68569953 10039.21601830
0.20500001 293028.45179717 10865.49550622
0.20600001 289304.73249962 11677.78607933
0.20700001 285627.27023163 10693.88550296
0.20800001 281993.62043130 10608.60050210
0.20900001 278407.06111547 13154.73425955
0.21000001 274862.34181400 12179.15094152
0.21100001 271361.65409107 9492.23110884
0.21200001 267903.34163637 11127.36582091
0.21300001 264486.49065050 9339.01842638
0.21400001 261112.20745963 8420.86908868
0.21500001 257779.65251763 10022.47336372
0.21600001 254486.30200409 9111.88247405
0.21700001 251233.28933187 8215.32894957
0.21800001 248019.41342393 8147.43811619
0.21900001 244843.23500180 10503.77527821
0.22000001 241704.96446193 14422.53591138
0.22100001 238605.88642521 10329.24931175
0.22200001 235543.67920957 10242.61737474
0.22300001 232516.55575920 7812.55664293
0.22400001 229525.09688481 8521.11962478
0.22500001 226571.33999140 9984.99942558
0.22600001 223649.99752753 8376.81105352
0.22700001 220765.37056272 8305.19363331
0.22800001 217913.22947396 10479.44770098
0.22900001 215093.54752060 9646.94606251
0.23000001 212307.98959765 9563.41384370
0.23100001 209555.37859432 11668.04403195
0.23200001 206833.00154435 8674.57649502
0.23300001 204142.49282762 8598.48220456
0.23400001 201483.90253339 7102.30790021
0.23500001 198853.88553416 7039.42788085
0.23600001 196255.64162181 6976.88838964
0.23700001 193686.23658556 8297.51876778
0.23800001 191146.23411475 9593.62994399
0.23900001 188634.58830123 9507.18370007
0.24000001 186151.25810553 9421.11561834
0.24100001 183697.04346897 8001.84359200
0.24200001 181269.76234803 9910.92472519
0.24300001 178869.72452436 9819.94834090
0.24400001 176496.03824528 9729.34456850
0.24500001 174148.88643505 8996.53189881
0.24600001 171827.98722578 7002.84995066
0.24700001 169533.08856505 10721.27302803
0.24800001 167263.38973444 6872.01669233
0.24900001 165017.82331697 9282.25300070
0.25000001 162798.08126980 6742.28285475
0.25100001 160601.35576867 8499.02414936
0.25200001 158430.64193712 9619.90903354
0.25300001 156283.15664442 5954.38854986
0.25400001 154158.73130532 8255.20045196
0.25500001 152057.14560956 9926.29093502
0.25600001 149979.06020818 6938.03165349
0.25700001 147922.82824903 8014.45921372
0.25800001 145889.75725729 6234.59907137
0.25900001 143878.70427636 6733.52367873
0.26000001 141889.42704055 5554.97133147
0.26100001 139920.91919162 9348.11705351
0.26200001 137974.94251531 5987.42291376
0.26300001 136049.05632946 8081.31432836
0.26400001 134144.42162964 7465.13741693
0.26500001 132261.02844682 5804.93681321
0.26600001 130396.92064235 9400.31445393
0.26700001 128554.24978418 5167.88108587
0.26800001 126731.84972047 5624.99341602
0.26900001 124927.79074351 6577.44849390
0.27000001 123144.60768304 6006.99424704
0.27100001 121380.27343350 6438.01000758
0.27200001 119636.67634285 5878.94655370
0.27300001 117911.10380025 5330.76125508
0.27400001 116202.88293646 6710.71680716
0.27500001 114516.20737098 6163.26257238
0.27600001 112845.86543659 5157.62052387
0.27700001 111195.67894791 5100.54603473
0.27800001 109562.65188398 9628.91411653
0.27900001 107949.16561085 4533.86517023
0.28000001 106352.10347769 6724.11206062
0.28100001 104773.80006494 4875.12514776
0.28200001 103213.73791922 7010.27741127
0.28300001 101670.78612428 4764.29326328
0.28400001 100145.11902038 5565.56525298
0.28500001 98637.33842019  4654.69622036
0.28600001 97146.53776200  4600.37451346
0.28700001 95672.89355478  5786.29687607
0.28800001 94215.57398682  6943.21705360
0.28900001 92777.10104546  4842.96490381
0.29000001 91353.63110034  4386.34480491
0.29100001 89947.92040287  4333.69101014
0.29200001 88558.57720573  6616.65440913
0.29300001 87185.92598261  5767.34927675
0.29400001 85828.78397752  4177.71625786
0.29500001 84489.20311279  4126.45287536
0.29600001 83165.09417176  4075.50563281
0.29700001 81857.12449875  4390.81636597
0.29800001 80565.19657805  5781.35878012
0.29900001 79289.80050015  3924.84531056
0.30000001 78029.42277593  5636.84576818
0.30100001 76785.84063325  3826.23861989
0.30200001 75556.22549488  5151.04591697
0.30300001 74343.84968975  3729.08767698
0.30400001 73146.69392893  4015.75368681
0.30500001 71964.67870482  4954.76836340
0.30600001 70797.11047004  3586.22780064
0.30700001 69646.04423305  3861.17687508
0.30800001 68509.57847214  3810.50293502
0.30900001 67388.40026140  3446.91683656
0.31000001 66282.43616707  4019.69853166
0.31100001 65190.44351177  4576.36935120
0.31200001 64114.06275344  4816.24862207
0.31300001 63051.80218363  3860.66203049
0.31400001 62005.34275648  3222.72784235
0.31500001 60972.44555317  3468.11286727
0.31600002 59954.53782614  2850.83840861
0.31700002 58950.89666496  3655.54527528
0.31800002 57961.60710898  3050.80933463
0.31900002 56986.72731293  4103.04456081
0.32000002 56026.16455809  3506.95793657
0.32100002 55078.96217802  3990.47099875
0.32200002 54147.16857868  2885.77348604
0.32300002 53227.36579985  3362.90513047
0.32400002 52322.27484329  3570.99542715
0.32500002 51430.77970166  2766.46177115
0.32600002 50553.35137253  3471.49880313
0.32700002 49688.84188455  2933.62936378
0.32800002 48838.62586670  2651.20493072
0.32900002 48001.09192162  4039.29207648
0.33000002 47177.69513582  2810.84720930
0.33100002 46365.07209331  3463.47104938
0.33200002 45568.74933536  3414.23870563
0.33300002 44783.85242968  3141.13955817
0.33400002 44012.32001573  2653.94302263
0.33500002 43252.70728277  3269.90482543
0.33600002 42506.77513023  2363.58934305
0.33700002 41772.51777346  2329.65342655
0.33800002 41051.81347790  2296.23329563
0.33900002 40342.47542912  3291.94615092
0.34000002 39646.12535290  2433.47928941
0.34100002 38961.65664209  2398.47969648
0.34200002 38289.89081353  2364.01797078
0.34300002 37629.11874392  2135.82888106
0.34400002 36981.59188379  1913.79747062
0.34500002 36344.88951109  2452.18981145
0.34600002 35720.91407189  2417.05576515
0.34700002 35106.86236991  2199.09396300
0.34800002 34505.90000557  2167.66074101
0.34900002 33915.55578140  2492.79346800
0.35000002 33336.61926229  1930.69039602
0.35100002 32769.47786734  1903.25136468
0.35200002 32211.96672254  2046.74846249
0.35300002 31666.06113358  2185.90830358
0.35400002 31131.29115855  2155.06373252
0.35500002 30607.17737133  1961.30801885
0.35600002 30092.76137759  2094.90768252
0.35700002 29589.34916663  1906.73775061
0.35800002 29096.87450061  2036.92679589
0.35900002 28614.41849636  1854.21440639
0.36000002 28142.40240143  1523.91116222
0.36100002 27679.56588732  2404.80079820
0.36200002 27227.80801226  1927.32048144
0.36300002 26784.74657199  1754.93667852
0.36400002 26351.60621431  1731.30061029
0.36500002 25927.83977239  1992.81385930
0.36600002 25513.96331854  1544.99812194
0.36700002 25108.75249963  1801.80416472
0.36800002 24714.32430826  1641.52549831
0.36900002 24327.79129078  1620.23097671
0.37000002 23950.04615470  1999.23019747
0.37100002 23581.10055000  2105.32075683
0.37200002 23221.71015740  1689.03116831
0.37300002 22870.32741658  1283.02542885
0.37400002 22527.46353776  1900.75482604
0.37500002 22193.38487773  1502.04835968
0.37600002 21867.79528892  1360.28627039
0.37700002 21549.74259069  1710.61864788
0.37800002 21239.73362133  1328.22680493
0.37900002 20938.19245100  1551.52013412
0.38000002 20644.44780224  1533.77932213
0.38100002 20357.35881770  1516.41973017
0.38200002 20078.90503550  1384.23977872
0.38300002 19807.15364785  1254.98131458
0.38400002 19543.66133637  1354.37579477
0.38500002 19286.20253107  1340.00541534
0.38600002 19037.02492264  1547.13908876
0.38700002 18794.07282320  1203.19659914
0.38800002 18558.26347741  1191.16219773
0.38900002 18328.60788746  1179.44597343
0.39000002 18106.88381721  1168.16566481
0.39100002 17890.41995854  1157.15241774
0.39200002 17681.08969639  1876.14051657
0.39300002 17477.72428137  1136.22690936
0.39400002 17281.81104019  1433.52629370
0.39500002 17090.75805340  1015.19107647
0.39600002 16905.89501820  1409.44453444
0.39700002 16726.81685176  1298.16831737
0.39800002 16553.75175099  1089.81629816
0.39900002 16386.16457194  983.16992090
0.40000002 16223.93957498  975.87001167
0.40100002 16067.56111752  1162.64877755
0.40200002 15916.62784835  1154.59223882
0.40300002 15770.33106979  1051.25031892
0.40400002 15629.62074364  1044.44945568
0.40500002 15494.11913049  1037.95108973
0.40600002 15363.31853562  1219.30983335
0.40700002 15237.40630640  1025.78224115
0.40800002 15116.30997097  1391.07849099
0.40900002 14999.63780708  1291.46887638
0.41000002 14888.02403470  1009.63139775
0.41100002 14780.45971974  1004.77569936
0.41200002 14677.06912129  1000.16892266
0.41300002 14578.62513146  1086.39919627
0.41400002 14483.76626961  1172.09884091
0.41500002 14393.32935000  1077.77255280
0.41600002 14306.28793698  1163.31585872
0.41700002 14223.51549913  1070.17735686
0.41800002 14145.46458849  1244.65948812
0.41900002 14069.16697984  1063.62907408
0.42000002 13997.71333078  1149.14233034
0.42100002 13930.18083379  881.78048856
0.42200002 13866.00570784  1143.73753501
0.42300002 13804.65542358  1141.36896451
0.42400002 13746.55462867  963.97718901
0.42500002 13692.08104172  1487.37083404
0.42600002 13639.91804171  873.63679197
0.42700002 13592.03954967  872.60898044
0.42800002 13546.12058409  871.69290089
0.42900002 13504.40365997  1132.34430055
0.43000002 13464.72826939  1218.69261341
0.43100002 13426.96602802  1131.08767180
0.43200002 13392.97299584  1304.81045595
0.43300002 13361.38177719  1043.79119390
0.43400002 13332.34803942  1130.91647604
0.43500002 13305.54445314  957.20091332
0.43600002 13281.47779910  1218.84127538
0.43700002 13259.16724859  1393.80372722
0.43800002 13239.13339027  871.79697506
0.43900002 13221.95770548  1134.44402489
0.44000002 13206.39765521  960.96357092
0.44100002 13193.21266983  962.18104561
0.44200002 13181.83470243  1051.11954898
0.44300002 13172.48592658  877.28760429
0.44400002 13165.35212147  966.66602533
0.44500002 13158.77287546  1056.38633651
0.44600002 13154.44515810  1058.40670758
0.44700002 13152.72956108  1149.02250891
0.44800002 13151.12581304  1062.87403858
0.44900002 13152.81016128  976.59620076
0.45000002 13155.27385640  1334.93147784
0.45100002 13158.97330652  1249.04980545
0.45200002 13164.26190745  1431.21862241
0.45300002 13170.62204553  986.61134419
0.45400002 13178.78721810  1079.34272432
0.45500002 13188.01013653  1172.67791692
0.45600002 13198.37251896  1266.64787068
0.45700002 13209.92137505  1452.03462636
0.45800002 13222.18715604  1092.41715461
0.45900002 13235.70338491  913.26357684
0.46000002 13250.93268603  1832.60407733
0.46100002 13266.00238280  1287.06761218
0.46200002 13282.85618846  1014.74384661
0.46300002 13300.63135874  1203.44118238
0.46400002 13318.40794131  928.95899794
0.46500002 13337.66058911  1491.68403099
0.46600002 13357.26305531  1029.24395351
0.46700002 13377.39652025  1220.82126430
0.46800002 13399.18486109  1036.89596962
0.46900002 13420.51473309  946.14633353
0.47000002 13442.76059167  1044.70418890
0.47100002 13465.66292722  1144.04277652
0.47200002 13489.19384151  1052.76418326
0.47300002 13513.32290042  1056.87703413
0.47400002 13537.17321130  964.52363702
0.47500002 13561.91462383  968.32075004
0.47600002 13587.43442789  1166.61717527
0.47700002 13612.48762148  1171.21849047
