# SAXS profile: number of points = 501, q_min = 0, q_max = 0.5, delta_q = 0.001
#    q    intensity    error
0.00000000 1682732.95097188 302.89193117
0.00100000 1682646.16147153 555.27324647
0.00200000 1682385.76486448 908.48834179
0.00300000 1681951.97253489 1311.92258531
0.00400000 1681344.67698538 1387.10941122
0.00500000 1680564.50029736 1815.00973216
0.00600000 1679611.30194057 2116.31032660
0.00700000 1678485.85567631 2215.60142157
0.00800000 1677187.88470019 2943.46486192
0.00900000 1675718.85865789 3770.36759315
0.01000000 1674078.07639998 3038.45183986
0.01100000 1672267.25348497 3311.08930606
0.01200000 1670286.19004420 4559.88149874
0.01300000 1668136.22837073 4554.01210431
0.01400000 1665817.58667490 4872.51665703
0.01500000 1663331.82342036 4391.19620936
0.01600000 1660678.48083625 4658.20334698
0.01700000 1657859.92945335 4923.84421135
0.01800000 1654876.58087123 6131.31800802
0.01900000 1651729.34255880 5450.70707639
0.02000000 1648419.15699233 6750.27675324
0.02100000 1644948.58017771 6513.99667284
0.02200000 1641316.38665831 7361.30432860
0.02300000 1637525.53514015 6484.60141432
0.02400000 1633576.74585394 6738.50438391
0.02500000 1629472.46598887 7625.93148911
0.02600000 1625212.88113112 7898.53496356
0.02700000 1620800.08987359 6807.36068925
0.02800000 1616234.48407486 8436.74439378
0.02900000 1611519.43868287 7251.83780704
0.03000000 1606655.55575494 11953.51788426
0.03100000 1601644.52402516 9994.26228978
0.03200000 1596487.45963093 8692.87461807
0.03300000 1591188.65572263 8926.56877012
0.03400000 1585746.59092976 10822.72098246
0.03500000 1580165.13902908 10239.47057375
0.03600000 1574445.04724289 15728.70674884
0.03700000 1568589.51712430 11623.24885944
0.03800000 1562599.81699628 10969.45122298
0.03900000 1556478.52970999 13074.42025504
0.04000000 1550225.85408110 15254.22311102
0.04100000 1543845.71437152 11671.47414181
0.04200000 1537340.06533329 9915.84388142
0.04300000 1530710.12827096 11112.95604709
0.04400000 1523959.00571752 12344.06851959
0.04500000 1517089.18239621 10467.91584492
0.04600000 1510101.12754912 15969.32016620
0.04700000 1502998.63817575 15150.22697742
0.04800000 1495783.87765432 13192.81441475
0.04900000 1488459.04427752 14512.47635723
0.05000000 1481026.07960226 21526.71506943
0.05100000 1473488.65296700 18389.13924567
0.05200000 1465846.38023506 13984.17511912
0.05300000 1458104.48760213 11810.64690016
0.05400000 1450264.04107377 14357.61467618
0.05500000 1442328.70800216 14538.67405488
0.05600000 1434298.90330086 13489.58181502
0.05700000 1426180.05595348 14889.32047917
0.05800000 1417971.30460538 15058.85595804
0.05900000 1409676.59221514 13955.79891475
0.06000000 1401299.90086192 15386.27363029
0.06100000 1392842.17452136 16839.46267689
0.06200000 1384306.55992111 14389.86736301
0.06300000 1375696.34423817 15848.02262660
0.06400000 1367010.87222018 15994.02795296
0.06500000 1358256.10711371 16136.08330732
0.06600000 1349434.11821274 17630.35757935
0.06700000 1340545.35119678 19142.98851096
0.06800000 1331594.71368850 13782.00593180
0.06900000 1322585.24302802 19442.00398277
0.07000000 1313516.55455614 13988.95196110
0.07100000 1304393.30825421 16904.93806676
0.07200000 1295217.50622111 19855.68530054
0.07300000 1285992.45904617 17129.42035710
0.07400000 1276720.91058669 18672.04419238
0.07500000 1267403.73799114 15893.24361936
0.07600000 1258043.83872821 21795.61052776
0.07700000 1248645.52610606 16070.06867449
0.07800000 1239209.83751222 17621.56471581
0.07900000 1229738.29866459 16232.54630374
0.08000000 1220236.57998213 16308.46265651
0.08100000 1210705.31546670 16380.84368682
0.08200000 1201145.85500164 19440.54657545
0.08300000 1191561.73843778 22520.51791341
0.08400000 1181956.07664727 21097.91695846
0.08500000 1172330.47546247 18147.67661210
0.08600000 1162687.79194598 16690.38403702
0.08700000 1153029.87700780 18263.99410944
0.08800000 1143358.82557502 15263.84103827
0.08900000 1133677.84840732 16835.11683959
0.09000000 1123989.26030547 18410.94494867
0.09100000 1114294.50103793 16914.99132044
0.09200000 1104596.03588726 33900.05393423
0.09300000 1094897.76713650 18525.67109051
0.09400000 1085198.33939427 23196.11559471
0.09500000 1075502.50422269 15487.23678875
0.09600000 1065811.40551183 17058.31234709
0.09700000 1056130.18685270 21735.16026726
0.09800000 1046457.43689543 17093.88303540
0.09900000 1036797.26284302 20217.54757612
0.10000000 1027148.66200299 17117.43325726
0.10100000 1017516.53738162 20238.40488037
0.10200000 1007902.22585216 15572.09012187
0.10300000 998306.76761294 23360.37946103
0.10400000 988733.32770533 20244.31583716
0.10500000 979184.79585098 18682.84678385
0.10600001 969657.83946899 17119.30996135
0.10700001 960160.68514177 18665.52459751
0.10800001 950690.15618611 23315.67717774
0.10900001 941251.12682601 17083.70875595
0.11000001 931844.35199367 17066.73011009
0.11100001 922470.36153644 23246.25420500
0.11200001 913132.52493614 18573.11643157
0.11300001 903830.89457374 17001.05992736
0.11400001 894567.85000072 18517.55536690
0.11500001 885345.31961157 21567.01300129
0.11600001 876164.12864971 21527.35365468
0.11700001 867025.63590407 15346.35447824
0.11800001 857930.69408407 15314.06361067
0.11900001 848880.93260756 19863.81475863
0.12000001 839877.55186295 16768.15611281
0.12100001 830923.97972557 16726.50049983
0.12200001 822018.65288643 15166.24486026
0.12300001 813164.37683559 18149.82974609
0.12400001 804361.13183142 22622.65789868
0.12500001 795609.77570271 19548.13311013
0.12600001 786913.86912931 19487.92288733
0.12700001 778272.21076122 20919.95801114
0.12800001 769685.89809944 17872.10739617
0.12900001 761156.61296772 19295.32104816
0.13000001 752685.23970925 19227.34535465
0.13100001 744271.19773872 16210.22745086
0.13200001 735916.88496072 17617.85105647
0.13300001 727623.44843085 16087.75520323
0.13400001 719390.01037377 18937.94291593
0.13500001 711218.82491522 15959.75118357
0.13600001 703109.12015207 15893.78241044
0.13700001 695063.27304551 14387.81043047
0.13800001 687079.43973434 18623.28909219
0.13900001 679160.82789270 17114.85367000
0.14000001 671306.78482134 15617.95308542
0.14100001 663517.30853753 19786.08707376
0.14200001 655793.23185659 14066.76548679
0.14300001 648136.40483153 16799.69640563
0.14400001 640543.45339457 13931.82076849
0.14500001 633019.04180061 20794.67650408
0.14600001 625560.93473786 17931.70504018
0.14700001 618172.13351927 16468.10641386
0.14800001 610847.71952021 17748.18132800
0.14900001 603592.64237333 14938.91860357
0.15000001 596404.97828469 13508.57339552
0.15100001 589285.82360621 18810.00437706
0.15200001 582235.08510386 16034.75500039
0.15300001 575253.99183262 14617.20462224
0.15400001 568338.59214786 15856.64746922
0.15500001 561493.43128944 14452.84160346
0.15600001 554714.51669552 13063.52748471
0.15700001 548007.55452406 18182.89151728
0.15800001 541365.19087356 20658.49665879
0.15900001 534793.36052264 23103.07426506
0.16000001 528287.62682206 14033.96146897
0.16100001 521853.04966721 17753.44158772
0.16200001 515484.91941780 13863.96756220
0.16300001 509184.45257782 15031.12574968
0.16400001 502951.94826409 17427.28583009
0.16500001 496786.16868935 13606.97380280
0.16600001 490688.63259276 15979.27607481
0.16700001 484656.22180254 14656.00483929
0.16800001 478690.20965691 14561.75686532
0.16900001 472792.66186851 12056.21344692
0.17000001 466959.26999803 13175.25642513
0.17100001 461191.45270345 19037.98406660
0.17200001 455489.63752125 13001.95231703
0.17300001 449852.42511607 12915.26373500
0.17400001 444279.95942851 11662.34948577
0.17500001 438771.09992601 12741.91334362
0.17600001 433324.67677225 12655.24778283
0.17700001 427943.32075580 14853.91336499
0.17800001 422622.99088333 15886.39897765
0.17900001 417365.82019678 15776.42874862
0.18000001 412170.22615763 16785.63325314
0.18100001 407037.59330819 11112.12682221
0.18200001 401962.92056835 12137.27095990
0.18300001 396949.77944698 17529.30308845
0.18400001 391995.77052556 14141.24808975
0.18500001 387102.60976932 17280.26131646
0.18600001 382266.21564204 11794.82464086
0.18700001 377488.02608192 13838.71168997
0.18800001 372767.14549550 10567.94907409
0.18900001 368105.23010802 11540.09950913
0.19000001 363495.51018439 10414.14685884
0.19100001 358946.28135660 12405.18406983
0.19200001 354448.92481142 11287.42654397
0.19300001 350008.25998634 11203.76493157
0.19400001 345619.74741758 12131.25370761
0.19500001 341285.60206237 14047.31604469
0.19600001 337003.87406156 11950.15793894
0.19700001 332774.19003751 13836.75147565
0.19800001 328596.44220515 10789.46468970
0.19900001 324469.79473691 9734.09430214
0.20000001 320392.28640922 12557.77625930
0.20100001 316365.86345290 13420.24056194
0.20200001 312387.03412998 12365.84133049
0.20300001 308458.06723325 13214.34422484
0.20400001 304576.50186822 10302.30066264
0.20500001 300741.62681475 12080.79172017
0.20600001 296953.69584255 10142.45396092
0.20700001 293212.11613712 13722.32768386
0.20800001 289514.53279113 11799.16534165
0.20900001 285864.50872789 11706.15218577
0.21000001 282256.19256608 8933.40891702
0.21100001 278692.34958125 11521.14227633
0.21200001 275171.04395885 10550.05832413
0.21300001 271691.40813167 9593.42407466
0.21400001 268254.49411670 14707.05333525
0.21500001 264859.79437897 14588.47816410
0.21600001 261504.41212442 11065.55972221
0.21700001 258189.61046983 10131.36079384
0.21800001 254914.15396343 9211.32338899
0.21900001 251676.75343126 9966.39990710
0.22000001 248477.35528982 11531.83460425
0.22100001 245317.46970620 8985.97934023
0.22200001 242194.78959104 8911.55770438
0.22300001 239107.36291852 8837.40855135
0.22400001 236055.84760467 7966.88523338
0.22500001 233042.34334371 10270.17655681
0.22600001 230061.54798916 12533.75372715
0.22700001 227117.77131927 10874.39940501
0.22800001 224206.54749816 10011.94385200
0.22900001 221328.25707042 8399.40775304
0.23000001 218484.39876906 9084.58173044
0.23100001 215673.57713386 9006.52900705
0.23200001 212893.26715490 9672.80605064
0.23300001 210145.32167154 9588.93148138
0.23400001 207429.40102979 9505.45275175
0.23500001 204742.26231321 10871.81464303
0.23600001 202087.42107702 10776.31223862
0.23700001 199461.55870470 7120.77798256
0.23800001 196865.33318750 9174.90928716
0.23900001 194297.86868962 9093.14068478
0.24000001 191758.96518214 9704.92168691
0.24100001 189249.49766430 8243.70850819
0.24200001 186767.19942597 7488.43121520
0.24300001 184312.52817268 9444.17439030
0.24400001 181884.46140567 7352.67970013
0.24500001 179483.18291145 7285.22273900
0.24600001 177108.55470163 7218.05948832
0.24700001 174760.17122612 8451.40228030
0.24800001 172437.36838886 9016.75041961
0.24900001 170138.90256279 6380.20914794
0.25000001 167866.52166633 8216.22729165
0.25100001 165617.50184684 6260.34186598
0.25200001 163394.96407238 8061.09093388
0.25300001 161195.73656360 6755.71363900
0.25400001 159020.00639777 10340.27640523
0.25500001 156867.37031595 9035.56095769
0.25600001 154738.52177270 8351.23841519
0.25700001 152631.99032208 7678.91579642
0.25800001 150548.79366700 8188.34927497
0.25900001 148487.97875249 6370.13458988
0.26000001 146449.21136575 6306.83558588
0.26100001 144431.60418894 6811.39477584
0.26200001 142436.75546779 7304.86934981
0.26300001 140462.20385756 5562.30353595
0.26400001 138509.51646818 6606.90424816
0.26500001 136578.23296416 6539.36610376
0.26600001 134666.55208274 5932.73523274
0.26700001 132776.58029843 5871.38065863
0.26800001 130907.15247132 6866.73500782
0.26900001 129056.55701154 7317.50712883
0.27000001 127227.03706708 5688.95723167
0.27100001 125416.76999265 6652.10579521
0.27200001 123627.57338551 5062.54936971
0.27300001 121856.64062393 6009.96979999
0.27400001 120103.38628482 4954.26491871
0.27500001 118371.90802218 5880.71666885
0.27600001 116657.14479823 4847.10459576
0.27700001 114962.96668247 5273.35153129
0.27800001 113286.26434394 6163.33950333
0.27900001 111629.20780511 5157.26964468
0.28000001 109989.03271706 4636.03794844
0.28100001 108367.91781629 5959.15208276
0.28200001 106765.39280998 6345.06759501
0.28300001 105180.25134369 4928.74681124
0.28400001 103612.78127755 4872.39127019
0.28500001 102063.43906497 4816.37391744
0.28600001 100531.47269179 6059.03214592
0.28700001 99016.84474340  4705.28068492
0.28800001 97518.98832370  6341.17251590
0.28900001 96040.27474938  5848.85300908
0.29000001 94576.81627734  5779.58951628
0.29100001 93131.56594421  4079.16278144
0.29200001 91702.77604861  5239.43835755
0.29300001 90291.21189684  4380.02689645
0.29400001 88895.44188694  4326.98583867
0.29500001 87517.46614211  4662.93081678
0.29600001 86155.24277867  5757.32437122
0.29700001 84809.62203974  4928.28737002
0.29800001 83480.13469070  4867.30948355
0.29900001 82167.72295931  3697.54770821
0.30000001 80870.48957763  5476.95416592
0.30100001 79590.38848297  4326.53372275
0.30200001 78324.69549121  6407.74364148
0.30300001 77076.36384681  4217.61882936
0.30400001 75843.54333004  4163.81072594
0.30500001 74626.28740942  3767.88142968
0.30600001 73423.77700092  3719.28160006
0.30700001 72238.04435600  5006.09671088
0.30800001 71067.30014066  3623.36646922
0.30900001 69912.00959523  3901.09032011
0.31000001 68772.27778208  3208.22691043
0.31100001 67646.83119773  3165.87184994
0.31200001 66537.28890323  3436.31844810
0.31300001 65442.28725718  4007.03143847
0.31400001 64363.29068616  3345.28219180
0.31500001 63298.08634014  3300.36237804
0.31600002 62248.20545427  2959.90230949
0.31700002 61212.86263423  3503.82442308
0.31800002 60192.22628755  3168.21798066
0.31900002 59186.34431040  3409.13359370
0.32000002 58195.01750560  3922.92631580
0.32100002 57217.24827279  3039.95254467
0.32200002 56255.34793493  5451.14347301
0.32300002 55305.44361387  3494.19809298
0.32400002 54370.84415777  3180.69453384
0.32500002 53450.05206246  2875.07843658
0.32600002 52543.55813667  3092.71397837
0.32700002 51650.26331409  2795.31238292
0.32800002 50771.53113705  3507.80525236
0.32900002 49905.75285928  2470.33488351
0.33000002 49054.48416644  2679.11077962
0.33100002 48214.32698488  2881.28831706
0.33200002 47390.44535878  2367.15285777
0.33300002 46578.47512690  3033.65622867
0.33400002 45780.17704063  2300.45400523
0.33500002 44993.92497876  2948.00210421
0.33600002 44221.78439100  2906.03469887
0.33700002 43461.48220606  2423.84697742
0.33800002 42715.16173009  2172.06607684
0.33900002 41980.24912325  2569.19136801
0.34000002 41258.73921866  2743.49999427
0.34100002 40549.29616815  2288.19689113
0.34200002 39852.95272149  3075.65177194
0.34300002 39167.69882383  3637.89603905
0.34400002 38496.12647341  2191.39210328
0.34500002 37835.42451400  2160.02448780
0.34600002 37187.79955797  2322.75007040
0.34700002 36550.34631558  2289.51380164
0.34800002 35926.29509525  2444.96412850
0.34900002 35313.05298685  2966.29659138
0.35000002 34711.55819845  1827.56362571
0.35100002 34121.95118702  1981.80301881
0.35200002 33542.42537810  1776.07150789
0.35300002 32974.58014754  2101.14034652
0.35400002 32418.20335467  1726.26941040
0.35500002 31872.75786810  2382.80749108
0.35600002 31337.24738548  2517.16451546
0.35700002 30812.84751144  2151.04498666
0.35800002 30299.68568734  1957.96578186
0.35900002 29796.77772906  1609.02607358
0.36000002 29304.66087808  2221.58644639
0.36100002 28821.80242877  2660.54070822
0.36200002 28350.39530507  1698.04700723
0.36300002 27887.80773122  1522.67437425
0.36400002 27435.41366503  2253.13345397
0.36500002 26992.57739971  1630.08182638
0.36600002 26559.87211876  1608.33313234
0.36700002 26136.11722146  1586.98511286
0.36800002 25723.29453275  2420.43351371
0.36900002 25318.67481813  1686.22382276
0.37000002 24922.96638112  1525.65945929
0.37100002 24536.37870167  1779.86899533
0.37200002 24159.52103303  1486.89779241
0.37300002 23790.79651572  1601.59649731
0.37400002 23430.90948590  1581.58646522
0.37500002 23079.98969251  2082.73836851
0.37600002 22737.69240705  1800.14319314
0.37700002 22403.24935595  1651.34358825
0.37800002 22077.09961032  1882.62475845
0.37900002 21759.57900288  1240.29606192
0.38000002 21449.97694346  1838.79936059
0.38100002 21147.28345226  2059.95697867
0.38200002 20853.38081447  1317.82946300
0.38300002 20566.42835320  1303.08896219
0.38400002 20287.97339266  1405.95662272
0.38500002 20015.63129285  1274.79561743
0.38600002 19751.95342465  1490.58123581
0.38700002 19494.46757794  1248.03587347
0.38800002 19244.42592384  1235.20353644
0.38900002 19000.75936991  1778.47116128
0.39000002 18765.16080210  1210.63440650
0.39100002 18534.99501730  1634.78663798
0.39200002 18312.18115108  1727.20500800
0.39300002 18095.41136574  1176.38274862
0.39400002 17886.40190241  1695.63098068
0.39500002 17682.41624928  1260.40268996
0.39600002 17484.78069172  1145.34061347
0.39700002 17293.09172685  1135.63738751
0.39800002 17107.56143010  1126.27636011
0.39900002 16927.66717863  1015.66007884
0.40000002 16753.45190860  1108.49219805
0.40100002 16585.08335487  1100.08863105
0.40200002 16422.44932535  1489.10566313
0.40300002 16264.55369410  1084.19520062
0.40400002 16112.45823160  1468.24782592
0.40500002 15965.60196935  1069.53572660
0.40600002 15823.75251540  1159.24816420
0.40700002 15686.89163177  1344.05293869
0.40800002 15555.02055713  1526.88089023
0.40900002 15427.72242675  1043.68547162
0.41000002 15305.64708463  1321.03046247
0.41100002 15187.72176534  1126.32149948
0.41200002 15074.15257290  1027.22817575
0.41300002 14965.68283535  929.36894811
0.41400002 14861.01901889  1480.15756442
0.41500002 14760.85532311  1105.29289897
0.41600002 14664.16054733  1008.96761427
0.41700002 14572.00708301  1187.76435362
0.41800002 14484.55641799  1183.46073821
0.41900002 14399.14444910  997.86075761
0.42000002 14318.78756882  1085.07777338
0.42100002 14242.27368600  1262.15035386
0.42200002 14169.33860694  1078.85349265
0.42300002 14099.34312882  986.39009203
0.42400002 14032.80004988  1162.96835924
0.42500002 13969.93755324  1428.28648312
0.42600002 13909.56978337  1069.08958421
0.42700002 13853.51193630  1156.21416099
0.42800002 13799.72788692  888.01253160
0.42900002 13750.09697303  886.88129679
0.43000002 13702.69930840  1240.23137317
0.43100002 13657.34948526  973.49591744
0.43200002 13615.89990856  972.78801506
0.43300002 13576.89209750  1060.62686092
0.43400002 13540.66466103  1060.23409320
0.43500002 13506.71168799  971.67288488
0.43600002 13475.65431236  1324.99377305
0.43700002 13446.41458894  971.77242839
0.43800002 13419.56919832  1060.41440830
0.43900002 13395.76500247  972.53258527
0.44000002 13373.58653548  973.12907037
0.44100002 13353.97779082  1239.51627728
0.44200002 13336.24058885  886.19322913
0.44300002 13320.60079291  1330.72808228
0.44400002 13307.34713067  1065.91855568
0.44500002 13294.72603836  1156.24237835
0.44600002 13284.34428600  1157.92992457
0.44700002 13276.84394953  892.20395569
0.44800002 13269.48453956  1251.17975653
0.44900002 13265.43124283  1522.20830726
0.45000002 13262.42111982  1256.08396379
0.45100002 13260.65068468  1438.51545445
0.45200002 13260.61286745  1261.48216187
0.45300002 13261.62365998  1174.05159826
0.45400002 13264.55116441  1357.95848981
0.45500002 13268.70440861  1089.09530947
0.45600002 13274.07234436  1000.93147256
0.45700002 13280.71536618  1003.62370779
0.45800002 13288.12079627  1006.37587620
0.45900002 13296.82993101  1009.22943960
0.46000002 13307.39746232  1472.33052501
0.46100002 13317.77890213  1476.67539466
0.46200002 13330.20837633  1203.51792030
0.46300002 13343.47634267  1021.57659721
0.46400002 13356.91420370  1397.46721480
0.46500002 13371.89929402  1121.63496594
0.46600002 13387.28478706  1500.44695005
0.46700002 13403.22170331  1317.26869143
0.46800002 13420.98075967  1038.58264531
0.46900002 13438.32173474  1421.10259080
0.47000002 13456.68103540  1235.92892827
0.47100002 13475.63237027  1049.48229874
0.47200002 13495.44455927  1149.00220424
0.47300002 13515.85346571  1249.27039505
0.47400002 13536.06957387  1157.33400342
0.47500002 13557.17164662  1161.57852174
0.47600002 13579.29705717  1457.39812574
0.47700002 13600.83589900  1267.73397423
