# SAXS profile: number of points = 501, q_min = 0, q_max = 0.5, delta_q = 0.001
#    q    intensity    error
0.00000000 1664650.74656090 349.57665678
0.00100000 1664564.18977758 848.92775695
0.00200000 1664304.49779862 823.83075250
0.00300000 1663871.87070256 1297.82010538
0.00400000 1663266.20307940 1746.42957959
0.00500000 1662488.12627470 1496.23937287
0.00600000 1661537.51389861 2093.53735274
0.00700000 1660415.08378561 1992.49818335
0.00800000 1659120.63218208 3135.73812721
0.00900000 1657655.58429344 2486.48348273
0.01000000 1656019.26312442 3005.67509235
0.01100000 1654213.30318977 4168.61770554
0.01200000 1652237.64547163 3221.86354993
0.01300000 1650093.55229069 4851.27525770
0.01400000 1647781.24024587 4449.00954589
0.01500000 1645302.13078134 5133.34287662
0.01600000 1642656.12563278 5445.40529990
0.01700000 1639845.32228001 6641.37385316
0.01800000 1636870.10386845 6531.11200832
0.01900000 1633731.55343267 6861.67283403
0.02000000 1630430.45635498 7190.19863778
0.02100000 1626969.47574697 6442.79941606
0.02200000 1623347.27749993 6160.60319800
0.02300000 1619567.01749233 6413.48568120
0.02400000 1615629.26924238 7270.33204310
0.02500000 1611536.36107811 7541.99051429
0.02600000 1607288.70844898 8462.37543704
0.02700000 1602888.33918784 11444.62326598
0.02800000 1598335.59143439 10429.14021239
0.02900000 1593633.88199637 8605.62335790
0.03000000 1588783.95104317 9604.19942552
0.03100000 1583787.16941537 9882.83239189
0.03200000 1578644.89379164 7814.29258418
0.03300000 1573361.17619172 11233.79931589
0.03400000 1567934.70678841 12347.48638568
0.03500000 1562369.46384432 13498.87279097
0.03600000 1556666.03279063 12095.29563375
0.03700000 1550827.68415219 11491.63367103
0.03800000 1544855.48659716 9941.14551632
0.03900000 1538752.21576607 10155.76509437
0.04000000 1532518.02191214 9424.98627150
0.04100000 1526157.01909418 10576.26863271
0.04200000 1519670.62812013 16663.18921039
0.04300000 1513060.66497882 12982.06110812
0.04400000 1506330.05528197 14234.81968351
0.04500000 1499480.98472993 11381.06120292
0.04600000 1492514.25924171 15783.33902520
0.04700000 1485433.67451786 13903.65984012
0.04800000 1478241.06658878 15211.10128294
0.04900000 1470939.00439174 16548.06456968
0.05000000 1463529.17935676 16793.99811515
0.05100000 1456015.44788212 18171.07363605
0.05200000 1448397.47024699 16120.66459509
0.05300000 1440680.06555434 11669.50907500
0.05400000 1432864.71633503 11821.13446103
0.05500000 1424954.95877370 13166.58443328
0.05600000 1416951.06242467 15749.41179378
0.05700000 1408858.73771727 15934.19306737
0.05800000 1400676.92107274 13635.59046332
0.05900000 1392409.65299241 20050.69993958
0.06000000 1384060.90051109 15196.98939760
0.06100000 1375631.57480649 17910.72394097
0.06200000 1367124.82069647 16795.12920732
0.06300000 1358543.65616720 14346.22167989
0.06400000 1349887.94888823 14477.54892889
0.06500000 1341163.55609463 15933.02379172
0.06600000 1332372.09274136 16068.40819028
0.06700000 1323514.61683421 13499.84972349
0.06800000 1314595.57612158 16327.27781969
0.06900000 1305618.10287009 13708.99072198
0.07000000 1296582.15071194 17951.18071723
0.07100000 1287491.94068519 19466.87905495
0.07200000 1278349.44383755 15397.71977236
0.07300000 1269158.09846059 16905.18666360
0.07400000 1259920.99569687 21261.16779877
0.07500000 1250638.49970463 22811.64730385
0.07600000 1241314.08538984 22939.48537342
0.07700000 1231951.50987839 18737.98334385
0.07800000 1222551.94371081 17384.68945484
0.07900000 1213117.09544101 20380.36815932
0.08000000 1203652.58370648 17549.25549369
0.08100000 1194158.90742740 23501.04840080
0.08200000 1184637.21634777 16223.60743918
0.08300000 1175091.70259224 23689.84983607
0.08400000 1165524.85052927 22290.66381267
0.08500000 1155938.61141477 14911.60878728
0.08600000 1146335.72604181 22439.52289084
0.08700000 1136717.97849172 19506.08142688
0.08800000 1127087.67436087 16551.28327530
0.08900000 1117447.86866181 16594.10162905
0.09000000 1107800.74402408 16633.62895289
0.09100000 1098148.00133634 18185.33175650
0.09200000 1088491.82425938 16702.90782808
0.09300000 1078836.44064848 16732.75398077
0.09400000 1069180.44301086 16759.40423184
0.09500000 1059528.13314116 16782.92641780
0.09600000 1049881.21376919 25968.81304332
0.09700000 1040244.64104079 19879.07602486
0.09800000 1030616.59665625 22956.98576990
0.09900000 1021001.84246505 16846.53119284
0.10000000 1011399.43986108 18387.24268137
0.10100000 1001813.35854007 16860.51961721
0.10200000 992245.57486625 18396.23382331
0.10300000 982697.23512125 15330.07758903
0.10400000 973171.12087265 18392.93504979
0.10500000 963670.58459109 22983.54452386
0.10600001 954192.14668738 18377.74160994
0.10700001 944743.31153064 16835.32660371
0.10800001 935322.02254908 18351.01894604
0.10900001 925932.60315326 18333.46640531
0.11000001 916575.65115675 22891.47796513
0.11100001 907251.95560651 15241.83357167
0.11200001 897964.90078086 27396.91041259
0.11300001 888714.06436529 21275.81570259
0.11400001 879502.64838404 19722.84781865
0.11500001 870331.72446775 24230.03635013
0.11600001 861202.67474017 19648.33994947
0.11700001 852116.84985143 15082.46895268
0.11800001 843074.89166901 16553.77627758
0.11900001 834078.36813300 16514.75246691
0.12000001 825128.61208076 16473.69351618
0.12100001 816228.68392152 16430.68418136
0.12200001 807377.73227630 17875.34383473
0.12300001 798578.27674058 17824.26797663
0.12400001 789830.02988929 19252.10788566
0.12500001 781134.15140291 20668.81062005
0.12600001 772494.19296990 22074.02260432
0.12700001 763908.24202608 20533.85451335
0.12800001 755378.31566519 19001.54242609
0.12900001 746905.93595957 21846.99965651
0.13000001 738491.50773930 17413.63057328
0.13100001 730135.01632309 18793.67620605
0.13200001 721838.21840629 15840.74044966
0.13300001 713602.80959763 18646.44229384
0.13400001 705427.63125780 15713.40122709
0.13500001 697315.09845877 14225.22867925
0.13600001 689264.28323281 18413.69619478
0.13700001 681277.39636750 15512.68704676
0.13800001 673353.15912603 18251.23823876
0.13900001 665494.55551995 13975.38632497
0.14000001 657700.31496529 15301.39854929
0.14100001 649971.32916807 16613.26795707
0.14200001 642307.78324479 15155.25286046
0.14300001 634711.70563637 15080.75083724
0.14400001 627179.69672036 15005.27495183
0.14500001 619716.84045689 17643.33928008
0.14600001 612320.31174247 22952.82796845
0.14700001 604993.22948692 16117.02039388
0.14800001 597731.04850400 13359.28956434
0.14900001 590538.51377823 13287.11718691
0.15000001 583413.37661727 17178.60768503
0.15100001 576356.84632180 18397.31140267
0.15200001 569369.33083503 15680.43211111
0.15300001 562451.06257732 15591.14419037
0.15400001 555599.40030901 16792.99266682
0.15500001 548817.92487332 15410.80805772
0.15600001 542102.80417894 14043.17380502
0.15700001 535459.82815255 20304.63764186
0.15800001 528881.61035864 12613.82700241
0.15900001 522374.52298965 15044.38697221
0.16000001 515933.23350603 16197.72463049
0.16100001 509563.20143806 17335.34093122
0.16200001 503260.01896743 13535.17884907
0.16300001 497024.71587567 15894.85116407
0.16400001 490857.39555050 15793.33744743
0.16500001 484757.08795990 13277.49726607
0.16600001 478724.95376255 13191.26672373
0.16700001 472758.43275990 14296.21568165
0.16800001 466857.86013745 14201.81677594
0.16900001 461026.18459706 14107.40191479
0.17000001 455259.02777510 17516.09192075
0.17100001 449557.28539012 16238.00991507
0.17200001 443921.83806642 14975.70391437
0.17300001 438350.87898629 20593.72526730
0.17400001 432844.72455211 18179.47928973
0.17500001 427402.55235321 11283.42791501
0.17600001 422022.74848512 11204.70450147
0.17700001 416707.90113640 11126.10148583
0.17800001 411454.81342415 13257.07471469
0.17900001 406264.20250716 15356.78758013
0.18000001 401135.76257919 13069.00376214
0.18100001 396069.89095846 12975.25024070
0.18200001 391062.37971684 10734.66283031
0.18300001 386116.07094678 13853.84528002
0.18400001 381229.23361233 14810.75642551
0.18500001 376403.10654783 11551.81188568
0.18600001 371634.05571988 15636.50363314
0.18700001 366922.89178688 10347.22603724
0.18800001 362269.27579011 11297.36789927
0.18900001 357674.42053591 12232.46576028
0.19000001 353132.10993912 12140.68251334
0.19100001 348649.84445285 16065.78559150
0.19200001 344219.81357590 15944.26251822
0.19300001 339846.47525106 12856.39276625
0.19400001 335525.10728775 15702.57576307
0.19500001 331257.94569321 9738.98406360
0.19600001 327043.44239869 11596.96101549
0.19700001 322880.78012821 14384.33943448
0.19800001 318769.99178179 12369.87011568
0.19900001 314710.44801638 11329.57666403
0.20000001 310699.65452396 14051.39253993
0.20100001 306740.17135314 10223.65039439
0.20200001 302827.97834654 12909.55732706
0.20300001 298965.96708318 10978.03083017
0.20400001 295151.03071199 9983.48408571
0.20500001 291382.59607404 9904.09490869
0.20600001 287661.00588798 11611.43705152
0.20700001 283985.89476886 9746.39636917
0.20800001 280354.59126431 12304.76359224
0.20900001 276770.40889809 15692.88292634
0.21000001 273228.48489787 9512.45015139
0.21100001 269730.48104724 10292.91564334
0.21200001 266275.04202368 11059.73439330
0.21300001 262861.14595105 10125.41182072
0.21400001 259489.99292290 9205.40793414
0.21500001 256160.57281287 11619.44413213
0.21600001 252870.47408054 13169.49491275
0.21700001 249620.55119596 8162.59241003
0.21800001 246410.28632044 9713.49394601
0.21900001 243237.69208302 8829.52864009
0.22000001 240103.11803896 10347.24436113
0.22100001 237007.71465088 11838.53590658
0.22200001 233949.34626865 7825.60600272
0.22300001 230926.19706990 10086.85676497
0.22400001 227938.56289536 9231.51223379
0.22500001 224988.90059375 9915.26131803
0.22600001 222071.73413325 8317.69719529
0.22700001 219191.21869296 7496.34003379
0.22800001 216343.43458265 7431.39732935
0.22900001 213528.15989750 7366.72186484
0.23000001 210746.86658651 8032.61719982
0.23100001 207998.79905732 8686.03025942
0.23200001 205281.01006183 9326.94313326
0.23300001 202595.20060298 9955.52862847
0.23400001 199941.14440687 8457.51080841
0.23500001 197316.06737611 9080.48585012
0.23600001 194722.56332313 7614.62619890
0.23700001 192157.85789359 8918.04660665
0.23800001 189622.86431027 8837.37400918
0.23900001 187116.14112830 9430.65395893
0.24000001 184637.89025466 10679.45607747
0.24100001 182188.79430524 9920.18031916
0.24200001 179766.56573355 7207.74079403
0.24300001 177371.60236154 7140.98104886
0.24400001 175003.21673174 7717.64222294
0.24500001 172661.31021680 9556.80397258
0.24600001 170345.58444142 8204.69546275
0.24700001 168056.03641333 8127.19030541
0.24800001 165791.64563665 6811.55008321
0.24900001 163551.45840276 6133.17998025
0.25000001 161337.19708513 6681.78033338
0.25100001 159146.02228498 7218.86391236
0.25200001 156980.47597175 6553.15027947
0.25300001 154838.68331531 7669.16034744
0.25400001 152719.64816865 6425.67950070
0.25500001 150623.70613000 6940.74070685
0.25600001 148551.24027083 7444.64575840
0.25700001 146500.60272435 6803.48831241
0.25800001 144473.13796090 6735.33801041
0.25900001 142467.69886391 7778.73672602
0.26000001 140484.11489518 6049.94869422
0.26100001 138521.26163248 9798.99451153
0.26200001 136580.92511620 5926.92952586
0.26300001 134660.84178763 5865.82654583
0.26400001 132761.81500731 6860.46711513
0.26500001 130884.14188989 5744.50525937
0.26600001 129025.84629120 5684.23392733
0.26700001 127188.84665388 8692.08619164
0.26800001 125372.33541404 6576.40616535
0.26900001 123573.97218702 5505.22072145
0.27000001 121796.58189533 4951.03128834
0.27100001 120037.97869388 6856.56966747
0.27200001 118300.16253895 7266.58782783
0.27300001 116580.48155273 7187.18702785
0.27400001 114878.01056649 7581.94905620
0.27500001 113197.18352619 5623.63634372
0.27600001 111532.81529205 5097.60756417
0.27700001 109888.22703953 5498.80714130
0.27800001 108261.01556270 5889.94083044
0.27900001 106653.39540400 4927.38710087
0.28000001 105062.08965607 6199.71420403
0.28100001 103489.59275591 6128.65397307
0.28200001 101935.51643787 6490.74431639
0.28300001 100398.38491908 4704.66853998
0.28400001 98878.50965297  5495.17343405
0.28500001 97376.57153584  4595.20062827
0.28600001 95891.62937294  5366.57529187
0.28700001 94423.84868869  5302.84359335
0.28800001 92972.26584045  6045.52187243
0.28900001 91539.69840248  4380.17477589
0.29000001 90122.13374712  4327.21445669
0.29100001 88722.11247074  3886.02871016
0.29200001 87338.72039381  5373.95172021
0.29300001 85971.79931526  4928.76348805
0.29400001 84620.57100262  4118.90648853
0.29500001 83286.77873969  4437.51978131
0.29600001 81968.58553038  3651.70065824
0.29700001 80666.38604146  5048.10267744
0.29800001 79380.27667340  5696.32892374
0.29900001 78110.63780355  4920.97041458
0.30000001 76856.02709814  4164.05974530
0.30100001 75618.55636830  4453.17699534
0.30200001 74394.66224867  5071.85633891
0.30300001 73188.11897982  4338.59189852
0.30400001 71996.97004963  3623.24768928
0.30500001 70820.65515848  3900.80187080
0.30600001 69658.97101903  4490.91407421
0.30700001 68513.72990594  3165.33447151
0.30800001 67383.05024989  3123.20452695
0.30900001 66267.82206066  3389.59925888
0.31000001 65167.68510617  3648.08718496
0.31100001 64081.63759999  5398.23740700
0.31200001 63011.10764490  4733.39463039
0.31300001 61954.69339361  4085.29267580
0.31400001 60913.95669719  3741.63996728
0.31500001 59887.07107757  2838.64730348
0.31600002 58875.07773840  3919.31411062
0.31700002 57877.42740401  3865.05478504
0.31800002 56893.94983927  3811.32588019
0.31900002 55924.99073442  3489.71958706
0.32000002 54970.40191647  2911.50747536
0.32100002 54029.17138252  3131.53092161
0.32200002 53103.16303772  3859.27255650
0.32300002 52189.66668695  2790.05971320
0.32400002 51290.27415401  2500.40098341
0.32500002 50404.76364615  2957.75167081
0.32600002 49533.29297817  2915.52976275
0.32700002 48674.73558496  3113.23623543
0.32800002 47830.61675150  3068.57336300
0.32900002 46999.10855896  3024.39277898
0.33000002 46181.82193381  2522.22032435
0.33100002 45375.23184440  3389.52997929
0.33200002 44585.05301325  2895.13055451
0.33300002 43806.25069332  2414.16259003
0.33400002 43040.80586538  2811.64077630
0.33500002 42287.38135416  2983.79776965
0.33600002 41547.61766289  2100.23217232
0.33700002 40819.46720892  2690.41121115
0.33800002 40104.91780467  2447.20220033
0.33900002 39401.90685379  2210.44707918
0.34000002 38711.67914047  2178.11272999
0.34100002 38033.52056652  2341.34363696
0.34200002 37368.02301952  2114.84336295
0.34300002 36713.52276039  2273.30143699
0.34400002 36072.29413470  2613.43783383
0.34500002 35441.99561504  2575.21552335
0.34600002 34824.44097094  2175.13468606
0.34700002 34216.82243549  2321.95368044
0.34800002 33622.17345965  2464.16920956
0.34900002 33038.30252618  2081.41315773
0.35000002 32465.84069955  1880.25925317
0.35100002 31905.23770633  2021.51595682
0.35200002 31354.26600127  2158.27100242
0.35300002 30814.86665337  1963.52339615
0.35400002 30286.62694300  1774.03925721
0.35500002 29769.07053783  1748.63528621
0.35600002 29261.27581198  2507.10623032
0.35700002 28764.53021845  1853.58641507
0.35800002 28278.80878555  1979.65810280
0.35900002 27803.03067505  1651.50010032
0.36000002 27337.68650776  1924.43653287
0.36100002 26881.76547897  2043.55190851
0.36200002 26436.64115877  1583.42269721
0.36300002 26000.54199564  1845.51855827
0.36400002 25574.13155029  1820.23889931
0.36500002 25157.36938210  1933.59550230
0.36600002 24750.28647193  1907.50466875
0.36700002 24351.96500697  1478.65138526
0.36800002 23964.54215640  1459.08121831
0.36900002 23585.05086282  1308.97038489
0.37000002 23214.31809494  1421.06454950
0.37100002 22852.24796208  1912.73324503
0.37200002 22499.99249409  1636.53703158
0.37300002 22155.74151817  1367.23087385
0.37400002 21819.97880914  1472.84863939
0.37500002 21493.07276813  1333.43029770
0.37600002 21174.71122964  1317.17297444
0.37700002 20863.93229266  1182.98501703
0.37800002 20561.00975571  1519.56149798
0.37900002 20266.79545711  1386.24887494
0.38000002 19980.31870152  1141.87526789
0.38100002 19700.58994660  1467.49701464
0.38200002 19429.47984835  1562.71313823
0.38300002 19165.11440214  1435.08383442
0.38400002 18908.92857909  1091.99067717
0.38500002 18658.90063144  1080.35039774
0.38600002 18416.99970718  1176.01757202
0.38700002 18181.66747966  1269.80771694
0.38800002 17953.20671047  1361.84055954
0.38900002 17731.16717550  1141.00066180
0.39000002 17516.82896063  1130.09827393
0.39100002 17308.02688067  1323.02563744
0.39200002 17106.23170165  1109.25364725
0.39300002 16910.51425649  1399.17601587
0.39400002 16722.13878347  990.78676986
0.39500002 16538.64906030  1277.11454094
0.39600002 16361.35361001  1364.04611509
0.39700002 16189.84782969  966.53396123
0.39800002 16024.60314910  1246.79430709
0.39900002 15864.57974701  951.87482992
0.40000002 15709.97831186  1039.45076425
0.40100002 15561.31168525  1313.68599471
0.40200002 15418.07906839  1118.42750861
0.40300002 15279.50403700  1111.12558622
0.40400002 15146.51518023  1012.16592488
0.40500002 15018.72880518  1463.42500411
0.40600002 14895.62446130  1364.06687467
0.40700002 14777.45771263  1266.13263681
0.40800002 14664.12749684  899.64426456
0.40900002 14555.17944567  895.14357832
0.41000002 14451.27689820  1069.10551559
0.41100002 14351.52439835  1241.69394978
0.41200002 14255.84025773  1324.72401872
0.41300002 14165.13705679  879.65505291
0.41400002 14077.97541895  1051.62481362
0.41500002 13995.28706588  1047.96714515
0.41600002 13915.94559382  870.44243814
0.41700002 13840.80416111  1041.38215443
0.41800002 13770.52872025  1038.57332529
0.41900002 13701.90412924  1122.18600136
0.42000002 13638.10269925  947.37084889
0.42100002 13578.38930475  1117.36570883
0.42200002 13521.81505368  1201.14288813
0.42300002 13468.07464243  1456.16829934
0.42400002 13417.64542066  940.91242971
0.42500002 13370.82667158  1025.27503776
0.42600002 13326.15848766  1024.24858990
0.42700002 13285.97273482  1108.84733699
0.42800002 13247.58295249  937.73020373
0.42900002 13213.41067435  1363.62404621
0.43000002 13181.26066964  1022.60225121
0.43100002 13150.93094280  1193.05251167
0.43200002 13124.41763197  1534.37573806
0.43300002 13100.33472144  938.11501386
0.43400002 13078.59425857  1024.05397897
0.43500002 13059.20433984  1024.88640516
0.43600002 13042.45282754  1025.91938803
0.43700002 13027.58854389  1283.86891184
0.43800002 13014.74491966  857.02099357
0.43900002 13004.85137269  1373.31237004
0.44000002 12996.50044350  1289.57781762
0.44100002 12990.43015077  1119.64522775
0.44200002 12986.19831612  949.22621090
0.44300002 12983.99323911  1124.15418792
0.44400002 12983.79700044  1126.66903811
0.44500002 12984.27554511  1042.37769016
0.44600002 12986.90078644  1044.92608680
0.44700002 12992.12729670  960.37809529
0.44800002 12997.30507933  1137.97910015
0.44900002 13005.95012698  1316.85251276
0.45000002 13015.07491698  1144.61081782
0.45100002 13025.46890475  1236.37756703
0.45200002 13037.48615183  1063.07667120
0.45300002 13050.40065935  1244.22525783
0.45400002 13065.15481361  1070.03622995
0.45500002 13080.89439546  1342.09982858
0.45600002 13097.71679022  1436.55764563
0.45700002 13115.63485008  991.14857259
0.45800002 13134.26500282  994.72360713
0.45900002 13154.00765693  1089.15188561
0.46000002 13175.47714160  1093.30114503
0.46100002 13196.76631569  914.53594902
0.46200002 13219.66390932  1101.72684242
0.46300002 13243.50271215  1106.09739894
0.46400002 13267.25432692  1017.93013648
0.46500002 13292.33956818  929.13457985
0.46600002 13317.82003131  1119.49600489
0.46700002 13343.66047446  1686.10501747
0.46800002 13371.15963542  940.66112494
0.46900002 13398.17719235  1133.48584420
0.47000002 13425.94195136  1138.25141259
0.47100002 13454.35036525  1143.08166121
0.47200002 13483.28341580  956.63900369
0.47300002 13512.71886284  1248.98066369
0.47400002 13541.84541574  1061.34218476
0.47500002 13571.77066385  1744.24404839
0.47600002 13602.39836504  1362.55230881
0.47700002 13632.49594822  1075.19500640
