# SAXS profile: number of points = 501, q_min = 0, q_max = 0.5, delta_q = 0.001
#    q    intensity    error
0.00000000 1700912.83420643 408.21908021
0.00100000 1700825.38040390 612.29715149
0.00200000 1700562.99159295 1300.93072976
0.00300000 1700125.87640125 1224.09067461
0.00400000 1699513.92874421 1402.09904449
0.00500000 1698727.78099574 1834.62607609
0.00600000 1697767.29209796 2852.24916685
0.00700000 1696633.21626619 2850.34392179
0.00800000 1695325.30216089 3661.90280727
0.00900000 1693845.01442425 2540.76763025
0.01000000 1692191.66253387 3071.32800012
0.01100000 1690366.94053573 3651.19275053
0.01200000 1688370.68760699 5596.94907481
0.01300000 1686204.22573048 3541.02903021
0.01400000 1683867.79889639 4546.44325857
0.01500000 1681362.82198808 6052.90642869
0.01600000 1678689.15070204 6420.98628848
0.01700000 1675848.90078647 4977.27145861
0.01800000 1672842.57902261 5244.36172122
0.01900000 1669671.11511924 5509.91492852
0.02000000 1666335.31020507 7348.53905042
0.02100000 1662837.98843278 6584.83873274
0.02200000 1659177.69426955 7441.41229688
0.02300000 1655357.56950282 5959.28752147
0.02400000 1651378.18725225 9289.00272685
0.02500000 1647242.02501817 7709.09302916
0.02600000 1642949.42243816 6653.94546521
0.02700000 1638502.29562506 8258.05194818
0.02800000 1633901.20699962 8528.96469167
0.02900000 1629149.51473433 8797.40778349
0.03000000 1624247.73377072 9818.57800196
0.03100000 1619197.58528338 8549.36364368
0.03200000 1614000.20220996 9587.16164269
0.03300000 1608659.86132595 9024.58223808
0.03400000 1603175.18142392 10100.00410899
0.03500000 1597549.82702928 12077.47725006
0.03600000 1591784.80765519 9717.84669983
0.03700000 1585883.17313068 10847.44140588
0.03800000 1579846.21870111 13863.15121068
0.03900000 1573676.61974060 10386.26617128
0.04000000 1567374.52539256 12531.15991119
0.04100000 1560943.74077494 13767.52443199
0.04200000 1554386.44607942 12030.95165080
0.04300000 1547703.90659972 14300.78476079
0.04400000 1540898.89936937 10401.06805379
0.04500000 1533974.22861217 10584.42266923
0.04600000 1526930.35702726 15070.80332445
0.04700000 1519770.95502949 17507.76221619
0.04800000 1512498.19657296 13340.23471447
0.04900000 1505114.46250907 16932.53849139
0.05000000 1497621.47922922 12602.48533456
0.05100000 1490023.22682932 12784.39988174
0.05200000 1482319.11722177 14141.32503730
0.05300000 1474514.48778887 13137.92469866
0.05400000 1466610.16227599 16939.34816423
0.05500000 1458610.17003519 18378.48899979
0.05600000 1450514.60642335 18602.85069547
0.05700000 1442329.40219195 12548.26638480
0.05800000 1434053.26118206 15229.64634486
0.05900000 1425690.25453777 14114.33417915
0.06000000 1417244.40289385 18154.90164925
0.06100000 1408716.89427335 19651.60159346
0.06200000 1400110.48514565 13231.04470309
0.06300000 1391428.57031720 13357.71489959
0.06400000 1382670.69996555 13481.03995513
0.06500000 1373842.77105183 14961.14847660
0.06600000 1364946.79603883 16461.25913043
0.06700000 1355983.44338643 17980.34130077
0.06800000 1346957.32049919 26487.91694749
0.06900000 1337871.82196363 18261.95122481
0.07000000 1328726.28172444 15566.02911934
0.07100000 1319525.44965098 18526.13818082
0.07200000 1310271.39772991 14347.47247728
0.07300000 1300967.28955704 20217.03262700
0.07400000 1291616.30889562 24702.16306527
0.07500000 1282218.83501778 21925.94310653
0.07600000 1272778.31291519 14700.59020334
0.07700000 1263298.49141364 14780.59304258
0.07800000 1253780.92413135 16343.03511248
0.07900000 1244226.92183095 19409.94089096
0.08000000 1234642.05737581 19501.17221107
0.08100000 1225027.28809325 24108.53816080
0.08200000 1215383.64720127 18157.83254125
0.08300000 1205714.94655098 19749.61175139
0.08400000 1196024.09819165 18299.16956127
0.08500000 1186312.89946826 15303.43712156
0.08600000 1176584.22524180 16889.86734635
0.08700000 1166839.93342977 15402.28784453
0.08800000 1157081.88961700 18536.45274221
0.08900000 1147313.54668972 17037.60696859
0.09000000 1137537.25135979 17080.12263151
0.09100000 1127754.63962724 20231.91918543
0.09200000 1117967.62937480 20274.34391134
0.09300000 1108180.65829024 15625.34801616
0.09400000 1098392.11808709 23478.13262752
0.09500000 1088606.88328364 21946.31579853
0.09600000 1078826.17437522 21975.69020505
0.09700000 1069054.96475866 17286.61959284
0.09800000 1059291.64253347 15730.48163123
0.09900000 1049541.15581880 33060.54796288
0.10000000 1039802.01840863 23629.50197956
0.10100000 1030078.86469874 22064.29031957
0.10200000 1020373.54762238 15764.77205228
0.10300000 1010686.84820207 15766.71557363
0.10400000 1001021.60280340 15766.09098587
0.10500000 991381.55679228 23644.45124195
0.10600001 981762.87911578 26787.40141712
0.10700001 972173.93764559 17324.14038408
0.10800001 962611.37667571 22034.17544907
0.10900001 953080.26052539 15725.82503882
0.11000001 943581.37283743 18852.75671668
0.11100001 934115.08380713 25109.01463470
0.11200001 924685.21830935 21942.78126348
0.11300001 915290.96998490 23477.21448544
0.11400001 905935.77873065 18752.87150269
0.11500001 896620.80742806 18721.44334065
0.11600001 887347.24676761 17130.23940554
0.11700001 878116.68729199 21759.73253587
0.11800001 868929.34801087 17061.42855176
0.11900001 859787.45308590 23214.26232675
0.12000001 850691.99822473 18528.07259410
0.12100001 841645.95914452 18482.54613349
0.12200001 832648.63268925 19971.07839592
0.12300001 823702.62059687 18385.04335792
0.12400001 814807.44853120 16805.40441778
0.12500001 805964.61788880 19802.55159463
0.12600001 797177.32705771 18223.47455529
0.12700001 788444.15647987 19679.56707316
0.12800001 779766.57393494 33194.66461685
0.12900001 771146.53919704 16541.09404539
0.13000001 762584.34016362 16483.26128957
0.13100001 754079.78390460 16423.85846762
0.13200001 745634.81962152 17850.49842322
0.13300001 737251.28563243 14818.75153981
0.13400001 728927.70993300 22141.18023307
0.13500001 720667.17897524 19112.09448752
0.13600001 712467.76456809 19033.57722788
0.13700001 704332.88467700 18953.59882038
0.13800001 696259.98385038 20323.82988698
0.13900001 688253.02755064 15898.64568617
0.14000001 680310.57001901 21582.85385171
0.14100001 672433.18481754 18619.67576576
0.14200001 664621.43257287 14256.13040108
0.14300001 656877.36905172 22701.68294521
0.14400001 649197.13757865 15532.04224921
0.14500001 641586.14376057 19671.03209562
0.14600001 634041.77349853 16776.74611820
0.14700001 626567.13398724 13909.79103073
0.14800001 619157.19557465 15221.98037136
0.14900001 611816.99064910 16519.05952691
0.15000001 604544.48315224 17800.81314631
0.15100001 597340.93520942 17705.18615503
0.15200001 590206.39058943 16254.28476382
0.15300001 583141.65330734 16164.68739248
0.15400001 576143.24932536 18753.46365054
0.15500001 569215.52967625 15983.57282762
0.15600001 562354.05012601 19865.15775824
0.15700001 555565.47793457 15800.28293818
0.15800001 548841.72319565 14398.86328765
0.15900001 542189.07497802 14313.79225504
0.16000001 535602.90041015 14228.29172101
0.16100001 529088.21612449 17999.58196221
0.16200001 522640.68403912 23001.41759037
0.16300001 516261.01500694 13970.02372558
0.16400001 509950.05100309 17669.77010144
0.16500001 503706.13948733 16304.96850498
0.16600001 497531.08846541 16202.10066083
0.16700001 491421.74077272 12383.82845217
0.16800001 485379.09569368 15995.66885384
0.16900001 479405.39721330 12224.83820617
0.17000001 473496.69669694 14574.22901252
0.17100001 467653.78807814 16891.65562303
0.17200001 461877.32051795 16780.00384682
0.17300001 456166.29820472 14287.12913447
0.17400001 450520.46425018 15374.01156859
0.17500001 444938.70636500 11746.38240279
0.17600001 439419.78064203 11666.59572705
0.17700001 433966.68645538 13904.29329074
0.17800001 428575.27700347 16110.14542348
0.17900001 423247.15353015 12570.44105359
0.18000001 417981.43089411 12483.01602329
0.18100001 412779.02987586 11268.86804791
0.18200001 407635.33302693 15665.42658823
0.18300001 402553.68868590 13332.57879910
0.18400001 397531.58099335 12134.65208307
0.18500001 392570.92522683 14238.54813064
0.18600001 387667.90424815 15223.71931905
0.18700001 382823.23323097 12954.73882458
0.18800001 378036.76109567 13932.54548844
0.18900001 373309.51278040 13831.11810200
0.19000001 368635.16843934 14785.95730472
0.19100001 364021.80882218 12580.59430733
0.19200001 359460.90361863 11447.03301662
0.19300001 354957.50938076 15493.89601660
0.19400001 350506.46725121 11277.54611672
0.19500001 346110.37971702 16281.03303125
0.19600001 341767.48099150 13128.99840272
0.19700001 337477.15420506 13029.99353962
0.19800001 333239.19562059 9947.19045937
0.19900001 329053.05490166 13820.22895901
0.20000001 324916.30991224 11755.47264820
0.20100001 320831.53485952 19442.39193138
0.20200001 316794.59293069 10611.03539173
0.20300001 312808.45146905 10529.13297410
0.20400001 308869.90039045 10447.52487452
0.20500001 304978.86986728 12251.00178164
0.20600001 301135.24023157 9350.24965116
0.20700001 297338.56365641 11132.35634951
0.20800001 293586.26850643 10124.32294802
0.20900001 289881.88674563 10044.40785055
0.21000001 286220.19458282 9058.86958678
0.21100001 282603.50418974 10784.15022968
0.21200001 279029.60430737 10697.99553489
0.21300001 275498.17550997 14149.58696312
0.21400001 272010.08189434 11404.02322256
0.21500001 268564.39579692 11311.93288577
0.21600001 265158.72519429 9494.00860444
0.21700001 261793.80947647 13697.05275940
0.21800001 258469.42236556 11037.93720400
0.21900001 255183.18327471 8421.04544623
0.22000001 251935.56084109 8351.66423677
0.22100001 248728.01971241 10767.43648247
0.22200001 245558.12100415 9856.70344318
0.22300001 242424.05384863 9774.53831337
0.22400001 239325.94323162 13731.32664222
0.22500001 236267.05751401 9611.34435416
0.22600001 233241.18197425 10324.42140831
0.22700001 230252.71008190 10237.03597434
0.22800001 227297.14902434 10149.95466967
0.22900001 224375.11208972 7740.94173317
0.23000001 221487.96893512 12279.29357847
0.23100001 218634.49696835 9891.02511062
0.23200001 215811.81322613 8296.88555187
0.23300001 213022.30882659 8224.79173278
0.23400001 210265.00588654 8894.21016966
0.23500001 207537.05857488 12489.58077575
0.23600001 204841.74333168 10194.97404781
0.23700001 202175.80616597 10826.51493226
0.23800001 199540.29999468 10014.92813043
0.23900001 196933.66822905 8507.53486990
0.24000001 194356.17433921 9133.76884510
0.24100001 191808.71888859 7658.92250750
0.24200001 189288.45405122 7589.52092418
0.24300001 186796.55158508 8887.78034483
0.24400001 184331.80698143 7451.61364971
0.24500001 181894.03741378 8725.45738749
0.24600001 179483.51285685 9309.81025229
0.24700001 177099.45993548 7246.91024338
0.24800001 174741.40494679 7179.25096187
0.24900001 172408.20451450 9051.43116521
0.25000001 170101.67355009 8966.05963699
0.25100001 167818.77410892 7612.25995371
0.25200001 165562.33607004 10052.94552178
0.25300001 163330.14432360 6845.16667245
0.25400001 161121.64320974 6779.19345878
0.25500001 158936.62111229 9765.06646314
0.25600001 156775.82546660 7252.45002922
0.25700001 154637.67589914 9575.16534471
0.25800001 152523.30497223 7110.63681424
0.25900001 150431.54977540 6453.51379071
0.26000001 148362.23251456 6389.21984555
0.26100001 146314.62010596 6900.19781069
0.26200001 144289.84399107 6830.68153774
0.26300001 142285.98707888 5634.52535494
0.26400001 140304.21005831 10038.76670469
0.26500001 138344.14565996 7175.91117494
0.26600001 136404.10522713 7101.88007471
0.26700001 134486.03902728 6487.60682967
0.26800001 132589.07139881 8024.95392616
0.26900001 130711.00311728 5823.17546444
0.27000001 128854.33158112 5761.72170931
0.27100001 127017.32884570 5700.53798836
0.27200001 125201.69054584 5639.71041753
0.27300001 123404.76468231 6593.51688901
0.27400001 121625.60581419 6020.46777272
0.27500001 119868.73010033 5458.82222711
0.27600001 118128.96556850 5399.08462683
0.27700001 116409.73646352 8737.71523248
0.27800001 114708.41385052 5760.65681621
0.27900001 113027.18666510 4747.14206461
0.28000001 111363.01090255 6102.13647121
0.28100001 109718.18082160 5569.29512209
0.28200001 108092.31986266 5965.07495395
0.28300001 106484.09762270 6350.71188280
0.28400001 104893.81565950 6277.89516436
0.28500001 103321.86901465 6205.51174674
0.28600001 101767.63184945 7447.86448942
0.28700001 100231.10856927 6494.97614271
0.28800001 98711.38402083  5134.96643982
0.28900001 97211.23615414  4651.55787015
0.29000001 95726.58560262  5014.15879121
0.29100001 94260.31748307  7018.62357201
0.29200001 92810.93453925  4894.84891930
0.29300001 91378.72321565  4432.78207302
0.29400001 89962.86462399  3980.85694805
0.29500001 88564.94495402  5505.19723894
0.29600001 87183.11757531  4272.40887902
0.29700001 85817.90912643  3836.06071954
0.29800001 84469.12096583  5303.81635652
0.29900001 83137.70510342  6734.15443217
0.30000001 81821.80140398  5171.95631158
0.30100001 80523.29949254  4377.24676763
0.30200001 79239.35120681  4681.85728770
0.30300001 77972.89521171  3555.56418998
0.30400001 76722.37897250  5265.07350625
0.30500001 75487.31531508  3811.35473070
0.30600001 74267.57051002  3762.02396229
0.30700001 73064.60920370  3713.14361552
0.30800001 71876.88956755  4997.24098377
0.30900001 70704.95176996  3945.33649555
0.31000001 69548.68452967  3893.33554430
0.31100001 68406.97720844  4161.88069041
0.31200001 67281.30742162  3790.62903960
0.31300001 66170.33144879  3428.28503468
0.31400001 65075.67970642  3997.27381522
0.31500001 63995.02589651  5763.39230512
0.31600002 62929.86719085  4189.24145725
0.31700002 61879.49592771  4132.31293371
0.31800002 60843.93096130  2911.38223435
0.31900002 59823.26409364  3158.66849370
0.32000002 58817.60221255  3398.48121676
0.32100002 57825.60320212  3351.57212029
0.32200002 56849.45594533  3856.09877936
0.32300002 55885.92195685  3259.26712285
0.32400002 54937.32101321  2678.19452621
0.32500002 54002.92193279  3168.89160907
0.32600002 53083.16321824  3384.84806289
0.32700002 52176.68075440  3337.22065908
0.32800002 51284.94192698  3037.09440473
0.32900002 50406.38066801  3493.16234571
0.33000002 49542.56474981  2951.74614757
0.33100002 48689.96117499  3637.14027201
0.33200002 47853.88705476  2868.36212589
0.33300002 47029.70868594  2591.80736842
0.33400002 46219.67016432  2322.53853574
0.33500002 45421.62097916  2747.09976691
0.33600002 44637.97636718  2482.09479344
0.33700002 43866.17581243  3336.02282852
0.33800002 43108.68867458  2192.07692291
0.33900002 42362.71655087  3024.69810498
0.34000002 41630.29645620  2129.38976458
0.34100002 40910.21952677  2308.56379723
0.34200002 40203.27897170  3102.68820158
0.34300002 39507.55416674  2446.30786986
0.34400002 38825.74130942  2812.92509109
0.34500002 38155.06716065  2376.29769531
0.34600002 37497.64050145  1951.75228054
0.34700002 36850.42462932  1923.59225675
0.34800002 36216.71124553  2464.72840055
0.34900002 35594.08789453  2803.03455445
0.35000002 34983.26676605  2026.05599071
0.35100002 34384.64122722  2178.61097134
0.35200002 33796.13237662  2326.35688233
0.35300002 33219.45228971  1940.34830014
0.35400002 32654.41222230  2086.61703983
0.35500002 32100.49617719  2056.99989246
0.35600002 31556.56690713  2196.81050929
0.35700002 31023.91829094  1999.18138936
0.35800002 30502.87119266  2135.35359898
0.35900002 29992.06936980  1943.48618722
0.36000002 29492.03697736  1756.69326576
0.36100002 29001.65420233  1732.26888756
0.36200002 28522.74758018  2174.28915103
0.36300002 28052.83649305  1684.85343958
0.36400002 27593.27103515  1661.80482681
0.36500002 27143.41251660  2235.26012662
0.36600002 26703.78145854  1764.05188671
0.36700002 26273.13698724  1885.36039951
0.36800002 25853.81311013  1574.10948577
0.36900002 25442.67174012  1553.27518331
0.37000002 25040.65312692  1393.51241252
0.37100002 24647.57773694  1650.40188344
0.37200002 24264.78540346  2307.94517298
0.37300002 23890.07268316  1742.30308332
0.37400002 23524.34678825  1323.24456952
0.37500002 23167.69962761  1829.32164925
0.37600002 22819.90261646  1419.51210950
0.37700002 22480.01548311  1529.54032593
0.37800002 22148.39169013  1762.79057812
0.37900002 21825.73967507  1741.69410858
0.38000002 21511.06292748  1966.97168727
0.38100002 21203.42765790  1579.44340106
0.38200002 20904.80992668  1561.27580334
0.38300002 20613.00578383  1306.04010834
0.38400002 20329.98197316  1291.46216603
0.38500002 20053.03417572  1277.17780716
0.38600002 19784.98702410  1607.92597162
0.38700002 19523.32293350  1249.88319342
0.38800002 19269.09250948  1236.78676131
0.38900002 19021.39241283  1669.12726330
0.39000002 18781.88684821  1652.33657375
0.39100002 18547.89471267  1090.61626077
0.39200002 18321.36860959  1188.04920377
0.39300002 18101.02242924  1390.70161913
0.39400002 17888.51470455  1059.89454646
0.39500002 17681.10735148  1260.30939172
0.39600002 17480.08024825  1353.22047653
0.39700002 17285.18065002  1341.50293381
0.39800002 17096.66217279  1227.88233543
0.39900002 16913.67648577  1116.30270095
0.40000002 16736.44933334  1912.72520268
0.40100002 16565.23131864  1897.87864210
0.40200002 16399.97714410  1090.51653186
0.40300002 16239.39061697  1377.74996522
0.40400002 16084.74968102  1074.86344836
0.40500002 15935.46491903  1261.61081742
0.40600002 15791.10027844  964.04671768
0.40700002 15651.97902478  1245.27151021
0.40800002 15517.94789502  1713.64706724
0.40900002 15388.54206791  1135.67445842
0.41000002 15264.37223904  1035.15345244
0.41100002 15144.46521829  1029.52079432
0.41200002 15029.02445869  1210.36254213
0.41300002 14918.65952713  1204.38344069
0.41400002 14812.18098484  1383.08746499
0.41500002 14710.39560160  1101.51447484
0.41600002 14611.99409100  1005.37830107
0.41700002 14518.24660328  1183.38233671
0.41800002 14429.33630699  1178.94897883
0.41900002 14342.45385174  1084.28956257
0.42000002 14260.71981968  1530.95964879
0.42100002 14182.99231210  1256.89683826
0.42200002 14108.80922922  1074.24478562
0.42300002 14037.57358961  1160.62663939
0.42400002 13969.95237374  1603.05211085
0.42500002 13905.92051375  1155.16487182
0.42600002 13844.49186455  1152.76166973
0.42700002 13787.48412355  885.15652268
0.42800002 13732.71511143  972.07028523
0.42900002 13682.23403894  1412.00661973
0.43000002 13633.95528012  969.57877569
0.43100002 13587.73706373  968.53394380
0.43200002 13545.55431929  1055.74055367
0.43300002 13505.86482822  1406.77094717
0.43400002 13468.91162858  878.84652541
0.43500002 13434.34963453  1142.18846005
0.43600002 13402.61365576  966.39550345
0.43700002 13372.91480831  1142.18070790
0.43800002 13345.40323397  966.67432906
0.43900002 13321.12329123  1142.95243255
0.44000002 13298.46255913  1231.57067597
0.44100002 13278.33493178  1056.42437724
0.44200002 13260.23446689  1321.71393312
0.44300002 13244.17320727  882.06197741
0.44400002 13230.43925990  1059.75823494
0.44500002 13217.48856715  1237.95003787
0.44600002 13206.72844239  1328.26677604
0.44700002 13198.96396831  1153.06154692
0.44800002 13191.14371037  1066.10828520
0.44900002 13186.93355964  1157.15347470
0.45000002 13183.55723533  1159.42799601
0.45100002 13181.45879320  1161.81383309
0.45200002 13181.18784780  1164.36028372
0.45300002 13181.87961218  987.45464855
0.45400002 13184.57796026  989.83223728
0.45500002 13188.48614925  1262.92949351
0.45600002 13193.58484286  1356.63042576
0.45700002 13199.99951829  997.52401087
0.45800002 13207.23132926  1000.24971213
0.45900002 13215.66077665  1185.44482785
0.46000002 13226.04414839  1371.87149431
0.46100002 13236.18702095  1008.99458443
0.46200002 13248.39065628  1012.11085216
0.46300002 13261.42732053  1015.29492378
0.46400002 13274.64930589  1018.49751627
0.46500002 13289.30576709  1486.27602743
0.46600002 13304.52943485  1304.77526352
0.46700002 13320.12149622  935.07257335
0.46800002 13337.62572492  1032.13221564
0.46900002 13354.75021490  1035.66092825
0.47000002 13372.79068743  1039.26647753
0.47100002 13391.51587853  1327.36711679
0.47200002 13410.98369894  1141.81120625
0.47300002 13431.03594117  1241.43071088
0.47400002 13450.91547766  1054.21555053
0.47500002 13471.65451206  1250.43903108
0.47600002 13493.42155877  1351.63610161
0.47700002 13514.60257952  1259.69616614
