# SAXS profile: number of points = 501, q_min = 0, q_max = 0.5, delta_q = 0.001
#    q    intensity    error
0.00000000 1682732.95097188 277.65093691
0.00100000 1682645.88291218 605.75253223
0.00200000 1682384.64949801 1059.90236275
0.00300000 1681949.46596408 1412.83760174
0.00400000 1681340.21007587 1261.00520547
0.00500000 1680557.53447828 1663.75202499
0.00600000 1679601.27581382 2645.37211711
0.00700000 1678472.20422064 2215.58340165
0.00800000 1677170.06907566 2490.59765773
0.00900000 1675696.30802069 3518.96239727
0.01000000 1674050.28275038 3590.83801155
0.01100000 1672233.62793995 3311.02272748
0.01200000 1670246.19845943 4559.77232171
0.01300000 1668089.35646347 4203.58536369
0.01400000 1665763.28791406 4872.35783314
0.01500000 1663269.43431037 4790.21618412
0.01600000 1660607.63441424 5504.91455417
0.01700000 1657780.06023531 9847.21399953
0.01800000 1654787.12954875 5659.37223771
0.01900000 1651629.82166099 5945.86762627
0.02000000 1648308.93902803 6749.82541065
0.02100000 1644827.22458909 7599.10212213
0.02200000 1641183.33944406 7926.91588965
0.02300000 1637380.38189238 8252.39750037
0.02400000 1633418.94378456 7962.91771404
0.02500000 1629301.36661145 6354.27561999
0.02600000 1625028.21205161 9872.04683974
0.02700000 1620601.15506033 6806.52516300
0.02800000 1616020.96666778 9138.59898560
0.02900000 1611290.84256957 7975.89003693
0.03000000 1606411.37040635 8963.77585889
0.03100000 1601384.28110620 11529.96735449
0.03200000 1596210.67982341 8691.36755195
0.03300000 1590894.76109138 9736.27638673
0.03400000 1585435.29753222 10820.59640492
0.03500000 1579835.88649092 13649.78268960
0.03600000 1574097.48811613 12230.73804789
0.03700000 1568223.18854102 10726.64710570
0.03800000 1562214.29196647 11880.64024024
0.03900000 1556073.42338298 10270.08506994
0.04000000 1549800.74515861 11437.53002927
0.04100000 1543400.20307762 9723.42173023
0.04200000 1536873.67379436 13877.96991820
0.04300000 1530222.68346849 11109.41719766
0.04400000 1523449.80023300 14396.60128081
0.04500000 1516558.06102498 13603.52643948
0.04600000 1509547.71495466 12770.77426219
0.04700000 1502422.67041069 14062.67684907
0.04800000 1495184.68601084 14286.49033956
0.04900000 1487836.46108575 16738.16096633
0.05000000 1480379.70900245 13589.88636147
0.05100000 1472818.41786405 12636.78261395
0.05200000 1465151.76385607 16307.13989165
0.05300000 1457385.32050981 18887.71463431
0.05400000 1449519.78654519 16741.95431534
0.05500000 1441559.17834007 18163.64649441
0.05600000 1433503.59915862 20835.97578606
0.05700000 1425359.05908232 16120.81171072
0.05800000 1417124.25961937 12541.55028323
0.05900000 1408803.21414566 12679.22951950
0.06000000 1400399.87371917 14095.02538749
0.06100000 1391915.45372540 15533.77718949
0.06200000 1383352.75007721 16994.48932908
0.06300000 1374715.08814885 13197.26546327
0.06400000 1366002.11076656 14650.37332312
0.06500000 1357219.77804345 20154.71464674
0.06600000 1348369.90130612 13551.11814216
0.06700000 1339453.20217194 17761.15029200
0.06800000 1330474.06207073 16524.48862441
0.06900000 1321436.31631282 15262.59016799
0.07000000 1312339.27587343 15374.05533680
0.07100000 1303187.37596824 16889.30918361
0.07200000 1293982.72867408 15586.02269703
0.07300000 1284728.52324738 19964.68218672
0.07400000 1275427.98868406 21522.84831769
0.07500000 1266081.43133337 17319.99479247
0.07600000 1256692.44844525 15966.27830601
0.07700000 1247264.68778184 16052.29728442
0.07800000 1237799.69751932 27869.06149660
0.07900000 1228298.68160866 17687.50184477
0.08000000 1218767.36937136 14808.02423252
0.08100000 1209206.61888531 20822.53895416
0.08200000 1199617.49219282 23896.38156582
0.08300000 1190003.77319618 20991.66754436
0.08400000 1180368.49125534 21069.57855789
0.08500000 1170713.25424955 19632.86219543
0.08600000 1161040.88281696 25757.69319466
0.08700000 1151353.54609189 16717.65427428
0.08800000 1141652.63758216 16765.16977025
0.08900000 1131942.09675922 19865.58473120
0.09000000 1122223.87305394 22977.53488016
0.09100000 1112499.75012332 18422.99672758
0.09200000 1102771.86208003 15383.66819884
0.09300000 1093044.21486548 23117.88623076
0.09400000 1083315.46043137 18524.69524399
0.09500000 1073590.44082478 21643.58430433
0.09600000 1063870.37824017 18575.17767725
0.09700000 1054160.15675619 20145.00154268
0.09800000 1044458.33515072 24816.33120999
0.09900000 1034769.29931587 21730.15630744
0.10000000 1025092.53749087 23295.22900999
0.10100000 1015431.66831275 17089.71578146
0.10200000 1005789.04023961 20201.27382341
0.10300000 996165.66230714 21756.25908822
0.10400000 986563.84878786 27969.08642894
0.10500000 976987.54506583 18640.92323690
0.10600001 967433.13680343 20185.49334920
0.10700001 957908.62612096 17069.93252075
0.10800001 948410.67351563 26361.07591096
0.10900001 938944.70375796 17041.84717529
0.11000001 929511.24318121 17023.99922018
0.11100001 920110.59112836 20095.21625619
0.11200001 910746.68734633 23155.73561589
0.11300001 901418.54248012 20038.53514276
0.11400001 892130.09733081 20006.01837462
0.11500001 882881.60983736 18434.56888145
0.11600001 873675.17430408 22999.50004664
0.11700001 864511.94558460 15301.86215749
0.11800001 855392.05419733 16795.62377521
0.11900001 846317.87574584 21327.21147334
0.12000001 837290.23944472 18236.18227412
0.12100001 828312.40322528 16673.92946240
0.12200001 819383.61041124 16629.39115673
0.12300001 810506.07463767 18090.49643824
0.12400001 801679.61040485 24050.38944534
0.12500001 792905.91433968 19481.69923331
0.12600001 784187.88479108 29877.55981847
0.12700001 775523.99356924 19357.07979172
0.12800001 766916.03351519 22259.73892186
0.12900001 758365.65707689 19224.57031299
0.13000001 749873.18116726 23576.01392715
0.13100001 741438.74931545 16148.53672129
0.13200001 733063.93030049 17549.55131869
0.13300001 724750.65176337 16024.23766592
0.13400001 716497.50884440 14509.07523814
0.13500001 708307.52051259 18784.31632964
0.13600001 700178.84616806 20144.14635407
0.13700001 692114.76543768 15759.45395213
0.13800001 684112.88974335 15690.12986614
0.13900001 676176.84989076 19879.60032427
0.14000001 668305.35899970 16961.59081133
0.14100001 660499.18666723 21102.95000930
0.14200001 652758.69557342 23802.84695675
0.14300001 645085.99471433 20900.78721458
0.14400001 637476.98709452 16638.15014799
0.14500001 629937.57401260 13795.63352165
0.14600001 622464.82417546 17842.95502672
0.14700001 615061.69484964 17750.68135078
0.14800001 607723.30096206 14940.87805904
0.14900001 600454.69918052 17563.30077968
0.15000001 593254.02703977 20155.80651969
0.15100001 586122.11958964 18709.01894009
0.15200001 579059.43904380 18605.18065440
0.15300001 572066.32793815 14536.20607886
0.15400001 565139.63533630 14453.44685580
0.15500001 558283.59816164 16982.98785755
0.15600001 551493.89088698 18182.75444068
0.15700001 544777.08125186 12911.21743504
0.15800001 538124.90965025 15401.13564110
0.15900001 531543.98821389 16584.17321506
0.16000001 525029.48015569 13947.40879869
0.16100001 518586.49931995 16382.14828682
0.16200001 512210.41445253 18785.31783683
0.16300001 505902.33676015 18667.79710772
0.16400001 499662.78163518 13603.31987222
0.16500001 493490.44028423 13516.70379753
0.16600001 487386.71773977 13429.94164139
0.16700001 481348.50016088 15768.97760980
0.16800001 475377.10749532 15666.05331720
0.16900001 469474.62040533 16760.24473986
0.17000001 463636.83083048 17838.42790853
0.17100001 457864.95021897 15356.79115551
0.17200001 452159.43704094 16426.95312343
0.17300001 446519.21225981 13984.98238841
0.17400001 440943.78732485 11574.77496391
0.17500001 435432.69443981 16093.59314656
0.17600001 429984.29583382 13699.30031227
0.17700001 424601.49970196 11336.86057749
0.17800001 419280.16211525 12383.44017297
0.17900001 414022.12525791 15650.03707396
0.18000001 408826.53096611 17759.42534403
0.18100001 403693.92617701 13225.01364626
0.18200001 398619.86238539 12036.32731330
0.18300001 393607.64149106 10863.57141834
0.18400001 388654.89307083 16177.76068832
0.18500001 383763.24312132 12848.39398669
0.18600001 378929.31304480 15943.45159958
0.18700001 374153.59272931 14771.58453883
0.18800001 369435.86916191 12568.20886269
0.18900001 364776.93627677 12475.37181010
0.19000001 360171.08341037 11350.79222999
0.19100001 355625.81291417 10242.02389586
0.19200001 351132.79282004 12198.35379896
0.19300001 346697.31524058 15133.33852534
0.19400001 342313.75859302 10012.67791198
0.19500001 337985.21075083 10930.44223220
0.19600001 333709.34673137 13805.55632668
0.19700001 329486.01718545 15657.17627657
0.19800001 325314.83387237 12623.84272500
0.19900001 321195.18348041 9635.85595980
0.20000001 317124.72757971 13385.83538377
0.20100001 313106.12093649 10435.82750403
0.20200001 309135.03721556 9413.16232811
0.20300001 305214.52404789 13075.39082821
0.20400001 301341.30327080 10192.87006491
0.20500001 297515.45923665 9193.22812495
0.20600001 293736.82650706 11856.68756240
0.20700001 290004.76096698 10857.77876384
0.20800001 286317.10600695 11668.85420690
0.20900001 282676.65232810 9794.74646618
0.21000001 279079.08337792 8832.85340646
0.21100001 275526.07436474 11390.24845269
0.21200001 272015.64353548 9559.99024400
0.21300001 268547.38338713 9482.40855569
0.21400001 265122.22140212 9405.21124889
0.21500001 261739.13242354 10176.41794974
0.21600001 258395.90011875 10934.02303047
0.21700001 255093.10686703 10844.00848562
0.21800001 251830.55571565 9927.16097567
0.21900001 248605.78955304 10665.18887609
0.22000001 245419.42711672 8135.65439359
0.22100001 242272.86896651 10487.99299347
0.22200001 239163.82575933 8800.03338492
0.22300001 236090.08488640 10312.41539546
0.22400001 233052.18908511 7865.51175355
0.22500001 230053.10004243 7798.80046022
0.22600001 227086.83892258 9278.76867715
0.22700001 224157.44365220 13032.51439024
0.22800001 221260.97136183 9880.40914341
0.22900001 218397.58481506 9795.13214218
0.23000001 215568.76074340 8963.34949560
0.23100001 212773.25775459 8885.41166405
0.23200001 210008.45002469 13211.63221588
0.23300001 207276.34214939 9458.01993959
0.23400001 204576.15119557 7211.30967071
0.23500001 201905.10323535 10721.16148887
0.23600001 199266.24040296 7083.91518137
0.23700001 196656.56954039 7020.63986465
0.23800001 194076.91492721 8349.18927507
0.23900001 191525.88156743 10342.39809383
0.24000001 189003.65771444 10248.72382433
0.24100001 186511.14958090 8124.42606004
0.24200001 184045.39834891 7379.30059586
0.24300001 181607.96506480 7311.53701936
0.24400001 179197.12515127 8561.14305907
0.24500001 176812.98649395 7829.27941231
0.24600001 174455.94707296 12280.82697515
0.24700001 172124.92305872 8323.96167289
0.24800001 169819.44177130 8245.58338528
0.24900001 167538.50052010 8167.50228674
0.25000001 165283.93158769 8089.82241427
0.25100001 163052.77290770 9245.09266124
0.25200001 160847.71853354 8545.83968999
0.25300001 158666.50089077 6649.71336693
0.25400001 156508.76842002 5986.46067529
0.25500001 154374.18078920 6520.76570505
0.25600001 152263.45315707 8217.65895569
0.25700001 150174.83092592 6392.94285499
0.25800001 148109.90004109 6329.47687773
0.25900001 146067.22022185 7405.60841564
0.26000001 144046.49948682 5639.42072174
0.26100001 142047.31959250 6698.95190895
0.26200001 140070.53423553 5525.78283705
0.26300001 138114.49029321 7657.06770417
0.26400001 136179.97846953 7037.10072040
0.26500001 134266.92992072 7500.15106027
0.26600001 132373.51668469 5301.55959409
0.26700001 130501.88657870 6820.02891533
0.26800001 128650.86205685 7786.59379446
0.26900001 126818.53119896 8731.45628623
0.27000001 125007.20427710 6606.00602263
0.27100001 123215.14382849 5027.17810610
0.27200001 121444.19159667 5470.45386935
0.27300001 119691.48411553 8362.84439092
0.27400001 117956.38692231 5838.84142898
0.27500001 116243.12345095 4812.46553862
0.27600001 114546.71175742 5235.35770864
0.27700001 112870.37108688 5177.36416678
0.27800001 111211.69380764 6981.31440918
0.27900001 109572.82907956 6442.88265481
0.28000001 107950.64466130 5460.14386539
0.28100001 106347.39875905 4948.34469846
0.28200001 104762.81418408 8004.92701068
0.28300001 103195.61341833 5275.36000763
0.28400001 101645.95080915 4345.36460276
0.28500001 100114.25612206 4724.39197001
0.28600001 98599.97787284  5942.62094767
0.28700001 97103.14677900  4194.85613941
0.28800001 95622.81030924  6217.87353467
0.28900001 94161.53007640  5324.83477786
0.29000001 92715.51183237  4451.73551135
0.29100001 91287.55091669  5597.75288718
0.29200001 89876.21383129  4345.06576335
0.29300001 88481.61928303  6633.46731165
0.29400001 87103.05371859  4625.17237140
0.29500001 85742.09843280  5329.72909088
0.29600001 84396.98531105  4135.87446095
0.29700001 83068.08673076  4084.45801790
0.29800001 81755.43507558  5500.09715508
0.29900001 80459.62765709  5431.02512395
0.30000001 79179.16459960  3932.43339600
0.30100001 77915.70313273  4588.45597470
0.30200001 76666.44014505  4181.38784346
0.30300001 75434.36010249  4471.74907857
0.30400001 74217.98641539  3735.02034318
0.30500001 73016.84114625  4021.76780073
0.30600001 71830.50919578  4630.91314709
0.30700001 70660.69100797  3917.42889495
0.30800001 69505.74727179  3543.75069243
0.30900001 68366.38528361  3179.03706620
0.31000001 67242.26029092  4077.90706841
0.31100001 66132.46322186  3404.49936785
0.31200001 65038.40368437  3969.61915682
0.31300001 63958.68327464  3614.94494984
0.31400001 62895.03872263  4754.86515256
0.31500001 61845.04213931  3517.74616344
0.31600002 60810.31052633  2891.53040243
0.31700002 59790.02954479  3137.18299875
0.31800002 58784.21409903  2812.82477782
0.31900002 57792.88620313  2774.05866910
0.32000002 56816.44396210  3556.42547820
0.32100002 55853.34683244  3776.80349164
0.32200002 54905.71051458  2660.18180039
0.32300002 53970.56639530  3672.15751142
0.32400002 53049.90042560  4396.51070595
0.32500002 52143.12834403  3569.71873546
0.32600002 51250.78107305  3519.39130294
0.32700002 50371.44926841  2478.27542136
0.32800002 49506.54262231  2443.14799410
0.32900002 48654.52788507  3130.91901766
0.33000002 47816.98990265  2611.52502720
0.33100002 46990.25455388  3042.14922388
0.33200002 46179.90918720  2306.68657313
0.33300002 45381.21322591  2500.95877931
0.33400002 44596.25928204  3137.34698906
0.33500002 43823.05526566  2208.68208998
0.33600002 43064.01720446  3265.32925916
0.33700002 42316.53816992  2789.08316286
0.33800002 41582.89875647  2537.38860228
0.33900002 40860.79880658  2917.46117295
0.34000002 40151.78866687  2053.76408757
0.34100002 39454.99609620  2024.04139559
0.34200002 38771.01667504  2393.72268288
0.34300002 38097.95707338  2359.02561371
0.34400002 37438.48811961  2518.67440753
0.34500002 36790.03645510  1909.40298245
0.34600002 36154.58308260  2446.39998015
0.34700002 35528.96951463  2596.45721510
0.34800002 34916.71082245  2376.25686756
0.34900002 34315.22451332  1981.70430950
0.35000002 33725.19142549  1775.63141265
0.35100002 33147.28537934  1925.19442601
0.35200002 32579.07214440  2070.07434210
0.35300002 32022.53213209  2210.51549778
0.35400002 31477.44714231  2011.40896766
0.35500002 30943.10417853  2478.54276209
0.35600002 30418.58515861  2117.58990611
0.35700002 29905.15383463  1927.08820438
0.35800002 29403.08954644  1900.02773649
0.35900002 28910.88172686  1561.18768720
0.36000002 28429.25687976  2155.22206614
0.36100002 27957.11399161  2277.10704247
0.36200002 27496.22512689  1796.60343489
0.36300002 27044.05092676  1476.60525054
0.36400002 26601.98354730  1893.39626866
0.36500002 26169.40400529  2155.05052192
0.36600002 25746.84738267  1559.10041711
0.36700002 25333.03347494  1538.22186546
0.36800002 24930.34195573  1379.89449261
0.36900002 24535.56197706  1497.89612965
0.37000002 24149.70398612  2150.28974478
0.37100002 23772.63658485  1857.11845798
0.37200002 23405.59379213  1702.40594511
0.37300002 23046.47012296  1551.48844217
0.37400002 22696.03148043  1914.97774688
0.37500002 22354.54611648  1765.11504497
0.37600002 22021.59693881  2117.04632200
0.37700002 21696.43455826  1722.26305682
0.37800002 21379.28587135  1458.49495124
0.37900002 21070.88081163  1321.14428947
0.38000002 20770.27951962  1424.42583693
0.38100002 20476.58751559  1525.30107629
0.38200002 20191.68978782  1392.01515992
0.38300002 19913.36836903  1720.51510859
0.38400002 19643.69967471  1247.86608095
0.38500002 19379.81670302  1570.92801637
0.38600002 19124.62102573  1443.23959408
0.38700002 18875.81863791  1098.57269677
0.38800002 18634.01571582  1304.75384223
0.38900002 18398.76626060  1291.59345268
0.39000002 18171.39135214  1172.32736862
0.39100002 17949.38948912  1160.96656716
0.39200002 17734.67790914  1254.55117473
0.39300002 17526.02480081  1346.52454924
0.39400002 17324.92780937  1129.15222347
0.39500002 17128.81496866  1119.19682308
0.39600002 16938.85264842  2017.41744601
0.39700002 16754.90219673  1000.26770854
0.39800002 16577.13271952  1587.42630443
0.39900002 16404.79295295  1378.00267334
0.40000002 16237.94959778  1172.05525750
0.40100002 16077.00963971  969.44372721
0.40200002 15921.88004640  1347.46877217
0.40300002 15771.25187503  1051.31169980
0.40400002 15626.39430194  1234.09454847
0.40500002 15486.69809643  1226.08194639
0.40600002 15351.87594204  1030.95527774
0.40700002 15221.99313177  1490.53763809
0.40800002 15097.21648687  1204.07855796
0.40900002 14976.77222800  1289.50014993
0.41000002 14861.38864247  1374.30697983
0.41100002 14750.26225161  1002.72287538
0.41200002 14643.37211042  997.87263975
0.41300002 14541.37032681  1083.62296810
0.41400002 14443.18847806  1078.90623043
0.41500002 14349.55674635  984.95362174
0.41600002 14259.20105536  981.10437510
0.41700002 14173.24088526  1066.39469474
0.41800002 14092.14724685  1417.10639429
0.41900002 14012.80671112  1147.64892402
0.42000002 13938.51409925  1144.28236920
0.42100002 13868.06331565  1316.77267422
0.42200002 13801.10414285  963.24810929
0.42300002 13736.99219184  873.67274480
0.42400002 13676.24795999  959.04693364
0.42500002 13619.07928595  957.28512837
0.42600002 13564.31322035  1129.43259381
0.42700002 13513.91999096  1301.39055680
0.42800002 13465.47146885  1213.10438211
0.42900002 13421.33674387  952.24388710
0.43000002 13379.31430130  951.46998162
0.43100002 13339.16126311  1037.25322897
0.43200002 13302.95134653  1123.23475017
0.43300002 13269.12598902  1209.34819995
0.43400002 13237.90820088  1122.90561635
0.43500002 13208.95383175  1123.02530799
0.43600002 13182.72855273  1123.36626686
0.43700002 13158.47766306  1123.86563046
0.43800002 13136.32427863  1038.03239369
0.43900002 13117.21090826  1038.88315317
0.44000002 13099.65631130  953.19653666
0.44100002 13084.53110992  1127.75578981
0.44200002 13071.35130016  1389.74613609
0.44300002 13060.09830480  1043.76310598
0.44400002 13051.11063284  1306.74251404
0.44500002 13042.79324768  872.56290962
0.44600002 13036.54830260  874.10060511
0.44700002 13033.23104671  1313.74975177
0.44800002 13029.71167356  1228.57157192
0.44900002 13029.70108042  1934.91070214
0.45000002 13030.50539489  1322.27059761
0.45100002 13032.43426447  1502.11844451
0.45200002 13036.11443921  1062.96482175
0.45300002 13040.78289539  1065.69282872
0.45400002 13047.27609305  1157.61962622
0.45500002 13054.91250913  1518.02529851
0.45600002 13063.59736974  985.06060635
0.45700002 13073.54936609  987.96817242
0.45800002 13084.25433912  1711.61681249
0.45900002 13096.17561399  1084.36339223
0.46000002 13109.88453803  1541.13254991
0.46100002 13123.29931281  1000.38915403
0.46200002 13138.69189855  1368.72329340
0.46300002 13154.81967506  915.57549278
0.46400002 13171.06585092  1194.28645264
0.46500002 13188.66143082  1290.64246879
0.46600002 13206.85620353  1202.68241718
0.46700002 13225.32570111  1114.10148987
0.46800002 13245.54688464  1118.18912100
0.46900002 13265.36299340  1215.77057597
0.47000002 13285.98847489  1032.52064326
0.47100002 13307.36909108  942.16177630
0.47200002 13329.32735793  1134.85898504
0.47300002 13351.79753463  949.31284971
0.47400002 13374.04867811  1048.19111483
0.47500002 13397.14088002  1147.86708501
0.47600002 13421.14650569  1248.36800140
0.47700002 13444.54564172  1349.56355548
