# SAXS profile: number of points = 501, q_min = 0, q_max = 0.5, delta_q = 0.001
#    q    intensity    error
0.00000000 1682732.95097188 353.37391970
0.00100000 1682645.86380788 555.27314824
0.00200000 1682384.57922504 908.48770155
0.00300000 1681949.29886941 1614.67138443
0.00400000 1681339.91921803 2143.70847846
0.00500000 1680557.08006778 2268.75214789
0.00600000 1679600.62422256 2116.29687268
0.00700000 1678471.31634970 3625.49819399
0.00800000 1677168.91962783 2943.43157822
0.00900000 1675694.86025063 2513.54239782
0.01000000 1674048.47613226 3867.05214684
0.01100000 1672231.43559755 3311.01838664
0.01200000 1670243.63727121 3908.37028257
0.01300000 1668086.32899835 3502.98144539
0.01400000 1665759.78433595 4122.75564900
0.01500000 1663265.38601066 4790.20452501
0.01600000 1660603.06000397 5081.44559077
0.01700000 1657774.88455535 6266.38934472
0.01800000 1654781.31897740 7074.19045695
0.01900000 1651623.34293856 7432.30537859
0.02000000 1648301.78789320 8826.65647345
0.02100000 1644819.35198958 5970.69451842
0.02200000 1641174.71418770 7926.87422966
0.02300000 1637370.91866523 5894.53557550
0.02400000 1633408.67491049 8575.39593430
0.02500000 1629290.25999566 6989.65553460
0.02600000 1625016.15789427 6581.31574049
0.02700000 1620588.23133404 6806.47088335
0.02800000 1616007.03620054 9841.48330179
0.02900000 1611275.89222538 8700.89021751
0.03000000 1606395.45834048 10457.63491448
0.03100000 1601367.29503689 10761.18871780
0.03200000 1596192.60612212 10271.49989348
0.03300000 1590875.55155017 12170.19853041
0.03400000 1585414.89970901 9155.77146827
0.03500000 1579814.34526235 9384.09764420
0.03600000 1574074.75392844 13104.17293205
0.03700000 1568199.23224746 11620.35684837
0.03800000 1562189.04651944 10966.56761409
0.03900000 1556046.82513790 17738.93462806
0.04000000 1549772.82629627 13343.54465274
0.04100000 1543370.94908549 12640.20865909
0.04200000 1536842.96078710 10903.90131265
0.04300000 1530190.56544003 12119.10984083
0.04400000 1523416.34824948 12339.67299390
0.04500000 1516523.01201603 14649.61297677
0.04600000 1509511.18402952 11706.25977634
0.04700000 1502384.55528663 10817.16930115
0.04800000 1495144.99114664 16483.97429436
0.04900000 1487795.28619158 18969.39078192
0.05000000 1480336.87094922 15854.40862614
0.05100000 1472773.81607938 13785.16356067
0.05200000 1465105.61650043 12812.34921337
0.05300000 1457337.39722407 15345.76350816
0.05400000 1449470.15901221 13153.94230645
0.05500000 1441507.88013234 14530.40010957
0.05600000 1433450.51751645 13481.60274635
0.05700000 1425304.17377020 14880.17626875
0.05800000 1417067.55700191 18811.57269756
0.05900000 1408744.63847512 13946.57257229
0.06000000 1400339.44876295 17938.34917671
0.06100000 1391853.17278185 14238.65862295
0.06200000 1383288.61086743 14379.28578211
0.06300000 1374648.97636415 17155.62002714
0.06400000 1365934.11244212 14649.64404106
0.06500000 1357149.76930149 21497.25335133
0.06600000 1348297.87037622 23035.67019318
0.06700000 1339379.10776421 19126.33455397
0.06800000 1330398.16196243 17900.50810711
0.06900000 1321358.26635988 15261.68869099
0.07000000 1312259.18411338 16770.67315831
0.07100000 1303105.12062721 21110.30394292
0.07200000 1293898.35650128 17001.82520091
0.07300000 1284641.98969342 15685.47942911
0.07400000 1275339.40396520 20086.59655379
0.07500000 1265990.76591643 14432.29540792
0.07600000 1256599.65411088 15965.09935393
0.07700000 1247169.75233954 24806.20753716
0.07800000 1237702.54488900 22000.16376713
0.07900000 1228199.26429070 16212.23104905
0.08000000 1218665.84384613 16287.46976707
0.08100000 1209102.89452930 16359.16293052
0.08200000 1199511.33784100 14933.91685690
0.08300000 1189895.54374293 17991.22146576
0.08400000 1180257.97025053 24077.26372327
0.08500000 1170600.38799708 18120.89485688
0.08600000 1160925.73830255 19695.10607502
0.08700000 1151236.04252801 22794.47471243
0.08800000 1141532.93898385 27431.03781205
0.08900000 1131820.05888570 21391.40011769
0.09000000 1122099.57246995 19911.65784884
0.09100000 1112373.13411013 23026.12495787
0.09200000 1102642.77764252 15381.86747086
0.09300000 1092912.88229015 18492.08683733
0.09400000 1083181.85490447 20065.94480515
0.09500000 1073454.39547552 17003.51842354
0.09600000 1063731.94005989 20120.49059205
0.09700000 1054019.40688299 20142.31181248
0.09800000 1044315.06203932 20160.50322057
0.09900000 1034623.88628200 23279.03853598
0.10000000 1024944.59605258 18633.49363252
0.10100000 1015281.41670962 18640.56768749
0.10200000 1005636.43129395 18644.50031316
0.10300000 996010.59452519 17091.54260605
0.10400000 986406.39985284 17089.49168143
0.10500000 976827.90364698 20191.03371836
0.10600001 967271.06190496 20182.11165629
0.10700001 957743.98273262 15515.45325039
0.10800001 948243.86439433 21705.30307747
0.10900001 938775.44045262 20136.73414546
0.11000001 929339.60121451 23210.25763283
0.11100001 919936.59990013 15454.93560584
0.11200001 910570.29342277 20064.41736015
0.11300001 901239.91734774 20034.56430588
0.11400001 891948.95467036 21540.56826951
0.11500001 882698.17410069 19966.63363835
0.11600001 873489.32165373 16862.71214862
0.11700001 864323.68529550 16828.38294523
0.11800001 855201.55096725 18318.41808449
0.11900001 846125.03783568 18276.30167809
0.12000001 837095.13509110 18231.93290110
0.12100001 828114.89229118 15154.50324283
0.12200001 819183.70319972 18136.72804329
0.12300001 810303.94627082 18085.98493288
0.12400001 801475.29248804 21038.72741910
0.12500001 792699.19658839 26967.62793866
0.12600001 783978.86554221 20908.71732930
0.12700001 775312.62071357 20840.40422691
0.12800001 766702.30725316 19286.39744791
0.12900001 758149.81508431 19219.09871822
0.13000001 749655.10569930 16203.79587345
0.13100001 741218.42680300 17611.35065100
0.13200001 732841.45624325 16082.20651538
0.13300001 724525.93672571 17475.56641767
0.13400001 716270.66880741 18855.82624532
0.13500001 708078.40761497 21667.20029459
0.13600001 699947.62168003 15822.31673411
0.13700001 691881.25964295 18618.52557492
0.13800001 683877.29462711 15684.72649190
0.13900001 675939.15091146 18453.13969010
0.14000001 668065.59520891 19781.42320704
0.14100001 660257.37084730 16876.17919479
0.14200001 652514.80544404 13996.44323692
0.14300001 644839.90389485 22285.66812977
0.14400001 637228.97476079 15245.70394029
0.14500001 629687.57686106 15169.17444215
0.14600001 622212.71647627 20579.68656829
0.14700001 614807.57907203 15013.60178923
0.14800001 607467.30217768 16292.27381305
0.14900001 600196.83691490 14854.87241451
0.15000001 592994.16263475 20146.97762611
0.15100001 585860.25689396 17364.89883370
0.15200001 578795.65961086 15940.03321785
0.15300001 571800.59483054 14529.45380027
0.15400001 564872.15253845 14446.60598292
0.15500001 558014.27137107 14363.28802294
0.15600001 551222.81617166 15577.55752019
0.15700001 544504.10612877 15485.69750918
0.15800001 537850.18063231 12827.72741353
0.15900001 531267.63574870 19125.63578969
0.16000001 524751.34240565 21543.66737938
0.16100001 518306.50374069 15113.81836252
0.16200001 511928.82478814 16271.65846401
0.16300001 505619.14082833 14925.87774187
0.16400001 499377.99334176 16067.48769431
0.16500001 493203.96775459 13508.85731457
0.16600001 487098.58680411 18302.73026329
0.16700001 481059.01909506 12122.68785356
0.16800001 475085.84765651 15656.45484876
0.16900001 469181.86968515 20339.03501122
0.17000001 463342.68106704 15450.16242973
0.17100001 457569.23063013 17707.93006158
0.17200001 451862.38278246 18761.32701909
0.17300001 446220.60568175 18634.17337326
0.17400001 440643.81457845 11566.90067894
0.17500001 435131.41099337 13784.96375130
0.17600001 429681.59341283 12548.85152829
0.17700001 424297.39511978 12461.61508324
0.17800001 418975.02373516 11249.47991863
0.17900001 413715.65128494 14521.42004600
0.18000001 408518.74722892 12200.41296228
0.18100001 403384.89647917 11012.40819407
0.18200001 398309.64040509 10933.60014560
0.18300001 393296.18036322 11940.47259989
0.18400001 388342.44239344 18320.05558536
0.18500001 383449.67703903 12837.89579376
0.18600001 378614.70496390 14868.20016636
0.18700001 373837.79128295 14759.11669714
0.18800001 369118.99334921 13603.88114262
0.18900001 364459.14364976 11425.79469326
0.19000001 359852.36517432 12371.72489924
0.19100001 355306.08685233 15349.22367727
0.19200001 350812.28428136 14218.42255376
0.19300001 346375.79198714 14111.35043235
0.19400001 341991.45265462 17005.52578683
0.19500001 337661.92514452 11912.71328204
0.19600001 333385.37584316 9851.53832171
0.19700001 329161.22802390 12708.91561460
0.19800001 324989.20842813 13581.29966205
0.19900001 320868.99656989 12513.89145763
0.20000001 316797.75287855 10506.59797077
0.20100001 312778.46013235 10424.90656892
0.20200001 308806.71346881 10343.48135651
0.20300001 304885.71953818 11195.40415059
0.20400001 301012.01495283 13884.17984595
0.20500001 297185.48591255 11019.63833850
0.20600001 293406.22770059 10021.29018080
0.20700001 289673.73491554 9037.82095657
0.20800001 285985.53712983 11655.34111668
0.20900001 282344.72871871 13340.78906260
0.21000001 278746.74942974 9704.56854015
0.21100001 275193.22846169 14001.83212605
0.21200001 271682.52069537 12152.35972520
0.21300001 268213.96334252 9470.63549335
0.21400001 264788.50530244 8539.42969972
0.21500001 261405.12974548 9316.47926459
0.21600001 258061.60602056 12599.85850966
0.21700001 254758.51818924 12495.90590798
0.21800001 251495.80212486 10740.12873754
0.21900001 248270.94032224 9831.52970161
0.22000001 245084.52456690 8937.00761090
0.22100001 241937.86138490 8862.18428156
0.22200001 238828.54521105 11983.22282258
0.22300001 235754.90761674 8713.50179754
0.22400001 232716.99019421 8639.61866950
0.22500001 229717.86602785 10902.41043723
0.22600001 226751.53486158 10809.24617800
0.22700001 223822.24387727 9185.66532311
0.22800001 220925.94289325 7588.80649726
0.22900001 218062.63308982 8275.47731711
0.23000001 215233.85201815 8203.63865764
0.23100001 212438.61577919 8132.15059662
0.23200001 209674.02501610 9526.53977715
0.23300001 206942.02781303 11621.86483163
0.23400001 204242.10374058 10079.34829630
0.23500001 201571.35180758 9276.31404892
0.23600001 198932.78676630 9193.67917524
0.23700001 196323.35417395 7709.61848306
0.23800001 193744.08711572 7640.29843678
0.23900001 191193.41222830 6882.96316578
0.24000001 188671.60682247 8866.62258202
0.24100001 186179.47120073 8785.80966154
0.24200001 183714.33062479 10044.58150204
0.24300001 181277.16544945 9288.64239701
0.24400001 178866.83606569 6573.35653636
0.24500001 176483.31395114 11070.79880785
0.24600001 174126.53542264 8386.80497537
0.24700001 171796.14892291 8308.06215493
0.24800001 169491.31363192 6963.55094999
0.24900001 167211.00302559 6897.45420111
0.25000001 164957.15762198 6831.70100611
0.25100001 162726.65905612 7381.28160399
0.25200001 160522.20744665 6700.99986688
0.25300001 158341.77451177 6032.82189431
0.25400001 156184.66639123 7168.87652653
0.25500001 154050.80516056 7690.21655745
0.25600001 151940.89126062 6443.05379874
0.25700001 149853.07982269 6379.24590988
0.25800001 147788.91116203 6889.91936436
0.25900001 145747.07963974 6252.55001238
0.26000001 143727.33069972 5626.92526313
0.26100001 141728.94712417 7240.93225119
0.26200001 139753.04718815 8269.88695866
0.26300001 137797.88314749 7093.83536010
0.26400001 135864.24004372 8640.96607566
0.26500001 133952.22137808 5879.16327448
0.26600001 132059.80662136 5817.89505600
0.26700001 130189.11005484 6280.32296623
0.26800001 128339.19691971 6214.18420891
0.26900001 126507.85112083 6660.63867670
0.27000001 124697.60086360 8617.22811546
0.27100001 122906.58874950 6518.96577577
0.27200001 121136.69238654 8928.98601836
0.27300001 119385.16899067 6378.74988104
0.27400001 117651.15931443 4853.11055139
0.27500001 115939.10134553 7679.80643658
0.27600001 114243.85952558 6645.56562311
0.27700001 112568.68052206 5163.52561992
0.27800001 110911.21663268 6962.45195363
0.27900001 109273.51851937 4589.48799502
0.28000001 107652.57900569 5898.82334580
0.28100001 106050.62334912 6280.31821198
0.28200001 104467.37623602 5765.03243044
0.28300001 102901.41746302 4383.60059140
0.28400001 101352.97751742 4766.12399334
0.28500001 99822.69227136  4710.63307125
0.28600001 98309.70193682  5501.90272931
0.28700001 96814.23962204  4600.61288460
0.28800001 95335.17257321  5372.61390467
0.28900001 93875.35622087  5308.65164557
0.29000001 92430.69490286  6455.36003757
0.29100001 91004.11130325  3985.98026376
0.29200001 89594.22794396  4331.43315498
0.29300001 88201.07219112  3889.66746775
0.29400001 86823.92380266  4994.54645317
0.29500001 85464.50465583  5691.93627952
0.29600001 84120.85781309  4497.10127157
0.29700001 82793.40570919  4070.95195143
0.29800001 81482.25708490  3654.47940326
0.29900001 80187.95485041  4330.14976691
0.30000001 78908.94274018  5700.38229341
0.30100001 77647.10745266  3517.41413412
0.30200001 76399.31698045  4166.81894537
0.30300001 75168.87474582  4798.78119095
0.30400001 73954.12491857  5751.78233784
0.30500001 72754.43398728  3673.37154592
0.30600001 71569.71310058  3625.36398874
0.30700001 70401.50425947  3903.05958093
0.30800001 69248.14984587  4172.54746651
0.30900001 68110.44473087  4433.99016190
0.31000001 66988.01579712  4999.98573582
0.31100001 65879.87441451  3083.17826857
0.31200001 64787.44740946  4258.47911984
0.31300001 63709.38452807  4200.99701468
0.31400001 62647.29455140  3848.11025001
0.31500001 61599.08216298  3211.77629605
0.31600002 60565.96280869  3167.90283470
0.31700002 59547.42526561  4544.65971145
0.31800002 58543.28121417  3361.55536648
0.31900002 57553.76625627  3591.35518444
0.32000002 56578.96820892  2996.70519308
0.32100002 55617.60796125  3223.59671007
0.32200002 54671.68570440  2913.72762758
0.32300002 53738.34695419  2872.85216420
0.32400002 52819.39258950  2832.44006173
0.32500002 51914.40520168  3046.33744148
0.32600002 51023.78352325  4004.34672052
0.32700002 50146.17118199  2960.63008678
0.32800002 49283.11198977  2675.33386105
0.32900002 48432.88993989  2397.42816555
0.33000002 47597.08658314  2835.83455291
0.33100002 46772.15053922  4192.65577288
0.33200002 45963.66224273  3214.23905284
0.33300002 45166.74511669  2715.42484501
0.33400002 44383.54391086  2899.35514328
0.33500002 43612.24296960  3297.08572464
0.33600002 42854.96570839  2382.95048106
0.33700002 42109.31799266  2134.94252333
0.33800002 41377.52783397  2314.45212900
0.33900002 40657.29828003  2902.93123467
0.34000002 39950.16205503  2860.83124024
0.34100002 39255.16363607  2215.16898889
0.34200002 38572.98132842  2976.86997500
0.34300002 37901.81294163  2346.88036849
0.34400002 37244.19613867  2312.86468975
0.34500002 36597.64800427  2279.30162565
0.34600002 35963.99593319  1871.92607698
0.34700002 35340.34142367  2398.19568259
0.34800002 34729.84461697  1999.91819699
0.34900002 34130.24734470  1971.02187751
0.35000002 33542.12475293  2295.79083745
0.35100002 32966.09930837  2088.73215111
0.35200002 32399.74771458  2058.68006729
0.35300002 31845.14467061  1860.07498831
0.35400002 31301.83364365  2333.55180866
0.35500002 30769.40197531  2136.01198630
0.35600002 30246.75191661  1781.68500604
0.35700002 29735.22699781  1596.78176541
0.35800002 29235.04110287  1731.73774175
0.35900002 28744.75327610  1707.43842547
0.36000002 28265.02250720  1683.60614539
0.36100002 27794.84059563  1509.25991583
0.36200002 27335.76819304  2083.80570806
0.36300002 26885.52360914  1761.53959031
0.36400002 26445.33113876  1592.67014327
0.36500002 26014.76182361  1713.85259012
0.36600002 25594.03924026  1831.63750499
0.36700002 25182.13382890  1390.05385320
0.36800002 24781.35648617  2468.96666367
0.36900002 24388.49797580  1894.98638248
0.37000002 24004.57030307  1335.85440064
0.37100002 23629.32742442  1582.21983929
0.37200002 23264.11625635  1692.11557606
0.37300002 22906.95492728  1542.09627875
0.37400002 22558.42610832  1776.47614018
0.37500002 22218.82925250  1253.14202920
0.37600002 21887.87662319  1361.53542984
0.37700002 21564.58650845  1222.71211295
0.37800002 21249.29097730  1932.83559886
0.37900002 20942.77296904  1551.85955052
0.38000002 20644.15820204  1297.79506685
0.38100002 20352.36250930  1632.66659784
0.38200002 20069.31189251  1268.28022513
0.38300002 19792.92722210  1140.07266200
0.38400002 19525.08564704  1804.11799925
0.38500002 19263.16076633  1338.40447345
0.38600002 19009.80050170  1434.57466282
0.38700002 18762.94001290  1201.20347653
0.38800002 18523.06986790  1188.90329580
0.38900002 18289.67463385  1283.93522012
0.39000002 18064.16306262  1165.40953520
0.39100002 17844.13829071  1259.08245744
0.39200002 17631.30749715  1247.23875144
0.39300002 17424.58401025  1647.66874207
0.39400002 17225.31814397  1122.66016322
0.39500002 17031.08841258  1011.64669964
0.39600002 16843.03217474  1003.00261353
0.39700002 16660.96595178  1193.59165734
0.39800002 16485.12993989  1085.29858101
0.39900002 16314.64843844  1174.65474322
0.40000002 16149.67470975  1068.54327780
0.40100002 15990.64504897  1060.65953635
0.40200002 15837.35018443  1436.05179601
0.40300002 15688.58002633  1235.94639303
0.40400002 15545.56092406  1227.71073215
0.40500002 15407.83317155  1501.33933537
0.40600002 15274.81563475  1025.78029255
0.40700002 15146.84614351  1112.38443349
0.40800002 15023.85872371  1106.05653165
0.40900002 14905.26838391  1191.67626376
0.41000002 14791.79376455  911.91412879
0.41100002 14682.50849423  998.11697473
0.41200002 14577.46449646  1083.68876201
0.41300002 14477.40560212  1078.85631659
0.41400002 14381.00074864  1163.78254073
0.41500002 14289.19356690  1783.29144165
0.41600002 14200.71772569  977.08042941
0.41700002 14116.60743043  1239.15585896
0.41800002 14037.32580066  1146.91975889
0.41900002 13959.83324149  1055.36344306
0.42000002 13887.25790152  1140.07449145
0.42100002 13818.79914494  962.20303006
0.42200002 13753.61150743  1396.26670640
0.42300002 13691.27939419  1044.91849288
0.42400002 13632.39149348  869.06499889
0.42500002 13577.04485370  867.57320726
0.42600002 13524.08467583  1039.46119744
0.42700002 13475.53112816  1211.18079519
0.42800002 13428.93339541  1123.39747643
0.42900002 13386.62904497  1295.15642147
0.43000002 13346.36241748  1121.69508253
0.43100002 13308.00829205  1293.53846729
0.43200002 13273.58813900  1293.17938572
0.43300002 13241.62350604  948.23270420
0.43400002 13212.13219754  948.30083342
0.43500002 13185.01609971  1034.76011254
0.43600002 13160.58666388  1121.47944571
0.43700002 13138.09987757  1208.44248401
0.43800002 13117.71022499  1209.32176295
0.43900002 13100.38343534  1037.55041725
0.44000002 13084.61754765  865.54749180
0.44100002 13071.24935723  866.62387345
0.44200002 13059.76341135  954.60345179
0.44300002 13050.34266127  956.06814867
0.44400002 13043.02787258  1131.80879728
0.44500002 13036.47178713  1046.56800467
0.44600002 13032.01638351  1135.93576190
0.44700002 13030.40061976  1313.46444472
0.44800002 13028.65505006  1228.47194289
0.44900002 13030.49424911  967.51424385
0.45000002 13032.92645604  969.84526819
0.45100002 13036.59303691  972.26915477
0.45200002 13042.01445219  1329.30738604
0.45300002 13048.37018906  1155.17226758
0.45400002 13056.65243025  980.22822766
0.45500002 13065.96632078  1072.45456644
0.45600002 13076.40793890  986.02658736
0.45700002 13088.07763180  1078.98117110
0.45800002 13100.49739112  1082.36314575
0.45900002 13114.06847127  1357.30615111
0.46000002 13129.44554374  907.90120238
0.46100002 13144.64967642  1002.01669232
0.46200002 13161.63225573  1188.29802453
0.46300002 13179.50825514  1100.75258164
0.46400002 13197.44183683  1104.62593410
0.46500002 13216.70952439  1016.23284350
0.46600002 13236.53876030  927.21958411
0.46700002 13256.65905835  1116.74101200
0.46800002 13278.54656320  1214.38953350
0.46900002 13300.03878834  1031.41805692
0.47000002 13322.34294607  1035.34593113
0.47100002 13345.37158902  1228.30805927
0.47200002 13368.93286618  1233.08358136
0.47300002 13393.04943814  1523.59337630
0.47400002 13416.94820354  1338.34064674
0.47500002 13441.68930426  1055.71032800
0.47600002 13467.27359118  1156.30016534
0.47700002 13492.32598980  1451.09972898
