# SAXS profile: number of points = 501, q_min = 0, q_max = 0.5, delta_q = 0.001
#    q    intensity    error
0.00000000 1700912.83420644 459.24646524
0.00100000 1700825.38830152 765.37144291
0.00200000 1700563.02310022 918.30406155
0.00300000 1700125.94658556 1326.09828558
0.00400000 1699514.05603300 1529.56270855
0.00500000 1698727.97845301 1681.74076523
0.00600000 1697767.58270459 2139.18724130
0.00700000 1696633.59957793 2443.15248493
0.00800000 1695325.80077638 2975.29690598
0.00900000 1693845.65044350 3302.99915956
0.01000000 1692192.45968953 3908.96475067
0.01100000 1690367.89529242 5172.52598480
0.01200000 1688371.80717898 4609.25523569
0.01300000 1686205.56677045 4603.34140031
0.01400000 1683869.30520393 5683.05915700
0.01500000 1681364.56241873 4438.80264244
0.01600000 1678691.13324798 4708.72883926
0.01700000 1675851.12671532 5429.75789413
0.01800000 1672845.02641561 5721.13024778
0.01900000 1669673.84478170 6511.72828847
0.02000000 1666338.32286895 7348.55233627
0.02100000 1662841.27039370 5487.37644109
0.02200000 1659181.25809639 8013.84584069
0.02300000 1655361.45322883 6555.23165317
0.02400000 1651382.42969724 8669.75815123
0.02500000 1647246.57463584 8351.54051482
0.02600000 1642954.30253147 6653.96522959
0.02700000 1638507.51843376 8946.25146040
0.02800000 1633906.76164524 10661.24210866
0.02900000 1629155.43632310 8797.43976007
0.03000000 1624254.02018692 8308.05969514
0.03100000 1619204.22081780 12435.48898808
0.03200000 1614007.21970912 11984.00415830
0.03300000 1608667.21238209 8204.20316137
0.03400000 1603182.87571999 10100.05258306
0.03500000 1597557.91667915 8626.81314844
0.03600000 1591793.27896165 11484.78903846
0.03700000 1585891.99986647 9039.58481730
0.03800000 1579855.43560287 10166.37019860
0.03900000 1573686.22412481 10386.32956021
0.04000000 1567384.43037998 11567.29763222
0.04100000 1560954.11377958 11800.81364734
0.04200000 1554397.12142921 13033.62046785
0.04300000 1547714.90191125 11236.41070945
0.04400000 1540910.26346688 16641.83161832
0.04500000 1533985.97046611 11642.95405683
0.04600000 1526942.34828094 11841.43846139
0.04700000 1519783.39414691 12036.68504144
0.04800000 1512510.85643068 15563.73743682
0.04900000 1505127.44382952 14674.99326042
0.05000000 1497634.71886678 16039.66858597
0.05100000 1490036.73663317 12784.51579587
0.05200000 1482332.95580052 16498.36656690
0.05300000 1474528.53587419 20304.25888553
0.05400000 1466624.44806474 13309.61748687
0.05500000 1458624.61875620 15928.18157986
0.05600000 1450529.35111481 18603.03979614
0.05700000 1442344.28540593 13803.23545565
0.05800000 1434068.31067460 12691.50514207
0.05900000 1425705.43346107 17963.88930063
0.06000000 1417259.70785970 14264.71962604
0.06100000 1408732.22717056 17031.57342240
0.06200000 1400125.92358422 13231.19059634
0.06300000 1391444.03003714 18701.00863807
0.06400000 1382686.18824934 17525.54825567
0.06500000 1373858.33766163 20401.79726863
0.06600000 1364962.28762057 17833.23312215
0.06700000 1355998.85092440 20746.78339007
0.06800000 1346972.67862622 16729.40145163
0.06900000 1337887.04384220 19666.94046527
0.07000000 1328741.39593639 16981.31583528
0.07100000 1319540.43311891 17101.24481421
0.07200000 1310286.14521300 21521.45094333
0.07300000 1300981.88324228 18773.16945481
0.07400000 1291630.62061615 23249.35226065
0.07500000 1282232.72789950 16079.19916153
0.07600000 1272791.96875914 17640.89751402
0.07700000 1263311.76028149 14780.74828834
0.07800000 1253793.69849384 16343.20162630
0.07900000 1244239.40561475 22396.31035154
0.08000000 1234654.02012860 16501.15175311
0.08100000 1225038.79450966 18081.57345532
0.08200000 1215394.53516372 18157.99520741
0.08300000 1205725.29205923 24307.42302871
0.08400000 1196033.77772904 18299.31765820
0.08500000 1186322.05072969 18364.26620741
0.08600000 1176592.59463298 16889.98748897
0.08700000 1166847.52619844 16942.62687599
0.08800000 1157088.75792931 15447.13564381
0.08900000 1147319.60918003 21684.34163201
0.09000000 1137542.32304381 20185.68947065
0.09100000 1127758.91451258 21788.30325202
0.09200000 1117970.90956227 20274.40339754
0.09300000 1108182.93945339 18750.45621668
0.09400000 1098393.36978464 20347.73813155
0.09500000 1088607.05660276 17243.53658708
0.09600000 1078825.21977835 18836.28922278
0.09700000 1069052.95317279 17286.58706549
0.09800000 1059288.36276649 20449.56280470
0.09900000 1049536.63646127 20465.96537336
0.10000000 1039796.33195257 18903.49820388
0.10100000 1030071.69859032 17336.10750262
0.10200000 1020364.97628367 18917.56755011
0.10300000 1010676.76151805 18919.86986562
0.10400000 1001010.16699894 20495.68413352
0.10500000 991368.54772645 15762.76065048
0.10600001 981748.47505866 20484.18289595
0.10700001 972157.87512725 22048.54164544
0.10800001 962593.63900723 18886.08808613
0.10900001 953060.87735256 22015.70730303
0.11000001 943560.26836688 18852.33504934
0.11100001 934092.33970873 20400.57765956
0.11200001 924660.55342362 25076.79538939
0.11300001 915264.47548584 17216.12559444
0.11400001 905907.42502683 18752.28458100
0.11500001 896590.55358800 26521.14982396
0.11600001 887314.98217071 18686.85440451
0.11700001 878082.58498600 18650.47498345
0.11800001 868893.17588571 15509.74392004
0.11900001 859749.24450018 18570.58455591
0.12000001 850651.59495273 23158.99076349
0.12100001 841603.37385768 24642.14794740
0.12200001 832603.88696866 18433.85092593
0.12300001 823655.75076932 18383.99722332
0.12400001 814758.23428005 16804.38937381
0.12500001 805913.16385468 18278.11141750
0.12600001 797123.65779628 16703.72703626
0.12700001 788388.11293375 18164.46297802
0.12800001 779708.16678755 18104.82448607
0.12900001 771085.74827579 25561.49376011
0.13000001 762521.08234375 20976.95596402
0.13100001 754014.00052602 16422.42570557
0.13200001 745566.52054036 16361.45806454
0.13300001 737180.57258048 20744.26229036
0.13400001 728854.45320084 17711.16404778
0.13500001 720591.41612354 14700.06558200
0.13600001 712389.40874312 21959.40455991
0.13700001 704251.73391293 14578.01157940
0.13800001 696176.29958258 15966.80418385
0.13900001 688166.82845887 17341.80489497
0.14000001 680221.67900675 17264.02702737
0.14100001 672341.58654082 15752.96411561
0.14200001 664527.26240311 17104.93254102
0.14300001 656780.23629278 14186.45377307
0.14400001 649097.40733086 15529.65620292
0.14500001 641483.80337778 16858.19514800
0.14600001 633936.61800293 15376.13339502
0.14700001 626459.19053062 20861.09202882
0.14800001 619046.57666291 15219.26080528
0.14900001 611703.58952521 20644.99712052
0.15000001 604428.37463689 13690.30333147
0.15100001 597222.07792240 20424.99602870
0.15200001 590084.78111654 17605.18027535
0.15300001 583017.29367491 20201.55017913
0.15400001 576016.05157728 17410.08598052
0.15500001 569085.61881010 14648.26451947
0.15600001 562221.47639532 13240.31639399
0.15700001 555430.10678081 17112.80239759
0.15800001 548703.59060012 17012.55562953
0.15900001 542048.28283151 13009.15940200
0.16000001 535459.40508361 18103.88334042
0.16100001 528941.96826661 20565.26469697
0.16200001 522491.79710277 12774.92504222
0.16300001 516109.48947354 16505.18225254
0.16400001 509795.79377718 15140.93578998
0.16500001 503549.34475815 12538.37927643
0.16600001 497371.64946756 17442.82457036
0.16700001 491259.72215153 16093.66925754
0.16800001 485214.60301279 15990.24799729
0.16900001 479238.34756892 18330.86766006
0.17000001 473327.05294383 13354.92342943
0.17100001 467481.79216829 13267.13388823
0.17200001 461702.88888039 17971.78579835
0.17300001 455989.44074258 17851.98744812
0.17400001 450341.20626537 14185.74866730
0.17500001 444757.17633684 21134.86201767
0.17600001 439235.97082693 12827.88713385
0.17700001 433780.56586279 16214.71831778
0.17800001 428386.88385520 12652.40721226
0.17900001 423056.63232488 15991.54145722
0.18000001 417788.83966258 13611.56103915
0.18100001 412584.38562801 14642.62053760
0.18200001 407438.65054322 14539.44893145
0.18300001 402354.96612429 14436.49686651
0.18400001 397330.92813337 13231.12053189
0.18500001 392368.38836710 12041.78640787
0.18600001 387463.49222333 11955.18661736
0.18700001 382617.11216096 11868.78337997
0.18800001 377828.88033543 12853.73911630
0.18900001 373099.89789242 11696.68235157
0.19000001 368423.95955721 10555.34694004
0.19100001 363809.02651441 14668.78064216
0.19200001 359246.68615493 10400.19205561
0.19300001 354741.87896199 12387.58699870
0.19400001 350289.43396923 10245.96642776
0.19500001 345892.15966268 12203.07596956
0.19600001 341547.99001685 11102.01794014
0.19700001 337256.44937988 16026.42723190
0.19800001 333017.35436005 12922.73904665
0.19900001 328830.26754433 17756.83528658
0.20000001 324692.45794075 12726.32149045
0.20100001 320606.85397478 10685.82694802
0.20200001 316569.07275979 9639.52872113
0.20300001 312582.21512307 9565.01623485
0.20400001 308642.90735107 12338.00080452
0.20500001 304751.38464112 10358.50005357
0.20600001 300907.23932197 14014.75533387
0.20700001 297110.10428563 10196.81926108
0.20800001 293357.47994865 11036.10891735
0.20900001 289652.75366626 11861.28082333
0.21000001 285990.90130475 11767.09619044
0.21100001 282374.01396193 14367.19050957
0.21200001 278800.13590821 11579.96419238
0.21300001 275268.69427436 11486.96315512
0.21400001 271780.70590726 10517.91381586
0.21500001 268335.22446579 10432.87402047
0.21600001 264929.83184504 9485.81307769
0.21700001 261565.33164846 12829.78012394
0.21800001 258241.33707186 8483.22832390
0.21900001 254955.66438488 10096.24478701
0.22000001 251708.58925296 10847.38216675
0.22100001 248501.81434434 10757.64405163
0.22200001 245332.70118831 9847.65509134
0.22300001 242199.46473049 13020.64383960
0.22400001 239102.32188024 9683.64449405
0.22500001 236044.49450996 8802.09961650
0.22600001 233019.79223662 7934.32430086
0.22700001 230032.46835657 10227.24402677
0.22800001 227078.19127867 7800.13623929
0.22900001 224157.53765629 9280.12249784
0.23000001 221271.85370287 7667.07009339
0.23100001 218419.89228091 8361.11387193
0.23200001 215598.86539404 9042.21684227
0.23300001 212811.05762019 10457.53586604
0.23400001 210055.58683863 8885.35174351
0.23500001 207329.50439934 8073.41128315
0.23600001 204636.18266186 8729.77996525
0.23700001 201972.29765839 8652.49364093
0.23800001 199338.93190634 10004.82146559
0.23900001 196734.54575645 7790.68838045
0.24000001 194159.28440658 11932.05938760
0.24100001 191614.15272091 9042.27229461
0.24200001 189096.35653088 11028.10003453
0.24300001 186607.03642456 8878.76321307
0.24400001 184144.88370267 8120.78975543
0.24500001 181709.80898950 7375.60149578
0.24600001 179302.12456309 8636.08723811
0.24700001 176920.87323561 10530.33087313
0.24800001 174565.72261186 7824.03605759
0.24900001 172235.48522042 8396.48030171
0.25000001 169931.97353184 7037.73301676
0.25100001 167652.24853603 10773.33400060
0.25200001 165398.94615507 6904.57933390
0.25300001 163170.04871174 10568.52455506
0.25400001 160964.90899592 8003.98047850
0.25500001 158783.27827782 7316.73380921
0.25600001 156626.00926952 7245.51953161
0.25700001 154491.32037141 6576.69581938
0.25800001 152380.57081061 6511.98400170
0.25900001 150292.48280689 7033.68852816
0.26000001 148226.86125837 6963.69827141
0.26100001 146183.01655675 6319.49210476
0.26200001 144162.09869675 7393.35358149
0.26300001 142162.18857404 6755.54752069
0.26400001 140184.31617425 6129.55951476
0.26500001 138228.21988419 8824.48997497
0.26600001 136292.22324844 6550.20455927
0.26700001 134378.32648984 7022.61167467
0.26800001 132485.53705028 6949.52917483
0.26900001 130611.60037611 6347.72407866
0.27000001 128759.19356335 5757.46761264
0.27100001 126926.44335541 5696.45904736
0.27200001 125115.18860633 5123.46721589
0.27300001 123322.57333663 5575.41380440
0.27400001 121547.82933201 6016.61783667
0.27500001 119795.45294133 5455.48518513
0.27600001 118060.04970308 5395.93482705
0.27700001 116345.37922675 6792.24356071
0.27800001 114648.60320293 6237.45755246
0.27900001 112971.92375808 6168.26732912
0.28000001 111312.32049168 7976.08470233
0.28100001 109672.12525073 5103.04422944
0.28200001 108050.80470524 5962.78393988
0.28300001 106447.33899401 4988.12254135
0.28400001 104861.70356156 5827.68945126
0.28500001 103294.46528627 4874.46604757
0.28600001 101744.93270483 7008.19129642
0.28700001 100213.18722117 4762.13088215
0.28800001 98698.11774217  5134.27632797
0.28900001 97202.72350596  4651.15053992
0.29000001 95722.82141322  6267.45202870
0.29100001 94261.26722017  4954.37243961
0.29200001 92816.66204271  4079.29248987
0.29300001 91389.20483420  6851.44901074
0.29400001 89978.07507376  5175.98901363
0.29500001 88584.86647326  4326.48508336
0.29600001 87207.76642717  4273.61679607
0.29700001 85847.27755320  5756.06023242
0.29800001 84503.27275949  4168.96915894
0.29900001 83176.54579436  4117.23921173
0.30000001 81865.30777834  3696.21882117
0.30100001 80571.48704441  4744.85509667
0.30200001 79292.22507392  4684.98134028
0.30300001 78030.39366157  4269.82334330
0.30400001 76784.50461734  4215.46950306
0.30500001 75554.04022968  5201.89591608
0.30600001 74338.87766479  4450.29712209
0.30700001 73140.39800707  4392.81251227
0.30800001 71957.22791318  6670.43534336
0.30900001 70789.76886799  3950.06928985
0.31000001 69637.93024160  3898.33151949
0.31100001 68500.60002942  3846.99387979
0.31200001 67379.33514328  4112.49791518
0.31300001 66272.71078864  4370.02275631
0.31400001 65182.35739515  4311.81314584
0.31500001 64105.90063413  3342.48181732
0.31600002 63044.93103284  3297.56527380
0.31700002 61998.69242884  3844.53909954
0.31800002 60967.30245072  3500.74267248
0.31900002 59950.60133334  2877.62900025
0.32000002 58948.99395768  3122.23361280
0.32100002 57960.94758617  3639.36807126
0.32200002 56988.68292218  3037.21200015
0.32300002 56028.97173013  4356.81304803
0.32400002 55084.06301920  3222.41783921
0.32500002 54153.44088411  2912.91372309
0.32600002 53237.35693684  2611.29248140
0.32700002 52334.49033840  3862.28556986
0.32800002 51446.20735647  3046.64454392
0.32900002 50571.13771855  3003.92572273
0.33000002 49710.71808064  3455.39217741
0.33100002 48861.43166492  2433.29941214
0.33200002 48028.58970588  2878.83380330
0.33300002 47207.61211498  2838.12177475
0.33400002 46400.67487211  3031.12422956
0.33500002 45605.63604702  3447.78624843
0.33600002 44825.01430753  2492.49503861
0.33700002 44056.04330919  2680.36980187
0.33800002 43301.31447810  3082.62072368
0.33900002 42558.12400265  3038.65019769
0.34000002 41828.29798592  2781.37280629
0.34100002 41110.76429497  2741.67700067
0.34200002 40406.35159706  2494.68826575
0.34300002 39712.95553863  2459.02632341
0.34400002 39033.52565060  2221.98355289
0.34500002 38365.02911029  3185.83216820
0.34600002 37709.75533390  3336.74785875
0.34700002 37064.57910614  2321.72534517
0.34800002 36432.87438979  2288.71327756
0.34900002 35812.08239424  2068.14785622
0.35000002 35203.13926797  2965.51259239
0.35100002 34606.15014944  2375.36625876
0.35200002 34019.27903944  2341.71718359
0.35300002 33444.14762010  2131.06118729
0.35400002 32880.50711277  2451.24192136
0.35500002 32327.91711499  2244.20411242
0.35600002 31785.27486677  1702.10154973
0.35700002 31253.73701433  2349.65606003
0.35800002 30733.79761639  1986.01809604
0.35900002 30223.95263514  1795.30287156
0.36000002 29724.83563145  1770.55991825
0.36100002 29235.22064222  1904.96706728
0.36200002 28757.07072874  1722.40483288
0.36300002 28287.76752609  1698.96339809
0.36400002 27828.65434407  1523.61889751
0.36500002 27379.21618223  1653.43094356
0.36600002 26939.94311550  1779.65272651
0.36700002 26509.52212732  1755.99082889
0.36800002 26090.32545713  1732.91949895
0.36900002 25679.24947895  1710.23809631
0.37000002 25277.17442476  1547.34230571
0.37100002 24884.00041553  1805.08547565
0.37200002 24500.97032096  1370.82935439
0.37300002 24126.00321285  1894.85638210
0.37400002 23759.86370751  1871.08935560
0.37500002 23402.74853425  1319.91507986
0.37600002 23054.32092678  1694.83848322
0.37700002 22713.80411782  1287.87275449
0.37800002 22381.39936577  1654.09739849
0.37900002 22057.93028426  1760.22292007
0.38000002 21742.30098494  1366.82981617
0.38100002 21433.64989825  2087.85193550
0.38200002 21133.91261989  1335.55767128
0.38300002 20840.96539099  1200.43966339
0.38400002 20556.66784984  1543.29191194
0.38500002 20278.37142640  1526.35308957
0.38600002 20008.86934771  1277.66641273
0.38700002 19745.70679102  1493.96024658
0.38800002 19489.88745824  1478.40548318
0.38900002 19240.53755536  1463.24295041
0.39000002 18999.24307466  1337.16679094
0.39100002 18763.42743407  1213.61854393
0.39200002 18534.99633895  1201.90189454
0.39300002 18312.65041751  1515.18876733
0.39400002 18098.12088357  1072.31371316
0.39500002 17888.63323050  1062.58486423
0.39600002 17685.39307639  1158.48172836
0.39700002 17488.21701872  1148.45126603
0.39800002 17297.38260232  1345.82291714
0.39900002 17112.00906038  1232.06471072
0.40000002 16932.29384206  1527.71628428
0.40100002 16758.57156057  1111.59610428
0.40200002 16590.73851292  1002.91019062
0.40300002 16427.50797795  1294.15913982
0.40400002 16270.15217774  1383.77650828
0.40500002 16118.11016271  1079.75225096
0.40600002 15970.87905976  1267.52887663
0.40700002 15828.88336717  1259.34602036
0.40800002 15691.95087706  1444.05184788
0.40900002 15559.52501547  1626.74841745
0.41000002 15432.32046986  1046.54286225
0.41100002 15309.34179478  1135.34084130
0.41200002 15190.73927107  1035.17297668
0.41300002 15077.22227503  1217.18421194
0.41400002 14967.49822467  1024.89948950
0.41500002 14862.41402242  927.41467894
0.41600002 14760.72271138  1015.61157428
0.41700002 14663.60721512  1471.05314553
0.41800002 14571.36608097  1373.71560238
0.41900002 14481.02475279  1459.68736425
0.42000002 14395.83386784  909.09695183
0.42100002 14314.57375430  996.72381774
0.42200002 14236.91277312  1174.33180574
0.42300002 14162.13723393  900.71197076
0.42400002 14090.93309047  1257.61583792
0.42500002 14023.29789999  985.69765610
0.42600002 13958.20888360  894.02332136
0.42700002 13897.56800812  981.44629924
0.42800002 13839.12197156  979.60229518
0.42900002 13784.93569192  978.04123369
0.43000002 13732.96812733  1065.40371781
0.43100002 13683.04217813  975.32729268
0.43200002 13637.08321996  1062.87431653
0.43300002 13593.64832583  973.44120274
0.43400002 13552.94871115  1061.19593437
0.43500002 13514.55698614  1325.77810317
0.43600002 13479.06701125  971.90817290
0.43700002 13445.59369006  1236.72576622
0.43800002 13414.30823680  1413.33158281
0.43900002 13386.18602352  971.83715136
0.44000002 13359.79727616  972.12569487
0.44100002 13335.85892765  972.58423768
0.44200002 13313.97132882  1238.59881142
0.44300002 13294.10735166  973.92635074
0.44400002 13276.63032867  1063.45813972
0.44500002 13259.92842537  1419.34280592
0.44600002 13245.41868619  976.91590150
0.44700002 13233.88688018  1067.18068859
0.44800002 13222.30869015  979.57478573
0.44900002 13214.41154280  1159.56466783
0.45000002 13207.31616514  1072.16997710
0.45100002 13201.52544989  1342.59520188
0.45200002 13197.61960780  1165.81178331
0.45300002 13194.69611514  1437.69415684
0.45400002 13193.71041235  1080.56493398
0.45500002 13194.06733525  1173.21652305
0.45600002 13195.55236953  995.01067358
0.45700002 13198.43485298  1178.75227258
0.45800002 13202.11969307  1181.65577913
0.45900002 13207.06393545  1366.93118210
0.46000002 13214.01367572  913.74908898
0.46100002 13220.74145604  1007.81716896
0.46200002 13229.51255938  1102.54762895
0.46300002 13239.20513320  921.44872094
0.46400002 13249.09666333  1108.94944328
0.46500002 13260.44120462  1019.59537255
0.46600002 13272.42424573  1301.62670747
0.46700002 13284.80824316  1305.63101602
0.46800002 13299.15064078  935.59529192
0.46900002 13313.10834718  938.57418296
0.47000002 13328.03656989  1129.95099395
0.47100002 13343.73258254  944.73631162
0.47200002 13360.21312408  1232.27931591
0.47300002 13377.31698930  1141.35273962
0.47400002 13394.22077671  1049.77210313
0.47500002 13412.14549387  1053.38995702
0.47600002 13431.08204857  1153.19275935
0.47700002 13449.50702056  964.32969908
