# SAXS profile: number of points = 501, q_min = 0, q_max = 0.5, delta_q = 0.001
#    q    intensity    error
0.00000000 1664650.74656090 299.63713438
0.00100000 1664564.23615393 649.18006752
0.00200000 1664304.67440806 823.83083992
0.00300000 1663872.28207295 1297.82042625
0.00400000 1663266.92688969 1247.45024257
0.00500000 1662489.26218811 1795.48847423
0.00600000 1661539.12872245 2268.00100304
0.00700000 1660417.29764676 2391.00100798
0.00800000 1659123.50361505 2463.79850689
0.00900000 1657659.19492838 3481.08445816
0.01000000 1656023.73812868 3005.68321449
0.01100000 1654218.75747855 3573.11267172
0.01200000 1652244.08557611 3544.06371895
0.01300000 1650101.11105740 6237.38247490
0.01400000 1647789.97952250 5190.53866560
0.01500000 1645312.22720975 7107.74913805
0.01600000 1642667.55655315 5026.56294776
0.01700000 1639858.20867985 5313.14083446
0.01800000 1636884.58446799 4665.12127565
0.01900000 1633747.63128371 6861.74036101
0.02000000 1630448.28339222 6676.68602252
0.02100000 1626989.07457148 5905.97060846
0.02200000 1623368.79198710 7280.80936285
0.02300000 1619590.50250635 8745.78911163
0.02400000 1615654.78315310 6664.57628439
0.02500000 1611563.99142544 7542.11982432
0.02600000 1607318.64754102 9113.49714839
0.02700000 1602920.46621382 6732.26626644
0.02800000 1598370.14428943 8343.49253582
0.02900000 1593670.93020221 8605.82341822
0.03000000 1588823.39243278 8126.83202585
0.03100000 1583829.27373813 11403.57129563
0.03200000 1578689.67199058 10940.31993079
0.03300000 1573408.72090224 8826.82333118
0.03400000 1567985.16283578 9055.11473318
0.03500000 1562422.79077004 14343.04188160
0.03600000 1556722.30640836 8639.80919984
0.03700000 1550886.89425649 11492.07241792
0.03800000 1544917.89819575 11749.10115952
0.03900000 1538817.86135884 11079.48911487
0.04000000 1532586.89679224 11310.49182244
0.04100000 1526229.19928189 14422.86660195
0.04200000 1519746.29403380 13723.30967179
0.04300000 1513139.84870287 10985.39581150
0.04400000 1506412.46197457 12201.94150868
0.04500000 1499567.21829164 13451.11857308
0.04600000 1492604.08069857 13679.71703553
0.04700000 1485527.33030299 16043.69591343
0.04800000 1478338.44105820 10865.78804734
0.04900000 1471040.10896001 11032.80133075
0.05000000 1463634.20842061 13436.16265897
0.05100000 1456124.61221342 15900.88150610
0.05200000 1448510.43066482 16121.92184460
0.05300000 1440797.32235645 15171.59651168
0.05400000 1432985.94286988 13004.34803799
0.05500000 1425080.30558187 13167.74263784
0.05600000 1417080.57594224 12116.03948969
0.05700000 1408992.54360740 15935.70641205
0.05800000 1400815.12413460 18595.82164117
0.05900000 1392552.20077718 13786.26743159
0.06000000 1384207.83363502 18998.25340422
0.06100000 1375782.88420216 14074.25956310
0.06200000 1367280.52748449 16797.04206530
0.06300000 1358704.02430985 15652.27109188
0.06400000 1350052.76647512 14479.31659760
0.06500000 1341333.07322109 18590.87726448
0.06600000 1332546.34558077 17409.71881959
0.06700000 1323693.48619493 18902.34386747
0.06800000 1314778.91139802 20411.94355492
0.06900000 1305806.31483967 20566.45042162
0.07000000 1296775.14023581 15191.72147927
0.07100000 1287689.83807453 15297.75599284
0.07200000 1278552.17152470 18200.19101427
0.07300000 1269365.81828348 18316.94961608
0.07400000 1260133.55381499 14176.50314479
0.07500000 1250855.95689539 19963.66200780
0.07600000 1241536.34670430 20075.64366737
0.07700000 1232178.64720247 17299.78901788
0.07800000 1222784.16220970 14489.99300171
0.07900000 1213354.27346568 17472.30235742
0.08000000 1203894.68423494 17552.78531957
0.08100000 1194405.93857892 16160.31310719
0.08200000 1184889.57289229 16227.06346222
0.08300000 1175348.85442276 22214.09439114
0.08400000 1165787.22632870 16350.16661671
0.08500000 1156206.13347256 16406.56580418
0.08600000 1146608.25609330 14963.23844456
0.08700000 1136995.73893614 15008.34445871
0.08800000 1127370.34185913 21070.55267890
0.08900000 1117735.64110615 18107.31823641
0.09000000 1108093.56906849 16638.02572114
0.09100000 1098445.91444940 16674.40976473
0.09200000 1088794.99249072 16707.55994480
0.09300000 1079144.65176639 16737.53433543
0.09400000 1069493.55637469 19812.36906297
0.09500000 1059846.50141034 15261.79033765
0.09600000 1050204.77075978 19864.62417271
0.09700000 1040573.16160556 19885.35405315
0.09800000 1030950.40492765 21433.45992620
0.09900000 1021340.51441161 22980.16265485
0.10000000 1011743.24380891 21459.07521035
0.10100000 1002162.11755633 21466.31356766
0.10200000 992599.35958522 16869.22690962
0.10300000 983056.14271124 15335.67654770
0.10400000 973535.07384863 16866.49594791
0.10500000 964039.40374516 24525.16358517
0.10600001 954565.76188082 22981.17179863
0.10700001 945122.31987593 16842.08053274
0.10800001 935705.57042604 16828.66547610
0.10900001 926321.02664907 15284.29765908
0.11000001 916969.05412590 22901.30320475
0.11100001 907650.05174726 15248.52158715
0.11200001 898367.98430119 19795.53946599
0.11300001 889121.87252225 18244.78168314
0.11400001 879915.28017731 22767.80894660
0.11500001 870749.05115658 16666.13762391
0.11600001 861624.83499627 19657.97153616
0.11700001 852543.73535647 15090.02482647
0.11800001 843506.36453218 24090.54290566
0.11900001 834514.44437100 16523.38677682
0.12000001 825569.13493204 22476.12075726
0.12100001 816673.92424838 19428.67357312
0.12200001 807827.61568077 19375.74627492
0.12300001 799032.45017761 22293.00641028
0.12400001 790288.53634330 16299.70183008
0.12500001 781597.21616069 19203.84450596
0.12600001 772961.53538923 19142.39332597
0.12700001 764380.09699232 17611.31826466
0.12800001 755854.55097941 16088.36487583
0.12900001 747386.24786770 16031.43577236
0.13000001 738975.97299988 14520.87855389
0.13100001 730623.60293262 20252.88722797
0.13200001 722330.95336794 15851.55351891
0.13300001 714099.54432895 21530.10227651
0.13400001 705928.32289773 25731.08858273
0.13500001 697819.87353028 14235.52609120
0.13600001 689772.90064915 15592.31715436
0.13700001 681790.12653335 14113.05628472
0.13800001 673869.67187786 16860.21998544
0.13900001 666014.61252972 19580.83053177
0.14000001 658224.11232958 16705.72875878
0.14100001 650498.78983060 15241.18736455
0.14200001 642838.83072744 17925.56164030
0.14300001 635246.44580360 13721.32387656
0.14400001 627717.73894754 16383.43375934
0.14500001 620258.31898447 17658.75517449
0.14600001 612865.31306335 17567.78502771
0.14700001 605541.78849805 16131.63400662
0.14800001 598282.62432691 13371.61728456
0.14900001 591093.10081364 19949.39309369
0.15000001 583971.31848879 13226.95098786
0.15100001 576917.95342038 14469.10295451
0.15200001 569933.55016572 19619.96339026
0.15300001 563018.49525968 14306.30063965
0.15400001 556169.60352063 20689.51022733
0.15500001 549391.00458692 12855.75011403
0.15600001 542678.58655007 19170.12197461
0.15700001 536038.53256654 17785.75934999
0.15800001 529462.97594114 13890.46182943
0.15900001 522958.37201906 16316.30197713
0.16000001 516519.85048222 13721.35047574
0.16100001 510152.60440370 12396.70887219
0.16200001 503851.71526678 16014.92752576
0.16300001 497618.79298178 13465.56517377
0.16400001 491453.70420991 17028.87165480
0.16500001 485355.80589944 12085.36013746
0.16600001 479325.94651541 20412.09639608
0.16700001 473361.30376273 15507.31704344
0.16800001 467463.16795610 15405.24942737
0.16900001 461633.56299237 15303.15333578
0.17000001 455868.09486515 14031.62062252
0.17100001 450168.47481094 17421.52079785
0.17200001 444534.76673459 13842.81328981
0.17300001 438965.88263978 11457.01007795
0.17400001 433461.36386471 12516.19747268
0.17500001 428020.84543092 15819.65119425
0.17600001 422642.73899448 14587.51482535
0.17700001 417329.66658310 11142.70262405
0.17800001 412077.62831852 12170.71332724
0.17900001 406888.64732590 12084.59339638
0.18000001 401761.58198912 18543.30669260
0.18100001 396697.22499347 12995.80170466
0.18200001 391690.82554337 16127.87050360
0.18300001 386745.86159513 12809.02354112
0.18400001 381860.12408734 11656.28083842
0.18500001 377034.97900935 15778.91461697
0.18600001 372266.91908940 11486.29633116
0.18700001 367556.90122803 17620.67867736
0.18800001 362904.32404065 11317.17187990
0.18900001 358310.19625288 12254.20929083
0.19000001 353768.66656486 13176.11460876
0.19100001 349287.24110842 10059.47301923
0.19200001 344857.63367569 10981.99186332
0.19300001 340485.15770000 12880.55412443
0.19400001 336164.11895384 9832.80094404
0.19500001 331897.75147044 13660.91209607
0.19600001 327683.58313491 10651.35537314
0.19700001 323521.39664706 16334.59608864
0.19800001 319410.95518770 9534.41746294
0.19900001 315351.59338960 11352.65789855
0.20000001 311341.08055336 11264.32082679
0.20100001 307381.83905479 11176.40419625
0.20200001 303469.80424929 10164.72157375
0.20300001 299607.79294514 11001.59867693
0.20400001 295792.64553964 11824.31156433
0.20500001 292024.43634268 11730.62216236
0.20600001 288302.89838205 9846.98595969
0.20700001 284627.52036217 10656.45486608
0.20800001 280996.22272828 13213.84799842
0.20900001 277411.59638604 13107.69854886
0.21000001 273869.36694097 10401.55904812
0.21100001 270371.21710832 12036.92715469
0.21200001 266915.30583884 13644.71107953
0.21300001 263500.94319062 14379.24714970
0.21400001 260129.33798558 8389.17154665
0.21500001 256799.35148976 9152.32931979
0.21600001 253508.81203565 9076.88344408
0.21700001 250258.39076123 11456.82967072
0.21800001 247047.45919557 8927.06036011
0.21900001 243873.98806784 10462.19458278
0.22000001 240738.64568204 11970.72972255
0.22100001 237642.47470625 7913.49478190
0.22200001 234583.38519420 8631.49606636
0.22300001 231559.12664757 10892.54183256
0.22400001 228570.66368113 7714.26026402
0.22500001 225620.04382178 8413.37183196
0.22600001 222701.96921168 12132.80385639
0.22700001 219820.40513537 9773.21567449
0.22800001 216971.41418181 8943.56211552
0.22900001 214154.96853300 9604.85079293
0.23000001 211372.63925932 13183.31213407
0.23100001 208623.24344185 7986.09813664
0.23200001 205904.06653849 7915.98221245
0.23300001 203217.16624324 9272.79973423
0.23400001 200561.86041498 8483.76709680
0.23500001 197935.21204207 8408.28820523
0.23600001 195340.38084645 13194.26664832
0.23700001 192774.37794288 10323.06842710
0.23800001 190237.79449689 6820.02525529
0.23900001 187729.58491235 6758.26537651
0.24000001 185249.79231987 14732.91668007
0.24100001 182799.14456017 7962.73111369
0.24200001 180375.09941065 7889.60722142
0.24300001 177978.83730572 9119.63605493
0.24400001 175608.72052909 8389.70702014
0.24500001 173264.92682775 8950.86654334
0.24600001 170947.89762407 6333.61990658
0.24700001 168656.52026250 7528.82742068
0.24800001 166390.24100770 8700.54611389
0.24900001 164148.14927540 7386.66706684
0.25000001 161931.98205909 6096.73941295
0.25100001 159738.86041563 6641.94213031
0.25200001 157571.66596326 6577.82950683
0.25300001 155427.72050308 5921.79643133
0.25400001 153306.94610139 6450.39006239
0.25500001 151209.03583277 5806.42725069
0.25600001 149134.49734985 6898.96217381
0.25700001 147081.71282435 5692.06255561
0.25800001 145052.34544045 7325.86905309
0.25900001 143044.85574789 8368.12445719
0.26000001 141058.98307473 6626.95133841
0.26100001 139094.22338386 5466.40323763
0.26200001 137151.62428272 8115.94775095
0.26300001 135229.41124728 6961.61042042
0.26400001 133328.34946370 6889.74278455
0.26500001 131448.42526201 7342.70938258
0.26600001 129587.76358522 7265.98624805
0.26700001 127748.60797204 5649.04371184
0.26800001 125929.72631555 6097.51763674
0.26900001 124129.21292576 5027.23336139
0.27000001 122349.41175345 6962.90535239
0.27100001 120588.55548697 6888.01861538
0.27200001 118848.49129466 5353.53054372
0.27300001 117126.22679258 6739.44340858
0.27400001 115421.47242970 8570.04473348
0.27500001 113738.15127057 7534.01549671
0.27600001 112071.28657562 6984.84326639
0.27700001 110424.36409399 5065.16582071
0.27800001 108794.81828529 6829.59504109
0.27900001 107184.63749106 5852.28148399
0.28000001 105590.94112649 4895.72421704
0.28100001 104015.91002102 5279.84784256
0.28200001 102459.19767916 6089.15040627
0.28300001 100919.57308359 5588.92622189
0.28400001 99397.26777434  4249.23339847
0.28500001 97892.63725347  5459.47263803
0.28600001 96405.17214455  4565.26714299
0.28700001 94934.87009720  4511.30524055
0.28800001 93480.83021075  5268.11243588
0.28900001 92045.51539428  4404.37812009
0.29000001 90625.28648326  4746.95273069
0.29100001 89222.75183014  4298.75238666
0.29200001 87836.66516865  5018.54810197
0.29300001 86467.10998547  4957.15965012
0.29400001 85113.23229280  4142.88677796
0.29500001 83776.72995794  7067.40527380
0.29600001 82455.79937596  4040.74663970
0.29700001 81151.01118047  3990.19540863
0.29800001 79862.17635031  4298.18253464
0.29900001 78589.84287918  3890.19740668
0.30000001 77332.68258781  3840.72786254
0.30100001 76092.26004800  5170.46931503
0.30200001 74865.80977723  4763.71170164
0.30300001 73656.36967417  3358.73061615
0.30400001 72462.41559613  3646.67123751
0.30500001 71283.49922857  4580.67787729
0.30600001 70119.05124427  3551.88070893
0.30700001 68970.97650732  3823.75111859
0.30800001 67837.58834663  5030.83578996
0.30900001 66719.52902964  3722.94989611
0.31000001 65616.44779060  3979.30966466
0.31100001 64527.61695059  3623.87113952
0.31200001 63454.25912950  4766.68417149
0.31300001 62395.02833255  3232.68657096
0.31400001 61351.72458464  3188.75603626
0.31500001 60321.84063886  3145.18091983
0.31600002 59307.01874994  3384.05865010
0.31700002 58306.42327502  3337.45982628
0.31800002 57320.18660708  4114.15658852
0.31900002 56348.18962999  2975.18455334
0.32000002 55390.89269540  4000.60741435
0.32100002 54446.75505637  2629.77839374
0.32200002 53517.92407548  3111.53225308
0.32300002 52601.37956401  3834.64075179
0.32400002 51699.23872517  2772.37180791
0.32500002 50810.76288395  2981.57570721
0.32600002 49936.44263899  3184.19741565
0.32700002 49075.09779053  2414.49492563
0.32800002 48227.93830350  2618.05375478
0.32900002 47393.45475540  3049.76895793
0.33000002 46573.38224444  2543.60539173
0.33100002 45763.80152232  2506.94116611
0.33200002 44970.61399507  2470.91050297
0.33300002 44188.88925326  2656.63614771
0.33400002 43420.65576310  2836.45447205
0.33500002 42664.06254153  3010.37639549
0.33600002 41921.46467070  2331.04315340
0.33700002 41190.36904047  2297.18699017
0.33800002 40472.82602590  3087.06495132
0.33900002 39766.74906834  2230.91472838
0.34000002 39073.56871740  2398.33576145
0.34100002 38392.43853682  2166.48540923
0.34200002 37724.06502332  2329.08388484
0.34300002 37066.48051860  3633.99792215
0.34400002 36422.26015878  2638.79287348
0.34500002 35788.93439836  1857.44578324
0.34600002 35168.44548934  2196.62120930
0.34700002 34557.65945879  2525.47387286
0.34800002 33960.16019865  2488.94025884
0.34900002 33373.28733607  1927.30743494
0.35000002 32797.69285259  2072.15833257
0.35100002 32234.03811632  1701.95729315
0.35200002 31679.99723898  2180.69271323
0.35300002 31137.54978779  1818.74436925
0.35400002 30606.41059612  2444.68716215
0.35500002 30085.80934647  2249.21521327
0.35600002 29574.96295014  1742.11327509
0.35700002 29075.08470591  1561.33212266
0.35800002 28586.42369991  1539.37898915
0.35900002 28107.47557926  1973.14487912
0.36000002 27639.01757130  2095.31402133
0.36100002 27179.93598967  1623.45765356
0.36200002 26731.94291170  1892.22066863
0.36300002 26292.57480207  1722.68958263
0.36400002 25863.15406144  2124.01162790
0.36500002 25443.14874715  1536.51182562
0.36600002 25033.04784517  1653.68321898
0.36700002 24631.61923781  1495.63199097
0.36800002 24241.09282588  1744.26791691
0.36900002 23858.38713165  1588.96865824
0.37000002 23484.53717255  1306.91455556
0.37100002 23119.44520866  1548.07812450
0.37200002 22764.09314655  1655.74639345
0.37300002 22416.63936619  1760.60293922
0.37400002 22077.73289729  1366.05978773
0.37500002 21747.71241716  1471.88524612
0.37600002 21426.07816893  2059.79612235
0.37700002 21112.13375531  1795.58706095
0.37800002 20806.15696850  1301.11308766
0.37900002 20508.72197350  1285.89692865
0.38000002 20219.01140743  1848.82649068
0.38100002 19936.08721710  1142.33785166
0.38200002 19661.87797164  1468.44742588
0.38300002 19394.19965793  1340.52714386
0.38400002 19135.00371435  1657.56977528
0.38500002 18881.56617187  1858.51264634
0.38600002 18636.63311856  1190.04226416
0.38700002 18398.03585498  1499.07203248
0.38800002 18166.33426274  1378.00735078
0.38900002 17941.08166408  1154.50865978
0.39000002 17723.58122974  1143.43689721
0.39100002 17511.38256472  1235.60321230
0.39200002 17306.34262217  1530.31341887
0.39300002 17107.35025907  1314.35778267
0.39400002 16915.76559909  1503.38873885
0.39500002 16729.05385946  1391.18818486
0.39600002 16548.47169467  1478.19230416
0.39700002 16373.75866964  1466.27015834
0.39800002 16205.07572085  1163.84859341
0.39900002 16041.81613223  1540.01442166
0.40000002 15883.96718110  1050.96273833
0.40100002 15731.94619069  1043.50004027
0.40200002 15585.49271718  1036.35738733
0.40300002 15443.57507378  1216.64490196
0.40400002 15307.35543290  1115.90626393
0.40500002 15176.17477661  1016.65199645
0.40600002 15049.84455234  1286.31027484
0.40700002 14928.22467662  1370.41109024
0.40800002 14811.70829544  1272.17768577
0.40900002 14699.39814104  1084.81563421
0.41000002 14592.09685610  899.60281380
0.41100002 14488.98331615  895.41921137
0.41200002 14390.00319626  980.60681427
0.41300002 14295.82135462  976.54760301
0.41400002 14205.39798695  972.71467325
0.41500002 14119.37403753  1057.25877803
0.41600002 14036.66145335  965.79253706
0.41700002 13958.13959896  875.17539432
0.41800002 13884.50089316  1047.16910698
0.41900002 13812.48330937  870.18648972
0.42000002 13745.44500590  1302.03733988
0.42100002 13682.11983496  1039.29387191
0.42200002 13622.28529817  1123.63425606
0.42300002 13565.20081726  862.74681286
0.42400002 13511.32697919  1119.75127646
0.42500002 13461.06243839  1462.27528197
0.42600002 13413.04611573  859.10564442
0.42700002 13369.37284033  1115.80791013
0.42800002 13327.49711688  1029.14937613
0.42900002 13289.92153346  1200.07997134
0.43000002 13254.38478173  856.89601674
0.43100002 13220.62822467  1199.37544938
0.43200002 13190.75056977  1199.43500615
0.43300002 13163.13153309  1113.99587444
0.43400002 13138.06859824  1200.16262332
0.43500002 13115.17978572  1029.27935836
0.43600002 13094.95869656  944.21204156
0.43700002 13076.62714086  1116.87477703
0.43800002 13060.39638453  946.02985695
0.43900002 13047.08237450  1463.88271179
0.44000002 13035.22842814  1207.19256194
0.44100002 13025.76695506  1036.33006806
0.44200002 13018.10061204  1124.56867466
0.44300002 13012.36464517  953.28587908
0.44400002 13008.86372550  1042.01003379
0.44500002 13005.90382322  957.10450771
0.44600002 13004.98864984  959.18298333
0.44700002 13006.85066193  961.46644649
0.44800002 13008.55722778  1314.18955622
0.44900002 13013.55550609  1317.62255744
0.45000002 13019.39902110  1321.14357828
0.45100002 13026.31467262  971.50259433
0.45200002 13034.80508456  1062.85805697
0.45300002 13044.34231608  977.15172921
0.45400002 13055.54676132  1158.35344130
0.45500002 13067.87415245  893.84263439
0.45600002 13081.16892377  986.38558945
0.45700002 13095.63530185  1079.60422545
0.45800002 13110.80066267  902.67866841
0.45900002 13127.18619553  996.35347946
0.46000002 13145.18810588  999.88878066
0.46100002 13162.89608673  1003.40761625
0.46200002 13182.50963702  1007.07787145
0.46300002 13202.76718066  1194.58643112
0.46400002 13223.09613162  1106.77319867
0.46500002 13244.71446953  1296.12781942
0.46600002 13266.87610894  1115.21365857
0.46700002 13289.28424037  1026.19857768
0.46800002 13313.31771287  1404.88791824
0.46900002 13336.86029428  1034.27356484
0.47000002 13361.20652028  1132.76314248
0.47100002 13386.26868865  1326.84701531
0.47200002 13411.77389734  1046.72194343
0.47300002 13437.79181970  1146.51245240
0.47400002 13463.47350793  1055.19978620
0.47500002 13489.99878153  963.18595865
0.47600002 13517.30813866  1160.59613179
0.47700002 13543.96508779  1359.54327995
