# SAXS profile: number of points = 501, q_min = 0, q_max = 0.5, delta_q = 0.001
#    q    intensity    error
0.00000000 1646666.22097350 345.79990640
0.00100000 1646580.39836118 642.16637061
0.00200000 1646322.91702450 889.01440334
0.00300000 1645893.96938270 1185.04370017
0.00400000 1645293.44953133 1604.16117425
0.00500000 1644521.99206712 1776.08382173
0.00600000 1643579.45868423 1898.33435207
0.00700000 1642466.57346209 1970.95997007
0.00800000 1641183.15656175 2880.27656137
0.00900000 1639730.58324164 3443.43437201
0.01000000 1638108.17169356 3784.03004000
0.01100000 1636317.56854736 3239.90892679
0.01200000 1634358.76147112 4461.79961444
0.01300000 1632232.92561395 3770.45822446
0.01400000 1629940.33260494 6234.52204860
0.01500000 1627482.36012303 4687.14940587
0.01600000 1624858.90354707 4972.06846712
0.01700000 1622072.06328453 4379.59476733
0.01800000 1619122.23869344 5537.39830550
0.01900000 1616010.48316074 4848.03166824
0.02000000 1612737.58697305 6096.14835452
0.02100000 1609306.17945946 6903.92382289
0.02200000 1605714.97918820 6093.68862287
0.02300000 1601967.01686908 6343.78967556
0.02400000 1598062.99711218 7790.55746615
0.02500000 1594005.13257627 6838.28233106
0.02600000 1589793.83361155 7726.39838474
0.02700000 1585431.26536616 7990.57394342
0.02800000 1580917.53936385 8940.08909509
0.02900000 1576256.18117822 10639.72971147
0.03000000 1571447.90368705 10960.84963204
0.03100000 1566494.05518521 9023.00617304
0.03200000 1561396.02655532 9274.69282491
0.03300000 1556157.83122894 10317.32689668
0.03400000 1550778.15326865 10584.06138441
0.03500000 1545260.89382998 11682.17289681
0.03600000 1539606.71908845 10253.78122299
0.03700000 1533818.79491501 15736.98156362
0.03800000 1527898.22628805 9832.02554119
0.03900000 1521847.78144955 11870.41324503
0.04000000 1515667.54262103 12117.76256478
0.04100000 1509361.72338198 11410.77515785
0.04200000 1502931.55421115 11632.69076927
0.04300000 1496378.97107684 14814.15250130
0.04400000 1489706.93920364 13072.17899861
0.04500000 1482917.44236808 15348.19624166
0.04600000 1476011.42984500 13527.64538339
0.04700000 1468992.50937305 14807.44518314
0.04800000 1461862.73580264 15042.56825131
0.04900000 1454624.51576624 12000.65281367
0.05000000 1447279.53617440 13286.02676076
0.05100000 1439831.59443583 11230.68695977
0.05200000 1432280.42564278 13663.95589739
0.05300000 1424630.76904122 19617.16660421
0.05400000 1416884.10115058 12858.22381757
0.05500000 1409043.96693685 15386.76083673
0.05600000 1401110.76871618 14375.39715784
0.05700000 1393089.66860111 19391.80909211
0.05800000 1384980.21812199 15934.19815350
0.05900000 1376786.02384132 12391.07479331
0.06000000 1368511.17906386 13774.06566079
0.06100000 1360156.54048767 16444.29334296
0.06200000 1351725.47991624 12773.80638230
0.06300000 1343220.59014931 19342.37740251
0.06400000 1334642.04298590 13012.76052768
0.06500000 1325995.37505671 17065.56127527
0.06600000 1317282.51495776 25153.51080001
0.06700000 1308504.09855030 13346.74242983
0.06800000 1299665.00990042 18832.14687497
0.06900000 1290768.01097895 16263.67769978
0.07000000 1281813.32588815 13651.31255998
0.07100000 1272804.84848567 13746.29300749
0.07200000 1263744.70312775 17989.40669177
0.07300000 1254636.35480489 13926.46419087
0.07400000 1245482.71253037 15412.84928987
0.07500000 1236284.19836935 18321.73267862
0.07600000 1227044.28494430 19841.30701772
0.07700000 1217766.83977160 17097.44723207
0.07800000 1208452.60410338 14320.16403019
0.07900000 1199103.71655163 21583.86791029
0.08000000 1189725.65460739 24573.78454870
0.08100000 1180318.67229464 24680.46459564
0.08200000 1170884.11981345 14577.50797573
0.08300000 1161426.21518109 21950.95649713
0.08400000 1151947.18981537 16156.06009550
0.08500000 1142449.08940131 22106.39091770
0.08600000 1132934.75116370 23655.67871497
0.08700000 1123405.78343207 16311.85274140
0.08800000 1113864.55852817 14870.09255471
0.08900000 1104314.09372730 16399.06506211
0.09000000 1094756.36035675 22415.13753127
0.09100000 1085193.33914877 25458.63693251
0.09200000 1075627.04541148 15004.99798853
0.09300000 1066061.70837413 19540.91203277
0.09400000 1056496.10689654 19571.59130007
0.09500000 1046934.14930701 15075.85245863
0.09600000 1037377.47219247 22640.76439489
0.09700000 1027831.49742333 16620.03609469
0.09800000 1018294.24328547 18146.00426853
0.09900000 1008770.09318003 16644.70732015
0.10000000 999258.29685879 19680.39308215
0.10100000 989762.98272846 18172.04921756
0.10200000 980285.82327395 19689.04168656
0.10300000 970828.18401528 18173.90445968
0.10400000 961392.83157032 18170.32537150
0.10500000 951982.81816128 18163.83302511
0.10600001 942594.89120350 15128.64871567
0.10700001 933236.30536253 19653.95751580
0.10800001 923905.37481832 16616.43894811
0.10900001 914605.98621618 22636.49922425
0.11000001 905339.09381672 25625.62425667
0.11100001 896105.34108480 22581.85565834
0.11200001 886907.69786569 15033.08618654
0.11300001 877746.55701438 19512.30688108
0.11400001 868624.31031048 16482.14706419
0.11500001 859542.31935857 19442.84817942
0.11600001 850502.09341638 16418.94368660
0.11700001 841504.68385223 20852.48704790
0.11800001 832551.04918265 16347.14062062
0.11900001 823642.45859966 17790.67794372
0.12000001 814780.32499485 16267.08995478
0.12100001 805967.71808460 14749.20993576
0.12200001 797203.79127656 20591.77489878
0.12300001 788490.88069672 26398.67592948
0.12400001 779828.99859928 17546.15329521
0.12500001 771218.70955591 20406.44801641
0.12600001 762664.45333866 15981.63437282
0.12700001 754163.50199819 18823.92189698
0.12800001 745718.34349017 14429.65062659
0.12900001 737330.08117475 17253.52471268
0.13000001 728999.55441929 18622.29449540
0.13100001 720726.41832914 21405.57563338
0.13200001 712512.53677966 18479.01351249
0.13300001 704359.50635753 18404.91476878
0.13400001 696266.49068318 18329.21623138
0.13500001 688235.18070566 15443.99818319
0.13600001 680265.33130559 18173.28918271
0.13700001 672358.96108554 16701.39738089
0.13800001 664514.76773068 20782.70034080
0.13900001 656735.43058570 22066.31150829
0.14000001 649019.97478575 19217.48235971
0.14100001 641369.23732104 15027.28193916
0.14200001 633783.48873523 16313.58776948
0.14300001 626264.52235662 18938.24004934
0.14400001 618809.21533214 17496.83138884
0.14500001 611422.41742813 14729.16673065
0.14600001 604101.30640019 17316.56476486
0.14700001 596848.98540244 18550.06734144
0.14800001 589661.11074029 14496.81909149
0.14900001 582542.17480204 14417.91950660
0.15000001 575489.99899602 15641.81891074
0.15100001 568505.97858243 14258.13061562
0.15200001 561590.04007681 15466.19043352
0.15300001 554742.92789032 15377.47468677
0.15400001 547961.68739767 12740.10983321
0.15500001 541250.21393675 12665.25560383
0.15600001 534604.33246167 16366.91241075
0.15700001 528029.90769946 17520.03316436
0.15800001 521519.64537742 21145.01501985
0.15900001 515079.80209947 16070.49058404
0.16000001 508705.01988980 14742.27217228
0.16100001 502401.02614342 14650.01461389
0.16200001 496163.07558211 12131.18777065
0.16300001 489992.54957116 14464.58074618
0.16400001 483889.12708581 14371.50775292
0.16500001 477852.07758032 11898.51729349
0.16600001 471882.66411121 15366.85968230
0.16700001 465978.11480665 11742.64904755
0.16800001 460138.93147205 18663.23594172
0.16900001 454367.86665057 13903.65737601
0.17000001 448660.72970937 12658.96308650
0.17100001 443018.19553622 12572.85698302
0.17200001 437441.50863889 13621.92922228
0.17300001 431928.36165737 16909.99615745
0.17400001 426479.44953664 12314.59468694
0.17500001 421093.98429128 12228.56988134
0.17600001 415770.20136357 15454.17911457
0.17700001 410510.60356831 12056.69699625
0.17800001 405312.19236699 15235.68603069
0.17900001 400175.67365062 14046.16680859
0.18000001 395100.63422099 12872.37927095
0.18100001 390087.40072454 13844.20250567
0.18200001 385131.92167259 11629.05892424
0.18300001 380237.06922765 12593.45232773
0.18400001 375401.05616693 15626.06970114
0.18500001 370625.01731608 10340.43847162
0.18600001 365905.40305344 10263.64704054
0.18700001 361243.09221372 13243.17238623
0.18800001 356637.63069893 10110.67730801
0.18900001 352090.41666062 13044.95055362
0.19000001 347595.28681412 12946.18706908
0.19100001 343159.34007169 12847.88629935
0.19200001 338775.24915574 11769.05271177
0.19300001 334446.90413826 9732.40537030
0.19400001 330170.12711807 9657.47667456
0.19500001 325947.09301920 14374.26748140
0.19600001 321776.02125899 11410.17825305
0.19700001 317656.08938521 15095.01808094
0.19800001 313587.60372443 14040.88562032
0.19900001 309569.69947607 11144.50970783
0.20000001 305600.18106233 11977.99966283
0.20100001 301681.15550899 13711.40916592
0.20200001 297809.15782106 10881.94714110
0.20300001 293986.55699839 9895.58797628
0.20400001 290210.75897839 12493.57376454
0.20500001 286480.68253256 12393.15491214
0.20600001 282796.89400430 10537.01276866
0.20700001 279159.28044448 11322.70095004
0.20800001 275564.92034158 12094.54492550
0.20900001 272017.24061360 9425.39783281
0.21000001 268511.17609692 10198.05495025
0.21100001 265048.52994279 8428.54365063
0.21200001 261628.11278070 11702.62603792
0.21300001 258248.69088662 9947.74004324
0.21400001 254911.56961432 12331.34776308
0.21500001 251615.76240636 11413.29152235
0.21600001 248358.67092798 8084.07512091
0.21700001 245141.67208587 8016.13305621
0.21800001 241963.49909651 8743.35145324
0.21900001 238822.83074632 11033.61530217
0.22000001 235719.69113004 10939.75138260
0.22100001 232655.36750939 9296.90892527
0.22200001 229627.61024988 8449.14831866
0.22300001 226634.73293052 9899.40560250
0.22400001 223677.16923755 10568.74674623
0.22500001 220756.80578609 8232.02167703
0.22600001 217868.84004336 11869.49496685
0.22700001 215016.93286701 8088.93739698
0.22800001 212197.76162036 8017.89280199
0.22900001 209410.62811074 9392.06711493
0.23000001 206657.05805452 8592.80088028
0.23100001 203936.51342317 8516.38920331
0.23200001 201245.96510491 7736.90149436
0.23300001 198586.78178885 7667.43600749
0.23400001 195959.24467884 8289.07644195
0.23500001 193360.47294329 7529.45717253
0.23600001 190792.88510185 8139.22486341
0.23700001 188253.92286598 8736.86497345
0.23800001 185744.41172245 6658.93747521
0.23900001 183262.95458204 9896.20001552
0.24000001 180809.48233724 7843.51571479
0.24100001 178385.06873777 7122.91613162
0.24200001 175987.37906989 7697.68832463
0.24300001 173616.52353223 6354.36506186
0.24400001 171272.10978688 7553.10039889
0.24500001 168954.10990995 9975.05112095
0.24600001 166661.80088594 6792.30201642
0.24700001 164395.64455770 8561.72557359
0.24800001 162154.47273213 6056.46984306
0.24900001 159937.26747570 6597.41259548
0.25000001 157745.82051553 7126.95650806
0.25100001 155577.28490232 7056.98597703
0.25200001 153434.25813717 5822.83037178
0.25300001 151314.78689577 7494.62174952
0.25400001 149217.91650344 8561.37836443
0.25500001 147144.07795968 6780.39943318
0.25600001 145093.50451290 7830.69680905
0.25700001 143064.69156865 5536.60382566
0.25800001 141058.80810479 6576.16194499
0.25900001 139074.94405606 5966.31538230
0.26000001 137112.89424211 7515.15808899
0.26100001 135171.17848257 5843.45032229
0.26200001 133252.16789187 6308.15792648
0.26300001 131353.20885993 5201.58731698
0.26400001 129475.19342369 6690.63093676
0.26500001 127618.49091328 5601.17583123
0.26600001 125781.15096318 5037.53533445
0.26700001 123964.92493671 5481.72924010
0.26800001 122169.14001759 4929.52503298
0.26900001 120391.43194695 5363.43854704
0.27000001 118634.68422895 7716.00022739
0.27100001 116896.61658486 6200.19683707
0.27200001 115179.33909200 5659.91299083
0.27300001 113480.18148602 6063.24638374
0.27400001 111798.11648245 6917.50878472
0.27500001 110137.76111771 5927.61458388
0.27600001 108493.74787606 4958.70698135
0.27700001 106869.50141525 5347.75010391
0.27800001 105262.49680081 6167.32997944
0.27900001 103675.22921517 4789.79581643
0.28000001 102104.21220056 4303.69274794
0.28100001 100552.07146924 5954.69395424
0.28200001 99018.26137032  7145.65316999
0.28300001 97501.35694246  4153.55800234
0.28400001 96001.71367804  4924.88814478
0.28500001 94520.05939589  4054.91074001
0.28600001 93055.32806391  4006.03206276
0.28700001 91607.71999168  4353.19906005
0.28800001 90176.41494477  3909.14777289
0.28900001 88764.08309753  5405.73291651
0.29000001 87366.81741844  4576.27411299
0.29100001 85987.07833557  3766.23420937
0.29200001 84624.02546517  7066.52958097
0.29300001 83277.42213954  6243.30863333
0.29400001 81946.46451009  4351.35747146
0.29500001 80633.02253163  3938.11700686
0.29600001 79335.21242728  3887.82226904
0.29700001 78053.42129134  4884.58333564
0.29800001 76787.69787192  4132.71409510
0.29900001 75538.47394497  3399.23148844
0.30000001 74304.31757474  4696.77613624
0.30100001 73087.23903103  5297.36333575
0.30200001 71883.79683252  3593.83059278
0.30300001 70697.88883183  3868.58866002
0.30400001 69527.20607553  4135.13077711
0.30500001 68371.53438659  4393.55500768
0.30600001 67230.41859015  3715.15310718
0.30700001 66105.83173534  3664.90748492
0.30800001 64995.69045488  3313.80543473
0.30900001 63901.17820620  3268.54541999
0.31000001 62821.72466710  3223.69695392
0.31100001 61756.41464800  4913.34058202
0.31200001 60706.69957822  3705.23358418
0.31300001 59671.01301895  2810.50484626
0.31400001 58650.97115189  3325.51022176
0.31500001 57644.91245113  3278.84277546
0.31600002 56653.77156905  4040.83044849
0.31700002 55676.89036231  2655.78779603
0.31800002 54714.27961570  3927.11760536
0.31900002 53766.22191982  3613.09028409
0.32000002 52832.46270167  2798.27151949
0.32100002 51912.12085446  3008.82666719
0.32200002 51007.05325754  3212.67940155
0.32300002 50114.48477808  2922.67689065
0.32400002 49236.07755631  2880.31067343
0.32500002 48371.47973940  2838.43856551
0.32600002 47520.89714893  3030.17015019
0.32700002 46683.29495482  3445.22733081
0.32800002 45860.16353951  2489.51909563
0.32900002 45049.58219515  3344.93163638
0.33000002 44253.14998471  3295.75350118
0.33100002 43467.45137361  2164.67918091
0.33200002 42698.19685315  2985.88504734
0.33300002 41940.39703640  2731.57818834
0.33400002 41195.73794388  2484.10311565
0.33500002 40463.26179206  2039.34849090
0.33600002 39744.29359832  2009.07413654
0.33700002 39037.08253018  1979.18017801
0.33800002 38343.28803129  2339.70754647
0.33900002 37661.11600899  2881.07551113
0.34000002 36991.70792282  1892.12594986
0.34100002 36334.21500899  2423.12891371
0.34200002 35689.38257411  2387.08446652
0.34300002 35055.69643618  2532.42363048
0.34400002 34435.01810266  1960.21349833
0.34500002 33825.36397510  3159.96565221
0.34600002 33228.31355623  2767.25408402
0.34700002 32641.22602136  2044.64649481
0.34800002 32066.99111286  2350.18988997
0.34900002 31503.61142683  1984.72761389
0.35000002 30951.46892296  1955.51389917
0.35100002 30411.13006788  1605.70774363
0.35200002 29880.35216191  1740.38119410
0.35300002 29361.17674993  2650.43355075
0.35400002 28853.02428772  1536.42361609
0.35500002 28355.48173063  2271.27419420
0.35600002 27867.67362583  1492.31399335
0.35700002 27390.95622068  1912.16274433
0.35800002 26924.92397451  1739.88866964
0.35900002 26468.94159758  1715.18749676
0.36000002 26023.23552216  1690.98992433
0.36100002 25586.90011811  1389.36874222
0.36200002 25161.26671988  2055.04655669
0.36300002 24744.57833390  1891.47565744
0.36400002 24337.50059919  1465.72604301
0.36500002 23940.03719596  1445.73891475
0.36600002 23552.01011318  1685.49968359
0.36700002 23172.79007096  1662.87949426
0.36800002 22804.25427518  1640.88019410
0.36900002 22443.57687070  1494.74229039
0.37000002 22091.51763839  1229.39301481
0.37100002 21748.14904483  1334.90145161
0.37200002 21414.26652728  1677.37957654
0.37300002 21088.42421131  1656.28491602
0.37400002 20770.97346532  1402.04077532
0.37500002 20462.20036515  1154.06815526
0.37600002 20161.89121157  1368.18600243
0.37700002 19868.87657952  1351.87842651
0.37800002 19583.81084260  1224.67366906
0.37900002 19307.20353226  1210.56171882
0.38000002 19038.26049464  1196.84030269
0.38100002 18775.90934217  1075.85965627
0.38200002 18522.00809820  1170.49835722
0.38300002 18274.81435701  1157.89229251
0.38400002 18035.62406333  1145.71307290
0.38500002 17802.51856746  1030.76587389
0.38600002 17577.24598023  1224.43101299
0.38700002 17358.47076200  1313.34196007
0.38800002 17146.47518145  1200.59624908
0.38900002 16940.62596287  1189.23199893
0.39000002 16742.47174636  1178.33521733
0.39100002 16549.71520552  1265.06029024
0.39200002 16363.71152573  1254.03309219
0.39300002 16183.74122153  1339.04281211
0.39400002 16010.80586498  1043.50432169
0.39500002 15842.67883718  1317.47723452
0.39600002 15680.67183084  933.78405177
0.39700002 15524.23747355  1297.51582951
0.39800002 15373.91594120  1012.14180394
0.39900002 15228.69622755  1096.46618033
0.40000002 15088.70217872  1452.13676648
0.40100002 14954.49893590  991.93196142
0.40200002 14825.51601522  1075.44298270
0.40300002 14701.04781538  1603.59037168
0.40400002 14581.93461549  974.43782685
0.40500002 14468.08488031  1057.32769315
0.40600002 14358.62008839  1139.57193731
0.40700002 14253.95249551  959.57612746
0.40800002 14153.86069345  1215.67515256
0.40900002 14058.09489194  1383.31660291
0.41000002 13967.25002064  861.08100457
0.41100002 13880.29448156  857.80223961
0.41200002 13797.29605974  1025.69103768
0.41300002 13719.13758559  1363.13357509
0.41400002 13644.31908971  1019.23068430
0.41500002 13573.73804170  1270.50194090
0.41600002 13506.46950113  929.31267806
0.41700002 13443.23125930  927.17970389
0.41800002 13384.68405107  1345.96389195
0.41900002 13327.60309251  923.60293808
0.42000002 13275.06903462  1425.14510374
0.42100002 13226.63537601  1088.41987667
0.42200002 13181.08463949  1087.24181801
0.42300002 13138.24595373  1169.82947515
0.42400002 13098.56553533  918.53695169
0.42500002 13062.33469896  1001.61987218
0.42600002 13028.05225811  1084.78082268
0.42700002 12998.15482967  1084.82605349
0.42800002 12969.88728292  1001.53474345
0.42900002 12945.64257466  1001.99278276
0.43000002 12923.31364751  1169.68917366
0.43100002 12902.68591175  1337.75053872
0.43200002 12885.63904195  1339.07567269
0.43300002 12870.90263571  837.89580129
0.43400002 12858.29448773  1258.50563263
0.43500002 12847.98683790  840.25837902
0.43600002 12840.15231144  841.67202390
0.43700002 12833.97485352  1096.14984418
0.43800002 12829.77120231  1182.77666319
0.43900002 12828.31710437  1185.33655662
0.44000002 12828.27189790  1188.02631676
0.44100002 12830.39894589  1105.85213755
0.44200002 12834.14264123  1023.39458271
0.44300002 12839.89207239  940.65053780
0.44400002 12847.41068793  1372.10352650
0.44500002 12855.46289508  860.03050844
0.44600002 12865.64225020  1466.49030139
0.44700002 12878.15613191  865.41213308
0.44800002 12890.66490584  1041.82358706
0.44900002 12906.38663344  1306.77170857
0.45000002 12922.44141574  1049.04384385
0.45100002 12939.65745428  965.03969868
0.45200002 12958.39505445  1496.88907566
0.45300002 12977.93703334  883.79755386
0.45400002 12999.18620839  1064.63340092
0.45500002 13021.27360400  1335.98273509
0.45600002 13044.29353360  1162.44227334
0.45700002 13068.31239150  987.57241423
0.45800002 13092.98209740  1081.74223216
0.45900002 13118.61053971  1267.25783820
0.46000002 13145.84787634  1454.45667797
0.46100002 13172.83729431  1004.16543454
0.46200002 13201.22918083  916.82541006
0.46300002 13230.57995428  1289.18777185
0.46400002 13259.62971083  1017.34513778
0.46500002 13290.02871216  1114.76766121
0.46600002 13320.60144873  1492.97308113
0.46700002 13351.56520253  937.27992164
0.46800002 13384.01515587  1035.72206193
0.46900002 13415.82175226  1418.72321754
0.47000002 13448.38040198  1140.15374452
0.47100002 13481.50768650  1336.28710522
0.47200002 13515.01738834  1246.55768790
0.47300002 13548.97758349  963.33235185
0.47400002 13582.56258510  1258.08491907
0.47500002 13616.83707895  1458.36332028
0.47600002 13651.64800755  1269.80809961
0.47700002 13685.97257224  1079.41270793
