# SAXS profile: number of points = 501, q_min = 0, q_max = 0.5, delta_q = 0.001
#    q    intensity    error
0.00000000 1664650.74656090 374.54641798
0.00100000 1664564.44983441 649.18015085
0.00200000 1664305.54063878 973.61877210
0.00300000 1663874.21787817 1098.15702292
0.00400000 1663270.37103269 1372.19810824
0.00500000 1662494.64143464 1795.49428382
0.00600000 1661546.88259086 1744.62429775
0.00700000 1660427.83192522 2191.76482923
0.00800000 1659137.28894542 2463.81897811
0.00900000 1657676.63888089 2486.51506461
0.01000000 1656045.22379332 3825.46463214
0.01100000 1654244.68529798 4168.69678845
0.01200000 1652274.95774435 4832.90446330
0.01300000 1650137.30665552 3811.81734649
0.01400000 1647831.93499387 4819.90862353
0.01500000 1645360.24904516 4738.63772826
0.01600000 1642722.15653488 4188.94168642
0.01700000 1639919.73040186 4870.56181778
0.01800000 1636953.41893899 5598.38094468
0.01900000 1633824.23174618 6371.91479133
0.02000000 1630532.95841249 6677.03276674
0.02100000 1627082.29657522 6443.24618656
0.02200000 1623470.87825057 7841.36469820
0.02300000 1619701.81499931 6997.11215929
0.02400000 1615775.78475126 6059.15946910
0.02500000 1611694.95045990 9428.41589079
0.02600000 1607459.85915496 9765.31909102
0.02700000 1603072.48460507 6732.90474372
0.02800000 1598533.16042819 7648.98152343
0.02900000 1593845.30372544 7889.53461568
0.03000000 1589009.56704399 8866.67379166
0.03100000 1584027.42785288 8363.66520390
0.03200000 1578900.18695026 9378.66754245
0.03300000 1573631.92663736 9630.62783500
0.03400000 1568221.31982844 10703.11100167
0.03500000 1562672.21618974 9282.27339280
0.03600000 1556985.38906546 10369.52317039
0.03700000 1551163.86882249 9725.79790731
0.03800000 1545208.99479122 10847.36764545
0.03900000 1539123.29966483 10158.21424821
0.04000000 1532907.02673737 10370.11651642
0.04100000 1526564.17508311 13464.29664853
0.04200000 1520096.39346629 10785.08441199
0.04300000 1513505.24405522 11986.96208933
0.04400000 1506793.72131529 10170.85809123
0.04500000 1499964.07180844 14489.65360693
0.04600000 1493017.06288248 15788.65617395
0.04700000 1485956.39138333 13908.55247021
0.04800000 1478783.95444823 13042.87508509
0.04900000 1471502.32539763 13243.52154503
0.05000000 1464113.12639386 11200.46593848
0.05100000 1456620.28818228 15906.29428793
0.05200000 1449023.36020576 17279.60437571
0.05300000 1441327.31562989 26851.92914196
0.05400000 1433533.28944373 15374.64524626
0.05500000 1425645.20608955 13172.96231878
0.05600000 1417663.15203975 15757.32667022
0.05700000 1409592.65808134 13489.80236752
0.05800000 1401433.01529444 17363.75587025
0.05900000 1393187.92339303 13792.56108578
0.06000000 1384861.40207594 21541.52011569
0.06100000 1376454.43261774 12801.02682155
0.06200000 1367970.36252365 12927.32053012
0.06300000 1359411.71161924 15660.42365006
0.06400000 1350778.72571054 19755.13978740
0.06500000 1342076.94694284 14615.21863588
0.06600000 1333308.37333418 16079.69973476
0.06700000 1324473.61110749 16211.55775864
0.06800000 1315577.38366005 19062.71718154
0.06900000 1306622.72681866 15091.49320132
0.07000000 1297609.63708678 19347.36059497
0.07100000 1288542.19081017 19482.75883758
0.07200000 1279422.55098280 16811.61310748
0.07300000 1270254.01967147 15509.80230691
0.07400000 1261039.66771212 15605.36661927
0.07500000 1251779.61008813 17124.34586867
0.07600000 1242477.81784069 14350.61946883
0.07700000 1233137.70556049 15870.48301471
0.07800000 1223760.47073548 21752.34338743
0.07900000 1214347.99226111 20401.04722687
0.08000000 1204905.61356065 17567.52466983
0.08100000 1195433.96650492 19114.99002125
0.08200000 1185934.10130248 22147.32038109
0.08300000 1176410.47315771 23716.43625192
0.08400000 1166865.11128232 14877.53086718
0.08500000 1157300.20398043 17915.00799864
0.08600000 1147718.60842608 14977.72854319
0.08700000 1138121.95348136 19530.17363883
0.08800000 1128512.39787266 18078.76946297
0.08900000 1118893.11077880 15105.05770499
0.09000000 1109266.31100167 19683.93161339
0.09100000 1099633.72672482 18209.93537009
0.09200000 1089997.33225853 30410.92699892
0.09300000 1080361.53251796 15233.09832434
0.09400000 1070724.90111734 18309.39666960
0.09500000 1061091.79103893 19863.63926189
0.09600000 1051463.44099969 16828.67316428
0.09700000 1041845.37962352 18378.15336057
0.09800000 1032235.53202905 16861.56820849
0.09900000 1022638.59127188 16873.53754942
0.10000000 1013053.70390429 19952.09363669
0.10100000 1003484.77630632 24565.30847933
0.10200000 993933.77103766 16891.90523332
0.10300000 984401.95295829 18428.00542625
0.10400000 974891.84360637 16890.00198507
0.10500000 965407.04362160 19954.96453053
0.10600001 955943.90295272 19945.77047363
0.10700001 946510.07183293 15333.46388525
0.10800001 937103.34456384 16853.80444515
0.10900001 927727.97200006 18369.01471015
0.11000001 918384.74664809 21407.54945201
0.11100001 909074.46561665 15272.45174129
0.11200001 899800.14504115 18301.93581174
0.11300001 890561.93994686 15228.60989007
0.11400001 881362.57154502 21284.90710500
0.11500001 872202.99645426 16693.96613822
0.11600001 863085.21964989 21206.00484542
0.11700001 854010.16708295 18139.17680311
0.11800001 844978.26230587 22624.29403881
0.11900001 835991.55570340 18057.41845373
0.12000001 827051.14156699 21015.37049714
0.12100001 818159.82924819 16469.55813862
0.12200001 809317.31727987 20904.66729018
0.12300001 800525.60229637 19356.70997551
0.12400001 791784.71675155 14845.96413860
0.12500001 783095.55416970 16280.55733834
0.12600001 774462.02180291 22130.25331587
0.12700001 765881.89882233 19116.41309549
0.12800001 757357.29637996 16120.35081319
0.12900001 748889.71222776 20444.69010742
0.13000001 740479.64952671 18915.55353874
0.13100001 732126.93927775 15945.72548911
0.13200001 723833.38200524 15884.52431691
0.13300001 715600.71891345 15821.93264107
0.13400001 707427.73091715 21488.11833968
0.13500001 699316.93905087 15692.67285218
0.13600001 691267.31568499 17046.65280855
0.13700001 683281.23499126 19801.49112375
0.13800001 675357.10066203 18305.55507666
0.13900001 667498.07068319 18222.69818900
0.14000001 659702.84611669 16743.25902406
0.14100001 651972.38769306 18053.11626666
0.14200001 644307.01528897 17966.50196873
0.14300001 636708.43743962 13752.90289739
0.14400001 629173.42144444 15052.97481811
0.14500001 621707.04940563 14976.92352668
0.14600001 614306.43070622 16254.54892328
0.14700001 606974.83779907 16169.81044180
0.14800001 599707.64000514 22785.89285700
0.14900001 592509.32511555 18664.04462172
0.15000001 585378.16113090 18562.34236529
0.15100001 578315.06735305 21096.93465250
0.15200001 571320.28923181 14422.98138223
0.15300001 564394.55886590 16948.76940254
0.15400001 557534.58256161 18147.75151879
0.15500001 550744.59434467 18042.39376221
0.15600001 544020.23924622 14092.84496278
0.15700001 537367.75293891 14009.17798031
0.15800001 530779.47450892 15190.90927744
0.15900001 524261.65867454 21389.87668354
0.16000001 517809.18889004 17507.12950275
0.16100001 511427.70855750 16156.00207596
0.16200001 505112.49518552 17290.00152639
0.16300001 498864.66413904 13499.27844887
0.16400001 492684.44400340 13413.33462123
0.16500001 486570.67902103 13327.17152758
0.16600001 480524.70507302 12037.14443039
0.16700001 474543.90268017 13154.35760337
0.16800001 468628.70112309 13067.71194783
0.16900001 462781.78862704 20061.59148425
0.17000001 456999.11030544 16410.83882598
0.17100001 451281.25141576 12807.36251996
0.17200001 445629.41913051 12720.49236978
0.17300001 440041.70971690 14930.61591578
0.17400001 434518.30776350 13687.32734095
0.17500001 429058.48638910 12459.85903319
0.17600001 423660.74244685 19121.92851345
0.17700001 418327.58336481 11169.34700338
0.17800001 413055.65337965 15526.76274390
0.17900001 407846.02329912 12113.02746413
0.18000001 402698.20128020 13119.90801743
0.18100001 397612.53593031 10854.82274364
0.18200001 392584.91277285 14009.39327407
0.18300001 387618.23530850 11768.09017988
0.18400001 382710.62193378 11682.24228641
0.18500001 377863.39476559 11596.62813320
0.18600001 373073.10075852 14650.58135893
0.18700001 368340.13680438 12464.63081835
0.18800001 363664.59962363 11340.88107508
0.18900001 359047.48813200 14325.99545333
0.19000001 354482.78634657 13202.71200129
0.19100001 349977.80732513 12095.23359266
0.19200001 345524.83017575 12003.53316749
0.19300001 341128.25551314 11912.19924540
0.19400001 336783.33346382 14776.36945397
0.19500001 332492.63828627 13685.39763857
0.19600001 328254.29572014 14549.87234537
0.19700001 324067.55121096 10587.28739839
0.19800001 319932.38662677 12414.97684977
0.19900001 315848.60947600 10423.00460530
0.20000001 311813.17228921 11281.40110660
0.20100001 307828.91396975 9327.21653411
0.20200001 303891.82398585 11104.20777327
0.20300001 300004.74432672 9180.14561029
0.20400001 296164.63425239 10928.47552046
0.20500001 292370.98999751 11744.54322333
0.20600001 288623.99996141 10754.13074689
0.20700001 284923.35778305 10667.53101964
0.20800001 281266.51421033 14108.32901969
0.20900001 277656.62341993 11370.03926652
0.21000001 274088.92585827 8674.91491350
0.21100001 270565.05779598 12045.55694251
0.21200001 267083.81482142 11946.65960173
0.21300001 263644.04503600 10155.56909490
0.21400001 260246.95038576 12589.44682010
0.21500001 256891.60617575 12484.93265040
0.21600001 253575.50958284 11555.43651801
0.21700001 250299.67488441 8184.79975569
0.21800001 247063.47827458 8116.03564505
0.21900001 243864.94476677 8852.29791358
0.22000001 240704.37674052 11969.02569935
0.22100001 237583.18430762 9493.82449383
0.22200001 234498.96355094 12550.38512268
0.22300001 231450.05737514 10109.73898419
0.22400001 228436.70116719 8480.71293185
0.22500001 225461.38325863 7643.14125389
0.22600001 222518.76063201 10607.46982094
0.22700001 219612.67915124 11266.13097322
0.22800001 216739.59668615 10423.00769754
0.22900001 213899.08806269 8855.42266458
0.23000001 211092.66762077 8045.79740687
0.23100001 208319.63268042 8699.42827215
0.23200001 205576.97112036 7903.40702850
0.23300001 202866.40402428 7120.61111802
0.23400001 200187.75578813 8467.94247033
0.23500001 197538.19747546 9789.99352991
0.23600001 194920.49051479 10394.13564831
0.23700001 192331.69618165 7552.86606629
0.23800001 189772.84576020 8164.02821075
0.23900001 187242.47894418 7414.80251691
0.24000001 184740.61018835 7346.21071162
0.24100001 182268.23093047 7277.97080531
0.24200001 179822.88975642 10487.27142666
0.24300001 177405.09317677 10388.84274785
0.24400001 175014.03937414 10934.00262712
0.24500001 172649.77225783 7007.85458745
0.24600001 170311.85058282 7572.06523511
0.24700001 168000.40643550 8124.50003956
0.24800001 165714.36854993 6808.37515396
0.24900001 163452.68274869 7355.37107166
0.25000001 161217.31611133 9104.74835812
0.25100001 159005.26806090 6611.43935875
0.25200001 156819.17966835 8331.80340995
0.25300001 154657.00029807 8249.40478618
0.25400001 152517.99322659 8167.33892369
0.25500001 150402.30969110 6930.53875846
0.25600001 148310.47351352 6289.10592690
0.25700001 146240.67244524 6225.46572054
0.25800001 144194.40818896 6162.14832551
0.25900001 142170.48071657 5544.64901029
0.26000001 140168.73689451 6036.36693998
0.26100001 138187.96692346 5973.86609276
0.26200001 136230.02920246 7523.98486886
0.26300001 134292.70911557 7976.98729892
0.26400001 132376.80392886 7892.96730774
0.26500001 130482.61176750 7809.38468382
0.26600001 128608.12177833 5150.75552095
0.26700001 126755.24123874 6114.67312670
0.26800001 124923.14726444 6048.77907678
0.26900001 123109.63616943 7977.50480129
0.27000001 121317.36910197 7397.32693105
0.27100001 119544.25687549 5852.88709360
0.27200001 117792.37313820 6270.67728076
0.27300001 116058.95327996 7155.03480832
0.27400001 114342.98623443 5188.31324592
0.27500001 112649.15313478 5130.04267654
0.27600001 110972.02497011 5533.06542687
0.27700001 109315.14529136 4558.44177439
0.27800001 107675.95819565 6308.73468926
0.27900001 106056.65363519 4899.81762984
0.28000001 104454.13355597 5723.56451909
0.28100001 102870.77498227 5656.86418401
0.28200001 101306.21684756 5160.53893046
0.28300001 99758.94976740  5099.67775348
0.28400001 98229.28598443  5039.16260951
0.28500001 96717.95629946  4979.04062596
0.28600001 95223.89605192  5329.20559479
0.28700001 93747.42919581  4454.87804625
0.28800001 92287.58283431  4000.66690523
0.28900001 90846.99100223  7113.31973217
0.29000001 89421.74701258  6635.54105116
0.29100001 88014.60325871  4626.04776625
0.29200001 86624.32677181  3807.13934183
0.29300001 85250.86778028  4887.43248119
0.29400001 83893.48518327  4083.51558459
0.29500001 82553.93676155  4031.93446229
0.29600001 81230.28546837  3980.69032781
0.29700001 79923.03464627  3572.55981781
0.29800001 78632.08935280  3526.64937442
0.29900001 77358.06260259  4177.33557829
0.30000001 76099.45313660  4123.06856613
0.30100001 74858.15592067  4069.28954849
0.30200001 73630.97291365  5354.44460376
0.30300001 72421.37615183  3302.41490886
0.30400001 71227.51592481  3910.39080940
0.30500001 70048.82340726  3858.28937593
0.30600001 68885.15211161  3172.16140492
0.30700001 67738.16642657  4381.30481190
0.30800001 66606.05876510  4013.34826090
0.30900001 65489.75448792  3045.27372786
0.31000001 64388.85919503  3003.74042366
0.31100001 63302.30252585  3258.80268832
0.31200001 62231.68608764  3213.95558016
0.31300001 61175.42727090  5186.45296959
0.31400001 60135.11455376  3125.52272691
0.31500001 59109.01305350  3922.47429195
0.31600002 58097.96866496  4143.83781123
0.31700002 57101.55565572  4085.61650061
0.31800002 56119.70514851  2953.86082035
0.31900002 55152.61881458  3176.79099414
0.32000002 54200.16193357  2609.73792067
0.32100002 53261.32239948  3601.53079119
0.32200002 52337.98754904  3296.50830187
0.32300002 51427.35442573  3249.18040647
0.32400002 50531.19206711  2709.73530291
0.32500002 49649.05773786  2427.83903834
0.32600002 48781.27413029  2871.26593127
0.32700002 47926.60512691  2357.98908390
0.32800002 47086.62041435  3253.21475848
0.32900002 46259.41342334  2976.79339475
0.33000002 45446.66187450  3384.64030338
0.33100002 44644.86442484  3112.64009510
0.33200002 43859.65849290  2409.86905001
0.33300002 43086.05091785  2590.33350385
0.33400002 42326.00596460  2339.57009049
0.33500002 41578.14638740  2305.09254488
0.33600002 40844.17800562  2890.54261434
0.33700002 40121.97271838  3051.27616973
0.33800002 39413.54580449  2004.17889907
0.33900002 38716.86279903  1974.56009626
0.34000002 38033.15687552  3112.63370610
0.34100002 37361.55524377  2683.30702469
0.34200002 36702.82823908  2266.03272280
0.34300002 36055.27281400  2046.49738184
0.34400002 35421.05163161  2016.34345962
0.34500002 34798.01970902  2167.22077012
0.34600002 34187.80702249  3025.10824766
0.34700002 33587.61563691  2454.58306700
0.34800002 33000.54654641  2073.09443223
0.34900002 32424.43612775  2383.19616826
0.35000002 31859.72422703  1677.41456000
0.35100002 31307.04416701  2148.91561340
0.35200002 30764.02957921  2117.64207638
0.35300002 30232.73924386  1605.35852988
0.35400002 29712.68054076  2531.52050197
0.35500002 29203.40299705  2027.30033208
0.35600002 28703.98084128  1998.22772091
0.35700002 28215.63319287  1515.17957422
0.35800002 27738.41555668  2688.68474726
0.35900002 27271.18355874  1767.17277831
0.36000002 26814.40813523  2032.80037702
0.36100002 26367.11699763  1431.73452079
0.36200002 25930.79650894  1694.31832415
0.36300002 25503.32824368  1531.72996687
0.36400002 25085.72954310  1510.78813329
0.36500002 24677.77747011  1354.81004728
0.36600002 24279.49091742  1603.90324598
0.36700002 23890.04058758  1714.34939377
0.36800002 23511.48802841  1561.63310882
0.36900002 23140.83403397  1284.31634972
0.37000002 22778.94758196  1521.17819158
0.37100002 22425.76842430  1501.62952482
0.37200002 22082.31600169  1482.60676658
0.37300002 21746.97173130  1708.00724069
0.37400002 21420.08205902  1325.36764019
0.37500002 21102.02086769  1309.16943665
0.37600002 20792.46110782  1175.81373135
0.37700002 20490.37501895  1277.98475047
0.37800002 20196.23892580  1607.41873225
0.37900002 19910.69284497  1475.38240970
0.38000002 19632.94331199  1570.83186881
0.38100002 19361.87091662  1220.37878169
0.38200002 19099.33277957  1316.70806420
0.38300002 18843.48524510  1628.07720230
0.38400002 18595.86165602  1610.86659227
0.38500002 18354.19323181  1487.79097385
0.38600002 18120.70684059  1262.28849832
0.38700002 17893.70350698  1145.55495279
0.38800002 17673.51591973  1134.37467305
0.38900002 17459.61193707  1429.94228539
0.39000002 17253.41415036  1214.29534543
0.39100002 17052.62426751  1403.77209621
0.39200002 16858.78094610  1192.59022063
0.39300002 16670.92639347  1477.87769480
0.39400002 16490.28662514  1172.45943460
0.39500002 16314.51915859  1938.16496787
0.39600002 16144.86708473  1153.71225654
0.39700002 15980.89377135  1144.87128402
0.39800002 15823.03419158  1041.70950536
0.39900002 15670.36462786  1034.24411444
0.40000002 15523.01525243  1213.82223517
0.40100002 15381.43879216  927.50080311
0.40200002 15245.27081137  1013.73433063
0.40300002 15113.59766847  1373.82609316
0.40400002 14987.36143852  1092.57870063
0.40500002 14866.34733336  1176.96877415
0.40600002 14749.81668505  1080.57162154
0.40700002 14638.12818548  1164.60953362
0.40800002 14531.19637911  1693.82898619
0.40900002 14428.49600411  887.35254630
0.41000002 14330.76486916  1148.53920486
0.41100002 14237.01979926  967.83265181
0.41200002 14147.24769300  876.42203611
0.41300002 14062.35472283  1397.23563146
0.41400002 13980.89500254  1479.52828375
0.41500002 13903.72263493  1041.11080023
0.41600002 13829.83548047  1297.58437544
0.41700002 13760.07145638  862.75652120
0.41800002 13694.96645245  1205.02015525
0.41900002 13631.42206551  1116.41352007
0.42000002 13572.53482957  1028.52673812
0.42100002 13517.67698439  1283.50349049
0.42200002 13465.83083328  939.84770754
0.42300002 13416.67726875  1109.29092914
0.42400002 13370.71566795  1022.85979707
0.42500002 13328.20653539  1022.00692556
0.42600002 13287.75368490  1106.40486300
0.42700002 13251.65151127  1105.98288754
0.42800002 13217.25955313  1190.74296957
0.42900002 13186.93555306  935.61312183
0.43000002 13158.48887032  935.76598036
0.43100002 13131.78283349  1021.12748152
0.43200002 13108.77589272  936.55653804
0.43300002 13088.07377201  1107.64373581
0.43400002 13069.59668003  852.79122378
0.43500002 13053.35555498  1024.42739250
0.43600002 13039.61192505  1111.17058285
0.43700002 13027.59154976  1027.09536646
0.43800002 13017.58578841  1028.64967775
0.43900002 13010.35679455  944.55194805
0.44000002 13004.54497286  946.27575979
0.44100002 13000.95129219  1292.94466728
0.44200002 12999.01008217  863.78426089
0.44300002 12999.05008923  865.73677697
0.44400002 13000.97155337  1214.94084924
0.44500002 13003.45973569  1217.90409656
0.44600002 13007.94598943  1046.61938391
0.44700002 13014.97433913  1399.37010726
0.44800002 13021.89790688  1052.42983871
0.44900002 13032.13896239  1231.53719031
0.45000002 13042.76575168  1147.04608839
0.45100002 13054.51424223  973.60571833
0.45200002 13067.87576814  976.75842058
0.45300002 13081.97101006  979.97049481
0.45400002 13097.83331210  983.31988251
0.45500002 13114.63239132  1255.85725731
0.45600002 13132.33400332  1080.26584631
0.45700002 13151.11316122  1264.87412379
0.45800002 13170.54007469  1360.18759068
0.45900002 13190.94361493  1001.19266782
0.46000002 13212.97597963  1370.51599844
0.46100002 13234.79547105  1375.75705442
0.46200002 13258.11201621  920.77592317
0.46300002 13282.31829264  1294.22915578
0.46400002 13306.32583165  1206.55115197
0.46500002 13331.63996485  1211.44618102
0.46600002 13357.25193628  2058.48619346
0.46700002 13383.16116904  1221.34734617
0.46800002 13410.66581729  943.44038496
0.46900002 13437.56947535  1421.02303937
0.47000002 13465.24037945  1046.45120569
0.47100002 13493.51343090  1433.01119428
0.47200002 13522.16421946  1439.09639526
0.47300002 13551.29065791  1252.54585488
0.47400002 13580.05439325  1354.61048993
0.47500002 13609.56911407  1263.24026504
0.47600002 13639.73452835  1073.51535694
0.47700002 13669.36148166  1274.12124410
