# SAXS profile: number of points = 501, q_min = 0, q_max = 0.5, delta_q = 0.001
#    q    intensity    error
0.00000000 1664650.74656090 249.69761198
0.00100000 1664564.39636697 649.18013000
0.00200000 1664305.33201605 898.72490775
0.00300000 1663873.74627970 1597.31885333
0.00400000 1663269.53677804 1871.17829998
0.00500000 1662493.34308073 1645.86847480
0.00600000 1661545.00354508 2093.54678970
0.00700000 1660425.27527704 2191.76145446
0.00800000 1659133.95838447 2463.81403222
0.00900000 1657672.42806130 2486.50874838
0.01000000 1656040.01132021 3005.71275033
0.01100000 1654238.39135052 3275.39215748
0.01200000 1652267.51397052 4188.49833155
0.01300000 1650128.54110820 3465.27008916
0.01400000 1647821.79671333 4819.87896906
0.01500000 1645348.62129616 4738.60424034
0.01600000 1642708.94474940 5026.68959564
0.01700000 1639904.83576562 4870.51758071
0.01800000 1636936.76935027 6531.37800360
0.01900000 1633805.70112340 6371.84252190
0.02000000 1630512.47349474 5136.11452384
0.02100000 1627059.72478155 8590.87573634
0.02200000 1623446.21268271 6160.97865704
0.02300000 1619674.84706659 6996.99565782
0.02400000 1615746.48042752 9088.57436682
0.02500000 1611663.25902397 7542.58439671
0.02600000 1607425.66372112 6510.07423583
0.02700000 1603035.70404457 10099.12539803
0.02800000 1598493.68834348 11820.86136740
0.02900000 1593803.06768544 12909.80544100
0.03000000 1588964.48594858 9605.29075907
0.03100000 1583979.42968893 7603.10161235
0.03200000 1578849.16501616 11722.95559018
0.03300000 1573577.82924419 8827.77202902
0.03400000 1568164.16341860 9056.14846160
0.03500000 1562611.80439220 8438.10413337
0.03600000 1556921.67774252 11233.19042404
0.03700000 1551096.80795263 12377.75309990
0.03800000 1545138.48426366 11750.77871665
0.03900000 1539049.29895312 10157.72584350
0.04000000 1532829.48741387 14140.35267664
0.04100000 1526483.05241003 9616.84367608
0.04200000 1520011.52033939 13725.70466544
0.04300000 1513416.76248837 10987.40620568
0.04400000 1506701.34519635 11187.25800764
0.04500000 1499867.88580675 11383.99778223
0.04600000 1492917.02545251 13682.58517433
0.04700000 1485852.33337641 12837.76475743
0.04800000 1478675.90351734 13041.92207584
0.04900000 1471390.29814163 14346.05607465
0.05000000 1463997.02049182 14559.45104677
0.05100000 1456500.04189638 14768.91111282
0.05200000 1448898.94022090 16126.24595616
0.05300000 1441198.78772944 21012.67930466
0.05400000 1433400.53029186 14190.66591165
0.05500000 1425508.17170435 16763.97688127
0.05600000 1417521.83649657 16967.73717465
0.05700000 1409447.04711183 15940.84684693
0.05800000 1401283.13093845 21082.30568935
0.05900000 1393033.59709971 16298.49384730
0.06000000 1384702.70523859 19005.04551729
0.06100000 1376291.46533092 12799.51122572
0.06200000 1367802.88197352 14218.31162273
0.06300000 1359239.90922111 15658.44448634
0.06400000 1350602.55911421 15802.05068065
0.06500000 1341896.32649142 21255.63880592
0.06600000 1333123.38223473 20096.83592749
0.06700000 1324284.04152432 14858.46764126
0.06800000 1315383.40275236 19059.90639806
0.06900000 1306424.35078302 19204.43885564
0.07000000 1297406.98334897 13817.38501971
0.07100000 1288334.98462923 19479.62587998
0.07200000 1279210.99791767 21011.04162510
0.07300000 1270038.03189121 15507.16509599
0.07400000 1260819.29050546 15602.63945121
0.07500000 1251555.05477417 14267.72829319
0.07600000 1242248.83410478 21521.96205983
0.07700000 1232904.45943997 18752.47770736
0.07800000 1223523.01421576 15948.62323823
0.07900000 1214106.16026634 26224.69429179
0.08000000 1204659.58701137 16100.27613569
0.08100000 1195183.78037025 16170.83730712
0.08200000 1185679.78465395 16237.88541280
0.08300000 1176152.01577798 22229.27414147
0.08400000 1166602.72120311 25286.11516897
0.08500000 1157033.74263627 20896.03037298
0.08600000 1147448.04049466 19466.45692097
0.08700000 1137847.57064869 18023.50636542
0.08800000 1128234.03253649 24099.08006676
0.08900000 1118610.93534156 19631.62283734
0.09000000 1108980.32237223 15137.58211148
0.09100000 1099344.04668552 18205.13826841
0.09200000 1089704.07794164 19761.78438201
0.09300000 1080064.71492783 15228.91319612
0.09400000 1070424.55302919 21354.97083656
0.09500000 1060787.86302994 24440.55351298
0.09600000 1051156.15905840 16823.75511658
0.09700000 1041534.73839849 21434.78592395
0.09800000 1031921.65823021 30648.07469044
0.09900000 1022321.56271421 18401.78899415
0.10000000 1012733.38197342 23014.36718765
0.10100000 1003161.47529918 16883.20842333
0.10200000 993607.60610370 18421.48588364
0.10300000 984072.97154122 15351.53907819
0.10400000 974560.05732925 18419.18595006
0.10500000 965072.55412018 16879.11976571
0.10600001 955606.74263807 19938.73562333
0.10700001 946170.42313487 15327.96157608
0.10800001 936761.20315371 18379.25567083
0.10900001 927383.32028087 16832.00805531
0.11000001 918038.05907033 15285.33440299
0.11100001 908725.51878942 18319.90732117
0.11200001 899449.19767961 18294.79754207
0.11300001 890208.96561163 21311.60364011
0.11400001 881007.74516475 19756.59961555
0.11500001 871846.41777492 22755.19257542
0.11600001 862726.82859843 15140.85655491
0.11700001 853650.18258896 18131.53073209
0.11800001 844616.95166028 19599.33728637
0.11900001 835628.86608597 28578.50856623
0.12000001 826687.08592349 16504.80844792
0.12100001 817794.77050493 17958.77400629
0.12200001 808951.13392619 16417.66403649
0.12300001 800158.51218765 16371.24393068
0.12400001 791416.72058059 22258.59631510
0.12500001 782726.74246415 16272.88974262
0.12600001 774092.65824864 23594.34533527
0.12700001 765511.98706104 16167.61392865
0.12800001 756986.94109128 20506.77720063
0.12900001 748519.18621270 20434.57474673
0.13000001 740108.92569283 20360.39750549
0.13100001 731756.11521444 15937.64894063
0.13200001 723462.59395000 15876.38737265
0.13300001 715230.10243401 21564.18860499
0.13400001 707057.49480393 14317.91494481
0.13500001 698947.01111517 17110.22363882
0.13600001 690897.77367019 21296.92487755
0.13700001 682912.45289255 19790.80381803
0.13800001 674989.11375852 15480.87605406
0.13900001 667130.78109449 16811.69647639
0.14000001 659336.61189279 13944.96999919
0.14100001 651607.17052350 20818.85008010
0.14200001 643943.00579096 20718.86718854
0.14300001 636345.68326467 16494.08088821
0.14400001 628812.09121710 16411.99635492
0.14500001 621347.27708333 14968.25661102
0.14600001 613948.37302621 20306.34339578
0.14700001 606618.62165390 13466.93403604
0.14800001 599353.14502746 18753.76079269
0.14900001 592156.87305856 13323.53027243
0.15000001 585027.74467593 13250.87904212
0.15100001 577966.83220125 14495.40883557
0.15200001 570974.42072377 19655.79536091
0.15300001 564051.07536300 19544.37068361
0.15400001 557193.60116336 18136.65257375
0.15500001 550406.31140538 16743.36078312
0.15600001 543684.65387724 14084.15162339
0.15700001 537034.99347612 14000.50294070
0.15800001 530449.60598831 16446.59080993
0.15900001 523934.91803210 16346.77021418
0.16000001 517485.67762006 14996.73564531
0.16100001 511107.41113758 17387.87494768
0.16200001 504795.53967722 14810.70183328
0.16300001 498551.16902614 17170.10307182
0.16400001 492374.45285292 14623.52194010
0.16500001 486264.29961961 14529.57795859
0.16600001 480222.16315484 13232.52233048
0.16700001 474245.13120730 15536.27123189
0.16800001 468333.85146716 13059.49006478
0.16900001 462491.09803573 15331.58062381
0.17000001 456712.40858616 18743.47813344
0.17100001 450998.76190906 16290.07604939
0.17200001 445351.20191320 12712.55065894
0.17300001 439767.77277415 13773.52729373
0.17400001 434248.82045687 13678.83849039
0.17500001 428793.67283085 15848.21489630
0.17600001 423400.43521989 14613.66671180
0.17700001 418071.97143590 14511.27881392
0.17800001 412804.84294937 12192.19161237
0.17900001 407600.05221194 18708.84328021
0.18000001 402457.14701130 13112.05446898
0.18100001 397376.47345281 13018.05388524
0.18200001 392353.80803577 11847.12379327
0.18300001 387392.32188565 17107.24574260
0.18400001 382489.90233215 14859.73340759
0.18500001 377647.76405197 13697.28504925
0.18600001 372862.75162907 12550.56081277
0.18700001 368135.27061942 12457.69814632
0.18800001 363465.13133074 13395.50804808
0.18900001 358853.41045104 14318.25175350
0.19000001 354294.36970095 12180.64100584
0.19100001 349794.85474621 12088.91075123
0.19200001 345347.53130411 9997.81150366
0.19300001 340956.54590192 13890.57033641
0.19400001 336617.37835714 14769.08817332
0.19500001 332332.43661075 9770.57409807
0.19600001 328099.86539238 14543.02722077
0.19700001 323918.94070051 16354.66808885
0.19800001 319789.75561839 14318.58698449
0.19900001 315711.59896400 16101.29230811
0.20000001 311682.19061132 11276.66218927
0.20100001 307703.85729222 11188.11277992
0.20200001 303772.76856844 9249.88124009
0.20300001 299891.73127132 9176.68741064
0.20400001 296057.63303003 11834.90443976
0.20500001 292269.94142096 9934.25577846
0.20600001 288528.98782349 13438.23824308
0.20700001 284834.46906620 10664.20302593
0.20800001 281183.64691697 10578.12929705
0.20900001 277579.88915738 13115.65038268
0.21000001 274018.23498530 8672.67754726
0.21100001 270500.56063974 10322.30188198
0.21200001 267025.33585309 11090.89784897
0.21300001 263591.72765900 9307.42434365
0.21400001 260200.72960712 9230.62131920
0.21500001 256851.45725013 12482.98141252
0.21600001 253541.39767728 8252.77288457
0.21700001 250271.70352797 9002.27360152
0.21800001 247041.52818977 10549.90896015
0.21900001 243849.03632723 10461.12415306
0.22000001 240694.48027155 7979.02239827
0.22100001 237579.35414178 9493.67144040
0.22200001 234501.12145184 10197.28174851
0.22300001 231458.18377315 9332.39441102
0.22400001 228450.75613112 8481.23472241
0.22500001 225481.42116445 8408.20259282
0.22600001 222544.65403423 10608.70415948
0.22700001 219644.47707590 8263.02561835
0.22800001 216777.20229428 9680.18642623
0.22900001 213942.46746787 7381.01547670
0.23000001 211141.78671640 8047.66958128
0.23100001 208374.50896844 7976.57658055
0.23200001 205637.56425048 9343.14317359
0.23300001 202932.58380315 9259.81423688
0.23400001 200259.60145432 7765.06641364
0.23500001 197615.56967400 7695.15064706
0.23600001 195003.34097020 7625.60600931
0.23700001 192420.05220991 6869.39618880
0.23800001 189866.63851308 7487.39124391
0.23900001 187341.60484720 8093.15771220
0.24000001 184845.00843907 8686.79158248
0.24100001 182377.94128132 9268.44741433
0.24200001 179937.66792004 7214.60113652
0.24300001 177525.04468760 6497.41694291
0.24400001 175139.04796098 7723.63238043
0.24500001 172779.78859092 7013.13195066
0.24600001 170446.81578838 10735.59320028
0.24700001 168140.19826692 10007.70507427
0.24800001 165858.97052026 6194.83284199
0.24900001 163601.98194113 7362.08953563
0.25000001 161371.29749883 7290.75556591
0.25100001 159163.81997050 7219.67121542
0.25200001 156982.22202432 8340.46585074
0.25300001 154824.47187427 7078.57518898
0.25400001 152689.84303149 7008.46412672
0.25500001 150578.45415778 8673.31936984
0.25600001 148490.77514563 6869.18358324
0.25700001 146425.10423242 9066.64288304
0.25800001 144382.83834577 6170.20088864
0.25900001 142362.89281431 7217.79900719
0.26000001 140365.00705398 9341.99348650
0.26100001 138388.11386257 6526.38375856
0.26200001 136433.87287645 6458.77984758
0.26300001 134500.13197866 7456.68766973
0.26400001 132587.79394359 6851.47457623
0.26500001 130697.05510905 6257.77529473
0.26600001 128825.87974033 5675.42440052
0.26700001 126976.31249204 5614.89280410
0.26800001 125147.43047922 5554.66896467
0.26900001 123337.00432684 6493.69358510
0.27000001 121547.69514366 6423.18825383
0.27100001 119777.49218779 5375.61410378
0.27200001 118028.41958781 5316.59041193
0.27300001 116297.75017600 8125.72418934
0.27400001 114584.45749983 5199.27000511
0.27500001 112893.07890424 7478.03790052
0.27600001 111218.46755235 5545.35305460
0.27700001 109563.93826873 5482.57973044
0.27800001 107926.94035404 5420.09120110
0.27900001 106309.89398980 5358.01891067
0.28000001 104709.47702877 5737.55606534
0.28100001 103128.13430532 5234.78434510
0.28200001 101565.40296080 5604.88702767
0.28300001 100019.92642384 5113.01888079
0.28400001 98491.93334576  5894.74248975
0.28500001 96982.15560063  5408.69507385
0.28600001 95489.69494204  4521.91471801
0.28700001 94014.62130033  5686.00456538
0.28800001 92556.00807000  4413.53345372
0.28900001 91116.72068062  5152.65079838
0.29000001 89692.59444341  4306.59012605
0.29100001 88286.49846646  4253.64369746
0.29200001 86897.17612671  4582.95728586
0.29300001 85524.56184827  4525.96002725
0.29400001 84167.87648738  4469.31445304
0.29500001 82828.99846580  4045.36847657
0.29600001 81505.95579114  4720.41765310
0.29700001 80199.12001239  3584.90083426
0.29800001 78908.60765373  4600.76658704
0.29900001 77634.90573630  3493.57092352
0.30000001 76376.56131003  3448.40190639
0.30100001 75135.33848692  4084.35719350
0.30200001 73908.15181232  4030.95079067
0.30300001 72698.53778572  3315.05347997
0.30400001 71504.43446003  4252.72644084
0.30500001 70325.62246105  3873.53546854
0.30600001 69161.55788357  4777.33483698
0.30700001 68014.22522398  3770.70882494
0.30800001 66881.61819296  4029.95209501
0.30900001 65764.81867575  4281.28989849
0.31000001 64663.16852282  3921.49804073
0.31100001 63575.96514098  4760.56849515
0.31200001 62504.52253061  3814.96371328
0.31300001 61447.31659079  2894.16874845
0.31400001 60406.08589737  4281.28154068
0.31500001 59378.88061725  3096.01498197
0.31600002 58366.73472162  2775.33836742
0.31700002 57369.12714153  4104.76124133
0.31800002 56385.97650888  3237.68292444
0.31900002 55417.51355259  3724.05708706
0.32000002 54463.68808362  3146.91204648
0.32100002 53523.37759525  3877.76889039
0.32200002 52598.52069581  3822.59767257
0.32300002 51686.21069458  3014.33995044
0.32400002 50788.38124985  3466.30718444
0.32500002 49904.49180180  3904.52762346
0.32600002 49034.85750558  3126.70783690
0.32700002 48178.34775618  2370.37482185
0.32800002 47336.35058206  3036.86371540
0.32900002 46507.21635561  2532.31805048
0.33000002 45692.35767096  3402.93849869
0.33100002 44888.43964263  2682.53328007
0.33200002 44101.00232793  3304.26775589
0.33300002 43325.16423562  2604.70899719
0.33400002 42562.87746149  2994.29857121
0.33500002 41812.59192932  3161.03209955
0.33600002 41076.22008410  2284.04332594
0.33700002 40351.62794904  2454.99316068
0.33800002 39640.63402840  2015.72633580
0.33900002 38941.38467335  2184.61178363
0.34000002 38255.11286919  2739.44876230
0.34100002 37580.91406949  2120.69108137
0.34200002 36919.49190387  2089.45874325
0.34300002 36269.19214905  2245.78848423
0.34400002 35632.20427883  2397.15665639
0.34500002 35006.33741101  2361.87769698
0.34600002 34393.26403932  1969.18642583
0.34700002 33790.20536501  2116.61856431
0.34800002 33200.22872175  2085.63846708
0.34900002 32621.18603219  2055.13481736
0.35000002 32053.47583590  2025.13869923
0.35100002 31497.82098297  1995.70203200
0.35200002 30951.68642862  1638.89187402
0.35300002 30417.39853251  2099.71312015
0.35400002 29894.24756452  2069.42938567
0.35500002 29381.82349540  2039.68628366
0.35600002 28879.26415115  1546.48466854
0.35700002 28387.77977599  2134.19338464
0.35800002 27907.33681498  1803.37219040
0.35900002 27436.88175534  1926.06919045
0.36000002 26976.87425776  2775.51583947
0.36100002 26526.33178405  1584.41787251
0.36200002 26086.73582196  1562.46511606
0.36300002 25655.99272007  1821.06244953
0.36400002 25235.11826328  2072.43418554
0.36500002 24823.92477200  1362.83353454
0.36600002 24422.27826664  1882.22507517
0.36700002 24029.47681958  1724.35533825
0.36800002 23647.63923302  1701.56596161
0.36900002 23273.60725762  1420.85379038
0.37000002 22908.38934221  1274.85192728
0.37100002 22551.88538484  1384.23479049
0.37200002 22205.12251957  2236.27799488
0.37300002 21866.39829052  1717.38700309
0.37400002 21536.11962266  1332.54746478
0.37500002 21214.72625286  1316.16167908
0.37600002 20901.81905216  1418.39750807
0.37700002 20596.37552358  1401.37745701
0.37800002 20298.94158490  1500.19334890
0.37900002 20010.03774567  1254.62942609
0.38000002 19728.94223984  1465.76183315
0.38100002 19454.53383710  1560.64277834
0.38200002 19188.72134907  1433.10972185
0.38300002 18929.55473203  1417.44512548
0.38400002 18678.65598497  1294.43092108
0.38500002 18433.67627220  1174.04089740
0.38600002 18196.88457877  1161.96211983
0.38700002 17966.64351413  1359.35631268
0.38800002 17743.22817221  1242.38089548
0.38900002 17526.07450695  1230.33048868
0.39000002 17316.67631646  1624.99698252
0.39100002 17112.66927191  1308.09250112
0.39200002 16915.63820654  1296.32999537
0.39300002 16724.65332603  1087.26976424
0.39400002 16540.85970814  1078.05058255
0.39500002 16362.00148236  1360.66410774
0.39600002 16189.20886865  1542.50789409
0.39700002 16022.17374207  1243.48096304
0.39800002 15861.23471207  1613.80140224
0.39900002 15705.52776878  1130.79805293
0.40000002 15555.17718239  1403.46592778
0.40100002 15410.60137358  1022.18523754
0.40200002 15271.51997497  1015.47976885
0.40300002 15136.89153622  1100.75480467
0.40400002 15007.75560813  1002.89331603
0.40500002 14883.87795501  906.42821041
0.40600002 14764.46775091  991.50787879
0.40700002 14649.97158731  986.23613399
0.40800002 14540.24264668  1338.06589296
0.40900002 14434.78665290  887.73942122
0.41000002 14334.29483917  1237.19304619
0.41100002 14237.83034073  1055.87754810
0.41200002 14145.41527963  1577.35533257
0.41300002 14057.87277742  1396.79030535
0.41400002 13973.81019599  1043.84367110
0.41500002 13894.06883891  1387.18389861
0.41600002 13817.63146278  864.29288895
0.41700002 13745.36115088  1120.38444050
0.41800002 13677.76751563  1031.57727491
0.41900002 13611.78176370  1114.80497927
0.42000002 13550.48700709  1026.85595405
0.42100002 13493.25194845  1024.94746657
0.42200002 13439.04300425  937.97805093
0.42300002 13387.59983875  936.59652910
0.42400002 13339.38815766  850.38603535
0.42500002 13294.60515293  934.47784048
0.42600002 13252.02102629  1273.18798043
0.42700002 13213.71858361  848.32077327
0.42800002 13177.14521250  1017.53920153
0.42900002 13144.78042229  932.62221516
0.43000002 13114.28582064  1017.40634218
0.43100002 13085.54482420  1271.91501718
0.43200002 13060.53662644  1102.76646231
0.43300002 13037.88797929  1103.39651197
0.43400002 13017.51374342  1019.27137441
0.43500002 12999.38929184  935.17610997
0.43600002 12983.82484663  936.19873493
0.43700002 12969.98652768  937.34097078
0.43800002 12958.20694318  1023.95756117
0.43900002 12949.25264104  854.65071481
0.44000002 12941.76189114  1198.53662554
0.44100002 12936.51489944  1114.99827202
0.44200002 12932.94213678  1117.21225943
0.44300002 12931.40355199  947.35466911
0.44400002 12931.77668676  1035.83536170
0.44500002 12932.77288898  951.72280200
0.44600002 12935.81261480  1127.55016000
0.44700002 12941.42407984  1043.59648726
0.44800002 12946.89682382  1046.36825089
0.44900002 12955.76543052  1224.31989121
0.45000002 12965.06958126  877.08699874
0.45100002 12975.54177873  1231.63848401
0.45200002 12987.65008166  882.51086487
0.45300002 13000.52311699  885.33566623
0.45400002 13015.25201125  977.12009105
0.45500002 13030.84113318  980.44053333
0.45600002 13047.44398953  1431.04372459
0.45700002 13065.14897313  897.57577699
0.45800002 13083.53612993  1080.96180629
0.45900002 13102.93718903  1356.15406334
0.46000002 13124.00549736  998.27752547
0.46100002 13144.85523115  1093.12621283
0.46200002 13167.26353096  1188.80644424
0.46300002 13190.59628535  1101.67865397
0.46400002 13213.78914006  921.66183620
0.46500002 13238.30146577  1110.42877958
0.46600002 13263.12617514  1114.89843912
0.46700002 13288.30329167  1119.40672235
0.46800002 13315.12384824  1030.39090783
0.46900002 13341.33738754  1410.84649560
0.47000002 13368.37661288  1038.92343771
0.47100002 13396.03683590  1138.12734352
0.47200002 13424.10878644  1238.17273260
0.47300002 13452.66629522  1052.13308082
0.47400002 13480.94978767  1152.62126148
0.47500002 13509.97024340  964.61192110
0.47600002 13539.71465403  1162.51995530
0.47700002 13568.90509084  1264.75770346
