# SAXS profile: number of points = 501, q_min = 0, q_max = 0.5, delta_q = 0.001
#    q    intensity    error
0.00000000 1664650.74656090 299.63713438
0.00100000 1664564.51228013 599.24323865
0.00200000 1664305.79470115 748.93763133
0.00300000 1663874.78728831 1397.65487111
0.00400000 1663271.39851922 1496.94431555
0.00500000 1662496.24113440 1496.24667624
0.00600000 1661549.18595564 2268.01473117
0.00700000 1660430.95732829 1992.51723160
0.00800000 1659141.36588208 2687.80912621
0.00900000 1657681.81880770 3232.47968486
0.01000000 1656051.60262695 4371.97641971
0.01100000 1654252.40310715 3870.95079181
0.01200000 1652284.16864173 3544.14969713
0.01300000 1650148.07459668 4504.90444234
0.01400000 1647844.40342693 4449.18008649
0.01500000 1645374.60241081 4343.78914379
0.01600000 1642738.46750345 5445.67826321
0.01700000 1639938.10251242 5313.39969049
0.01800000 1636974.00414050 6531.52657042
0.01900000 1633847.16571991 4901.54171833
0.02000000 1630558.35549678 6677.13676780
0.02100000 1627110.26014945 5906.41051213
0.02200000 1623501.60172312 6161.18885846
0.02300000 1619735.34147678 8163.46649263
0.02400000 1615812.20095016 8483.01444179
0.02500000 1611734.54317684 8171.49450710
0.02600000 1607502.55993744 7812.46279862
0.02700000 1603118.56652650 8079.71794535
0.02800000 1598582.60635398 11126.13545046
0.02900000 1593898.30132367 7889.79695381
0.03000000 1589066.20487509 8866.98983078
0.03100000 1584087.80325782 9124.34616661
0.03200000 1578964.46880941 9379.04937671
0.03300000 1573700.28343116 11236.22054169
0.03400000 1568293.84122429 9056.89735096
0.03500000 1562748.95452252 10126.61369293
0.03600000 1557066.44953807 9505.89111373
0.03700000 1551249.41614497 15915.81974571
0.03800000 1545299.02878279 12655.99963145
0.03900000 1539218.12143455 10158.84007192
0.04000000 1533006.58520313 12256.38821665
0.04100000 1526668.69974615 10579.81457979
0.04200000 1520205.84775427 11766.39380749
0.04300000 1513619.84222475 10988.88056463
0.04400000 1506913.53941112 11188.83354976
0.04500000 1500089.25943424 12420.73964524
0.04600000 1493147.62326316 10526.69123336
0.04700000 1486092.36484860 12839.83862945
0.04800000 1478925.64030355 15218.14554680
0.04900000 1471649.77234802 11037.37380637
0.05000000 1464266.44094348 19042.78595122
0.05100000 1456779.42099739 13635.45601573
0.05200000 1449188.52781245 14977.36413291
0.05300000 1441498.62481378 16346.59516743
0.05400000 1433710.83516550 14193.73793005
0.05500000 1425828.97524508 14372.35674093
0.05600000 1417853.50460057 15759.44243904
0.05700000 1409789.43846930 13491.68555592
0.05800000 1401636.40244490 17366.27583717
0.05900000 1393397.83638839 16302.75544718
0.06000000 1385078.08854965 19010.19765348
0.06100000 1376677.98541735 17924.34820776
0.06200000 1368200.74537380 16808.34694260
0.06300000 1359649.24840565 14357.89673447
0.06400000 1351023.39633544 15806.97447637
0.06500000 1342328.76208459 17275.77197615
0.06600000 1333567.43075702 14742.58863680
0.06700000 1324739.85091372 13512.34711168
0.06800000 1315851.14510280 17704.77798610
0.06900000 1306903.98200530 16466.99094423
0.07000000 1297898.43630596 15204.88089335
0.07100000 1288838.57483111 16703.34871216
0.07200000 1279726.54464090 21019.50948042
0.07300000 1270565.85781256 15513.60985079
0.07400000 1261359.21751598 15609.32104828
0.07500000 1252107.33227258 19983.63395975
0.07600000 1242813.33137930 18660.84304549
0.07700000 1233481.36291031 21647.59893410
0.07800000 1224112.11780090 20308.02098669
0.07900000 1214707.83731512 17491.79367777
0.08000000 1205273.68886586 20501.70640937
0.08100000 1195810.29385893 20591.85422638
0.08200000 1186318.84869340 17723.60443116
0.08300000 1176803.51259635 17793.26994553
0.08400000 1167266.63017400 16370.91525662
0.08500000 1157710.20899666 17921.35487659
0.08600000 1148137.04357533 17979.82694657
0.08700000 1138548.98578983 21040.38624540
0.08800000 1128948.09929194 19592.89518337
0.08900000 1119337.54434699 16622.16331429
0.09000000 1109719.33911793 15147.66969053
0.09100000 1100095.64536002 16699.45268113
0.09200000 1090468.10401755 16733.23384239
0.09300000 1080841.16074157 22859.79162392
0.09400000 1071213.46867828 15264.79264607
0.09500000 1061589.22759950 19872.95127474
0.09600000 1051969.85050223 18367.39445318
0.09700000 1042360.77736111 18387.24497709
0.09800000 1032760.01564419 18403.78434408
0.09900000 1023172.24041015 16882.34276062
0.10000000 1013596.13716823 19962.77686032
0.10100000 1004036.47108344 23042.63809510
0.10200000 994494.69983777 23047.41575281
0.10300000 984971.97653843 23048.34533521
0.10400000 975471.35672728 18436.40950949
0.10500000 965995.64244752 18431.19772507
0.10600001 956541.76210236 27634.49280744
0.10700001 947117.21139623 16877.62950130
0.10800001 937719.73565646 15331.71839952
0.10900001 928353.61759536 16849.61895239
0.11000001 919019.85392164 18362.01754565
0.11100001 909718.88987891 22924.91710410
0.11200001 900453.84768673 19841.50146786
0.11300001 891225.06586532 19811.93414695
0.11400001 882034.90313050 21301.14391355
0.11500001 872885.04455144 21263.48068653
0.11600001 863776.41847978 24254.84297311
0.11700001 854710.66415539 19666.89330843
0.11800001 845688.36915733 21133.75334061
0.11900001 836711.05727485 22591.19961050
0.12000001 827779.93457762 16526.62717233
0.12100001 818898.30308886 17983.00758298
0.12200001 810064.97721200 17934.83944041
0.12300001 801282.74228164 20865.40359207
0.12400001 792551.25299537 19318.43770200
0.12500001 783871.25912039 22222.75124321
0.12600001 775247.24661296 17722.15289270
0.12700001 766676.49190596 17664.22720596
0.12800001 758161.24266856 14670.42073704
0.12900001 749702.89647236 23390.73147239
0.13000001 741302.28068153 17479.90860238
0.13100001 732958.71870428 18866.35830876
0.13200001 724674.52283846 14457.25741215
0.13300001 716451.18013346 15840.73633953
0.13400001 708287.67141112 21514.23903341
0.13500001 700185.97980168 15712.17412755
0.13600001 692145.42844787 17068.30707031
0.13700001 684168.54406644 18410.97638897
0.13800001 676253.67314496 14099.88974996
0.13900001 668403.69376164 21054.71734639
0.14000001 660617.72454226 16766.47863960
0.14100001 652896.24790436 13906.69073624
0.14200001 645239.94494207 16608.47696615
0.14300001 637650.28231833 16527.89609727
0.14400001 630124.44816517 16446.24887288
0.14500001 622666.97734520 16363.68893654
0.14600001 615275.40258489 14923.50559370
0.14700001 607952.65080249 14846.20443299
0.14800001 600694.22758529 21480.82659189
0.14900001 593504.77858846 14689.24396311
0.15000001 586382.30415732 17266.02776057
0.15100001 579328.02270343 13208.67954089
0.15200001 572341.76523565 22329.91502435
0.15300001 565424.66956058 16979.70362816
0.15400001 558573.23830653 15584.19408419
0.15500001 551791.85491450 16785.50901866
0.15600001 545076.11276382 20538.46889825
0.15700001 538431.92827284 17865.17222327
0.15800001 531851.92974052 12684.66912301
0.15900001 525342.57395389 25216.44474002
0.16000001 518898.48740986 20050.23849994
0.16100001 512525.14687546 14945.23398837
0.16200001 506218.04211146 16090.14122806
0.16300001 499978.38399240 15989.30947490
0.16400001 493806.09323241 15888.21179983
0.16500001 487700.37329849 13358.11385530
0.16600001 481662.34590543 12065.64233459
0.16700001 475689.43706530 13186.11181803
0.16800001 469782.10853646 14290.77241644
0.16900001 463943.04249178 17745.82221323
0.17000001 458167.86661608 23504.01266726
0.17100001 452457.69094738 14008.09077321
0.17200001 446813.35285960 16232.72987595
0.17300001 441233.02089615 13819.41886708
0.17400001 435717.05987312 13725.08803418
0.17500001 430264.63887392 12494.88570300
0.17600001 424874.05023228 12408.44722307
0.17700001 419548.05378344 11201.93356509
0.17800001 414283.26495057 12235.85680824
0.17900001 409080.77781323 15463.25413172
0.18000001 403939.76450140 14257.05466151
0.18100001 398861.00095189 14155.57759244
0.18200001 393840.05716836 15135.27411194
0.18300001 388880.14636251 13953.02031062
0.18400001 383979.19994684 11720.96563208
0.18500001 379138.52113033 13751.35481104
0.18600001 374354.45674294 11550.70730850
0.18700001 369628.07749059 14592.91718877
0.18800001 364958.69135722 11381.23732769
0.18900001 360347.90588812 12323.89896365
0.19000001 355789.24125081 14270.70714084
0.19100001 351290.31185993 13152.30989748
0.19200001 346843.30205219 11045.22547575
0.19300001 342452.34433611 11958.43642928
0.19400001 338113.27382473 9889.81372671
0.19500001 333828.27958745 10796.00707202
0.19600001 329595.50917089 11687.45730751
0.19700001 325414.10950905 10631.27946007
0.19800001 321284.46099256 11508.40993663
0.19900001 317205.65510943 13322.63814422
0.20000001 313175.49283932 11330.68986643
0.20100001 309196.24534363 10305.51134437
0.20200001 305264.27709516 10224.82744456
0.20300001 301381.97361405 9222.28882848
0.20400001 297546.60344522 10979.47018608
0.20500001 293757.59749244 9077.11019156
0.20600001 290015.03896645 10805.96086267
0.20700001 286318.97529778 9826.46769671
0.20800001 282666.37458184 13292.38689304
0.20900001 279060.94835365 11427.54637528
0.21000001 275497.14781055 11335.33068251
0.21100001 271977.33219478 12108.43140172
0.21200001 268499.95223893 9436.43126754
0.21300001 265063.98848140 9359.40987575
0.21400001 261670.49010286 10970.53581621
0.21500001 258318.74724093 10880.38614819
0.21600001 255005.99729907 9130.49016497
0.21700001 251733.66965673 9054.86052566
0.21800001 248500.48712900 8163.24138815
0.21900001 245305.11704005 8095.06924507
0.22000001 242147.52390923 9632.62895656
0.22100001 239029.25025874 8755.64185097
0.22200001 235947.69083700 13417.16607387
0.22300001 232901.41451928 7825.48789788
0.22400001 229890.61910529 10862.33226636
0.22500001 226917.71966581 10769.51548460
0.22600001 223977.28094731 8389.06945459
0.22700001 221073.40958931 8316.78206204
0.22800001 218202.25144080 10493.34676802
0.22900001 215363.60777138 10402.06274728
0.23000001 212559.09051500 7365.17283466
0.23100001 209787.69764520 11680.97955731
0.23200001 207046.57943356 10854.41744015
0.23300001 204337.31200240 10041.13598669
0.23400001 201660.01491194 8530.21903421
0.23500001 199011.57142989 7749.51095800
0.23600001 196394.85159805 10472.75595680
0.23700001 193807.08100787 7610.80443115
0.23800001 191248.96437508 9598.78597600
0.23900001 188719.26829678 10870.23036805
0.24000001 186217.79873766 8078.12849134
0.24100001 183745.85842997 8003.96997181
0.24200001 181300.81989034 7930.09823711
0.24300001 178883.06449127 8511.25661110
0.24400001 176492.01566064 7134.69007058
0.24500001 174127.61718659 7067.84031594
0.24600001 171789.42992762 6364.79867991
0.24700001 169477.47381762 8826.38725396
0.24800001 167191.02315026 6869.04351108
0.24900001 164928.70015173 6803.30920311
0.25000001 162692.47896149 6737.90933495
0.25100001 160479.44214666 6066.12320013
0.25200001 158292.31583716 7809.35177128
0.25300001 156128.96398439 7138.21657108
0.25400001 153988.62414717 7068.07818275
0.25500001 151871.43060549 6998.23585340
0.25600001 149777.92141164 5773.93914360
0.25700001 147706.52083459 6859.49115210
0.25800001 145658.25712682 6224.70591283
0.25900001 143632.33332748 6161.82739129
0.26000001 141628.46294249 7208.18096252
0.26100001 139645.39733137 6036.87081228
0.26200001 137685.15025163 6518.01532132
0.26300001 135745.23556057 8063.26737383
0.26400001 133826.75574786 6383.53655123
0.26500001 131929.72965436 7895.99469344
0.26600001 130052.27451931 5729.45322506
0.26700001 128196.33219554 6184.19135775
0.26800001 126361.05497068 7138.13633308
0.26900001 124544.14475002 5044.03810107
0.27000001 122748.41371759 6486.64022987
0.27100001 120971.78490060 7403.47358627
0.27200001 119216.10394209 5858.27962495
0.27300001 117478.85042950 7242.57147173
0.27400001 115758.92742018 7640.08957130
0.27500001 114061.01564856 5194.33889846
0.27600001 112379.50898010 6537.11634675
0.27700001 110718.39760695 6463.74035820
0.27800001 109074.60615643 5021.24973205
0.27900001 107450.69453209 4964.22232233
0.28000001 105843.44921488 7138.08255289
0.28100001 104255.25877722 6614.99648250
0.28200001 102685.56107443 4794.90250131
0.28300001 101133.10905553 4739.09771464
0.28400001 99598.22688672  5960.95416131
0.28500001 98081.45167885  5049.23337141
0.28600001 96581.95329609  5820.99460067
0.28700001 95099.75047181  5751.63318077
0.28800001 93634.05225881  4870.84362906
0.28900001 92187.67757175  4411.18058061
0.29000001 90756.43160499  4753.82211249
0.29100001 89343.13768025  4695.87553875
0.29200001 87946.57921889  4251.77757360
0.29300001 86566.81392368  4962.87567717
0.29400001 85202.85874717  6032.36268485
0.29500001 83856.69314051  4095.56108685
0.29600001 82526.24608813  4779.50776844
0.29700001 81212.17421098  4719.23966680
0.29800001 79914.26036484  5017.81664584
0.29900001 78633.25631716  5661.59472285
0.30000001 77367.38679504  5589.02028666
0.30100001 76118.73190849  3792.99659056
0.30200001 74884.13981009  4764.87804169
0.30300001 73667.11045724  4366.98651464
0.30400001 72465.45942942  3315.29492585
0.30500001 71279.11125278  4907.56704209
0.30600001 70107.54737652  4196.98852239
0.30700001 68952.64966082  3822.73507818
0.30800001 67812.48147702  3771.73039832
0.30900001 66688.05821434  4341.39279529
0.31000001 65578.85796314  3977.03002947
0.31100001 64484.01714731  3319.63735991
0.31200001 63404.89762862  3572.23210153
0.31300001 62340.09833153  4110.70627861
0.31400001 61291.22169710  2896.01036230
0.31500001 60256.17415640  3141.75706927
0.31600002 59236.40792389  3380.02959617
0.31700002 58231.07215346  3610.90895521
0.31800002 57240.25061512  3012.84073378
0.31900002 56264.05439772  2970.74221286
0.32000002 55302.35508302  3461.65108033
0.32100002 54354.22819348  3412.90214987
0.32200002 53421.67996311  2847.10856845
0.32300002 52501.45291149  3061.88487878
0.32400002 51595.84660528  3269.88693344
0.32500002 50704.18639974  2975.32179882
0.32600002 49826.71131520  2444.00030574
0.32700002 48962.33617709  3372.52587558
0.32800002 48112.47870947  4511.26677982
0.32900002 47275.42076711  2808.16012654
0.33000002 46452.67142852  3228.92534390
0.33100002 45640.92817880  2954.79383022
0.33200002 44845.51769554  2464.03708647
0.33300002 44061.83865544  3311.24733176
0.33400002 43291.59835064  2610.48350416
0.33500002 42533.42493172  3429.89554892
0.33600002 41789.04818493  3168.65472868
0.33700002 41056.55423693  3330.50783742
0.33800002 40337.73149067  2871.64324081
0.33900002 39630.45636947  2829.61471878
0.34000002 38936.30823027  2389.91071236
0.34100002 38254.05965856  2158.67668876
0.34200002 37584.71556664  2320.48044898
0.34300002 36926.49612173  2667.57020617
0.34400002 36281.65002849  2816.36321684
0.34500002 35647.81058313  2590.17003964
0.34600002 35026.64949311  2187.76463095
0.34700002 34415.71760184  1976.15059829
0.34800002 33817.75917835  3009.61162062
0.34900002 33230.70776525  1919.07346433
0.35000002 32655.16307795  2750.87106797
0.35100002 32091.41587621  2033.31220622
0.35200002 31537.48001513  2003.89157507
0.35300002 30995.20682301  1975.01467231
0.35400002 30464.06918595  2108.87528928
0.35500002 29943.80420487  1758.89914230
0.35600002 29433.29884077  2048.99919585
0.35700002 28933.95521879  1709.12881573
0.35800002 28445.42831215  2144.50094203
0.35900002 27967.21239595  1963.29840319
0.36000002 27499.32211771  1935.81487217
0.36100002 27040.86232679  1615.15078328
0.36200002 26593.41334763  3040.82399327
0.36300002 26154.86408435  1570.86121131
0.36400002 25726.15313669  1690.20834114
0.36500002 25307.03018300  1945.09843200
0.36600002 24897.60826297  1370.61339980
0.36700002 24497.10227445  2163.58417537
0.36800002 24107.39185583  1868.08188340
0.36900002 23725.67987097  1448.45282473
0.37000002 23352.68427047  1689.45002358
0.37100002 22988.53542086  1539.31240470
0.37200002 22633.98647408  2406.10604611
0.37300002 22287.52496653  1375.36323084
0.37400002 21949.68830944  1481.60403107
0.37500002 21620.62014674  1829.10455106
0.37600002 21300.05714092  1806.77743257
0.37700002 20987.01415509  1546.95288665
0.37800002 20682.06104649  1881.24036191
0.37900002 20385.65309209  1278.18050942
0.38000002 20097.03776356  1378.25491512
0.38100002 19815.10581796  1476.02730230
0.38200002 19541.76362074  1234.94181052
0.38300002 19275.22419003  1665.37944891
0.38400002 19016.90222413  1647.33923321
0.38500002 18764.63792943  1629.70888138
0.38600002 18520.58300111  1397.65586239
0.38700002 18282.88702095  1596.09611254
0.38800002 18052.29684795  1158.68672808
0.38900002 17827.81362562  1251.51257581
0.39000002 17611.27017219  1239.48125344
0.39100002 17400.17345803  1330.06932215
0.39200002 17195.96387470  1115.07233028
0.39300002 16997.86534424  1707.77561204
0.39400002 16807.07504127  1095.40116771
0.39500002 16621.21540469  1184.76029018
0.39600002 16441.53481464  1272.82147798
0.39700002 16267.53422848  1165.40620734
0.39800002 16099.78807221  1445.35854266
0.39900002 15937.26222585  1051.85935674
0.40000002 15780.14908450  1423.76401861
0.40100002 15628.88673340  942.42191468
0.40200002 15483.05263626  1216.73574907
0.40300002 15341.84047537  1115.65869223
0.40400002 15206.13448409  1293.28179915
0.40500002 15075.75254945  1009.92471114
0.40600002 14949.87393356  1460.30375502
0.40700002 14829.02588458  1179.79735528
0.40800002 14712.83084922  1263.68510151
0.40900002 14601.12402499  897.96917008
0.41000002 14494.46539457  893.58383392
0.41100002 14391.73904033  889.40951483
0.41200002 14293.23551807  1239.65237522
0.41300002 14199.65410006  969.97841754
0.41400002 14109.53114580  1229.64569762
0.41500002 14023.80717844  962.59417034
0.41600002 13941.49819919  959.24482905
0.41700002 13863.41825720  1216.93091228
0.41800002 13790.05997774  1040.04637280
0.41900002 13718.41611759  1037.11230763
0.42000002 13651.52773035  1379.35042723
0.42100002 13588.63114615  946.17643154
0.42200002 13528.94907451  1030.09423134
0.42300002 13472.07538065  1199.55364873
0.42400002 13418.47907431  940.97088967
0.42500002 13368.40428312  1110.51339642
0.42600002 13320.57911078  1109.13807222
0.42700002 13277.09221822  937.62829688
0.42800002 13235.56256709  1022.05018986
0.42900002 13198.11483425  936.40629186
0.43000002 13162.72690876  1276.45550247
0.43100002 13129.18608200  935.84842827
0.43200002 13099.40230780  1020.96746425
0.43300002 13071.95897193  1021.18148328
0.43400002 13046.95266313  1191.83918226
0.43500002 13024.25566294  1107.32226894
0.43600002 13004.27218209  1108.15910651
0.43700002 12986.01247055  1365.08969559
0.43800002 12969.85735297  1281.09772075
0.43900002 12956.67564541  1026.16875975
0.44000002 12945.01674302  856.31289813
0.44100002 12935.70300523  1029.16457987
0.44200002 12928.13956003  1116.79738882
0.44300002 12922.64433986  1118.84259997
0.44400002 12919.18168550  1379.76866940
0.44500002 12916.36655433  1123.33645247
0.44600002 12915.75031412  1039.20131952
0.44700002 12917.69740744  1388.91089107
0.44800002 12919.77842076  1044.17654145
0.44900002 12925.15234505  1395.91651942
0.45000002 12931.14131385  1049.75010161
0.45100002 12938.36213018  1228.10939160
0.45200002 12947.23539779  1231.67056176
0.45300002 12957.06886023  882.37643120
0.45400002 12968.72254484  1150.64996232
0.45500002 12981.39072783  1243.09803501
0.45600002 12995.19495909  1247.14891933
0.45700002 13010.10794577  893.79445823
0.45800002 13025.82580335  1076.19377888
0.45900002 13042.58613815  1169.92003204
0.46000002 13061.16407917  993.49749277
0.46100002 13079.56752846  1178.33829449
0.46200002 13099.64648935  1273.67868852
0.46300002 13120.69131842  1004.52017495
0.46400002 13141.69587883  1649.93999579
0.46500002 13164.14935948  1012.19149222
0.46600002 13186.94017227  1108.49424342
0.46700002 13210.22507001  1298.30098141
0.46800002 13235.16844612  1210.42238761
0.46900002 13259.63265535  934.80414651
0.47000002 13285.01230387  1220.16201288
0.47100002 13311.02695137  1130.90490339
0.47200002 13337.66311280  1040.93796698
0.47300002 13364.85747654  1140.28969394
0.47400002 13391.80359098  1431.24907662
0.47500002 13419.56868890  958.15724980
0.47600002 13448.08558525  1154.65268308
0.47700002 13476.22094056  1256.11861341
