# SAXS profile: number of points = 501, q_min = 0, q_max = 0.5, delta_q = 0.001
#    q    intensity    error
0.00000000 1664650.74656090 274.66737318
0.00100000 1664564.47702865 549.30629046
0.00200000 1664305.64872322 1048.51259190
0.00300000 1663874.46717692 998.32471587
0.00400000 1663270.81524048 1746.43442236
0.00500000 1662495.33349488 1945.11961718
0.00600000 1661547.86769146 2442.47546494
0.00700000 1660429.18368781 2590.26963421
0.00800000 1659139.05135014 2687.80537667
0.00900000 1657678.84720168 3729.77756564
0.01000000 1656047.95379060 3278.97509009
0.01100000 1654248.01451529 4168.70517808
0.01200000 1652278.91249293 3221.94402062
0.01300000 1650141.92344758 4504.88764970
0.01400000 1647837.27830632 4078.39744461
0.01500000 1645366.42898829 4738.65552649
0.01600000 1642729.15942767 5026.75145256
0.01700000 1639927.60811779 7084.48758487
0.01800000 1636962.26994882 4665.34267928
0.01900000 1633834.04078992 6862.10328095
0.02000000 1630543.87488987 8217.94150119
0.02100000 1627094.29419105 5906.35255570
0.02200000 1623484.04706959 6721.22426023
0.02300000 1619716.15264993 6997.17409795
0.02400000 1615791.36758634 10300.67043805
0.02500000 1611711.83930010 8171.37939844
0.02600000 1607478.14358232 8463.37281306
0.02700000 1603092.11185559 7406.28589599
0.02800000 1598554.25442513 11125.93812103
0.02900000 1593867.88870898 7889.64641136
0.03000000 1589033.64597778 12561.31154884
0.03100000 1584053.11677364 9124.14637245
0.03200000 1578927.48906446 9378.82971701
0.03300000 1573660.88504819 8828.23797211
0.03400000 1568252.06276190 9056.65608033
0.03500000 1562704.69442046 11814.04803537
0.03600000 1557019.67195310 10369.75149443
0.03700000 1551199.91601497 13262.75989530
0.03800000 1545247.00184599 11751.60399290
0.03900000 1539163.20152370 10158.47760050
0.04000000 1532948.92021359 10370.39992580
0.04100000 1526608.05235443 12502.92052850
0.04200000 1520142.35218226 11765.90235174
0.04300000 1513553.39422187 11987.34343867
0.04400000 1506843.76035338 13222.55461118
0.04500000 1500016.41239522 11385.12509909
0.04600000 1493071.54232362 10526.15486271
0.04700000 1486013.16036611 11769.22477746
0.04800000 1478842.97579331 11956.44601560
0.04900000 1471563.60784653 12140.40032984
0.05000000 1464176.73972560 19041.61938683
0.05100000 1456686.33600887 12498.36934518
0.05200000 1449091.71494057 13824.33560476
0.05300000 1441398.20043851 14010.39116140
0.05400000 1433606.54039999 13009.97996084
0.05500000 1425720.96730635 16766.47935767
0.05600000 1417741.37899295 15758.19616285
0.05700000 1409673.43225745 14716.99131974
0.05800000 1401516.39298875 12403.42065710
0.05900000 1393273.83867033 12539.46513370
0.06000000 1384949.94524131 12672.29259099
0.06100000 1376545.62205115 20482.99981332
0.06200000 1368064.07848173 20685.12983354
0.06300000 1359508.23562545 16966.66357389
0.06400000 1350877.87073207 19756.58978341
0.06500000 1342178.81464801 18602.59924121
0.06600000 1333413.07782556 14740.88226507
0.06700000 1324580.94777896 18915.01681949
0.06800000 1315687.37395754 14979.10145366
0.06900000 1306735.54729716 21953.15822242
0.07000000 1297725.31237220 20731.16283595
0.07100000 1288660.63088636 16701.04255853
0.07200000 1279543.84158794 16813.20686611
0.07300000 1270378.21694614 18331.55852947
0.07400000 1261166.70555788 17025.75132293
0.07500000 1251909.51579801 14271.76914905
0.07600000 1242610.48284527 17222.58209964
0.07700000 1233273.16999601 15872.22644207
0.07800000 1223898.87539261 15953.52258890
0.07900000 1214489.23085859 16031.25859926
0.08000000 1205049.69910902 19033.76089032
0.08100000 1195580.94651990 23529.03413145
0.08200000 1186084.07807444 16243.42221146
0.08300000 1176563.17958221 16307.16643434
0.08400000 1167020.79514586 14879.51583653
0.08500000 1157458.80579496 17917.46315484
0.08600000 1147879.97491288 16477.81781353
0.08700000 1138286.32256958 21035.53222887
0.08800000 1128679.55043411 16574.65997653
0.08900000 1119063.16756498 24171.76555474
0.09000000 1109439.21653202 15143.84601705
0.09100000 1099809.45865409 16695.10836672
0.09200000 1090176.09130265 16728.75290707
0.09300000 1080543.09762014 19806.35591012
0.09400000 1070909.18153512 16786.50220949
0.09500000 1061278.88785396 18338.90004409
0.09600000 1051653.51554151 16831.71530746
0.09700000 1042038.26569265 15317.96322582
0.09800000 1032431.23100414 18397.92540152
0.09900000 1022837.08319565 24548.09115101
0.10000000 1013254.89804035 16885.89366994
0.10100000 1003688.66124090 18427.72468707
0.10200000 994140.49866831 16895.41856957
0.10300000 984611.46754162 19967.92150105
0.10400000 975104.11807157 23036.83587321
0.10500000 965622.00148418 23030.08581895
0.10600001 956161.41367103 21484.94797613
0.10700001 946730.47872439 16870.73792477
0.10800001 937326.23684676 18390.34163241
0.10900001 927953.41902599 18373.47856147
0.11000001 918612.86718712 18353.88595031
0.11100001 909305.02370250 21386.85516423
0.11200001 900033.43468554 16781.12417972
0.11300001 890797.69468342 16755.90542588
0.11400001 881600.88794772 18249.13923977
0.11500001 872443.73788789 18216.62610488
0.11600001 863328.44941972 18181.69800098
0.11700001 854255.84239199 18144.39494691
0.11800001 845226.34436559 18104.74914901
0.11900001 836242.10576222 19568.06619652
0.12000001 827303.86819640 18018.67909809
0.12100001 818415.00374879 17972.39432897
0.12200001 809574.87332962 16430.32282828
0.12300001 800785.40124637 17873.53099792
0.12400001 792046.69588041 16335.96387224
0.12500001 783359.76673207 17766.60034665
0.12600001 774728.38692846 16234.43411311
0.12700001 766150.51639091 23536.14497270
0.12800001 757628.08189150 14660.10407552
0.12900001 749162.52682408 14608.66996161
0.13000001 740754.53761644 18922.57555533
0.13100001 732403.83746837 15951.75633199
0.13200001 724112.22860291 14446.03964162
0.13300001 715881.55380187 17267.06389172
0.13400001 707710.53429103 17197.36679405
0.13500001 699601.59552700 15699.06054381
0.13600001 691553.81499848 15632.57472513
0.13700001 683569.67389860 21224.83937537
0.13800001 675647.36441627 16904.69785485
0.13900001 667789.92406149 21035.38359993
0.14000001 659996.50091600 15354.81931795
0.14100001 652267.60313883 15282.63066232
0.14200001 644603.95530946 15209.43104288
0.14300001 637006.93590933 13759.35046464
0.14400001 629473.54058969 15060.15516899
0.14500001 622008.59679207 14984.18780356
0.14600001 614609.60412112 17617.78513324
0.14700001 607279.62813908 16177.93005684
0.14800001 600013.64861796 16092.36681515
0.14900001 592816.66889123 16006.05081524
0.15000001 585686.97735875 17245.55386202
0.15100001 578625.19682425 14511.92062110
0.15200001 571631.69533685 13118.94802702
0.15300001 564707.30774534 18262.63519428
0.15400001 557848.44903494 14266.97475734
0.15500001 551059.64617602 16763.23522778
0.15600001 544336.37380247 16664.85887046
0.15700001 537685.02000718 14017.44913317
0.15800001 531097.77402363 16466.68726081
0.15900001 524580.85723612 16366.92351830
0.16000001 518129.48900382 13764.11052509
0.16100001 511749.11705860 13679.05454469
0.16200001 505434.59746583 12357.87649141
0.16300001 499187.69546423 13508.01967695
0.16400001 493008.23147191 12201.95430498
0.16500001 486895.28593259 13336.06251131
0.16600001 480850.08909467 13249.82483057
0.16700001 474869.89565488 11966.72193551
0.16800001 468955.52680543 17832.03474874
0.16900001 463109.27246068 14171.14440643
0.17000001 457327.07004869 11730.43990066
0.17100001 451609.83106771 11651.53419175
0.17200001 445958.54674095 13887.14980130
0.17300001 440371.37595199 12643.06280064
0.17400001 434848.42538244 12556.24887590
0.17500001 429389.07679138 15870.22102772
0.17600001 423991.71865496 13508.37679434
0.17700001 418658.99367922 16767.29348878
0.17800001 413387.22078479 16649.17110348
0.17900001 408177.90604377 14327.04517885
0.18000001 403030.39373184 14224.95841868
0.18100001 397945.06362761 13036.68090025
0.18200001 392917.53295113 15099.82150460
0.18300001 387951.07691115 11778.19525142
0.18400001 383043.53454261 10629.45858570
0.18500001 378196.38427952 12662.01554386
0.18600001 373406.03283119 14663.65560204
0.18700001 368673.28177992 13515.56314859
0.18800001 363997.79639700 16510.94082465
0.18900001 359380.53099010 16387.75298743
0.19000001 354815.79591183 12198.56763982
0.19100001 350310.73881728 12106.73970557
0.19200001 345857.50502006 12015.09029213
0.19300001 341460.89175728 13911.11738753
0.19400001 337115.71983050 10846.69879809
0.19500001 332824.90263811 10763.55785995
0.19600001 328586.30363822 9709.72573136
0.19700001 324399.28621823 9634.65925599
0.19800001 320263.88337686 10515.86510765
0.19900001 316179.63618469 13279.54534735
0.20000001 312143.91055501 12234.48115242
0.20100001 308159.33736709 12138.39687258
0.20200001 304221.82679964 11116.26607665
0.20300001 300334.34247353 11947.30070828
0.20400001 296493.63895589 10940.61579459
0.20500001 292699.53485845 12662.18247648
0.20600001 288952.22519566 10766.36041969
0.20700001 285250.91609788 11569.77770382
0.20800001 281593.60198316 9710.75582342
0.20900001 277983.05308815 8756.46658621
0.21000001 274414.73751757 8685.22685300
0.21100001 270890.46517894 12921.47579988
0.21200001 267408.43345003 9398.06983789
0.21300001 263968.07109704 9320.71303108
0.21400001 260570.24211115 10084.06884644
0.21500001 257214.26022758 12500.61363806
0.21600001 253897.45810112 9090.79891711
0.21700001 250620.95208473 13932.01938509
0.21800001 247383.99742077 8939.22116945
0.21900001 244184.58079785 9669.70985679
0.22000001 241023.18839904 11185.88670250
0.22100001 237901.21093079 11883.16604787
0.22200001 234816.23570726 11781.90518371
0.22300001 231766.38814601 7787.35100993
0.22400001 228752.16816696 11580.57906106
0.22500001 225776.04096024 8419.18896553
0.22600001 222832.56148899 8346.19398525
0.22700001 219925.53569489 8273.59904409
0.22800001 217051.52159998 7455.72011954
0.22900001 214209.97883801 9607.31800522
0.23000001 211402.74935832 10255.14785636
0.23100001 208628.67400401 7986.30601857
0.23200001 205885.00092719 9354.38545953
0.23300001 203173.49420982 7131.38998404
0.23400001 200493.92075435 10601.11656127
0.23500001 197843.23020117 7704.01574840
0.23600001 195224.54619474 7634.25624002
0.23700001 192634.79902909 8252.47518073
0.23800001 190074.83699190 10902.69316554
0.23900001 187543.41921887 9452.18877572
0.24000001 185040.49753467 9364.90002319
0.24100001 182567.09335184 9278.06012300
0.24200001 180120.53005541 7221.93299418
0.24300001 177701.82558060 7154.27583629
0.24400001 175309.62170362 7086.89179260
0.24500001 172944.16581234 9572.46003053
0.24600001 170605.37940276 6953.02256647
0.24700001 168292.79865952 8764.68936881
0.24800001 166005.58239524 6200.30879578
0.24900001 163742.71110513 7368.42234831
0.25000001 161506.12627390 6688.77653607
0.25100001 159292.96278944 7827.65656179
0.25200001 157105.80889378 5962.16572959
0.25300001 154942.40412455 7674.29763936
0.25400001 152802.31166721 7598.09530713
0.25500001 150685.46152311 9258.11519400
0.25600001 148592.45367110 6301.06329604
0.25700001 146521.42289580 9639.64486840
0.25800001 144474.06068405 10103.07154165
0.25900001 142448.92881703 6111.05933539
0.26000001 140445.91325476 6598.14931690
0.26100001 138464.07815979 7074.13008790
0.26200001 136504.92887889 7000.65560880
0.26300001 134566.40762166 5328.82999396
0.26400001 132649.42499171 8963.78531797
0.26500001 130753.99086889 6782.20982730
0.26600001 128878.25532526 7226.20411803
0.26700001 127024.27338789 5617.01363501
0.26800001 125190.89076563 6061.74321772
0.26900001 123376.26091279 5996.08656411
0.27000001 121582.78508829 6425.04258204
0.27100001 119808.46504684 5377.00416576
0.27200001 118055.38776022 5317.80519332
0.27300001 116320.72934326 6693.09508316
0.27400001 114603.63475701 5200.14017319
0.27500001 112908.48252049 7011.61709635
0.27600001 111230.19150655 7394.58348131
0.27700001 109572.12517706 5939.90518696
0.27800001 107931.76928340 4968.63923411
0.27900001 106311.29195303 5358.08936802
0.28000001 104707.61686544 5737.45413769
0.28100001 103123.00585385 4798.31368948
0.28200001 101557.20092475 4742.21372163
0.28300001 100008.76099998 5112.44810429
0.28400001 98477.95075055  5893.90563138
0.28500001 96965.30396756  4575.79291081
0.28600001 95470.16734972  4109.99089894
0.28700001 93992.52211707  6090.71572147
0.28800001 92531.55318673  4412.36732256
0.28900001 91089.67398750  5151.12130781
0.29000001 89663.25403362  5870.70183574
0.29100001 88254.98712336  3865.56861898
0.29200001 86863.47029329  4199.41467011
0.29300001 85488.85035387  4524.07017488
0.29400001 84130.29653354  5211.87211696
0.29500001 82789.56088740  5513.78501611
0.29600001 81464.70049190  5080.95361020
0.29700001 80156.30638650  3582.98706509
0.29800001 78864.16839234  3890.76393182
0.29900001 77589.04652105  4538.95943635
0.30000001 76329.32985779  4480.15022809
0.30100001 75086.77286904  3741.57406919
0.30200001 73858.46166238  3692.55396562
0.30300001 72647.60656911  4969.09652457
0.30400001 71452.56246311  3922.74586493
0.30500001 70272.84129342  4193.18063849
0.30600001 69107.98916543  4137.14996725
0.30700001 67959.84126650  4081.66825971
0.30800001 66826.60340473  4336.37850023
0.30900001 65709.18302231  3361.02487072
0.31000001 64606.96769745  3918.08974151
0.31100001 63519.29875643  3864.51431931
0.31200001 62447.54949127  3225.10384617
0.31300001 61390.09944764  3469.76858506
0.31400001 60348.79836538  3136.62894355
0.31500001 59321.43443079  3374.20335018
0.31600002 58309.25798451  4713.42909235
0.31700002 57311.69509803  2733.76798561
0.31800002 56328.75566653  2964.86419489
0.31900002 55360.42130634  2657.30034852
0.32000002 54406.88295299  3143.62984587
0.32100002 53466.92028840  3098.94284665
0.32200002 52542.47749369  3818.52473266
0.32300002 51630.60512173  3011.09703328
0.32400002 50733.33417678  3215.22520570
0.32500002 49850.00187070  3168.96476898
0.32600002 48981.15339190  2402.52568764
0.32700002 48125.42291241  2841.32510329
0.32800002 47284.15604308  2800.16785347
0.32900002 46455.84974094  2529.52113818
0.33000002 45642.00337906  2945.96324760
0.33100002 44839.06743687  2679.58279692
0.33200002 44052.63569824  2200.42925733
0.33300002 43277.91488423  3252.33545756
0.33400002 42516.83539915  2563.76529598
0.33500002 41767.70382379  2736.62008413
0.33600002 41032.63273938  3111.29952480
0.33700002 40309.29396338  2656.78569094
0.33800002 39599.68566519  3221.83057830
0.33900002 38901.77398857  2777.58679432
0.34000002 38216.92035202  2541.23423916
0.34100002 37544.18447874  2503.82178146
0.34200002 36884.36039554  2656.78060511
0.34300002 36235.55693914  2056.73030927
0.34400002 35600.19348103  1842.31009989
0.34500002 34975.96075624  1996.77769414
0.34600002 34364.60686224  2146.41344627
0.34700002 33763.17632620  2291.16925401
0.34800002 33175.02102767  2778.73989288
0.34900002 32597.69289932  1882.51685410
0.35000002 32031.76444968  1686.47247815
0.35100002 31477.91106530  2160.64391786
0.35200002 30933.69556725  2129.32103522
0.35300002 30401.18822370  1614.30317114
0.35400002 29880.00733094  2227.55465203
0.35500002 29369.52688333  2195.66593379
0.35600002 28868.90491902  2009.70891113
0.35700002 28379.35418115  1981.16280922
0.35800002 27900.93500083  1652.71196306
0.35900002 27432.44763241  2222.02836347
0.36000002 26974.42005591  2044.93088130
0.36100002 26525.82269675  1728.42268879
0.36200002 26088.36730387  1846.66516707
0.36300002 25659.57759303  1681.21560353
0.36400002 25240.78803832  1796.51317372
0.36500002 24831.49802018  1499.57423647
0.36600002 24432.00746182  1613.97848938
0.36700002 24041.28719113  1459.78702739
0.36800002 23661.46676920  1309.66224771
0.36900002 23289.50430546  1551.08106022
0.37000002 22926.33676781  1658.60591203
0.37100002 22571.93663007  1259.51412362
0.37200002 22227.22233681  1616.69709325
0.37300002 21890.51773994  1228.05810338
0.37400002 21562.32945567  1212.88108934
0.37500002 21242.98210216  1317.91467205
0.37600002 20932.03263750  1420.44780207
0.37700002 20628.62987939  1169.64336957
0.37800002 20333.21608354  1618.32074475
0.37900002 20046.36549867  1256.90717631
0.38000002 19767.18983255  1129.69495245
0.38100002 19494.76569265  1117.05012711
0.38200002 19230.89948883  1436.25979636
0.38300002 18973.65082908  1420.74704139
0.38400002 18724.72750404  1297.62367750
0.38500002 18481.57461430  1284.09986504
0.38600002 18246.77427209  1165.14782634
0.38700002 18018.36872080  1153.53602015
0.38800002 17796.74339484  1349.97203417
0.38900002 17581.44024117  1234.21716340
0.39000002 17373.81090728  1324.66627538
0.39100002 17171.55570144  1312.59378000
0.39200002 16976.27336057  1200.90163442
0.39300002 16786.94743845  1587.37382499
0.39400002 16604.92104507  1377.37826594
0.39500002 16427.68797244  1170.96565415
0.39600002 16256.53789033  1161.69225268
0.39700002 16091.09557771  1344.89383210
0.39800002 15931.70183184  1620.97107968
0.39900002 15777.57694291  1419.98199214
0.40000002 15628.71989955  1128.08105580
0.40100002 15485.58328924  1213.91493156
0.40200002 15347.96148236  1113.34117868
0.40300002 15214.73746364  1290.81838757
0.40400002 15087.01659154  1466.45808218
0.40500002 14964.40441629  1002.46549934
0.40600002 14846.38397966  1359.55767735
0.40700002 14733.05894727  991.82957532
0.40800002 14624.63563665  1076.66572658
0.40900002 14520.35431869  1250.20256608
0.41000002 14420.99975535  1333.58201556
0.41100002 14325.64259364  1150.92218051
0.41200002 14234.28220301  969.99520669
0.41300002 14147.72821868  1230.00354961
0.41400002 14064.67887075  1050.63156143
0.41500002 13985.93063946  1396.35538121
0.41600002 13910.38393813  957.10401221
0.41700002 13838.98624050  1041.24537407
0.41800002 13772.23665561  952.14362630
0.41900002 13707.02502963  1381.66818846
0.42000002 13646.55010384  1120.31358386
0.42100002 13589.88297662  860.23963318
0.42200002 13536.40231879  1202.43867496
0.42300002 13485.62193980  857.68559601
0.42400002 13437.91701658  1028.00070048
0.42500002 13393.69514049  1027.02859204
0.42600002 13351.56205617  940.68434924
0.42700002 13313.71496509  1709.48108252
0.42800002 13277.54238182  1367.05582841
0.42900002 13245.51397440  854.33569183
0.43000002 13215.33305716  939.80845489
0.43100002 13186.86877274  1196.31279175
0.43200002 13162.13490406  1196.83298354
0.43300002 13139.60233517  855.38815255
0.43400002 13119.42993660  1369.66855029
0.43500002 13101.38110345  1113.87947420
0.43600002 13085.85554789  943.55565899
0.43700002 13072.02059030  1202.36451087
0.43800002 13060.24420399  946.01883375
0.43900002 13051.20966800  1119.79384258
0.44000002 13043.56994219  1035.39863108
0.44100002 13038.19486896  950.87559686
0.44200002 13034.47108304  1299.21096677
0.44300002 13032.58543606  1301.95534676
0.44400002 13032.78288985  956.93212904
0.44500002 13033.43674866  1133.51804775
0.44600002 13036.04475511  961.47352648
0.44700002 13041.27640378  964.01119745
0.44800002 13046.31220249  1405.87066957
0.44900002 13054.61396631  969.30513294
0.45000002 13063.43801014  972.11578560
0.45100002 13073.30094708  1506.82873857
0.45200002 13084.79403028  889.11179649
0.45300002 13097.08518981  891.91154370
0.45400002 13110.97774896  1252.75398329
0.45500002 13125.90032856  1167.15511253
0.45600002 13141.70687596  1261.20966866
0.45700002 13158.60366474  1446.39378338
0.45800002 13176.11402370  1088.61059223
0.45900002 13194.66493664  1183.56150091
0.46000002 13214.80623722  913.80389461
0.46100002 13234.60582679  1467.45316362
0.46200002 13256.12938932  1012.70205269
0.46300002 13278.31206455  924.17056349
0.46400002 13300.45667660  1206.01896631
0.46500002 13323.84147094  1397.00484444
0.46600002 13347.55744863  1028.49608795
0.46700002 13371.57887573  1126.42185788
0.46800002 13397.15038622  1225.23644664
0.46900002 13422.13257219  1135.51246943
0.47000002 13447.83148292  1045.09827323
0.47100002 13474.19487046  953.97304204
0.47200002 13500.93459765  1053.68049062
0.47300002 13528.11782925  1346.58891255
0.47400002 13554.95438125  1352.10676362
0.47500002 13582.52924367  1454.68895095
0.47600002 13610.84058507  1363.39796603
0.47700002 13638.48245577  1173.45508611
