# SAXS profile: number of points = 501, q_min = 0, q_max = 0.5, delta_q = 0.001
#    q    intensity    error
0.00000000 1646666.22097350 271.69992646
0.00100000 1646580.42575195 642.16638129
0.00200000 1646323.02397919 889.01446110
0.00300000 1645894.21737291 1283.79753528
0.00400000 1645293.89040724 1727.55865057
0.00500000 1644522.68264564 1776.08456756
0.00600000 1643580.43774142 2588.63929483
0.00700000 1642467.91887682 2365.15390148
0.00800000 1641184.90656677 2437.15968915
0.00900000 1639732.78283623 2459.59927940
0.01000000 1638110.88470778 2973.17138412
0.01100000 1636320.87864899 4123.52879373
0.01200000 1634362.69443566 3187.00739388
0.01300000 1632237.51606920 4113.23872191
0.01400000 1629945.64292673 4034.11564508
0.01500000 1627488.50181744 3905.97257829
0.01600000 1624865.87056756 6629.45304828
0.01700000 1622079.88813567 4817.57748387
0.01800000 1619131.04076830 5075.97604122
0.01900000 1616020.24031532 5817.67312764
0.02000000 1612748.43178533 6604.20512691
0.02100000 1609318.09950286 5841.82496605
0.02200000 1605728.06490169 7201.69069827
0.02300000 1601981.26710375 7497.27267131
0.02400000 1598078.47431381 6592.07400713
0.02500000 1594021.92705236 6216.68579942
0.02600000 1589812.00896034 7082.61282386
0.02700000 1585450.77734248 7990.67228379
0.02800000 1580938.49790234 6877.08278126
0.02900000 1576278.63870110 8511.90503980
0.03000000 1571471.82364209 8038.07874740
0.03100000 1566519.58979300 10527.01212779
0.03200000 1561423.15351096 7729.04496586
0.03300000 1556186.62167326 8730.20735005
0.03400000 1550808.69740269 8955.92064073
0.03500000 1545293.17549375 9179.04188630
0.03600000 1539640.77908340 8545.00671881
0.03700000 1533854.60647011 11365.86315959
0.03800000 1527935.98674460 10726.11112335
0.03900000 1521887.44236142 10957.59009245
0.04000000 1515709.16275475 10253.77296119
0.04100000 1509405.32179787 9509.25396824
0.04200000 1502977.22868153 10663.62393221
0.04300000 1496426.80175802 15802.26776007
0.04400000 1489756.67214455 13072.61540519
0.04500000 1482969.44851503 13302.23657127
0.04600000 1476065.56338894 10406.26270565
0.04700000 1469048.91448738 12692.58321148
0.04800000 1461921.37648129 19341.22071076
0.04900000 1454685.41452273 16365.21167514
0.05000000 1447342.74374941 14393.82425685
0.05100000 1439897.21599859 17969.91809277
0.05200000 1432348.32408604 20496.90547285
0.05300000 1424701.21387387 20772.14466663
0.05400000 1416956.88030009 17534.84221143
0.05500000 1409119.23633932 15387.58277865
0.05600000 1401188.45417012 13178.17802642
0.05700000 1393169.91142800 19392.92607231
0.05800000 1385063.03737789 13483.58929845
0.05900000 1376871.36949649 19826.94864678
0.06000000 1368599.13550107 16279.48747734
0.06100000 1360247.11662934 15180.35853098
0.06200000 1351818.55490706 17884.56031741
0.06300000 1343316.45927753 15475.00633442
0.06400000 1334740.51556851 14315.09269894
0.06500000 1326096.53957086 19692.53453380
0.06600000 1317386.49568412 13239.73490109
0.06700000 1308610.68539094 16017.39553878
0.06800000 1299774.23963641 14797.93041094
0.06900000 1290880.06547959 17620.51371877
0.07000000 1281928.19544545 16383.04310499
0.07100000 1272922.43768892 16497.07556513
0.07200000 1263865.11194346 17991.12071134
0.07300000 1254759.66328950 18106.18278964
0.07400000 1245608.84534215 19618.34023354
0.07500000 1236413.19782115 18323.64445058
0.07600000 1227176.03242678 21260.82575851
0.07700000 1217901.33784302 15674.39095299
0.07800000 1208590.01805694 17186.15086274
0.07900000 1199243.95686713 14390.92815739
0.08000000 1189868.71958153 14456.90562110
0.08100000 1180464.60857706 18875.62997676
0.08200000 1171032.98361252 14579.36133012
0.08300000 1161577.81607085 16099.46928632
0.08400000 1152101.75115972 19096.08742182
0.08500000 1142606.50617376 19161.51200807
0.08600000 1133094.92311834 14786.88944096
0.08700000 1123568.96759305 26695.99992359
0.08800000 1114030.47834423 23795.69213497
0.08900000 1104482.84873512 17892.62298992
0.09000000 1094927.95915472 16440.34407900
0.09100000 1085367.77341522 19471.49876986
0.09200000 1075804.41213830 24011.95560717
0.09300000 1066241.88130529 18040.81347946
0.09400000 1056678.97801639 19574.97898773
0.09500000 1047119.86989393 19602.08488576
0.09600000 1037566.06414849 16606.24563732
0.09700000 1028022.86523850 15111.93682946
0.09800000 1018488.40449681 19661.91957327
0.09900000 1008967.07500183 16647.95752036
0.10000000 999457.92422713 21198.50356976
0.10100000 989965.29611035 21205.05764000
0.10200000 980490.88137172 16663.44331270
0.10300000 971035.99747157 15148.16227314
0.10400000 961603.36726581 22717.88062042
0.10500000 952196.06295906 28765.84441541
0.10600001 942810.62517125 21184.95574443
0.10700001 933454.89792400 30243.94011595
0.10800001 924126.42272894 15109.46772270
0.10900001 914829.53398528 22642.03203180
0.11000001 905565.30595960 19600.96197010
0.11100001 896333.97922784 16564.25271587
0.11200001 887139.03520861 18044.40882562
0.11300001 877980.34864175 16514.81113548
0.11400001 868860.54887452 17985.41420854
0.11500001 859781.01930599 14960.19044037
0.11600001 850743.22153887 16423.59866522
0.11700001 841748.25083322 16388.83921555
0.11800001 832796.98485987 20811.59763184
0.11900001 823890.76702444 14830.03450496
0.12000001 815030.83829831 17751.37249431
0.12100001 806220.64615039 17704.60622349
0.12200001 797459.03272094 16184.43183154
0.12300001 788748.33800378 17604.86373369
0.12400001 780088.61210940 21939.99324933
0.12500001 771480.60941159 20413.37788692
0.12600001 762928.37724431 18893.92215280
0.12700001 754429.65324006 14485.05002484
0.12800001 745986.55014508 17321.80851073
0.12900001 737600.34391750 17259.84886116
0.13000001 729271.86298081 24361.32773114
0.13100001 721000.64269779 21413.72009752
0.13200001 712788.77622369 19908.19145841
0.13300001 704637.67218018 16995.86145422
0.13400001 696546.56602471 18336.58921509
0.13500001 688517.11131966 14045.74973315
0.13600001 680549.08937515 18180.86977990
0.13700001 672644.61375566 23670.36507420
0.13800001 664802.16634834 15247.23840419
0.13900001 657024.36924756 17936.76612632
0.14000001 649310.69221939 16479.50614571
0.14100001 641661.50723279 13667.39074865
0.14200001 634077.49018799 14961.05908663
0.14300001 626560.00740944 16240.43615808
0.14400001 619106.27114837 16158.67443918
0.14500001 611720.89302774 20095.03228389
0.14600001 604401.32576114 14659.75484790
0.14700001 597150.62651894 13256.74453413
0.14800001 589963.89960939 14504.26315619
0.14900001 582846.23536880 14425.44500598
0.15000001 575795.50100938 22171.00681246
0.15100001 568812.73672341 15562.71721108
0.15200001 561898.03416081 16764.22864024
0.15300001 555052.24859595 12821.70754761
0.15400001 548272.09263224 14022.05943078
0.15500001 541561.75603407 15207.05482710
0.15600001 534916.87595176 13857.02232551
0.15700001 528343.57812262 12521.74339249
0.15800001 521834.29527087 13690.32338260
0.15900001 515395.35377365 13606.43798186
0.16000001 509021.63288709 15980.73491882
0.16100001 502718.65921658 14659.27679474
0.16200001 496481.44610499 19422.35508848
0.16300001 490311.77758196 15680.17138730
0.16400001 484209.07852113 13182.59278508
0.16500001 478172.81837722 14287.80448766
0.16600001 472204.13820067 11828.71422040
0.16700001 466300.18718401 12925.84179903
0.16800001 460461.71686855 11672.70507376
0.16900001 454691.35845573 12754.09320691
0.17000001 448984.56392122 19577.97283425
0.17100001 443342.69167293 11438.24198529
0.17200001 437766.48318249 14768.05300755
0.17300001 432253.84658254 16922.73889287
0.17400001 426805.31520189 13444.36806378
0.17500001 421420.28851576 13350.59537070
0.17600001 416096.84706667 14361.58335479
0.17700001 410837.69022224 17550.98695524
0.17800001 405639.35504497 10891.41719738
0.17900001 400503.16661283 15139.02041303
0.18000001 395428.38363360 16103.82168414
0.18100001 390415.40577877 12790.00929747
0.18200001 385459.99159640 13755.14044988
0.18300001 380565.28662315 10503.60240698
0.18400001 375729.37984498 16682.38525320
0.18500001 370953.32401977 13454.47769781
0.18600001 366233.71730909 11300.14188143
0.18700001 361571.53103862 11215.94942271
0.18800001 356966.06320554 11131.98720701
0.18900001 352418.67062165 10043.93258727
0.19000001 347923.41802808 10964.80703723
0.19100001 343487.42615929 12860.16984305
0.19200001 339103.05352539 10798.73724977
0.19300001 334774.58243439 11690.32897101
0.19400001 330497.52100728 9667.05294627
0.19500001 326274.34807402 12470.20617267
0.19600001 322102.98161813 9518.14355661
0.19700001 317982.71354678 9444.08703864
0.19800001 313913.88437679 12181.42885892
0.19900001 309895.62967205 12085.93012839
0.20000001 305925.67313263 13835.48922130
0.20100001 302006.37322129 10980.95224931
0.20200001 298133.85839419 9985.99405889
0.20300001 294310.85584956 9005.91261466
0.20400001 290534.36817717 13400.89836558
0.20500001 286803.89589115 14179.58528308
0.20600001 283119.73816193 9669.95511400
0.20700001 279481.40576376 12207.74838081
0.20800001 275886.50739742 10378.85089890
0.20900001 272338.15366230 10294.38269506
0.21000001 268831.40688355 11061.06875911
0.21100001 265368.24641110 10126.45276176
0.21200001 261947.05278748 9206.12960543
0.21300001 258567.04097710 9130.00264853
0.21400001 255229.17690860 9877.36961333
0.21500001 251932.61455988 8978.87880741
0.21600001 248674.81625719 9713.23878223
0.21700001 245457.13204646 8026.44859741
0.21800001 242278.18086840 7958.83861783
0.21900001 239136.56830492 9469.80855262
0.22000001 236032.61899064 10171.82619635
0.22100001 232967.45968383 10085.16180657
0.22200001 229938.86064829 8460.60077761
0.22300001 226945.02515185 12963.10044964
0.22400001 223986.59606528 7559.54797467
0.22500001 221065.39875366 14238.82300704
0.22600001 218176.49236242 11143.36487436
0.22700001 215323.69255823 8836.88476048
0.22800001 212503.54307575 8029.44675483
0.22900001 209715.34815696 9405.73380965
0.23000001 206960.89501938 9322.55395703
0.23100001 204239.29525008 7107.52781084
0.23200001 201547.67772264 9861.72833737
0.23300001 198887.54658668 7679.04853689
0.23400001 196259.08197307 8993.57285677
0.23500001 193659.11690008 10968.85290001
0.23600001 191090.52348056 10189.90264655
0.23700001 188550.57809013 7404.38155181
0.23800001 186039.91434626 9337.34374268
0.23900001 183557.36514420 7268.87200352
0.24000001 181102.82589592 7856.24095897
0.24100001 178677.28342930 7134.58426481
0.24200001 176278.39907553 6425.34795023
0.24300001 173906.61359138 6364.98235853
0.24400001 171560.99672488 9457.30039182
0.24500001 169241.79662934 7494.02710925
0.24600001 166948.53269076 8041.07645743
0.24700001 164681.22491053 7963.98441342
0.24800001 162438.89184542 7887.22076667
0.24900001 160220.43387394 8411.57317631
0.25000001 158027.80719131 6544.72194445
0.25100001 155858.08147339 6480.57933425
0.25200001 153714.01754378 7000.13669012
0.25300001 151593.29104451 8085.98652687
0.25400001 149495.32400974 9720.93390364
0.25500001 147420.23697360 6227.03110438
0.25600001 145368.50568595 8405.93423900
0.25700001 143338.36775002 7211.35362270
0.25800001 141331.37880944 7137.94162450
0.25900001 139346.32936695 7064.85923318
0.26000001 137382.99800439 6454.25355163
0.26100001 135440.22349687 6919.64134587
0.26200001 133519.93018642 6847.56994362
0.26300001 131619.73889507 5733.35609756
0.26400001 129740.59239480 8251.50206676
0.26500001 127882.65398673 7143.52538972
0.26600001 126044.01459153 5552.86932559
0.26700001 124226.65578423 5493.30297872
0.26800001 122429.59566483 6422.04474450
0.26900001 120650.76646400 4886.35627302
0.27000001 118892.76766171 6282.88860440
0.27100001 117153.48422735 6691.80733574
0.27200001 115435.00239090 6617.88900025
0.27300001 113734.57777591 7011.73705171
0.27400001 112051.37073373 9244.23852301
0.27500001 110389.70267141 5484.16068826
0.27600001 108744.41073530 6325.66267184
0.27700001 107119.02209607 7146.98149249
0.27800001 105510.89437822 5740.32048032
0.27900001 103922.39351290 5237.68888094
0.28000001 102350.18182962 5608.27847879
0.28100001 100796.83148543 6395.55926045
0.28200001 99261.72005905  4635.02623753
0.28300001 97743.61973831  4580.26623772
0.28400001 96242.78297866  4114.37916707
0.28500001 94759.85343027  4065.19790457
0.28600001 93293.95888935  5622.82716840
0.28700001 91845.20599908  4761.25570435
0.28800001 90412.76106354  6271.02940419
0.28900001 88999.13825194  4645.75523665
0.29000001 87600.63101019  5353.27481443
0.29100001 86219.80860805  4531.71335495
0.29200001 84855.48041258  5967.03766506
0.29300001 83507.72292362  4419.22890631
0.29400001 82175.53032365  3999.89412784
0.29500001 80860.93602348  6103.38373997
0.29600001 79561.88937079  3898.93057318
0.29700001 78278.93857770  3848.97559207
0.29800001 77012.02274669  3799.38832207
0.29900001 75761.67846219  3750.20326141
0.30000001 74526.43972234  4037.84269531
0.30100001 73308.05143530  4317.11135340
0.30200001 72103.48416438  4587.94491458
0.30300001 70916.34510879  3233.78549005
0.30400001 69744.45598731  3509.88991373
0.30500001 68587.71737140  3148.17637639
0.30600001 67445.40980642  4348.20577608
0.30700001 66319.66780162  3676.76255699
0.30800001 65208.43903852  4231.37580954
0.30900001 64112.75953391  3577.49215137
0.31000001 63032.08273918  3528.53615880
0.31100001 61965.57648856  3479.98694036
0.31200001 60914.72163744  3717.93021117
0.31300001 59877.84947889  4512.39495037
0.31400001 58856.82043394  3615.28036633
0.31500001 57849.53163437  3564.68830809
0.31600002 56857.19784888  2703.55988572
0.31700002 55879.15045989  2931.97916345
0.31800002 54915.46405950  2627.70507967
0.31900002 53966.20984632  3626.52947339
0.32000002 53031.31318863  2808.80363603
0.32100002 52109.85954712  3523.66886942
0.32200002 51203.68996757  3473.14645495
0.32300002 50309.81255335  2445.05700587
0.32400002 49430.37302378  2650.70387891
0.32500002 48564.59066689  2612.28945567
0.32600002 47712.96631152  2574.35321924
0.32700002 46874.25995937  4151.18465857
0.32800002 46049.88274418  2954.33036735
0.32900002 45238.18443805  2687.14828287
0.33000002 44440.65452475  2206.47860164
0.33100002 43653.80887447  2608.75174187
0.33200002 42883.38413679  3427.24022251
0.33300002 42124.40936831  2321.47631022
0.33400002 41378.74982548  2495.13873264
0.33500002 40645.01484685  2458.21061435
0.33600002 39924.92041391  2220.02530475
0.33700002 39216.61260708  2385.93882401
0.33800002 38521.64122259  2742.35576851
0.33900002 37838.27377472  2122.72725929
0.34000002 37167.75219054  3041.80898333
0.34100002 36509.12454885  2060.20999586
0.34200002 35863.16194615  2952.25563122
0.34300002 35228.26104238  1817.77835588
0.34400002 34606.42034417  1969.97057139
0.34500002 33995.61591083  2293.68431413
0.34600002 33397.43413268  2086.00383472
0.34700002 32809.11317329  1883.89936763
0.34800002 32233.81453422  2362.41637910
0.34900002 31669.20343191  1662.63325892
0.35000002 31115.87545108  2457.37638014
0.35100002 30574.41799484  2098.62815056
0.35200002 30042.39887140  1908.89411470
0.35300002 29522.04475846  1724.38271601
0.35400002 29012.78341454  1699.42386900
0.35500002 28514.04519562  1827.18010268
0.35600002 28025.06342165  2101.03910424
0.35700002 27547.12142332  1923.06463765
0.35800002 27079.91910145  1749.90445522
0.35900002 26622.71458199  1868.91465218
0.36000002 26175.78082283  2267.86975791
0.36100002 25738.16809489  2236.13215000
0.36200002 25311.44147740  1516.02885910
0.36300002 24893.42794556  1631.01747625
0.36400002 24485.17919642  1608.67634940
0.36500002 24086.42899830  2115.75202343
0.36600002 23697.19483532  1956.79595622
0.36700002 23316.73896811  1287.08405201
0.36800002 22946.94703905  1270.11357878
0.36900002 22584.99581266  1504.16079237
0.37000002 22231.67727643  1608.35076875
0.37100002 21887.10152834  1343.43035545
0.37200002 21551.95438292  1567.58147630
0.37300002 21224.82207884  1786.06886254
0.37400002 20906.07713838  1528.75696316
0.37500002 20596.08083601  1393.94281701
0.37600002 20294.42393118  1377.17967321
0.37700002 20000.12099699  1587.60967995
0.37800002 19713.75619671  1120.72709287
0.37900002 19435.81692701  1772.54658771
0.38000002 19165.54874086  1204.84227867
0.38100002 18901.89041907  1624.61755848
0.38200002 18646.69656174  1499.75387551
0.38300002 18398.11324516  1059.73137312
0.38400002 18157.62879346  1363.18404625
0.38500002 17923.06769445  1141.52023554
0.38600002 17696.49307345  1232.73776590
0.38700002 17476.37826192  1322.26284194
0.38800002 17263.03922579  1208.75806386
0.38900002 17055.76679859  1297.09112648
0.39000002 16856.24134063  1186.34232176
0.39100002 16662.02285839  1077.69968954
0.39200002 16474.62541007  1165.41505672
0.39300002 16293.20986332  1155.51449825
0.39400002 16118.92511657  1337.06490177
0.39500002 15949.39103725  1136.87264700
0.39600002 15785.93787811  940.05264518
0.39700002 15628.09093442  932.99707299
0.39800002 15476.23102952  1574.62920070
0.39900002 15329.59827517  919.77594009
0.40000002 15188.16100526  1004.92472053
0.40100002 15052.43625136  998.42814386
0.40200002 14922.01646406  902.03593799
0.40300002 14796.04619681  986.30448621
0.40400002 14675.50077223  1426.45874265
0.40500002 14560.07917422  1241.39240921
0.40600002 14449.16441492  1146.75798812
0.40700002 14342.89474380  1053.34223989
0.40800002 14241.35226497  1223.18980399
0.40900002 14144.02545111  956.84336710
0.41000002 14051.59738284  866.28101970
0.41100002 13963.08152321  1035.50217483
0.41200002 13878.52698788  859.77478764
0.41300002 13798.81366779  856.90636937
0.41400002 13722.40438663  1281.32957031
0.41500002 13650.29373202  1192.48971693
0.41600002 13581.42062842  1104.37327073
0.41700002 13516.60667018  1355.98604540
0.41800002 13456.43540113  1437.75290856
0.41900002 13397.76378271  1012.87098997
0.42000002 13343.64595647  1095.44666670
0.42100002 13293.48800760  925.62561383
0.42200002 13246.37182581  1176.67526504
0.42300002 13201.92854949  1343.42831285
0.42400002 13160.56039726  1510.17437715
0.42500002 13122.65100500  1006.24492674
0.42600002 13086.77308467  1005.84942695
0.42700002 13055.15448041  921.95505310
0.42800002 13025.14602115  1173.43546065
0.42900002 12999.28581441  922.29937224
0.43000002 12975.23306757  1006.61862908
0.43100002 12952.88368258  1007.21628289
0.43200002 12934.16390471  1260.11097813
0.43300002 12917.68258729  1009.12941154
0.43400002 12903.42730176  1178.72813987
0.43500002 12891.38727690  1180.33547501
0.43600002 12881.79674598  1097.72236173
0.43700002 12873.81463877  1184.13352659
0.43800002 12867.94090422  1101.56013331
0.43900002 12864.71977232  1018.88585425
0.44000002 12862.91433824  1021.05818856
0.44100002 12863.30916191  938.12118164
0.44200002 12865.26860191  1196.85599476
0.44300002 12869.18891048  1285.63203308
0.44400002 12875.03615226  945.34957428
0.44500002 12881.32533807  1034.11284715
0.44600002 12889.67122648  1037.10299603
0.44700002 12900.42755270  1213.67228168
0.44800002 12911.10220946  956.51905252
0.44900002 12924.95784793  959.67816569
0.45000002 12939.28433167  1137.94541448
0.45100002 12954.68986482  1053.99361735
0.45200002 12971.58509508  1410.27079837
0.45300002 12989.34935469  973.03220627
0.45400002 13008.71924643  887.84513065
0.45500002 13028.96685690  1069.41765030
0.45600002 13050.14689602  1073.50513454
0.45700002 13072.37258035  1257.30085437
0.45800002 13095.16824953  1172.08308972
0.45900002 13119.01120428  905.21181600
0.46000002 13144.37099612  1363.39994619
0.46100002 13169.45390285  912.64319872
0.46200002 13196.05566201  1008.11272008
0.46300002 13223.47743329  1196.46029487
0.46400002 13250.74001117  1293.93482342
0.46500002 13279.25697666  1021.04211733
0.46600002 13307.99368993  1211.89250281
0.46700002 13337.12139011  1029.89256256
0.46800002 13367.67932111  1034.45791329
0.46900002 13397.63295444  1038.98648486
0.47000002 13428.32432574  948.71115858
0.47100002 13459.63477844  1143.53062498
0.47200002 13491.25459042  1244.36592613
0.47300002 13523.31980088  1346.11131678
0.47400002 13555.02460798  1352.11376873
0.47500002 13587.42772403  1261.18510112
0.47600002 13620.45405631  1071.99788731
0.47700002 13652.88003256  1566.25847157
0.47800002 13685.56472887  983.30787238
