# SAXS profile: number of points = 501, q_min = 0, q_max = 0.5, delta_q = 0.001
#    q    intensity    error
0.00000000 1646666.22097350 370.49989972
0.00100000 1646580.44489162 592.76897424
0.00200000 1646323.09448211 889.01449917
0.00300000 1645894.38182607 1283.79766356
0.00400000 1645294.17789601 1357.36774834
0.00500000 1644523.13387818 1776.08505489
0.00600000 1643581.08280079 1898.33622792
0.00700000 1642468.80095717 2365.15517167
0.00800000 1641186.04281666 2437.16137648
0.00900000 1639734.21965434 2951.52172155
0.01000000 1638112.67504816 2973.17463359
0.01100000 1636323.04801799 3239.91977614
0.01200000 1634365.24030024 4780.51853747
0.01300000 1632240.52172689 4798.78734553
0.01400000 1629949.11828785 4400.86281447
0.01500000 1627492.51713080 3905.98221504
0.01600000 1624870.41489314 4143.41974320
0.01700000 1622085.02333760 5693.51868732
0.01800000 1619136.80307327 5075.99410604
0.01900000 1616026.65889266 7272.12029315
0.02000000 1612755.52781930 5588.19815668
0.02100000 1609325.90259646 7966.16357903
0.02200000 1605736.62657156 6647.74993603
0.02300000 1601990.65996559 7497.31662990
0.02400000 1598088.65788025 8389.96583643
0.02500000 1594032.95198301 8703.42031532
0.02600000 1589823.95355482 9014.30222895
0.02700000 1585463.59560642 8656.63162849
0.02800000 1580952.30545290 7564.85712851
0.02900000 1576293.45914830 7093.32089185
0.03000000 1571487.59759919 8038.15943120
0.03100000 1566536.43271927 8271.31274535
0.03200000 1561441.08178625 10820.78719516
0.03300000 1556205.67840854 10317.64412350
0.03400000 1550828.90421961 8956.03733510
0.03500000 1545314.53580984 9179.16876659
0.03600000 1539663.32506722 9399.64503393
0.03700000 1533878.34365947 11366.03905217
0.03800000 1527961.02018606 11620.14409629
0.03900000 1521913.81075842 10957.77994492
0.04000000 1515736.83985336 9321.78199706
0.04100000 1509434.30859715 11411.32390210
0.04200000 1503007.66730337 10663.83989424
0.04300000 1496458.64022513 13827.27847751
0.04400000 1489789.83825581 13072.90643783
0.04500000 1483004.20918651 11256.00247073
0.04600000 1476101.79710756 14569.12541472
0.04700000 1469086.72232489 13750.65236048
0.04800000 1461960.72544825 12894.49419841
0.04900000 1454726.24415601 12001.49207293
0.05000000 1447385.22569056 13286.99699056
0.05100000 1439941.40917397 15724.16092067
0.05200000 1432394.06791425 17081.30005589
0.05300000 1424748.74787396 15002.60501450
0.05400000 1417006.07061838 12859.33069054
0.05500000 1409170.09060452 15388.13810725
0.05600000 1401241.00887364 13178.67230343
0.05700000 1393224.27664405 19393.68283615
0.05800000 1385119.25143412 14709.96713707
0.05900000 1376929.44328630 18588.54835256
0.06000000 1368659.02694503 15027.87681794
0.06100000 1360308.80784934 16446.13425545
0.06200000 1351882.13391887 14052.81543896
0.06300000 1343381.95623934 15475.76085945
0.06400000 1334807.85455704 19521.56578586
0.06500000 1326165.91766217 21006.46911841
0.06600000 1317457.85150774 18536.63283802
0.06700000 1308684.12493262 17353.15230872
0.06800000 1299849.46839981 16144.13115322
0.06900000 1290957.39759277 18977.07463310
0.07000000 1282007.50795365 21845.40895852
0.07100000 1273003.90340951 16498.13136092
0.07200000 1263948.66352239 17992.31006812
0.07300000 1254845.36249722 16714.54101163
0.07400000 1245696.58864790 18218.31346276
0.07500000 1236503.03670570 16915.36233500
0.07600000 1227267.92449491 17009.93423094
0.07700000 1217995.35736688 17100.65561926
0.07800000 1208686.21215884 20052.10520008
0.07900000 1199342.38458919 17270.53114814
0.08000000 1189969.24655935 15903.93972634
0.08100000 1180567.32430799 15973.07664732
0.08200000 1171138.05380110 16038.73639943
0.08300000 1161684.99142509 20492.12421048
0.08400000 1152211.19842939 22036.04020430
0.08500000 1142718.22955367 17689.27902392
0.08600000 1133208.91973011 20703.72793554
0.08700000 1123685.28434761 14832.64644990
0.08800000 1114148.98507402 17848.66757913
0.08900000 1104603.63863548 16403.36480420
0.09000000 1095051.02568173 14947.44720272
0.09100000 1085493.09390889 16477.78593968
0.09200000 1075932.11386524 19512.02980175
0.09300000 1066371.85514228 16539.42825048
0.09400000 1056811.17627652 19577.42796061
0.09500000 1047254.49333165 18096.55849536
0.09600000 1037703.05398731 15098.58014527
0.09700000 1028162.12486232 18136.78073523
0.09800000 1018630.13030224 18151.98977545
0.09900000 1009110.90472175 16650.33071085
0.10000000 999604.27528820 19687.20712763
0.10100000 990113.96267442 21208.24207795
0.10200000 980641.84911660 16666.00900964
0.10300000 971189.39658715 22725.83294918
0.10400000 961759.08395507 28780.64194134
0.10500000 952353.99296533 16656.67212065
0.10600001 942970.85051288 16648.15114916
0.10700001 933617.69428943 16637.06809514
0.10800001 924291.34427054 24179.46270404
0.10900001 914996.91456288 19626.68474112
0.11000001 905734.98713589 16588.53707021
0.11100001 896505.94916771 21085.82091701
0.11200001 887313.41411425 18047.95569273
0.11300001 878156.97530396 22524.72747703
0.11400001 869039.60032434 19488.21395486
0.11500001 859962.31146239 14963.34492404
0.11600001 850926.88330661 22400.65125793
0.11700001 841934.29174692 16392.46143231
0.11800001 832985.18823994 19329.42220349
0.11900001 824081.28023320 16316.81011717
0.12000001 815223.59835980 16275.93990793
0.12100001 806415.72239487 19184.63093953
0.12200001 797656.51326312 16188.43969933
0.12300001 788947.94056952 14674.43238597
0.12400001 780290.41648653 20482.62439786
0.12500001 771684.77466190 17501.81151403
0.12600001 763134.73084268 14537.71730762
0.12700001 754638.35535996 21733.58565859
0.12800001 746197.52743808 20214.49197099
0.12900001 737813.42619355 15826.09873777
0.13000001 729487.09927278 15767.86439400
0.13100001 721218.12141161 18564.15532020
0.13200001 713008.40732447 19914.32575534
0.13300001 704859.44554851 21251.51328515
0.13400001 696770.39699954 15520.56132489
0.13500001 688743.18385093 19670.50625821
0.13600001 680777.26768650 19585.96291483
0.13700001 672875.03143609 18107.06794975
0.13800001 665034.62891104 15252.56993332
0.13900001 657258.78440677 16562.92214813
0.14000001 649547.17794532 21980.67753829
0.14100001 641900.06627081 16406.96646768
0.14200001 634318.07634739 19048.57273114
0.14300001 626802.63316861 21662.30002407
0.14400001 619350.82096967 14817.96909066
0.14500001 611967.36014291 13402.08581933
0.14600001 604649.81216466 13332.52898718
0.14700001 597401.11023285 19893.45790926
0.14800001 590216.25906868 17148.73421629
0.14900001 583100.32068990 13119.75783452
0.15000001 576051.60862324 18266.59737131
0.15100001 569070.73724930 14272.29476365
0.15200001 562157.87307726 14191.67617550
0.15300001 555314.01501418 12827.75435216
0.15400001 548535.54490962 15304.14242520
0.15500001 541827.02504033 15214.50358115
0.15600001 535183.81751315 13863.93744699
0.15700001 528612.30803498 17539.35720840
0.15800001 522104.74908568 17433.07839479
0.15900001 515667.42549006 12376.01879592
0.16000001 509295.46034155 14759.38313738
0.16100001 502994.23064323 13445.03641976
0.16200001 496758.55293396 17004.04606962
0.16300001 490590.46193249 14482.23111992
0.16400001 484489.32079766 17986.66688376
0.16500001 478454.64656365 19061.63401902
0.16600001 472487.48733471 15386.55575150
0.16700001 466584.91970030 12933.73458475
0.16800001 460748.11968279 16351.95153962
0.16900001 454979.19223067 15082.56093462
0.17000001 449273.70614482 13828.64532812
0.17100001 443633.32037654 13734.88824744
0.17200001 438058.37313337 14777.89991551
0.17300001 432547.30014099 13547.38208018
0.17400001 427100.09281949 11211.37796598
0.17500001 421716.29362706 14473.30388082
0.17600001 416394.19186148 15477.37284247
0.17700001 411136.37478587 16466.01258787
0.17800001 405939.07617744 13079.35765220
0.17900001 400804.09426777 11903.88216202
0.18000001 395730.48433435 11818.49147289
0.18100001 390718.81677544 13866.61146237
0.18200001 385764.46805808 12707.08217809
0.18300001 380870.86558371 13665.64730270
0.18400001 376035.98889080 14608.99885855
0.18500001 371260.96245352 10358.18134180
0.18600001 366542.37906954 13365.96848423
0.18700001 361881.20840827 12246.06067110
0.18800001 357276.75383894 13167.43538484
0.18900001 352730.28601135 13068.65771418
0.19000001 348235.89676915 12970.04658799
0.19100001 343800.84118763 10891.61116345
0.19200001 339417.10665683 12773.96341262
0.19300001 335089.63241951 9751.10876417
0.19400001 330813.27617758 10643.91766398
0.19500001 326590.95825761 10561.95208916
0.19600001 322420.22612697 10480.26994552
0.19700001 318300.77921404 16071.00710199
0.19800001 314232.55681459 12193.79494345
0.19900001 310214.93567297 10237.09336101
0.20000001 306245.60944169 14773.28889767
0.20100001 302326.97831419 10992.60945104
0.20200001 298454.98089925 10905.54551749
0.20300001 294632.52058796 11720.48222295
0.20400001 290856.39650889 13415.75192308
0.20500001 287126.55896036 9759.43220036
0.20600001 283442.88569311 14081.44322684
0.20700001 279804.88681947 10475.89545771
0.20800001 276210.48716452 10391.03901832
0.20900001 272662.40347078 9447.75272687
0.21000001 269155.96899162 11926.30154980
0.21100001 265693.26679484 10983.76016854
0.21200001 262272.27970933 10055.51967942
0.21300001 258892.49453854 9141.49441432
0.21400001 255554.86153357 11538.30254373
0.21500001 252258.49314487 8990.49312073
0.21600001 249000.94768528 10536.47559945
0.21700001 245783.38610633 8840.82881624
0.21800001 242604.61140558 9563.47423377
0.21900001 239463.00052316 12643.64702543
0.22000001 236359.10788358 7835.30479681
0.22100001 233294.02616941 10099.29887040
0.22200001 230265.48789044 10013.09521438
0.22300001 227271.48685476 11454.48347911
0.22400001 224313.06055338 8327.62276683
0.22500001 221391.80666654 9006.21912107
0.22600001 218502.76833586 8184.02157503
0.22700001 215649.87055576 8112.74851395
0.22800001 212829.54106375 7310.69508126
0.22900001 210041.13991211 10144.98753752
0.23000001 207286.59371532 9337.22505548
0.23100001 204564.63994178 10678.27470997
0.23200001 201872.65987419 8466.53975554
0.23300001 199212.36671277 6992.35440232
0.23400001 196583.60911733 7622.52980403
0.23500001 193983.23097254 6867.00670121
0.23600001 191414.30889497 8165.73480367
0.23700001 188873.98188038 9439.92206087
0.23800001 186362.83038600 7349.21856388
0.23900001 183879.81723007 6619.67373339
0.24000001 181424.80649042 6558.50706485
0.24100001 178998.82355678 7797.18912295
0.24200001 176599.31742182 7080.74996696
0.24300001 174227.17190643 6376.71479341
0.24400001 171880.92539633 8843.27402996
0.24500001 169561.01254900 7508.16199084
0.24600001 167267.34745106 8676.15772271
0.24700001 164999.34994071 7365.57132979
0.24800001 162756.31859620 8510.52830200
0.24900001 160537.13267861 8428.19986434
0.25000001 158343.80071969 8942.46656870
0.25100001 156173.28278011 7084.02044204
0.25200001 154028.59877546 7599.00128009
0.25300001 151906.96198266 7523.95218296
0.25400001 149808.30223866 10887.31888029
0.25500001 147732.39481654 6240.21665229
0.25600001 145679.78587296 6739.14721333
0.25700001 143648.75339692 6671.04842338
0.25800001 141640.93972142 8254.12615280
0.25900001 139654.97698119 5991.19879597
0.26000001 137690.62665864 8085.88243312
0.26100001 135746.96747369 5334.85607414
0.26200001 133825.67774054 5279.42323667
0.26300001 131924.50365975 5224.21059212
0.26400001 130044.39966673 5686.19164449
0.26500001 128185.41196489 5114.59817942
0.26600001 126345.63959794 5566.15741588
0.26700001 124527.25822671 5506.59561936
0.26800001 122729.06755424 4952.11811015
0.26900001 120949.18807014 8327.35199269
0.27000001 119190.00899802 6298.59632356
0.27100001 117449.64373943 6229.52939874
0.27200001 115730.01187852 4739.14421070
0.27300001 114028.28414498 5155.21897016
0.27400001 112343.93506543 7414.70006522
0.27500001 110680.98558669 5498.63162417
0.27600001 109034.41888070 5436.45638268
0.27700001 107407.81617898 5374.68737596
0.27800001 105798.48243671 4870.43336948
0.27900001 104208.61663265 4376.76210571
0.28000001 102635.16311495 5191.28679605
0.28100001 101080.41587383 4703.27197321
0.28200001 99543.96859114  5915.89833337
0.28300001 98024.48360677  5011.01183915
0.28400001 96522.33057017  6602.12772348
0.28500001 95037.92852246  5300.26552457
0.28600001 93570.69279842  4431.04036720
0.28700001 92120.51774947  5571.44917720
0.28800001 90686.68400645  4717.52152531
0.28900001 89271.58619615  5048.30843835
0.29000001 87871.56119853  5753.39074181
0.29100001 86489.30247299  5303.52427868
0.29200001 85123.47969155  4489.41253144
0.29300001 83774.22274991  5172.22075741
0.29400001 82440.51973231  4377.59180501
0.29500001 81124.38223240  3962.11501578
0.29600001 79823.76920483  3556.14908641
0.29700001 78539.36870966  4914.99392652
0.29800001 77270.84675839  4851.83669764
0.29900001 76018.89148993  4789.19039058
0.30000001 74782.14889984  4389.33843747
0.30100001 73562.08618691  4332.07146063
0.30200001 72355.96299329  3946.29440847
0.30300001 71167.13294264  3245.22141582
0.30400001 69993.62964167  3522.42957848
0.30500001 68835.30720317  4423.35705029
0.30600001 67691.33112372  3117.18594582
0.30700001 66563.89285252  4305.35279353
0.30800001 65451.03640109  4853.84908930
0.30900001 64353.62347770  3590.93236007
0.31000001 63271.20138949  2951.60168456
0.31100001 62203.05484894  3784.43403618
0.31200001 61150.45342325  3158.11531657
0.31300001 60111.86337717  4246.90334867
0.31400001 59089.24019873  3629.55675105
0.31500001 58080.10791114  3578.89641893
0.31600002 57086.07010925  4343.10841955
0.31700002 56106.22704035  2943.89387220
0.31800002 55140.82725798  2902.33758015
0.31900002 54189.70334396  4421.88000224
0.32000002 53253.11492497  3076.96512606
0.32100002 52329.84908927  2527.53183069
0.32200002 51421.90203726  2740.53039884
0.32300002 50526.15268768  4174.47093272
0.32400002 49644.99923988  2420.19382754
0.32500002 48777.40073774  2862.25801082
0.32600002 47923.96892651  2350.67078715
0.32700002 47083.50371073  2548.15934149
0.32800002 46257.26354360  2739.35527677
0.32900002 45443.68348689  3149.24741477
0.33000002 44644.37660451  2438.25274372
0.33100002 43855.67360588  2402.41391389
0.33200002 43083.40152336  3443.22561280
0.33300002 42322.52256933  2120.35848113
0.33400002 41575.09437364  2298.06345033
0.33500002 40839.39570253  3087.45846132
0.33600002 40117.51286768  2027.94037150
0.33700002 39407.34167527  2597.33801282
0.33800002 38710.49772790  2165.27179295
0.33900002 38025.26755965  2133.21761112
0.34000002 37352.82862283  1910.59727454
0.34100002 36692.31237781  3011.70514260
0.34200002 36044.52011979  2039.93971279
0.34300002 35407.70210402  2192.44501811
0.34400002 34783.96565672  2160.08436958
0.34500002 34171.25606146  2128.18592830
0.34600002 33571.23186441  2446.33578182
0.34700002 32980.93341739  1893.76528652
0.34800002 32403.80449118  1865.97317000
0.34900002 31837.28943424  2005.74932935
0.35000002 31282.01723032  1976.39794222
0.35100002 30738.65020804  1947.60096942
0.35200002 30204.74826043  1759.27564575
0.35300002 29682.46553571  1576.13899460
0.35400002 29171.36346849  2174.72524958
0.35500002 28670.67978803  1684.11581052
0.35600002 28179.81658224  2112.64094923
0.35700002 27699.89407903  2231.22657375
0.35800002 27230.86496077  2052.93500663
0.35900002 26771.67988251  1734.80493856
0.36000002 26322.83636845  1710.45798824
0.36100002 25883.28076874  1686.55465478
0.36200002 25454.71846893  2079.01422943
0.36300002 25034.73806506  1776.96579203
0.36400002 24624.59311206  1483.01619042
0.36500002 24223.83149422  1462.87725323
0.36600002 23832.74803279  1705.59069376
0.36700002 23450.38805770  1812.24607494
0.36800002 23078.69278752  1405.14627693
0.36900002 22714.75980056  1512.80307438
0.37000002 22359.53324242  1617.60050905
0.37100002 22013.09583916  1596.83004781
0.37200002 21676.07598741  1334.05415984
0.37300002 21347.01761577  1317.32451947
0.37400002 21026.32372844  1537.54999548
0.37500002 20714.46691973  1285.12558858
0.37600002 20410.81485823  1731.34745237
0.37700002 20114.65193461  1254.55090059
0.37800002 19826.43916690  1352.55974404
0.37900002 19546.57323392  1225.57019983
0.38000002 19274.37711455  1101.53070428
0.38100002 19008.79260019  1198.12425435
0.38200002 18751.76954914  1077.28921163
0.38300002 18501.21451643  1278.80400796
0.38400002 18258.91032979  1476.23297010
0.38500002 18022.36987320  1252.19431811
0.38600002 17793.98604852  1239.52912686
0.38700002 17572.00635342  1022.69081822
0.38800002 17356.71885725  1721.69980861
0.38900002 17147.62727912  1304.07711636
0.39000002 16946.21110488  1391.45345974
0.39100002 16750.03838363  984.90230362
0.39200002 16560.77953438  1171.50959976
0.39300002 16377.46102014  1064.69879136
0.39400002 16201.35613879  1439.89559505
0.39500002 16029.93922213  1047.39627840
0.39600002 15864.62500894  1039.21231045
0.39700002 15704.91668747  937.58357066
0.39800002 15551.13114624  1396.10286480
0.39900002 15402.63054713  1108.98945194
0.40000002 15259.39177389  1193.20819629
0.40100002 15121.81482371  1276.58366790
0.40200002 14989.54769855  1087.34184157
0.40300002 14861.73322594  1080.74529140
0.40400002 14739.42209457  895.41993467
0.40500002 14622.04989999  979.53116921
0.40600002 14509.38269998  1240.11699813
0.40700002 14401.20440694  1145.75987690
0.40800002 14297.91149145  1052.61229387
0.40900002 14198.75078662  1135.19017918
0.41000002 14104.44172288  1130.40053544
0.41100002 14014.13028819  866.07329285
0.41200002 13927.77745036  1121.67361011
0.41300002 13846.15333251  1375.75386030
0.41400002 13768.01788713  942.76506949
0.41500002 13694.12480509  1196.31879966
0.41600002 13623.42990052  1022.57469679
0.41700002 13556.77943212  1275.01516601
0.41800002 13494.82417833  1187.40963572
0.41900002 13434.36418117  931.00148187
0.42000002 13378.56769115  929.34224870
0.42100002 13326.50565225  1265.35177164
0.42200002 13277.66824632  926.71489916
0.42300002 13231.48042365  1178.13107275
0.42400002 13188.28137114  840.75297725
0.42500002 13148.62737124  1008.23679460
0.42600002 13110.99596930  1091.68713111
0.42700002 13077.61681039  1343.33286242
0.42800002 13045.83965488  1007.39978589
0.42900002 13018.19490503  839.67361116
0.43000002 12992.44821344  1175.94654352
0.43100002 12968.33228020  1008.41756589
0.43200002 12947.91439354  1177.35391160
0.43300002 12929.63163038  925.89096493
0.43400002 12913.70678268  926.88134825
0.43500002 12899.90253557  1012.38439897
0.43600002 12888.57828892  929.33098156
0.43700002 12878.88494237  1015.37133697
0.43800002 12871.33887011  1356.12432762
0.43900002 12866.42109018  1019.02059863
0.44000002 12862.87666063  1106.14313085
0.44100002 12861.59262742  1108.54072109
0.44200002 12861.89838766  854.67318836
0.44300002 12864.07248573  1028.09672178
0.44400002 12868.30249505  944.85515548
0.44500002 12872.94207562  861.19986567
0.44600002 12879.54485940  949.93087612
0.44700002 12888.68524949  1212.56756574
0.44800002 12897.68787793  868.65931975
0.44900002 12909.79127148  1219.97533297
0.45000002 12922.55801694  1049.05330953
0.45100002 12936.30957805  1227.91456334
0.45200002 12951.52936274  1144.07340048
0.45300002 12967.67616026  1059.71854604
0.45400002 12985.35480742  1063.50060913
0.45500002 13004.01401434  978.42206081
0.45600002 13023.54795950  982.04068043
0.45700002 13044.15506743  1344.20024341
0.45800002 13065.32156448  1529.23063499
0.45900002 13087.60196402  993.34903615
0.46000002 13111.33505109  906.64886175
0.46100002 13134.75567951  1092.28633408
0.46200002 13159.87908564  1005.34901040
0.46300002 13185.65470240  1284.81025510
0.46400002 13211.32729523  1474.38419603
0.46500002 13238.25154717  925.35382700
0.46600002 13265.47415932  929.24650890
0.46700002 13293.04065782  1399.75724761
0.46800002 13322.01614886  1218.36504464
0.46900002 13350.40762088  1129.44453826
0.47000002 13379.55713537  1417.89863462
0.47100002 13409.34121678  1613.94838535
0.47200002 13439.40707583  1144.23117267
0.47300002 13469.95009985  1436.57024624
0.47400002 13500.12098312  961.88366564
0.47500002 13530.98049452  1159.33446372
0.47600002 13562.52547519  1067.43861812
0.47700002 13593.41978589  1267.04271830
