# SAXS profile: number of points = 501, q_min = 0, q_max = 0.5, delta_q = 0.001
#    q    intensity    error
0.00000000 1646666.22097350 296.39991978
0.00100000 1646580.54824917 642.16642907
0.00200000 1646323.50114984 1111.26839846
0.00300000 1645895.29547494 987.53721246
0.00400000 1645295.79743989 1480.76627396
0.00500000 1644525.66208025 1628.08046990
0.00600000 1643584.75242707 2070.91687237
0.00700000 1642473.76663599 2168.06546206
0.00800000 1641192.51331721 2215.60998652
0.00900000 1639742.43211612 2951.53650398
0.01000000 1638122.83955328 3243.48336237
0.01100000 1636335.28444238 3534.48436828
0.01200000 1634379.77671143 3824.44884518
0.01300000 1632257.55273920 3770.51511313
0.01400000 1629968.89327701 5134.40224144
0.01500000 1627515.15688357 4687.24386054
0.01600000 1624896.16184972 4557.83393774
0.01700000 1622114.00285691 6131.59120585
0.01800000 1619169.23257506 5999.02227663
0.01900000 1616062.81199951 6302.64525119
0.02000000 1612795.43958717 6604.39762386
0.02100000 1609369.85522636 6373.10491564
0.02200000 1605784.74172965 6093.95337173
0.02300000 1602043.18112762 10957.97585770
0.02400000 1598145.70191896 7790.96065210
0.02500000 1594094.73132237 8703.75763053
0.02600000 1589890.67091088 6439.05751170
0.02700000 1585535.42351753 9322.94871728
0.02800000 1581029.23636695 8940.72074167
0.02900000 1576375.85596096 7093.69167753
0.03000000 1571575.60526886 8769.39228049
0.03100000 1566630.10635506 10527.75479912
0.03200000 1561540.64957175 9275.55188567
0.03300000 1556311.33709825 7937.18818511
0.03400000 1550940.66505413 9770.92664068
0.03500000 1545432.64182234 8345.33665121
0.03600000 1539787.87588713 11109.57003794
0.03700000 1534009.58028416 13115.78251800
0.03800000 1528098.86188329 9833.31663130
0.03900000 1522058.65608437 11872.05806725
0.04000000 1515888.62480051 10254.98702198
0.04100000 1509593.31774116 9510.43834274
0.04200000 1503173.92505028 10665.01949301
0.04300000 1496632.07578826 13828.88102219
0.04400000 1489971.09791467 15085.95806701
0.04500000 1483193.02160178 11257.43555703
0.04600000 1476298.23783878 16652.64489695
0.04700000 1469291.07275843 15868.34432379
0.04800000 1462172.98822070 11821.66915980
0.04900000 1454946.51218379 12003.30928424
0.05000000 1447613.66934714 14396.51861205
0.05100000 1440178.18877877 14603.40751450
0.05200000 1432639.01042975 12528.42873005
0.05300000 1425002.08394673 16159.52438528
0.05400000 1417267.92070340 12861.70698017
0.05500000 1409440.33217269 14207.15921105
0.05600000 1401520.11739780 11982.99756293
0.05700000 1393512.10944960 18185.33387718
0.05800000 1385415.71773810 14713.11560937
0.05900000 1377234.84691162 12395.11420113
0.06000000 1368973.25980778 15031.32709494
0.06100000 1360632.07363271 16450.04253895
0.06200000 1352214.42628377 12778.42692569
0.06300000 1343723.25056016 15479.69257021
0.06400000 1335158.10670405 14319.57136408
0.06500000 1326525.55293346 15759.12430603
0.06600000 1317826.39700980 14568.57150059
0.06700000 1309061.98215802 17358.16269576
0.06800000 1300236.67544789 20186.17533122
0.06900000 1291353.75986196 14915.13662472
0.07000000 1282413.07580898 15023.46988663
0.07100000 1273418.83176708 17878.80123541
0.07200000 1264372.89726069 15229.37226095
0.07300000 1255278.91046511 19507.03518264
0.07400000 1246139.55256718 15420.97768571
0.07500000 1236955.21827957 19741.80620909
0.07600000 1227729.56786592 21270.41576045
0.07700000 1218466.25558437 18532.87261642
0.07800000 1209166.39249808 14328.62242306
0.07900000 1199832.01987198 18717.38038792
0.08000000 1190468.31377325 18803.44789814
0.08100000 1181075.60461811 15979.95368023
0.08200000 1171655.75519032 16045.82632028
0.08300000 1162211.82871668 17572.64367492
0.08400000 1152747.36013568 17637.03543793
0.08500000 1143263.64598197 25071.77293338
0.08600000 1133763.64774720 23672.98607644
0.08700000 1124249.02515191 22260.13174329
0.08800000 1114721.94834231 16369.69258019
0.08900000 1105185.55409364 19396.00738537
0.09000000 1095642.17348385 20937.72291884
0.09100000 1086093.35911725 16486.89796597
0.09200000 1076541.21543320 21024.85092530
0.09300000 1066989.90650507 18053.47006644
0.09400000 1057438.35414440 19589.04643116
0.09500000 1047890.29946721 15089.62102158
0.09600000 1038347.79703917 22661.94173567
0.09700000 1028815.39533792 18148.30442696
0.09800000 1019292.10816442 15136.48851792
0.09900000 1009781.43089227 18176.06661074
0.10000000 1000283.46831172 18185.15430910
0.10100000 990801.72938171 15159.26717251
0.10200000 981337.86671680 16677.83782932
0.10300000 971893.78043763 21226.16116325
0.10400000 962471.89211394 24254.29282232
0.10500000 953074.96310247 16669.28188894
0.10600001 943700.02451066 21204.94054852
0.10700001 934354.72260399 15136.54721848
0.10800001 925036.64496449 19661.65481403
0.10900001 915750.29010472 16620.86854767
0.11000001 906496.06579541 15093.16020592
0.11100001 897274.94296684 22611.32962716
0.11200001 888090.00818248 21074.37688629
0.11300001 878941.31720894 15029.89723189
0.11400001 869831.24544553 15004.58969042
0.11500001 860761.72386461 17972.70564059
0.11600001 851733.60115723 19432.30302550
0.11700001 842748.43203096 23866.63671911
0.11800001 833806.56387861 17860.13743946
0.11900001 824909.67419767 17818.04980193
0.12000001 816059.27863717 17773.77192595
0.12100001 807258.27190713 16250.10977900
0.12200001 798505.83782732 19152.16342257
0.12300001 789804.26774930 16159.39607949
0.12400001 781153.54512891 20505.28152579
0.12500001 772554.66553973 17521.54064006
0.12600001 764011.05397265 21831.61689605
0.12700001 755521.27362944 21759.01370595
0.12800001 747086.86085122 17347.35772653
0.12900001 738709.11300928 28809.65676522
0.13000001 730388.94928420 15787.35788291
0.13100001 722126.06477416 18587.52578346
0.13200001 713922.37967169 15667.02736044
0.13300001 705779.64267322 17023.40578381
0.13400001 697696.38562637 14128.35247502
0.13500001 689675.07669147 18290.18389621
0.13600001 681714.97782787 16811.09214589
0.13700001 673818.19151065 16737.64466636
0.13800001 665983.37635511 18051.48026734
0.13900001 658213.11593451 19351.46652105
0.14000001 650507.01605819 20637.33605771
0.14100001 642865.35830857 17800.94261111
0.14200001 635288.47645163 24528.48923269
0.14300001 627778.33373863 20340.01897252
0.14400001 620331.72733709 26984.43141202
0.14500001 612953.20727477 14766.04345979
0.14600001 605640.73029709 16025.25447964
0.14700001 598396.63641069 22583.49012355
0.14800001 591216.81017736 13213.69633087
0.14900001 584105.61920383 14456.61475737
0.15000001 577061.48531336 16991.57623676
0.15100001 570085.32659775 15597.53527168
0.15200001 563176.96170192 15509.89425714
0.15300001 556337.54249286 14136.53762183
0.15400001 549563.50287939 16610.55765840
0.15500001 542859.25552819 13973.19789673
0.15600001 536220.28386202 12627.98828093
0.15700001 529652.84136179 16318.60481254
0.15800001 523149.45167564 14972.53801364
0.15900001 516716.32710003 13641.31167932
0.16000001 510348.23657819 13557.40154464
0.16100001 504050.78651626 12248.43469052
0.16200001 497819.12066196 17040.34930467
0.16300001 491654.76326461 12094.70774727
0.16400001 485557.38368993 16824.56413914
0.16500001 479526.43764958 13134.22974731
0.16600001 473562.77372569 13049.02284610
0.16700001 467663.89367908 12963.64374486
0.16800001 461830.45904163 14048.88322738
0.16900001 456064.87087032 13955.58570759
0.17000001 450363.00482469 18482.89859076
0.17100001 444725.94519606 18358.28788460
0.17200001 439154.09244700 14814.86400830
0.17300001 433646.24991982 13581.80118888
0.17400001 428202.18981678 11240.30801353
0.17500001 422821.49160380 14511.23427717
0.17600001 417502.34033643 11084.68765945
0.17700001 412247.61954238 12107.71315781
0.17800001 407053.17953228 13115.25406399
0.17900001 401921.20174227 14107.43484750
0.18000001 396850.25091442 17239.17571402
0.18100001 391841.15053227 11766.99030632
0.18200001 386889.70278453 14868.17198035
0.18300001 381998.71374784 14760.43099649
0.18400001 377166.36426984 12559.64052351
0.18500001 372394.07188102 15584.69264447
0.18600001 367678.07194721 17532.72968911
0.18700001 363019.22945035 11260.85702957
0.18800001 358417.11477886 11177.23825246
0.18900001 353873.05617953 11093.92083539
0.19000001 349380.84152732 12011.71389925
0.19100001 344948.11242637 9934.50610729
0.19200001 340566.53746296 10845.34189797
0.19300001 336241.22316248 12720.00607329
0.19400001 331967.05731160 13594.05163928
0.19500001 327746.85998117 14453.63720818
0.19600001 323578.12950057 9561.73417859
0.19700001 319460.46678833 10436.77394319
0.19800001 315394.19589886 10355.96891175
0.19900001 311378.36502997 12143.75681008
0.20000001 307410.96483423 10195.28513057
0.20100001 303493.83703581 10115.45006648
0.20200001 299623.61207603 9123.53941893
0.20300001 295802.61196561 9956.71638936
0.20400001 292028.23228037 10775.84228047
0.20500001 288299.89762236 10690.16070913
0.20600001 284617.57411813 10604.85131291
0.20700001 280981.01915307 14026.57313914
0.20800001 277387.93949603 10435.33477712
0.20900001 273841.38911106 11213.80541419
0.21000001 270336.08596376 11978.59253531
0.21100001 266874.36929749 10183.92641382
0.21200001 263454.68180278 11784.32847414
0.21300001 260075.84033601 10018.12184335
0.21400001 256739.19878816 9107.82350760
0.21500001 253443.67551137 9032.73302227
0.21600001 250187.05649371 13844.10142561
0.21700001 246970.26552901 9691.11367755
0.21800001 243792.12704338 8809.42892723
0.21900001 240651.31214647 8735.64304395
0.22000001 237548.18365506 9449.66719260
0.22100001 234483.45258925 7808.29934043
0.22200001 231455.41446971 11613.27597015
0.22300001 228461.85653193 11514.47811368
0.22400001 225503.75752055 9132.90261144
0.22500001 222582.73569376 8300.11060651
0.22600001 219693.91196081 8976.69366721
0.22700001 216841.13150576 8157.56375301
0.22800001 214020.72886238 8821.93486090
0.22900001 211232.39730197 9473.77346702
0.23000001 208477.78706227 7946.13122967
0.23100001 205755.61905975 9308.38464648
0.23200001 203063.45600637 8516.48174768
0.23300001 200402.86950266 8440.96926266
0.23400001 197773.62552443 8365.82475535
0.23500001 195172.79337400 7600.02893344
0.23600001 192603.11804500 7531.74528738
0.23700001 190062.25938404 8142.26757712
0.23800001 187550.35856446 7396.04873981
0.23900001 185066.52403938 8661.11373471
0.24000001 182610.59021648 7921.64777829
0.24100001 180183.45002417 7194.72549978
0.24200001 177782.98979740 9072.26639850
0.24300001 175409.50331860 7061.98693766
0.24400001 173061.99210728 8268.03706403
0.24500001 170740.85203309 7560.40528567
0.24600001 168445.63639578 7489.09334843
0.24700001 166175.92293638 6181.74462567
0.24800001 163931.33100300 7347.40260314
0.24900001 161710.53656709 6670.55994896
0.25000001 159515.25038006 8408.04924530
0.25100001 157342.80180481 6542.31400855
0.25200001 155196.01600716 6478.65799472
0.25300001 153072.38564274 5832.05816891
0.25400001 150971.37870457 6352.12105952
0.25500001 148893.13659914 6860.99605910
0.25600001 146838.08824322 5660.60856959
0.25700001 144804.65384646 6164.33440590
0.25800001 142793.97799656 7211.81019994
0.25900001 140805.23373534 7687.96612570
0.26000001 138838.07058421 7066.16393672
0.26100001 136891.37480632 6455.79754133
0.26200001 134967.17174886 5856.90069517
0.26300001 133062.81655042 5796.21656320
0.26400001 131179.48549726 5735.82327478
0.26500001 129316.96666324 5675.72193542
0.26600001 127473.81540624 5615.85920346
0.26700001 125651.79201851 6566.56296162
0.26800001 123849.89713179 5996.81230290
0.26900001 122066.23802830 6426.78773632
0.27000001 120303.22746170 5868.39171329
0.27100001 118558.82827058 5320.92046458
0.27200001 116835.04289069 5262.83475607
0.27300001 115129.22620198 6151.35484708
0.27400001 113440.45753215 6551.18673251
0.27500001 111773.19524797 5552.89260271
0.27600001 110121.89918643 7320.90420438
0.27700001 108490.79656129 5881.28635993
0.27800001 106876.75736501 5814.63025963
0.27900001 105281.94233255 4864.02596597
0.28000001 103703.49009563 5245.32277729
0.28100001 102143.71891731 4752.74746617
0.28200001 100602.06055064 7259.94804325
0.28300001 99077.32091857  4642.76347799
0.28400001 97569.80699381  5005.33133569
0.28500001 96079.97374349  4534.01417556
0.28600001 94607.15859144  4887.40604416
0.28700001 93151.21836147  4426.54610606
0.28800001 91711.63797929  5168.40960296
0.28900001 90290.63242633  3927.64269646
0.29000001 88884.74284162  5043.76497129
0.29100001 87496.33501182  4982.04155140
0.29200001 86124.32661058  5299.23006719
0.29300001 84768.81278600  4485.96578498
0.29400001 83428.83269253  4060.89862354
0.29500001 82106.19792215  3645.51536031
0.29600001 80799.04924908  4679.47715878
0.29700001 79507.98546205  4620.20925391
0.29800001 78232.78624353  4561.36281786
0.29900001 76974.05059593  4502.98217303
0.30000001 75730.24734421  4786.90916124
0.30100001 74503.29513815  5399.99908725
0.30200001 73290.17330053  5329.66165472
0.30300001 72094.09860725  3944.98926255
0.30400001 70913.42173381  3568.71811770
0.30500001 69747.73894918  3841.70564320
0.30600001 68596.36913925  4106.52183294
0.30700001 67461.51622889  3740.06663680
0.30800001 66341.19259773  3689.89730698
0.30900001 65236.02643968  3640.17044768
0.31000001 64146.11822109  4189.38317936
0.31100001 63070.04701571  3246.84617409
0.31200001 62009.70273661  3202.49124946
0.31300001 60963.34415795  3158.51101037
0.31400001 59932.74732477  3115.00468969
0.31500001 58915.59429808  3071.85923215
0.31600002 57913.48705003  3304.54372754
0.31700002 56925.50977505  4073.02041725
0.31800002 55951.98993135  3212.76341398
0.31900002 54992.76545268  2903.61815338
0.32000002 54047.76964201  2602.40023149
0.32100002 53116.20026749  3848.26889160
0.32200002 52199.91811066  3034.90338266
0.32300002 51295.77071283  4238.05677697
0.32400002 50406.16741729  2703.03085574
0.32500002 49530.15314009  2664.22706356
0.32600002 48668.19706536  2625.89269700
0.32700002 47819.09907194  3529.04967862
0.32800002 46984.35118614  2782.41340900
0.32900002 46162.08004816  2513.52537765
0.33000002 45354.12943900  2702.19915994
0.33100002 44556.87626698  3106.50556044
0.33200002 43775.78138777  2842.58049902
0.33300002 43006.23415278  2800.99616301
0.33400002 42250.00806715  2759.98190769
0.33500002 41505.66984968  2301.07444544
0.33600002 40774.96079523  2473.40923897
0.33700002 40056.00361874  2233.92342761
0.33800002 39350.49007023  2401.16701780
0.33900002 38656.42809575  2168.62571887
0.34000002 37975.22571298  2525.16275337
0.34100002 37305.80721538  2296.54560094
0.34200002 36649.22929836  2074.16323037
0.34300002 36003.67147968  2600.90535087
0.34400002 35371.16848576  2379.59547258
0.34500002 34749.68238074  2164.21032117
0.34600002 34140.79142118  2487.83958869
0.34700002 33541.85219014  2451.23867415
0.34800002 32955.95241197  2587.86628572
0.34900002 32380.60475416  2209.97637914
0.35000002 31816.72271409  1842.66558326
0.35100002 31264.60784250  1650.77137227
0.35200002 30722.11469807  2114.75686540
0.35300002 30191.11299049  1763.46299330
0.35400002 29671.32867885  1737.99815968
0.35500002 29162.11527414  1868.70843528
0.35600002 28662.66527217  1534.88579802
0.35700002 28174.31125852  1966.84876212
0.35800002 27696.59269251  1640.60774585
0.35900002 27229.01516329  1617.40357731
0.36000002 26771.77353792  1594.66076632
0.36100002 26323.78703205  2144.07255532
0.36200002 25886.91350922  1691.45100881
0.36300002 25458.72161484  1946.06477242
0.36400002 25040.26843703  1645.14571424
0.36500002 24631.20866918  2298.83081398
0.36600002 24232.01831259  1600.76720556
0.36700002 23841.56808403  1447.66008264
0.36800002 23461.70374097  1688.18697265
0.36900002 23089.93961835  2050.38673523
0.37000002 22726.72743467  1517.69092998
0.37100002 22372.40022364  1373.21799078
0.37200002 22027.54848875  1355.68553596
0.37300002 21690.70101748  1825.27257709
0.37400002 21362.36119127  1201.63287393
0.37500002 21042.84371598  1305.49808598
0.37600002 20731.54933315  1993.02758955
0.37700002 20427.91210776  1158.26267138
0.37800002 20132.21591509  1945.67809929
0.37900002 19845.03678857  1583.63401075
0.38000002 19565.50041030  1453.61892185
0.38100002 19292.68642811  1879.30067399
0.38200002 19028.37889954  1202.49846152
0.38300002 18770.87272836  1513.68324852
0.38400002 18521.43111132  2032.26412497
0.38500002 18278.02058870  1587.44616333
0.38600002 18042.83053937  1361.60227116
0.38700002 17813.88713997  1451.47559293
0.38800002 17592.00872876  1231.79250954
0.38900002 17376.18932193  1219.80854819
0.39000002 17168.20489412  1107.60679122
0.39100002 16965.58148821  1097.33386264
0.39200002 16769.94254477  1186.30579182
0.39300002 16580.22145845  1371.84758847
0.39400002 16397.89956467  1263.04827381
0.39500002 16220.33873184  1637.92988274
0.39600002 16049.00728941  1242.43395817
0.39700002 15883.30090319  1327.52635238
0.39800002 15723.54328971  1035.15952152
0.39900002 15569.26735977  1027.57169443
0.40000002 15420.27722293  1205.78863458
0.40100002 15277.07851011  921.20787781
0.40200002 15139.16067419  1464.25968978
0.40300002 15005.88751163  1091.22819155
0.40400002 14878.14717558  1175.00172886
0.40500002 14755.41951771  1168.18661857
0.40600002 14637.53589931  893.62160899
0.40700002 14524.26433202  977.77352116
0.40800002 14415.85329480  1415.06022647
0.40900002 14311.73855782  880.17196301
0.41000002 14212.55428908  1051.44481613
0.41100002 14117.45159262  959.70440474
0.41200002 14026.28435134  1129.60686376
0.41300002 13940.19495894  865.68614797
0.41400002 13857.39876460  862.62311397
0.41500002 13779.01101663  1375.69652508
0.41600002 13703.91244905  942.89774073
0.41700002 13633.03988220  1111.22913345
0.41800002 13566.79213119  937.94021843
0.41900002 13502.28850752  1190.90190279
0.42000002 13442.43202707  933.77858501
0.42100002 13386.35469903  847.35629260
0.42200002 13333.61746575  1184.42529561
0.42300002 13283.59819274  1098.28795062
0.42400002 13236.71076172  1012.60842125
0.42500002 13193.44051278  1011.67306646
0.42600002 13152.19678939  1095.11771756
0.42700002 13115.34234227  1178.80702558
0.42800002 13080.23935097  925.88478633
0.42900002 13049.18490653  1094.17420626
0.43000002 13020.21015327  1094.28361419
0.43100002 12993.03022391  1010.33807809
0.43200002 12969.48032423  1095.07812307
0.43300002 12948.18784863  927.21977578
0.43400002 12929.30973713  1012.36500039
0.43500002 12912.65596661  1435.62915840
0.43600002 12898.63053198  1014.60632573
0.43700002 12886.21276471  1100.61148439
0.43800002 12876.00234846  1187.03871276
0.43900002 12868.47819643  934.25156133
0.44000002 12862.50250822  1191.19641374
0.44100002 12858.80663805  937.79281255
0.44200002 12856.75224587  1196.06371811
0.44300002 12856.71490846  1198.76015487
0.44400002 12858.72018176  944.15157409
0.44500002 12861.16593185  1032.49444994
0.44600002 12865.73737161  1121.44205114
0.44700002 12872.87304373  1038.06853144
0.44800002 12880.00445993  1127.70884393
0.44900002 12890.24607913  957.10081673
0.45000002 12901.21959976  960.04430201
0.45100002 12913.26073487  875.51911932
0.45200002 12926.80053337  1229.72659302
0.45300002 12941.38071664  1145.70048914
0.45400002 12957.48197865  884.34818695
0.45500002 12974.70834017  1064.96411103
0.45600002 12992.84165719  1157.85713915
0.45700002 13012.13695231  893.93385099
0.45800002 13031.96549908  1076.70104056
0.45900002 13053.02568020  1080.79057754
0.46000002 13075.59393779  994.59510002
0.46100002 13097.92046873  1179.99171095
0.46200002 13121.95208473  911.31961548
0.46300002 13146.75918504  1372.52172397
0.46400002 13171.44113875  1378.06209446
0.46500002 13197.49779870  1014.75565384
0.46600002 13223.86444415  1111.59809786
0.46700002 13250.71710559  1395.30057735
0.46800002 13278.90461942  934.17098425
0.46900002 13306.65583513  1031.93120892
0.47000002 13335.22354510  1036.34694693
0.47100002 13364.34958530  1040.81559503
0.47200002 13394.00399510  1045.33509134
0.47300002 13424.08393139  1431.67861914
0.47400002 13453.88151823  1150.30692433
0.47500002 13484.32290715  1059.05877132
0.47600002 13515.57708537  1160.44750355
0.47700002 13546.19345882  1456.89317555
0.47800002 13577.23676294  975.52450766
