# SAXS profile: number of points = 501, q_min = 0, q_max = 0.5, delta_q = 0.001
#    q    intensity    error
0.00000000 1682732.95097188 353.37391970
0.00100000 1682646.36525896 555.27331372
0.00200000 1682386.58288261 757.07398627
0.00300000 1681953.80899457 1211.00678562
0.00400000 1681347.93904962 2017.61760352
0.00500000 1680569.60742020 1966.26651851
0.00600000 1679618.66714249 2292.67957399
0.00700000 1678495.84583188 2618.45362832
0.00800000 1677200.92999410 2717.06562130
0.00900000 1675735.36388780 3267.68409927
0.01000000 1674098.46661167 3038.48884810
0.01100000 1672291.85045157 4214.17564662
0.01200000 1670315.45729133 3257.11528452
0.01300000 1668170.52792090 4203.78991577
0.01400000 1665857.34855470 4122.99712045
0.01500000 1663377.32399178 5588.94805748
0.01600000 1660730.23462255 5928.80720264
0.01700000 1657918.18426924 5371.65515800
0.01800000 1654941.80619412 5659.90123187
0.01900000 1651801.93845744 7928.64966236
0.02000000 1648499.36164128 7789.15983610
0.02100000 1645036.85578876 6514.34624427
0.02200000 1641413.05066194 6795.45033847
0.02300000 1637631.00354126 8253.66063354
0.02400000 1633691.28076934 6738.97684045
0.02500000 1629596.39628926 8262.05410652
0.02600000 1625346.59160456 9215.71559591
0.02700000 1620943.92370890 8850.35422881
0.02800000 1616388.66086082 10546.93649580
0.02900000 1611684.44771161 11604.12855632
0.03000000 1606831.64449458 13449.18148261
0.03100000 1601831.91442725 11533.19031455
0.03200000 1596686.54287049 7903.59875123
0.03300000 1591399.71868719 10550.98062130
0.03400000 1585969.91340952 11656.87940141
0.03500000 1580400.90609532 11947.83140181
0.03600000 1574693.61797937 10487.45998041
0.03700000 1568851.11374984 10730.94211433
0.03800000 1562874.64054100 10057.09877732
0.03900000 1556767.06590649 10274.66311080
0.04000000 1550528.11243639 12396.47283337
0.04100000 1544162.03296470 10701.04338462
0.04200000 1537670.56869077 14876.96344227
0.04300000 1531055.11325977 13136.45348154
0.04400000 1524318.70726038 12346.98210223
0.04500000 1517463.78185056 12564.60069754
0.04600000 1510490.71383398 13843.64803584
0.04700000 1503403.53141893 16236.75889446
0.04800000 1496204.10812594 12096.81077704
0.04900000 1488894.77956702 12283.38250319
0.05000000 1481477.48084135 15866.62455866
0.05100000 1473956.11331606 12646.54404138
0.05200000 1466329.75038351 16320.25088231
0.05300000 1458604.19486416 11814.69452918
0.05400000 1450779.78387286 14362.72053013
0.05500000 1442860.71509565 13332.03362941
0.05600000 1434847.44582141 13494.74085767
0.05700000 1426745.17688885 13653.95198017
0.05800000 1418553.10856024 17575.87383572
0.05900000 1410275.08921308 16500.21931445
0.06000000 1401915.02113229 15393.02765118
0.06100000 1393474.24685940 12959.31110140
0.06200000 1384955.57990063 14396.61392602
0.06300000 1376362.14377895 19819.61579709
0.06400000 1367693.46843300 17335.51552311
0.06500000 1358955.86490773 18835.12916869
0.06600000 1350150.61794213 17639.71864875
0.06700000 1341278.92857037 15049.15028284
0.06800000 1332345.15074920 15168.75025131
0.06900000 1323352.63471151 16674.24397804
0.07000000 1314300.90728661 20995.95797711
0.07100000 1305194.33972317 16915.31943509
0.07200000 1296035.36117569 22706.54059153
0.07300000 1286826.97326458 15712.15807976
0.07400000 1277572.18812111 14372.68778993
0.07500000 1268271.39986867 20241.61249068
0.07600000 1258928.05253332 24719.05347034
0.07700000 1249545.99744238 16081.65774113
0.07800000 1240126.42984757 17634.59865943
0.07900000 1230671.32485659 23628.89054553
0.08000000 1221185.68581858 16321.14745661
0.08100000 1211670.34181968 14903.54590363
0.08200000 1202126.77215639 16463.12691722
0.08300000 1192558.19343146 15026.23394245
0.08400000 1182967.98564528 18099.41102993
0.08500000 1173357.71173371 18163.57823033
0.08600000 1163730.20185161 19742.68380136
0.08700000 1154087.32557849 18280.74409559
0.08800000 1144431.04694926 16805.97071372
0.08900000 1134764.61826688 16851.25537276
0.09000000 1125090.30540166 24571.97342425
0.09100000 1115410.03681228 20010.45700053
0.09200000 1105725.24252184 18509.84142953
0.09300000 1096040.70494725 15454.17466598
0.09400000 1086355.14419705 24768.89845177
0.09500000 1076672.36711108 17054.49109665
0.09600000 1066994.36763227 15524.76877883
0.09700000 1057325.86717089 26422.57466280
0.09800000 1047665.58385973 17113.61811699
0.09900000 1038017.59411035 18684.31757257
0.10000000 1028381.26042137 18695.97219368
0.10100000 1018760.74407337 18704.44814089
0.10200000 1009157.89777095 26505.53343168
0.10300000 999573.67330046 21830.69005181
0.10400000 990011.17084064 15592.67667430
0.10500000 980473.07389942 15589.52260848
0.10600001 970956.43960970 18700.62190681
0.10700001 961469.21307993 18690.96238183
0.10800001 952008.37740663 18678.40524376
0.10900001 942578.82097949 21773.57178941
0.11000001 933181.11364523 15537.46627353
0.11100001 923815.78210263 23280.15880486
0.11200001 914486.41336127 20150.70906705
0.11300001 905192.82319588 15478.79800540
0.11400001 895937.49686617 17000.41480349
0.11500001 886722.40542957 15428.97058099
0.11600001 877548.24479867 16941.06966362
0.11700001 868416.72238854 16908.07438119
0.11800001 859328.08343577 18406.80841412
0.11900001 850284.32033816 26018.70142787
0.12000001 841286.74588221 22904.03273554
0.12100001 832338.15940303 16754.96793808
0.12200001 823437.89463200 21269.40182037
0.12300001 814588.39004968 15151.34476877
0.12400001 805789.36435413 16619.40642287
0.12500001 797042.00389175 15064.09458338
0.12600001 788349.75222052 24028.90158001
0.12700001 779711.18563255 14970.45546965
0.12800001 771127.75056006 16413.45494422
0.12900001 762601.14595038 19331.93996100
0.13000001 754131.79724994 17782.42861733
0.13100001 745719.61091821 16241.77389140
0.13200001 737366.56381287 17652.55636983
0.13300001 729074.27990657 14654.39371697
0.13400001 720841.48435490 14597.04074637
0.13500001 712670.82996037 15992.33417832
0.13600001 704560.95052630 24613.83796720
0.13700001 696514.79173037 15859.64255553
0.13800001 688530.19111577 17227.02619407
0.13900001 680610.57635509 17151.38733298
0.14000001 672755.04625419 18497.40086911
0.14100001 664963.90431840 15580.10501298
0.14200001 657237.70241184 16917.29925799
0.14300001 649578.32296431 19643.24941297
0.14400001 641982.60275543 16755.74672228
0.14500001 634454.88538262 15284.01890985
0.14600001 626993.42332576 17972.76732749
0.14700001 619600.72564913 19257.19146166
0.14800001 612272.15309473 16421.13992073
0.14900001 605012.52630887 17696.61722947
0.15000001 597819.95735562 13540.62267299
0.15100001 590695.80648644 21548.58403739
0.15200001 583639.55505822 14733.98126270
0.15300001 576652.61573663 14652.74365732
0.15400001 569731.07105498 17220.12243527
0.15500001 562879.74463017 19757.07996891
0.15600001 556093.85140762 14405.61190059
0.15700001 549379.84223470 15624.36345058
0.15800001 542730.05779959 16827.34623631
0.15900001 536150.89431832 15441.14648520
0.16000001 529637.10844414 12790.73677268
0.16100001 523194.14110607 19070.42734352
0.16200001 516817.58365865 13899.80956865
0.16300001 510508.26940101 13814.35442214
0.16400001 504266.61734259 12480.59936843
0.16500001 498091.42942126 13642.72489594
0.16600001 491984.23312816 17253.88787041
0.16700001 485942.14278212 14694.89109155
0.16800001 479965.95694160 14600.56509955
0.16900001 474057.93693924 19341.56474039
0.17000001 468214.00893053 15612.59686501
0.17100001 462435.30009911 16703.16382833
0.17200001 456722.22739395 16592.71930478
0.17300001 451073.74323483 20014.14293249
0.17400001 445489.67311396 12863.51491866
0.17500001 439969.08047568 20907.33169161
0.17600001 434510.55573820 13843.50695964
0.17700001 429117.04876101 14894.65346598
0.17800001 423784.29219715 12516.46966122
0.17900001 418514.51182294 15819.84929414
0.18000001 413305.99812555 11221.25837915
0.18100001 408160.30582995 15599.88762570
0.18200001 403072.42596245 12170.77247686
0.18300001 398045.93145674 15380.49551805
0.18400001 393078.31481656 10907.92375146
0.18500001 388171.40239948 11912.98090243
0.18600001 383321.30944300 11827.37956163
0.18700001 378528.93743145 10674.51653988
0.18800001 373793.87501415 12716.46822879
0.18900001 369117.57473746 11571.83651476
0.19000001 364493.46004478 10442.73812369
0.19100001 359929.58804940 15548.95893842
0.19200001 355417.35300331 13376.13271232
0.19300001 350962.06750269 19404.69362915
0.19400001 346558.47865208 10136.83597958
0.19500001 342209.42171048 11067.05322109
0.19600001 337912.54686795 10983.84785500
0.19700001 333667.44002865 13873.89281204
0.19800001 329474.31746947 10818.28972537
0.19900001 325332.15541403 10735.96163604
0.20000001 321239.07498496 9685.35856854
0.20100001 317197.04524089 14416.60638756
0.20200001 313202.42138677 11444.41701838
0.20300001 309257.71290652 11355.94375466
0.20400001 305360.30268955 12206.77867698
0.20500001 301509.64273778 12111.64292126
0.20600001 297705.63347504 10168.13639197
0.20700001 293948.07538662 11922.53450125
0.20800001 290234.45727378 11828.50586533
0.20900001 286568.31403041 11734.97301427
0.21000001 282944.03956761 11641.73305834
0.21100001 279364.06326384 13325.66644763
0.21200001 275826.58126987 11456.45759464
0.21300001 272330.86222330 10490.18530877
0.21400001 268877.85185299 11272.70447187
0.21500001 265466.90043143 10321.35357674
0.21600001 262095.27234966 9384.32167016
0.21700001 258764.18037007 10153.90691779
0.21800001 255472.66962432 8392.27759395
0.21900001 252219.11351363 9155.55425343
0.22000001 249003.70957170 9905.36803511
0.22100001 245827.75307964 10641.88393400
0.22200001 242688.93909056 10553.32901536
0.22300001 239585.57327724 8050.07564277
0.22400001 236517.85231646 7982.47789314
0.22500001 233488.46219261 7915.25924262
0.22600001 230491.76794927 8633.06957678
0.22700001 227532.04423275 13228.71367727
0.22800001 224604.96459356 9258.21707837
0.22900001 221710.85833881 8413.92747186
0.23000001 218851.28790318 10616.47647826
0.23100001 216024.90715417 9772.96726184
0.23200001 213228.94182846 9688.05743016
0.23300001 210465.55701528 7387.34140062
0.23400001 207734.20417558 8054.89414787
0.23500001 205031.76808657 9435.56241361
0.23600001 202361.48813533 9352.13661650
0.23700001 199720.43765207 7843.02195755
0.23800001 197109.22568115 7773.00268239
0.23900001 194526.78361853 7703.26099565
0.24000001 191972.86713895 9715.74726546
0.24100001 189448.65930965 8252.38398988
0.24200001 186951.50062101 6814.38251997
0.24300001 184482.20579523 10803.27848239
0.24400001 182039.73192840 10703.93674372
0.24500001 179624.10551492 7953.75576845
0.24600001 177235.16185974 8536.53197480
0.24700001 174872.42653215 9757.88186210
0.24800001 172535.57119149 8377.46505551
0.24900001 170223.21943762 7021.70813398
0.25000001 167937.09730681 8851.96481781
0.25100001 165674.38518661 6262.49205633
0.25200001 163438.10419966 6822.72398260
0.25300001 161225.54455637 7985.50159967
0.25400001 159036.45964830 7299.77384322
0.25500001 156870.70105164 8433.36928753
0.25600001 154728.82511935 8350.71508679
0.25700001 152609.43219092 8268.37942731
0.25800001 150513.41579683 6432.19112841
0.25900001 148439.88008426 8104.81783608
0.26000001 146388.61469923 8023.56035130
0.26100001 144358.67084336 8509.94404887
0.26200001 142351.58502052 6738.92435374
0.26300001 140365.12104528 6114.30496205
0.26400001 138400.50333872 6601.70432164
0.26500001 136457.44304733 5444.65223522
0.26600001 134534.13029189 8082.13825973
0.26700001 132632.65800487 5865.01641451
0.26800001 130752.00175410 5275.84352044
0.26900001 128890.30925297 6264.06932612
0.27000001 127049.75421741 6197.48730400
0.27100001 125228.62261410 5620.26084889
0.27200001 123428.70103993 6570.72721081
0.27300001 121647.43016228 7499.56442441
0.27400001 119883.67488401 6923.28255219
0.27500001 118142.16852523 5869.30321010
0.27600001 116417.30704518 7739.42293864
0.27700001 114713.26991738 6218.60665653
0.27800001 113026.84967591 5676.20865936
0.27900001 111360.18077223 6080.26615793
0.28000001 109710.66311865 4624.30466931
0.28100001 108080.35598401 5486.15912940
0.28200001 106468.82580832 6779.40280421
0.28300001 104874.74717562 4914.43088525
0.28400001 103298.62568184 5299.21974829
0.28500001 101740.72725569 4801.14514644
0.28600001 100200.41943374 6039.07956511
0.28700001 98677.61341755  4262.87310141
0.28800001 97171.59824654  5054.86678005
0.28900001 95685.00001952  4578.52746765
0.29000001 94213.93629149  5346.17006792
0.29100001 92761.09376377  5281.81692892
0.29200001 91325.07711903  4013.73732937
0.29300001 89906.09776873  4757.83091914
0.29400001 88503.32168804  4699.52660409
0.29500001 87118.58016985  3868.06514264
0.29600001 85749.70071306  4202.16428236
0.29700001 84397.50354894  4149.82544595
0.29800001 83061.57268351  4097.84288233
0.29900001 81742.95139491  3678.43298690
0.30000001 80439.68112974  4721.40730742
0.30100001 79153.72440093  5019.92943915
0.30200001 77882.43443739  3539.75681275
0.30300001 76628.48759865  4891.96287989
0.30400001 75390.37552233  5173.66476515
0.30500001 74167.88016737  3404.30586085
0.30600001 72960.33716520  3359.82368552
0.30700001 71769.75069833  4310.49143101
0.30800001 70594.27221868  4253.65807392
0.30900001 69434.44528635  3874.44223041
0.31000001 68290.33936075  3504.31893021
0.31100001 67160.67315266  3457.43161759
0.31200001 66047.05364499  4031.18211008
0.31300001 64948.09076915  3976.77178608
0.31400001 63865.45975942  4224.70036311
0.31500001 62796.61943407  3274.21589232
0.31600002 61743.29468598  2935.89380133
0.31700002 60704.64581747  3474.73409111
0.31800002 59680.91252201  3141.30497933
0.31900002 58672.02184153  2816.25718174
0.32000002 57677.94301315  3332.63170510
0.32100002 56697.57022863  3012.34204888
0.32200002 55733.02884385  2700.26537534
0.32300002 54780.95048471  3993.53147943
0.32400002 53844.03152433  2624.89666110
0.32500002 52921.12873151  2587.84331751
0.32600002 52012.76933628  2806.34910243
0.32700002 51117.76244653  2766.49343461
0.32800002 50237.39322282  3718.82320942
0.32900002 49370.08665497  2932.58328617
0.33000002 48517.53005540  2649.78502945
0.33100002 47676.22119693  3561.41389206
0.33200002 46851.25757406  3042.28655464
0.33300002 46038.35700162  2767.82615401
0.33400002 45239.35725221  3182.58893341
0.33500002 44452.45726419  2688.48474265
0.33600002 43679.80871272  2428.81587849
0.33700002 42919.12963275  2611.19997051
0.33800002 42172.67586401  3002.27293694
0.33900002 41437.64341695  2747.31588865
0.34000002 40716.17228973  2290.89554237
0.34100002 40006.77822289  2257.58260203
0.34200002 39310.78437045  2022.53995165
0.34300002 38625.93071885  2989.64717923
0.34400002 37954.81716216  2160.57806928
0.34500002 37294.91389082  2129.16673486
0.34600002 36648.01587933  2861.29397529
0.34700002 36011.53663033  3007.68368181
0.34800002 35388.43415670  2593.61846218
0.34900002 34776.31095683  2556.05897639
0.35000002 34176.05384898  2339.18011648
0.35100002 33587.81561638  2128.12409825
0.35200002 33009.72885146  3146.15740584
0.35300002 32443.45733508  2411.84673252
0.35400002 31888.67200807  2207.49342431
0.35500002 31345.09510950  2175.97660556
0.35600002 30811.42119433  1814.94685142
0.35700002 30289.07225134  2114.48023402
0.35800002 29777.94086784  1924.25063002
0.35900002 29277.26658743  2529.55595297
0.36000002 28787.30139889  1714.71568904
0.36100002 28306.86438945  2151.88793281
0.36200002 27837.92786217  1667.35276828
0.36300002 27377.89836510  2391.73331446
0.36400002 26928.09433244  2211.46985180
0.36500002 26488.00057571  2035.86782068
0.36600002 26058.13681592  1434.50049967
0.36700002 25637.23288628  1415.17532236
0.36800002 25227.37842956  1815.23610088
0.36900002 24825.83061243  2066.75049638
0.37000002 24433.24034030  1631.65186722
0.37100002 24049.79056614  2147.16540346
0.37200002 23676.21091405  1589.62087607
0.37300002 23310.80514429  1438.50985360
0.37400002 22954.37713021  1807.65728463
0.37500002 22606.95366330  2422.56126932
0.37600002 22268.15914446  1385.19090520
0.37700002 21937.27556397  1368.22794174
0.37800002 21614.74228312  1351.67797271
0.37900002 21300.99648603  1214.15685722
0.38000002 20995.14260669  1439.84694818
0.38100002 20696.21908406  1423.07209164
0.38200002 20406.20935138  1172.33678277
0.38300002 20123.16754635  1622.73230781
0.38400002 19848.68663196  1834.01873168
0.38500002 19580.32372463  1247.07087710
0.38600002 19320.71804534  1682.35160350
0.38700002 19067.25729687  1109.71442725
0.38800002 18821.40835179  1317.87507523
0.38900002 18581.80174632  1521.84963512
0.39000002 18350.42715551  1291.50312439
0.39100002 18124.55107978  1278.86838478
0.39200002 17905.93312082  1161.11028823
0.39300002 17693.47216524  1150.25267996
0.39400002 17488.73735923  1139.82851139
0.39500002 17289.11138941  1540.45989778
0.39600002 17095.87191485  1323.47698699
0.39700002 16908.53878255  1514.15971972
0.39800002 16727.38595705  1201.36091635
0.39900002 16551.87618245  993.11261800
0.40000002 16382.05311813  985.38054174
0.40100002 16218.17884049  977.95623042
0.40200002 16059.98734096  1262.07416499
0.40300002 15906.50273961  1156.72093403
0.40400002 15758.83230729  1340.28875124
0.40500002 15616.46258911  1236.35540176
0.40600002 15479.04747522  944.99589314
0.40700002 15346.64862924  1502.74390498
0.40800002 15219.25776353  1120.44180964
0.40900002 15096.45758961  1021.27540433
0.41000002 14978.83788307  1108.13447910
0.41100002 14865.32746809  1194.28046537
0.41200002 14756.20122767  1005.56138031
0.41300002 14652.18394853  1091.88079958
0.41400002 14551.86307372  1087.02422311
0.41500002 14456.10774921  992.26728292
0.41600002 14363.76867112  1167.98990484
0.41700002 14275.98353918  1074.12505238
0.41800002 14192.85903084  1248.82972530
0.41900002 14111.79316834  1244.66021643
0.42000002 14035.78494164  974.99584717
0.42100002 13963.48789660  883.88882574
0.42200002 13894.88274425  1234.28249266
0.42300002 13829.03576916  967.47938825
0.42400002 13766.71753265  1140.91676958
0.42500002 13708.01035754  963.53609369
0.42600002 13651.74232425  1136.71237849
0.42700002 13599.83418564  1135.04221492
0.42800002 13550.16252995  1220.73420017
0.42900002 13504.48666836  1045.24731766
0.43000002 13461.09409076  1827.54552583
0.43100002 13419.75188392  956.55995961
0.43200002 13382.23224274  1216.84643550
0.43300002 13347.12750989  1042.67765048
0.43400002 13314.69966220  1042.54103295
0.43500002 13284.59831632  1216.33787948
0.43600002 13257.31754959  869.01720656
0.43700002 13231.85530547  1390.93269563
0.43800002 13208.62233374  956.76660408
0.43900002 13188.47622058  957.48341899
0.44000002 13169.88093697  1132.54396485
0.44100002 13153.81902113  1133.72771516
0.44200002 13139.55568134  1222.37292296
0.44300002 13127.40952916  1049.14261929
0.44400002 13117.55567954  1225.83563635
0.44500002 13108.25458316  1140.02495512
0.44600002 13101.23149089  1405.50018095
0.44700002 13096.99794200  880.11830341
0.44800002 13092.86613269  969.98503341
0.44900002 13092.02372295  1325.56746477
0.45000002 13092.09443139  1062.81627631
0.45100002 13093.35230668  976.50226131
0.45200002 13096.33867563  1067.87550622
0.45300002 13100.32115305  892.13191280
0.45400002 13106.10621741  1162.83932925
0.45500002 13113.14689110  1076.32714783
0.45600002 13121.33459972  899.46752944
0.45700002 13130.75835222  1172.70808402
0.45800002 13140.87250189  1176.17384902
0.45900002 13152.23407394  1179.75545235
0.46000002 13165.43302925  1183.50665826
0.46100002 13178.34871771  1187.23749225
0.46200002 13193.31582093  1191.15857535
0.46300002 13209.01033010  1103.21659506
0.46400002 13224.83568791  1106.91879954
0.46500002 13242.12617787  1388.43699556
0.46600002 13259.90698223  1114.62783375
0.46700002 13278.11103145  1025.33578245
0.46800002 13298.03461781  935.51677970
0.46900002 13317.53260756  1126.66331200
0.47000002 13338.02355572  1225.03083154
0.47100002 13359.10114307  1324.15416806
0.47200002 13380.93612667  1044.31520950
0.47300002 13403.31203983  1143.57063744
0.47400002 13425.50355037  1052.22389063
0.47500002 13448.45188473  1632.37316714
0.47600002 13472.41187772  1156.74133865
0.47700002 13495.76423248  1064.41097547
