# SAXS profile: number of points = 501, q_min = 0, q_max = 0.5, delta_q = 0.001
#    q    intensity    error
0.00000000 1664650.74656090 399.51617917
0.00100000 1664564.54505017 599.24325045
0.00200000 1664305.91367541 823.83145336
0.00300000 1663875.06376810 1098.15758121
0.00400000 1663271.87300799 1746.43553302
0.00500000 1662496.99496942 1945.12156110
0.00600000 1661550.26761821 1744.62785203
0.00700000 1660432.42992197 1992.51899872
0.00800000 1659143.26710577 2687.81220619
0.00900000 1657684.20135707 2983.83168999
0.01000000 1656054.59477914 3552.23725919
0.01100000 1654256.01074222 3275.42704388
0.01200000 1652288.40937787 3866.35504746
0.01300000 1650153.03613321 4504.91798733
0.01400000 1647850.19968175 5561.49467047
0.01500000 1645381.23441234 6713.15573533
0.01600000 1642745.97877607 4607.90267646
0.01700000 1639946.53714199 5313.42701869
0.01800000 1636983.49351140 9330.80633288
0.01900000 1633857.71076180 5391.73068880
0.02000000 1630570.00331869 5649.92531708
0.02100000 1627123.03078493 6443.40749404
0.02200000 1623515.57218079 8961.80636559
0.02300000 1619750.60395214 6414.21268362
0.02400000 1615828.72723095 8483.10120477
0.02500000 1611752.35502189 8800.16826033
0.02600000 1607521.92684825 8463.60333197
0.02700000 1603139.25869086 6733.18519489
0.02800000 1598604.76679241 9040.11037079
0.02900000 1593922.02789907 7889.91440036
0.03000000 1589091.45262685 10344.98583211
0.03100000 1584114.69413258 12166.00141073
0.03200000 1578992.97104210 12505.62490664
0.03300000 1573730.46740288 9631.23090451
0.03400000 1568325.75381648 10703.82376368
0.03500000 1562782.58760329 10970.73427158
0.03600000 1557101.78349197 10370.29835731
0.03700000 1551286.50992804 10610.80021863
0.03800000 1545337.99171386 10848.27320388
0.03900000 1539258.97190225 10159.10968502
0.04000000 1533049.31192499 13199.55518733
0.04100000 1526713.31992626 11541.95323380
0.04200000 1520252.51214475 10786.19207407
0.04300000 1513668.43782354 14985.31823004
0.04400000 1506964.02814363 15258.01149357
0.04500000 1500141.88723951 11386.07745320
0.04600000 1493202.22664045 13685.19904334
0.04700000 1486149.18920696 13910.35705792
0.04800000 1478984.39977943 13044.64301300
0.04900000 1471710.43967035 13245.39457357
0.05000000 1464329.22376307 14562.75480845
0.05100000 1456844.63598020 13636.06642800
0.05200000 1449255.51629592 11521.58189147
0.05300000 1441567.97892031 15179.71152568
0.05400000 1433782.15916962 16560.18471067
0.05500000 1425902.31438091 13175.33799950
0.05600000 1417928.81580331 13335.62113493
0.05700000 1409867.07425671 14719.01294230
0.05800000 1401716.14011960 12405.18841929
0.05900000 1393479.85715866 16303.71509023
0.06000000 1385162.13815256 12674.23415622
0.06100000 1376764.19919559 16645.07994612
0.06200000 1368289.04861907 18102.46495940
0.06300000 1359739.66248822 15664.20164425
0.06400000 1351115.65266750 19760.06734438
0.06500000 1342423.43870368 13289.99266484
0.06600000 1333664.11830476 14743.65751769
0.06700000 1324838.77855796 17567.36302581
0.06800000 1315951.83066484 13620.10208493
0.06900000 1307006.78595344 17840.64346354
0.07000000 1298003.31339424 17970.85671549
0.07100000 1288945.46769536 16704.73404374
0.07200000 1279835.61963289 16817.04082980
0.07300000 1270676.94336832 16925.41767872
0.07400000 1261472.34734288 17029.87748722
0.07500000 1252222.23385611 21413.00120262
0.07600000 1242930.17889816 22969.35078285
0.07700000 1233599.91309876 18763.05555800
0.07800000 1224232.68689376 14507.15802002
0.07900000 1214830.26050004 21866.94571464
0.08000000 1205397.99319217 17574.70356519
0.08100000 1195936.32445314 22065.02622141
0.08200000 1186447.03106740 16248.39285293
0.08300000 1176933.09180911 19278.16494860
0.08400000 1167398.23101585 23814.92503056
0.08500000 1157843.61952930 16429.80173242
0.08600000 1148272.18397813 17981.94324538
0.08700000 1138685.90002024 16533.72004468
0.08800000 1129086.48815519 15073.30532477
0.08900000 1119477.47057710 16624.24121891
0.09000000 1109861.07036330 16664.56475433
0.09100000 1100238.90007275 16701.62728777
0.09200000 1090612.91755526 18256.86109771
0.09300000 1080987.52745511 25911.27225073
0.09400000 1071361.42497636 18320.28122810
0.09500000 1061738.50565924 15289.03520012
0.09600000 1052120.87935803 16839.19546570
0.09700000 1042513.01965258 19922.42474217
0.09800000 1032913.85150090 19940.40284078
0.09900000 1023327.04901733 26094.84097699
0.10000000 1013752.70837287 19965.86053034
0.10100000 1004194.20565136 18437.00648288
0.10200000 994653.68055906 15367.40008746
0.10300000 985132.44694044 19978.48696376
0.10400000 975633.02586720 19976.08714441
0.10500000 966158.40269702 23042.87898848
0.10600001 956705.65126580 18426.15171040
0.10700001 947282.48730253 16880.57471809
0.10800001 937885.98985036 15334.43665572
0.10900001 928521.13441284 19916.77927055
0.11000001 919188.50122836 24487.18282532
0.11100001 909888.46358485 15286.12690779
0.11200001 900624.73364784 16792.14894939
0.11300001 891396.91241714 16767.17671198
0.11400001 882207.85886274 15218.08628192
0.11500001 873058.94280711 19748.59421622
0.11600001 863951.50661081 16678.58462054
0.11700001 854886.89058517 21184.09814636
0.11800001 845865.38305774 22648.04669806
0.11900001 836889.00842130 16570.40314723
0.12000001 827958.83269748 18032.94422559
0.12100001 819078.04019594 16488.04172587
0.12200001 810245.92428560 23918.46081174
0.12300001 801464.53323028 14907.24102043
0.12400001 792733.85731741 16350.13657755
0.12500001 784055.14152740 16300.50716044
0.12600001 775431.79716417 16249.17407529
0.12700001 766862.11724010 22085.63001733
0.12800001 758347.91775200 20543.64606011
0.12900001 749890.49845329 17547.43849085
0.13000001 741490.55212430 18941.37704681
0.13100001 733148.01403108 14516.33136208
0.13200001 724864.71078135 15907.15682797
0.13300001 716642.31188660 15844.96226279
0.13400001 708479.54648570 18650.72494054
0.13500001 700379.00574412 14287.73239082
0.13600001 692339.44318384 14227.57622827
0.13700001 684363.66140890 16999.59415098
0.13800001 676449.69723245 16924.77222286
0.13900001 668600.45494279 14040.61021593
0.14000001 660815.60529983 18169.12592459
0.14100001 653095.19126067 23648.57799089
0.14200001 645439.82417932 19382.55883429
0.14300001 637851.35150283 17910.86679501
0.14400001 630326.41724276 13709.60022171
0.14500001 622869.80725342 21825.35907571
0.14600001 615479.51721463 16285.58879376
0.14700001 608157.95920794 20251.66099703
0.14800001 600900.54286938 20145.19165012
0.14900001 593712.03034747 16030.22557570
0.15000001 586590.91969884 15943.54194968
0.15100001 579537.90195868 17177.50422458
0.15200001 572552.98021172 13140.09151590
0.15300001 565637.31999261 16986.08952093
0.15400001 558787.07604814 18188.52018370
0.15500001 552006.92799656 15500.35526965
0.15600001 545292.33541845 14125.79861568
0.15700001 538649.60844945 17872.39485187
0.15800001 532071.06329525 16496.86409610
0.15900001 525563.09391201 16397.56930403
0.16000001 519120.52973691 13790.43752340
0.16100001 512748.80533245 14951.75586928
0.16200001 506443.22796263 14859.04500986
0.16300001 500205.02828212 12305.04427663
0.16400001 494034.34781087 15895.55589124
0.16500001 487930.27727754 12149.46447780
0.16600001 481893.94820758 12071.44397253
0.16700001 475922.58009980 19189.19933564
0.16800001 470017.14199493 11914.93511215
0.16900001 464179.74390753 11836.58402854
0.17000001 458406.41810503 18813.00028737
0.17100001 452698.21702789 15183.49891610
0.17200001 447055.59382097 12761.20252824
0.17300001 441477.47158525 17283.84382878
0.17400001 435963.42204816 11444.04036922
0.17500001 430512.96630569 12502.09713196
0.17600001 425124.49856299 14673.17276090
0.17700001 419800.84305680 14571.28795071
0.17800001 414537.73995676 13356.40661226
0.17900001 409337.55188707 12157.32586528
0.18000001 404198.64492568 12071.39310090
0.18100001 399122.23571249 11985.64130461
0.18200001 394103.56811972 14063.58649269
0.18300001 389145.98660889 12888.51568533
0.18400001 384247.31288032 11729.14977976
0.18500001 379409.01866073 12702.61454486
0.18600001 374627.51919509 11559.13265086
0.18700001 369903.55852442 11474.40892753
0.18800001 365236.78499223 11389.90967811
0.18900001 360628.33128818 15416.86189098
0.19000001 356072.26251562 11221.61788339
0.19100001 351576.04533758 13163.00775939
0.19200001 347131.21206842 12059.33887708
0.19300001 342743.36499295 10971.21563184
0.19400001 338406.80744716 10888.23954412
0.19500001 334124.75907944 11787.92205736
0.19600001 329894.57110442 12672.90054785
0.19700001 325715.92739201 10641.13985077
0.19800001 321589.13094251 10559.37961352
0.19900001 317512.97091948 10477.92853553
0.20000001 313485.76432612 13232.23473758
0.20100001 309509.39132757 14067.20250069
0.20200001 305580.19695935 11165.90092463
0.20300001 301700.75061154 11078.45208607
0.20400001 297868.16247591 9159.44642906
0.20500001 294082.23106506 9087.14136943
0.20600001 290342.79677041 11719.68754560
0.20700001 286649.36323551 10732.15266684
0.20800001 282999.96052405 10646.45901818
0.20900001 279397.37335760 9681.11944448
0.21000001 275836.61627146 11349.29811300
0.21100001 272319.92674755 9525.75148794
0.21200001 268845.45152481 9448.57384052
0.21300001 265412.47549350 9371.71495273
0.21400001 262022.00887401 11830.29425996
0.21500001 258673.18309088 10057.21383405
0.21600001 255363.56198110 11636.91806966
0.21700001 252094.17329472 10716.52381343
0.21800001 248864.08027405 12262.77813530
0.21900001 245671.54026033 12160.74181786
0.22000001 242517.06373517 9647.32925154
0.22100001 239401.59884541 11958.11042775
0.22200001 236323.21490850 8695.51310372
0.22300001 233279.67809542 10189.65682103
0.22400001 230271.80467030 8548.84115263
0.22500001 227301.79105638 10017.19040554
0.22600001 224364.28797026 12987.32742331
0.22700001 221463.26833317 12118.47061626
0.22800001 218594.84171778 9761.35311852
0.22900001 215759.01514113 11165.52956158
0.23000001 212957.34706933 8116.86966741
0.23100001 210188.55756280 10971.84322367
0.23200001 207450.03287590 7975.41689110
0.23300001 204743.71207015 7905.15509690
0.23400001 202069.12164904 7835.23056251
0.23500001 199423.11448894 7059.57858680
0.23600001 196808.88171391 6996.55607585
0.23700001 194223.72780588 8320.54489275
0.23800001 191667.98838304 7558.42747939
0.23900001 189140.72780794 7489.97317547
0.24000001 186641.74426559 9445.93912408
0.24100001 184172.08827678 8691.08125688
0.24200001 181729.13585903 9273.63824155
0.24300001 179313.91390973 6562.88955954
0.24400001 176924.98417850 7152.19282374
0.24500001 174562.55623047 9662.03794441
0.24600001 172226.83906984 8295.30609621
0.24700001 169916.70061323 7585.08187419
0.24800001 167632.06286401 8765.48098182
0.24900001 165371.66841656 9922.30057439
0.25000001 163137.19765906 9213.17367365
0.25100001 160925.87686527 6082.99843329
0.25200001 158740.62518940 7229.04841313
0.25300001 156578.77495451 6562.21676881
0.25400001 154440.07155000 7679.53292115
0.25500001 152324.39012228 5849.25685743
0.25600001 150232.29950163 6949.74650376
0.25700001 148162.09030664 8027.42243262
0.25800001 146115.25409727 7379.55125734
0.25900001 144090.40507064 6743.43127637
0.26000001 142087.48690583 7231.54298824
0.26100001 140105.63740130 7157.99735352
0.26200001 138146.31775432 7084.83424126
0.26300001 136207.33444206 6472.57283895
0.26400001 134289.68436734 5871.81672681
0.26500001 132393.27172184 6338.99015000
0.26600001 130516.37737335 6795.33550950
0.26700001 128661.07795618 6206.61069430
0.26800001 126826.08916018 6140.91952773
0.26900001 125009.85563772 5569.18933220
0.27000001 123214.35769719 5509.53026515
0.27100001 121437.95683008 5450.13576045
0.27200001 119682.40845613 5391.09434403
0.27300001 117945.13734932 8725.58167403
0.27400001 116225.17577529 5273.71760038
0.27500001 114527.03241598 5689.70323969
0.27600001 112845.23915706 5626.46389065
0.27700001 111183.89050755 6027.27898967
0.27800001 109539.87456355 6876.36595117
0.27900001 107915.39547717 5438.93618946
0.28000001 106307.59395086 4928.95182681
0.28100001 104718.65748302 6201.43918965
0.28200001 103148.22294509 4378.64227126
0.28300001 101594.89817478 4760.73715380
0.28400001 100059.21258059 6416.29731042
0.28500001 98541.34193668  5072.90852301
0.28600001 97040.83143133  4595.36878994
0.28700001 95557.49508709  5366.50917810
0.28800001 94090.69899381  4486.71519389
0.28900001 92642.74981203  4029.95980758
0.29000001 91210.15680090  5573.85294594
0.29100001 89795.44325025  3933.04060053
0.29200001 88397.24625456  5050.57690383
0.29300001 87015.73231860  4604.87277228
0.29400001 85650.11863280  5306.02510047
0.29500001 84302.14998704  4117.31720027
0.29600001 82969.82088512  4435.56683449
0.29700001 81653.83581542  4014.91929710
0.29800001 80353.84321290  3603.87003870
0.29900001 79070.71289890  3914.00047378
0.30000001 77802.71378799  4566.63050197
0.30100001 76551.70189185  4854.90916381
0.30200001 75314.92569808  3765.36988853
0.30300001 74095.28245147  4392.36855166
0.30400001 72891.18822350  5335.63523056
0.30500001 71702.41204067  3949.36904217
0.30600001 70528.19473784  3897.38822573
0.30700001 69370.63723661  4166.40066968
0.30800001 68227.88076905  3478.59866570
0.30900001 67100.51221516  4056.22615545
0.31000001 65988.46746090  4925.37944447
0.31100001 64890.61496057  3036.88092394
0.31200001 63808.51089548  2995.80972838
0.31300001 62740.68629400  3841.61240367
0.31400001 61689.01565218  3497.76735309
0.31500001 60650.74947218  2874.84566110
0.31600002 59627.75033555  3118.82962897
0.31700002 58619.11654290  3075.74519064
0.31800002 57625.05882926  3584.56695420
0.31900002 56645.48833669  2718.98356890
0.32000002 55680.54850610  2949.12039126
0.32100002 54729.03134890  2907.75357325
0.32200002 53792.95233983  3388.14926355
0.32300002 52869.19038418  3340.27560664
0.32400002 51960.20263165  3546.28399753
0.32500002 51064.88172918  2996.48740176
0.32600002 50183.95109377  3199.97979302
0.32700002 49315.99723525  2911.61661464
0.32800002 48462.40746396  2869.94390592
0.32900002 47621.61065863  2828.72380707
0.33000002 46795.36213376  3252.74577595
0.33100002 45979.88788661  2747.75823022
0.33200002 45180.67200710  2933.80707571
0.33300002 44393.19481584  2224.09916560
0.33400002 43619.27542269  2630.24243254
0.33500002 42857.22285094  2376.00454737
0.33600002 42109.18584953  2341.48139005
0.33700002 41372.85275116  2307.36410720
0.33800002 40650.25190450  2273.77194796
0.33900002 39939.13821553  2240.58576000
0.34000002 39241.03978272  2810.05099192
0.34100002 38554.96984554  2175.65705142
0.34200002 37881.89136418  2338.82808359
0.34300002 37219.76224467  1920.53982278
0.34400002 36571.02074729  2838.82561995
0.34500002 35933.39748459  2237.93210133
0.34600002 35308.49122074  2389.14917160
0.34700002 34693.64348684  2535.41158610
0.34800002 34092.00812640  2320.13172293
0.34900002 33501.07720916  1758.80663678
0.35000002 32921.67134563  2253.32390197
0.35100002 32354.19001063  2049.96157616
0.35200002 31796.45086361  2357.07101416
0.35300002 31250.33132238  1825.33193899
0.35400002 30715.58428644  2289.84691701
0.35500002 30191.61213856  1934.67859747
0.35600002 29677.39017833  1589.22431932
0.35700002 29174.34014324  2036.66078187
0.35800002 28682.25202003  1698.99327888
0.35900002 28200.25641129  1675.09531017
0.36000002 27728.72774103  1951.96388179
0.36100002 27266.61033095  1628.63471221
0.36200002 26815.75375463  1606.12964721
0.36300002 26373.54577541  1871.99436781
0.36400002 25941.31879487  1846.37345268
0.36500002 25518.54794208  1541.06518322
0.36600002 25105.81889783  1934.90555411
0.36700002 24701.87817800  1499.89811402
0.36800002 24308.70797529  1614.58446020
0.36900002 23923.61661564  2124.41725610
0.37000002 23547.27443939  1441.44647309
0.37100002 23179.87890913  1681.46849572
0.37200002 22822.14344948  1404.58888513
0.37300002 22472.44045422  1260.70396920
0.37400002 22131.36705990  1493.86734731
0.37500002 21799.20785535  1352.42291941
0.37600002 21475.34646616  1821.64635029
0.37700002 21159.28688706  1559.65111033
0.37800002 20851.33321072  1778.09752378
0.37900002 20551.91696836  1288.60525496
0.38000002 20260.22311249  1273.65898630
0.38100002 19975.35129348  1602.42275667
0.38200002 19699.17653631  1471.23306931
0.38300002 19429.69172155  1790.64047389
0.38400002 19168.65418103  1771.18373024
0.38500002 18913.44674433  1423.61520389
0.38600002 18666.79182842  1083.60731698
0.38700002 18426.31573559  1072.41162662
0.38800002 18192.99082029  1273.87327759
0.38900002 17965.93897087  1366.30972346
0.39000002 17746.77157617  1144.93302248
0.39100002 17532.98509250  1443.31540119
0.39200002 17326.29783928  1736.35502023
0.39300002 17125.63971308  1113.33789049
0.39400002 16932.43196840  1103.57130582
0.39500002 16744.18212496  1392.44625148
0.39600002 16562.09731355  1183.52753010
0.39700002 16385.82077813  1271.70361084
0.39800002 16215.51114776  1164.59806581
0.39900002 16050.75640425  1829.78631678
0.40000002 15891.42621313  1147.04319841
0.40100002 15737.90819871  948.99590934
0.40200002 15589.94904421  1036.65371081
0.40300002 15446.50702454  1029.66420704
0.40400002 15308.73688561  930.00580986
0.40500002 15176.06439639  1109.06683864
0.40600002 15048.27040024  1286.17573205
0.40700002 14925.20190360  1187.44911971
0.40800002 14807.15822072  1816.83839977
0.40900002 14693.42307035  1174.73923014
0.41000002 14584.66608186  1258.80258917
0.41100002 14480.05125953  1073.84065229
0.41200002 14379.53963109  1068.97502683
0.41300002 14284.00977544  1064.44445890
0.41400002 14192.05703323  971.80115140
0.41500002 14104.54780116  1056.14858939
0.41600002 14020.30667946  964.66724679
0.41700002 13940.41792112  961.47066958
0.41800002 13865.15507118  1132.85254877
0.41900002 13791.75059035  1216.43245971
0.42000002 13723.23638544  866.62241881
0.42100002 13658.33267563  1037.48699920
0.42200002 13596.98618361  949.00169565
0.42300002 13538.35362710  1205.45506408
0.42400002 13482.96254245  1375.26224450
0.42500002 13431.20864464  858.25427306
0.42600002 13381.66131238  942.80499244
0.42700002 13336.43255339  941.81891155
0.42800002 13293.12843549  940.95414090
0.42900002 13253.88899587  1196.82623304
0.43000002 13216.81814109  854.46733331
0.43100002 13181.58817000  854.16695389
0.43200002 13150.10902713  1024.91954614
0.43300002 13120.89630719  939.58742908
0.43400002 13094.26744962  854.40099158
0.43500002 13069.83599317  940.24404591
0.43600002 13048.10080190  1111.89396253
0.43700002 13028.13031960  1283.92230384
0.43800002 13010.28981834  856.72762514
0.43900002 12995.35654250  1029.23228694
0.44000002 12981.89555225  1030.50291777
0.44100002 12970.86731475  859.96854372
0.44200002 12961.58086832  1033.55650742
0.44300002 12954.25892500  1380.40589647
0.44400002 12949.15765919  1123.66320913
0.44500002 12944.53116206  1039.18701094
0.44600002 12942.04015190  954.54021664
0.44700002 12942.27386865  956.69292971
0.44800002 12942.44928522  871.67400067
0.44900002 12945.83638112  1048.61279657
0.45000002 12950.07132123  1138.89407632
0.45100002 12955.36759826  1317.56094719
0.45200002 12962.29464577  968.86675922
0.45300002 12970.25097876  971.60154687
0.45400002 12979.83021504  885.87345416
0.45500002 12990.60721021  977.41333282
0.45600002 13002.37382487  1069.57532152
0.45700002 13015.31802363  1162.39810778
0.45800002 13028.91183963  1076.44874721
0.45900002 13043.73494287  1710.03373206
0.46000002 13060.21980387  903.11424224
0.46100002 13076.40420425  1268.67279603
0.46200002 13094.50685049  1091.29625264
0.46300002 13113.27546589  1095.22081882
0.46400002 13132.08462421  1282.34812433
0.46500002 13152.28376153  1195.14808205
0.46600002 13172.99091213  1015.04486284
0.46700002 13194.03234877  926.22111478
0.46800002 13216.62945595  929.78992629
0.46900002 13238.77320491  1400.00033277
0.47000002 13261.80896513  936.94684779
0.47100002 13285.44272940  1034.67032881
0.47200002 13309.73656972  1038.75843982
0.47300002 13334.44899365  1137.69524206
0.47400002 13358.94893317  1047.00767226
0.47500002 13384.17334783  1433.44503349
0.47600002 13410.31634076  1055.45899763
0.47700002 13435.79992636  1252.35097049
