# SAXS profile: number of points = 501, q_min = 0, q_max = 0.5, delta_q = 0.001
#    q    intensity    error
0.00000000 1664650.74656090 349.57665678
0.00100000 1664564.52583180 749.05405441
0.00200000 1664305.84456076 748.93765377
0.00300000 1663874.89747847 1098.15747146
0.00400000 1663271.58388300 1496.94448238
0.00500000 1662496.54997371 1496.24695420
0.00600000 1661549.62504244 2268.01533052
0.00700000 1660431.55481876 2391.02153831
0.00800000 1659142.13607772 2911.79457175
0.00900000 1657682.76916134 2983.82911204
0.01000000 1656052.80946355 3278.98470432
0.01100000 1654253.84613571 4168.71987377
0.01200000 1652285.87299860 4188.54487169
0.01300000 1650150.05089404 3811.84678569
0.01400000 1647846.74254528 4449.18640211
0.01500000 1645377.23535536 4343.79609476
0.01600000 1642741.45680138 5026.78908253
0.01700000 1639941.42814581 5313.41046555
0.01800000 1636977.75741269 5131.92550041
0.01900000 1633851.31402523 8822.79749384
0.02000000 1630562.94239599 5649.90085098
0.02100000 1627115.26159635 6980.32478873
0.02200000 1623507.05419595 6161.20955059
0.02300000 1619741.26846092 6997.28259826
0.02400000 1615818.61302251 6059.32007512
0.02500000 1611741.39795003 6914.37091299
0.02600000 1607510.03493397 7161.45753318
0.02700000 1603126.49110701 9426.38419945
0.02800000 1598591.00877317 9040.03256918
0.02900000 1593907.29604794 10041.61642615
0.03000000 1589075.74460146 11822.72408327
0.03100000 1584097.92722967 10645.13856080
0.03200000 1578975.12948925 10160.70542625
0.03300000 1573711.50227949 9631.11483795
0.03400000 1568305.61283437 9056.96533201
0.03500000 1562761.31846665 10970.58496224
0.03600000 1557079.34329093 10370.14890556
0.03700000 1551262.87223403 14147.51804906
0.03800000 1545313.04958597 9944.08993429
0.03900000 1539232.74970163 11082.47631108
0.04000000 1533021.75442496 10370.89264926
0.04100000 1526684.43152281 10579.92360101
0.04200000 1520222.21108740 12747.06383134
0.04300000 1513636.76789975 12987.00407141
0.04400000 1506931.02444899 10171.78488743
0.04500000 1500107.31586988 10350.74096045
0.04600000 1493166.12943778 14737.55038265
0.04700000 1486111.55351496 14980.00515612
0.04800000 1478945.21794955 14131.32221501
0.04900000 1471669.79462993 12141.27637084
0.05000000 1464286.91829123 16802.69316983
0.05100000 1456800.62823140 11363.04542954
0.05200000 1449209.98553974 16129.70789072
0.05300000 1441520.68279679 11676.31807498
0.05400000 1433733.15993163 14193.95894524
0.05500000 1425851.65187028 16768.01620821
0.05600000 1417876.46838791 13335.12880746
0.05700000 1409812.88659539 22077.67083464
0.05800000 1401660.15544081 17366.57013680
0.05900000 1393421.99967275 17557.11801590
0.06000000 1385102.49928642 16475.79499874
0.06100000 1376702.74081475 15364.00330547
0.06200000 1368225.73128193 15515.68051799
0.06300000 1359674.41616906 18274.02500772
0.06400000 1351048.54249712 14489.99629593
0.06500000 1342354.36630413 14618.23973286
0.06600000 1333592.99648460 13402.61024176
0.06700000 1324765.66596045 21620.17668028
0.06800000 1315876.91067249 13619.32666297
0.06900000 1306929.77887234 21956.42131303
0.07000000 1297924.23922284 17969.76193354
0.07100000 1288864.33245374 15311.70898672
0.07200000 1279752.39844564 14013.28941946
0.07300000 1270591.54641677 14103.56682606
0.07400000 1261384.89626851 15609.63882286
0.07500000 1252132.73484197 17129.17661553
0.07600000 1242838.57711585 21532.17935797
0.07700000 1233506.22093395 14432.02346162
0.07800000 1224136.78296921 20308.43018185
0.07900000 1214732.18416571 24780.53771928
0.08000000 1205297.75607329 19037.67895026
0.08100000 1195833.95092278 14708.75828646
0.08200000 1186342.24069818 16246.95774875
0.08300000 1176826.25778469 22242.01731599
0.08400000 1167289.06920250 17859.52359710
0.08500000 1157732.20079983 16428.22070057
0.08600000 1148158.47395111 17980.16254627
0.08700000 1138569.94567151 15029.12398860
0.08800000 1128968.32219615 24114.76449463
0.08900000 1119357.09805187 19644.71799352
0.09000000 1109738.35490442 27266.27266085
0.09100000 1100113.94827594 16699.73051940
0.09200000 1090485.61412477 18254.73003818
0.09300000 1080857.87371131 15240.09673549
0.09400000 1071229.52479284 18318.02573486
0.09500000 1061604.29524850 19873.23334115
0.09600000 1051984.21732816 16837.00818981
0.09700000 1042374.14055478 18387.48070383
0.09800000 1032772.48525099 16870.33933978
0.09900000 1023183.57471850 19952.08064521
0.10000000 1013606.72784165 16891.75691385
0.10100000 1004045.93795647 19970.47464520
0.10200000 994503.03109187 19974.59431901
0.10300000 984979.46747237 16902.24845692
0.10400000 975477.64550601 21509.28309531
0.10500000 966000.84786395 23039.12130553
0.10600001 956545.67098684 21493.58223842
0.10700001 947120.08531268 19946.34993531
0.10800001 937721.35231525 16864.91931508
0.10900001 928354.12578492 21444.98131495
0.11000001 919019.11859501 19892.16975830
0.11100001 909716.78087931 19868.21542967
0.11200001 900450.66369807 16788.90341502
0.11300001 891220.62686040 19811.83546786
0.11400001 882029.11793115 19779.50390091
0.11500001 872877.86060623 18225.69058767
0.11600001 863768.15774172 19706.87144690
0.11700001 854701.12046514 16641.03159916
0.11800001 845677.44632804 19623.94606630
0.11900001 836698.64720925 21084.80690280
0.12000001 827766.27055262 18028.75022188
0.12100001 818883.20933641 23976.90149888
0.12200001 810048.68970115 17934.47883490
0.12300001 801265.08914877 16393.88449637
0.12400001 792532.20902573 19317.97350522
0.12500001 783851.23722812 14814.78908169
0.12600001 775225.52772236 20675.26579865
0.12700001 766653.56424865 19135.67386544
0.12800001 758137.05568429 16136.94799076
0.12900001 749677.56558154 14618.71321785
0.13000001 741275.32746761 17479.27304557
0.13100001 732930.67315993 20316.83921768
0.13200001 724645.21759342 15902.34004973
0.13300001 716420.56169511 14400.05396893
0.13400001 708255.77290962 17210.61609311
0.13500001 700152.95289636 21424.68136876
0.13600001 692111.35076468 18489.75560748
0.13700001 684133.36366733 16993.87355481
0.13800001 676217.32919276 15509.04517638
0.13900001 668366.05875992 16842.82547503
0.14000001 660579.00320310 19559.74520729
0.14100001 652856.57452082 23639.93767833
0.14200001 645199.20507954 17991.38068221
0.14300001 637608.67328052 19281.28718945
0.14400001 630081.78987218 16445.13549138
0.14500001 622623.26017818 17726.08505345
0.14600001 615230.92337889 14922.42675051
0.14700001 607907.34904451 13495.54378546
0.14800001 600648.02605895 14766.93241734
0.14900001 593457.77719461 14688.08067856
0.15000001 586334.53264678 15936.57334927
0.15100001 579279.64612664 14528.33421038
0.15200001 572292.85586103 13134.12166177
0.15300001 565375.30358495 14366.18714202
0.15400001 558523.25126116 16881.36606602
0.15500001 551741.38268157 15492.89875685
0.15600001 545025.05235381 15402.40870643
0.15700001 538380.48223566 14035.57983432
0.15800001 531800.23253679 20293.49783143
0.15900001 525290.67032931 15128.37201955
0.16000001 518846.28830315 15036.16614477
0.16100001 512472.82576850 13698.39927941
0.16200001 506165.58210239 14850.89887994
0.16300001 499925.81057086 13527.99307267
0.16400001 493753.55728008 15886.52145548
0.16500001 487647.83356731 15785.16111781
0.16600001 481609.94548513 14477.19564480
0.16700001 475637.08333210 15581.87158565
0.16800001 469730.07102669 13098.42364904
0.16900001 463891.20914585 15377.99430930
0.17000001 458116.41746642 18801.09866060
0.17100001 452406.75743110 14006.51387147
0.17200001 446762.88344464 12752.84711015
0.17300001 441183.18841174 11514.88176133
0.17400001 435667.75061733 16010.79059131
0.17500001 430216.03207812 12493.47416159
0.17600001 424826.18419633 14662.87644005
0.17700001 419501.15020086 13440.81748725
0.17800001 414237.03299041 14458.94431946
0.17900001 409035.55345589 15461.54465094
0.18000001 403895.40046931 10965.76064071
0.18100001 398817.80917292 13065.27204566
0.18200001 393797.99639397 15133.65771630
0.18300001 388839.23032578 12878.35591675
0.18400001 383939.45337722 15981.48050180
0.18500001 379100.11534631 11634.58308962
0.18600001 374317.60191833 13649.49199880
0.18700001 369592.47359135 17718.26402107
0.18800001 364924.64451150 11380.17557676
0.18900001 360315.41718511 11295.88886246
0.19000001 355758.38464160 15288.71730235
0.19100001 351261.19273580 12139.58739455
0.19200001 346815.57230795 19076.59145619
0.19300001 342426.75376747 12954.00470713
0.19400001 338089.39165700 18789.31882921
0.19500001 333806.48000997 11776.69317126
0.19600001 329575.54062985 11686.74922301
0.19700001 325396.15151263 12563.54600363
0.19800001 321268.52571773 14384.79891882
0.19900001 317191.87764155 15225.21084634
0.20000001 313163.93830654 11330.27182341
0.20100001 309186.94771118 11242.03795010
0.20200001 305257.12240180 9295.07981645
0.20300001 301377.19581500 12910.99967895
0.20400001 297544.12823336 11894.32708832
0.20500001 293757.56445138 10892.53100471
0.20600001 290017.53223853 9905.54928182
0.20700001 286323.74999514 9826.63156433
0.20800001 282673.74226312 8861.82223885
0.20900001 279070.81680184 14065.16983169
0.21000001 275509.74550810 11335.84901480
0.21100001 271992.61385557 11244.17518834
0.21200001 268517.86239375 8579.14610905
0.21300001 265084.59048295 10211.05890814
0.21400001 261693.86059287 10127.55288374
0.21500001 258344.74713971 10881.48126397
0.21600001 255034.90950822 9131.52536667
0.21700001 251765.25316077 9055.99658436
0.21800001 248535.02264128 9797.25105574
0.21900001 245342.45870604 8905.93167212
0.22000001 242187.80728403 9634.23142929
0.22100001 239072.36756144 10349.44328109
0.22200001 235993.74786915 8683.39036343
0.22300001 232950.32664568 8609.84447994
0.22400001 229942.43325264 8536.61323817
0.22500001 226972.46298238 9233.24023074
0.22600001 224034.91086552 8391.22798327
0.22700001 221134.02365729 8319.06236339
0.22800001 218265.72238360 7497.42791843
0.22900001 215430.03592706 8918.80390916
0.23000001 212628.49356097 10314.60871044
0.23100001 209859.93694166 7303.12615095
0.23200001 207121.68298825 8686.68379535
0.23300001 204415.56662128 11479.97876439
0.23400001 201741.14167347 7822.51313836
0.23500001 199095.50266453 10571.97169150
0.23600001 196481.65976634 7683.41566857
0.23700001 193896.75879657 7614.32607808
0.23800001 191341.46883630 7545.55118045
0.23900001 188814.61086566 10195.98946901
0.24000001 186316.02858636 6735.32475198
0.24100001 183846.77137022 9343.09336297
0.24200001 181404.41693755 9918.28696522
0.24300001 178989.55246887 6551.01793024
0.24400001 176601.13534600 6490.09203097
0.24500001 174239.34969321 7715.31876938
0.24600001 171903.93568943 10190.46578973
0.24700001 169594.52355005 8201.59154686
0.24800001 167310.51473911 8123.76242747
0.24900001 165050.75838371 7427.28447863
0.25000001 162816.99493427 6743.06616421
0.25100001 160606.47948343 8499.29529636
0.25200001 158421.78653499 6613.31779178
0.25300001 156260.71208585 8334.94677699
0.25400001 154122.72737931 7663.75298152
0.25500001 152007.80585113 6420.81002293
0.25600001 149916.53556543 6935.13926338
0.25700001 147847.25496996 5721.68903805
0.25800001 145801.11852408 6230.81109493
0.25900001 143777.22646005 7850.23693615
0.26000001 141775.27969410 6660.60295518
0.26100001 139794.28484495 9889.04817784
0.26200001 137835.87907415 8156.43853015
0.26300001 135897.76969213 10763.10386890
0.26400001 133981.05999213 5858.32212536
0.26500001 132085.70432796 5270.21985207
0.26600001 130209.84254990 7300.86621725
0.26700001 128355.50132530 5159.89139744
0.26800001 126521.67789415 5105.14994461
0.26900001 124706.37052218 7070.85154321
0.27000001 122912.04333093 5496.01227763
0.27100001 121136.64684870 5930.85051038
0.27200001 119382.26226189 5866.44464517
0.27300001 117646.22226592 8703.46793512
0.27400001 115927.36164422 5738.40467296
0.27500001 114230.41811524 7566.62325405
0.27600001 112549.89914771 5611.73823709
0.27700001 110889.70630422 6011.33126325
0.27800001 109246.91522025 5943.57870385
0.27900001 107623.62069368 5876.24996798
0.28000001 106017.12802602 5809.20880513
0.28100001 104429.53728819 4417.36963636
0.28200001 102860.38017215 8296.20435544
0.28300001 101308.41490536 4315.73867923
0.28400001 99773.94560534  4265.33637651
0.28500001 98257.54367791  5058.29858795
0.28600001 96758.34838604  4998.53651421
0.28700001 95276.38693879  4115.94011057
0.28800001 93810.88102717  5286.71245052
0.28900001 92364.47559800  6428.56780591
0.29000001 90933.26566698  3969.23723424
0.29100001 89519.95767399  4313.07176489
0.29200001 88123.26329149  4647.62112599
0.29300001 86743.20785359  4590.45077691
0.29400001 85379.02876344  4155.82442178
0.29500001 84032.60173386  4850.36200168
0.29600001 82701.78776182  4052.80130112
0.29700001 81387.26735252  4001.81212516
0.29800001 80088.80040878  3951.18115521
0.29900001 78807.20653846  4255.58935453
0.30000001 77540.72014979  3851.06004855
0.30100001 76291.37664703  4147.19943086
0.30200001 75056.10300324  4775.82006019
0.30300001 73838.08771388  5050.52543873
0.30400001 72635.62474102  3323.07998922
0.30500001 71448.39698898  3935.37789246
0.30600001 70275.78814551  3559.82021704
0.30700001 69119.88858077  3193.33900361
0.30800001 67978.75001986  3780.97825511
0.30900001 66853.05412306  3419.53388029
0.31000001 65742.72314119  4293.65745163
0.31100001 64646.53786815  3328.00392702
0.31200001 63566.14991164  3581.31705558
0.31300001 62500.01364525  3826.87601669
0.31400001 61449.89772925  4064.91092725
0.31500001 60413.45121703  3149.95749560
0.31600002 59392.10843506  3671.32335674
0.31700002 58385.24881619  3341.97180047
0.31800002 57392.89358877  3020.87509708
0.31900002 56415.14590617  3249.51255806
0.32000002 55451.86574291  2670.00746194
0.32100002 54502.15813789  3948.68154406
0.32200002 53567.80624189  3373.96843590
0.32300002 52645.87332510  3837.88434713
0.32400002 51738.59997919  3026.70824210
0.32500002 50845.10555123  3232.22351294
0.32600002 49965.89149501  2450.82709388
0.32700002 49099.70961440  2657.27641016
0.32800002 48248.02658911  2619.14424741
0.32900002 47409.05915726  3050.77310123
0.33000002 46584.55299726  3006.80011559
0.33100002 45770.87370530  2735.26754216
0.33200002 44973.49500740  2471.06880020
0.33300002 44187.86629273  3099.33708854
0.33400002 43415.73975800  2617.96923138
0.33500002 42655.60607941  3009.77970749
0.33600002 41909.34112759  2542.22075319
0.33700002 41174.87215526  2087.56611713
0.33800002 40454.11309612  2468.51009803
0.33900002 39744.85707613  2432.38536825
0.34000002 39048.70557711  3395.48035426
0.34100002 38364.42505955  2755.33313827
0.34200002 37693.20407618  2133.24698572
0.34300002 37032.97447454  2866.35236008
0.34400002 36386.08082240  2447.87370326
0.34500002 35750.35544426  3154.25401023
0.34600002 35127.31130366  2376.88963193
0.34700002 34514.40850371  2342.14787199
0.34800002 33914.55739190  2308.05531262
0.34900002 33325.55750452  2799.34696296
0.35000002 32748.05052223  1896.60343582
0.35100002 32182.47338241  1869.15814258
0.35200002 31626.60135230  2511.94293138
0.35300002 31082.43482174  1815.52510393
0.35400002 30549.48716492  1789.43629544
0.35500002 30027.42656697  1603.46465462
0.35600002 29515.11458627  1896.64135315
0.35700002 29013.97317307  1869.66051983
0.35800002 28523.76949864  2150.40708436
0.35900002 28043.69087532  1665.79531689
0.36000002 27574.07555280  1941.07714048
0.36100002 27113.90221668  1913.97044813
0.36200002 26664.88952740  1597.09363389
0.36300002 26224.61157815  2004.60940399
0.36400002 25794.30070912  2965.69986451
0.36500002 25373.54278063  1393.00756464
0.36600002 24962.63774131  1511.61260003
0.36700002 24560.58204692  1355.74419321
0.36800002 24169.33150677  2006.65884340
0.36900002 23786.17704865  1320.13288873
0.37000002 23411.76766114  1433.15142526
0.37100002 23046.22996112  1414.57766202
0.37200002 22690.33221209  1777.33380637
0.37300002 22342.56601822  1378.75981430
0.37400002 22003.40534860  1608.99909234
0.37500002 21673.13373554  1222.36480059
0.37600002 21351.26439655  1569.63827647
0.37700002 21037.07413854  1431.36259219
0.37800002 20730.96649032  1296.41105089
0.37900002 20433.42983104  1397.64666665
0.38000002 20143.70633910  1381.45544618
0.38100002 19860.73938362  1820.83267295
0.38200002 19586.40261873  1237.76277213
0.38300002 19318.85350211  1446.59581877
0.38400002 19059.64132239  1210.76377236
0.38500002 18806.39070606  1306.66808816
0.38600002 18561.55847658  1292.99822473
0.38700002 18322.99209023  1279.67782821
0.38800002 18091.59940035  1161.20936252
0.38900002 17866.37235874  1463.25596550
0.39000002 17649.06105468  1138.62922789
0.39100002 17437.26121472  1127.84210880
0.39200002 17232.41928190  1422.19163071
0.39300002 17033.65079825  1711.37097678
0.39400002 16842.24702277  1097.69350171
0.39500002 16655.87073250  1088.29464522
0.39600002 16475.69359963  1667.91692058
0.39700002 16301.27107895  1167.82311543
0.39800002 16132.87818365  1448.32920756
0.39900002 15969.95761581  1054.01725258
0.40000002 15812.46093045  1236.45544104
0.40100002 15660.80862132  1699.82424829
0.40200002 15514.68252530  1406.79390463
0.40300002 15373.05171822  1397.41046740
0.40400002 15237.12218629  1110.78626001
0.40500002 15106.34733849  1011.97425615
0.40600002 14980.35078944  1097.46055083
0.40700002 14859.14569117  1000.31773533
0.40800002 14742.87777269  1085.37071305
0.40900002 14630.96365582  1439.68689195
0.41000002 14524.08558107  984.95091035
0.41100002 14421.26549997  1336.85137519
0.41200002 14322.59177250  1153.46998305
0.41300002 14228.94504613  1325.42629385
0.41400002 14138.72730779  1232.19014326
0.41500002 14052.99900896  964.59789768
0.41600002 13970.59952959  1048.63325038
0.41700002 13892.48437835  871.05881180
0.41800002 13819.06400889  1129.08667835
0.41900002 13747.40892529  952.69548367
0.42000002 13680.58512905  1123.10768939
0.42100002 13617.59516567  1034.39257780
0.42200002 13557.98304887  860.25406521
0.42300002 13501.10701392  1116.27158081
0.42400002 13447.53899444  1371.64904243
0.42500002 13397.51643065  1027.32160858
0.42600002 13349.73861528  1026.06095859
0.42700002 13306.28436138  1195.96889507
0.42800002 13264.75041832  938.94540285
0.42900002 13227.28836865  1109.10818227
0.43000002 13191.94639194  1108.71718705
0.43100002 13158.44643286  937.93410618
0.43200002 13128.68307561  1279.06200925
0.43300002 13101.27732823  938.18251393
0.43400002 13076.31876523  938.55282385
0.43500002 13053.64554458  1365.93353451
0.43600002 13033.64971774  854.35577948
0.43700002 13015.38452815  1026.13296483
0.43800002 12999.25351164  1027.20106117
0.43900002 12986.01684647  1199.90801348
0.44000002 12974.27204252  944.07294991
0.44100002 12964.93407183  945.53268667
0.44200002 12957.30888099  1033.21585913
0.44300002 12951.71190421  1035.10086444
0.44400002 12948.23211538  1123.58289506
0.44500002 12945.27280312  1212.45430820
0.44600002 12944.50134767  1041.51462779
0.44700002 12946.35827318  956.99484891
0.44800002 12948.24670892  1308.09668576
0.44900002 12953.36470945  874.35215933
0.45000002 12959.18169526  876.68868323
0.45100002 12966.13428974  1054.92473581
0.45200002 12974.71872487  969.79539705
0.45300002 12984.29764131  884.23071128
0.45400002 12995.56444246  1241.72624133
0.45500002 13007.95542271  1156.66745101
0.45600002 13021.35723397  892.61408069
0.45700002 13035.92330911  1253.79516329
0.45800002 13051.16912705  1258.00225178
0.45900002 13067.54640245  991.82681895
0.46000002 13085.62986582  904.87134811
0.46100002 13103.46785287  998.87740177
0.46200002 13123.09911771  911.39927692
0.46300002 13143.51576643  1097.74648884
0.46400002 13163.90135062  1193.63681154
0.46500002 13185.69097951  1382.51976473
0.46600002 13207.94279687  1295.30301148
0.46700002 13230.51973985  1207.41728869
0.46800002 13254.69146151  1212.20786507
0.46900002 13278.38551094  1216.96408976
0.47000002 13303.00482527  1127.82880254
0.47100002 13328.19707745  1038.00003759
0.47200002 13353.99322159  1610.69196876
0.47300002 13380.24620244  1236.73621511
0.47400002 13406.27603669  1146.23665547
0.47500002 13433.05456028  1055.03215517
0.47600002 13460.65977515  1252.04332833
0.47700002 13487.69528049  1257.18813668
