# SAXS profile: number of points = 501, q_min = 0, q_max = 0.5, delta_q = 0.001
#    q    intensity    error
0.00000000 1664650.74656090 324.60689558
0.00100000 1664564.66208845 649.18023363
0.00200000 1664306.37951640 823.83168395
0.00300000 1663876.11334974 998.32570357
0.00400000 1663273.74535461 1247.45535642
0.00500000 1662499.90842813 1795.49997217
0.00600000 1661554.47447963 2442.48517692
0.00700000 1660438.14273604 2191.77843950
0.00800000 1659150.72469764 2239.85357291
0.00900000 1657693.66500354 2735.19466418
0.01000000 1656066.25769904 2732.50944319
0.01100000 1654270.10660448 5062.06674661
0.01200000 1652305.16561965 4832.99282133
0.01300000 1650172.69431327 5544.58049744
0.01400000 1647872.95256300 5190.80003069
0.01500000 1645407.37978228 3948.97788732
0.01600000 1642775.68389323 4607.98599931
0.01700000 1639980.02655906 4870.74089738
0.01800000 1637020.97370535 5132.06098350
0.01900000 1633899.46297022 6372.20819311
0.02000000 1630616.18594701 5136.44121808
0.02100000 1627173.91618336 5369.67416686
0.02200000 1623571.33967067 7841.84992688
0.02300000 1619811.45311821 5831.32149666
0.02400000 1615894.87668465 7877.48788303
0.02500000 1611824.08856201 6914.72565573
0.02600000 1607599.32624550 7812.93308290
0.02700000 1603222.66858817 6733.53551647
0.02800000 1598694.25460654 9040.61642440
0.02900000 1594017.87418562 7890.38883950
0.03000000 1589193.84500841 10345.65240655
0.03100000 1584223.77491779 9125.12936340
0.03200000 1579109.04743842 10943.22620277
0.03300000 1573853.72017098 10434.65064578
0.03400000 1568456.27726828 9881.27500272
0.03500000 1562920.63232585 10971.70334558
0.03600000 1557247.52858103 9506.99660134
0.03700000 1551440.12741511 10611.85096229
0.03800000 1545499.61395764 9945.29047608
0.03900000 1539428.91355986 16625.83303639
0.04000000 1533227.59202081 9429.35012787
0.04100000 1526900.22442985 11543.36623192
0.04200000 1520448.06864137 13729.64669679
0.04300000 1513872.86424938 10990.71750462
0.04400000 1507177.60978782 14242.82907396
0.04500000 1500364.74361145 12423.02065434
0.04600000 1493434.36530114 12634.45531778
0.04700000 1486390.85701540 12842.41760189
0.04800000 1479235.82913950 10872.38385005
0.04900000 1471971.65780981 12143.76674219
0.05000000 1464600.44733374 14565.45212699
0.05100000 1457125.87938555 11365.58238866
0.05200000 1449547.08049353 13828.67979234
0.05300000 1441869.81248257 12847.06062812
0.05400000 1434094.57543295 11831.28079906
0.05500000 1426225.24254404 16772.40963474
0.05600000 1418262.71774828 13338.76148286
0.05700000 1410211.73458927 15949.49546270
0.05800000 1402071.78848693 12408.33590748
0.05900000 1393846.56658642 15053.54362222
0.06000000 1385540.06658966 17748.76908221
0.06100000 1377153.37177088 16649.78504278
0.06200000 1368689.65580904 14227.52963718
0.06300000 1360151.88437522 14363.20457056
0.06400000 1351539.37988147 17130.76244115
0.06500000 1342858.84301096 18612.02443476
0.06600000 1334111.24711150 13407.81866080
0.06700000 1325297.69801910 13518.03715242
0.06800000 1316422.79205623 19074.96714978
0.06900000 1307489.68533418 15101.50657265
0.07000000 1298498.13166973 15211.90632486
0.07100000 1289452.52279751 13926.08789848
0.07200000 1280354.78857997 15421.87415091
0.07300000 1271208.45187037 14110.41447691
0.07400000 1262016.08212578 19876.75422499
0.07500000 1252778.38124247 14281.67421558
0.07600000 1243498.65562655 15798.65116039
0.07700000 1234180.85145580 15883.90830301
0.07800000 1224825.94150164 18868.44451369
0.07900000 1215436.20173554 18960.80563641
0.08000000 1206016.43084546 17583.72038660
0.08100000 1196567.29269434 17661.33406881
0.08200000 1187090.60756139 19213.06238496
0.08300000 1177589.21629283 16321.38730381
0.08400000 1168066.93898921 20849.99583963
0.08500000 1158524.96731764 16439.47005799
0.08600000 1148966.15925004 19492.21180687
0.08700000 1139392.40428890 18047.97653143
0.08800000 1129805.72585580 24132.65143764
0.08900000 1120209.30919683 19659.67429981
0.09000000 1110605.46211237 21223.67137796
0.09100000 1100995.93180771 16713.11903004
0.09200000 1091382.60396587 25882.13966917
0.09300000 1081769.69691789 18303.54413197
0.09400000 1072156.13053395 21389.51580941
0.09500000 1062545.78988499 18360.79211222
0.09600000 1052940.60255215 21448.40108223
0.09700000 1043345.09554402 16870.89098809
0.09800000 1033758.40224248 21491.83819312
0.09900000 1024184.09079810 19971.59070968
0.10000000 1014621.96463065 18445.82818444
0.10100000 1005075.76269871 21528.72384954
0.10200000 995547.40899906 16919.32901176
0.10300000 986038.22604055 23073.29557473
0.10400000 976551.11202229 24609.08918070
0.10500000 967088.56305180 18452.05065119
0.10600001 957647.71224144 16907.27115517
0.10700001 948236.40298506 21506.00263172
0.10800001 938851.90680214 15350.22939862
0.10900001 929498.81848441 18404.07747219
0.11000001 920177.88261850 16853.05871342
0.11100001 910889.49011686 18363.53298519
0.11200001 901637.15874045 16811.02561613
0.11300001 892420.89816668 16786.43788483
0.11400001 883243.05784985 19806.72650487
0.11500001 874105.67073193 15209.43938692
0.11600001 865009.22966019 18217.09523451
0.11700001 855955.72265017 19695.54210574
0.11800001 846945.16011484 16629.76900209
0.11900001 837979.70418894 21117.08954021
0.12000001 829060.30287019 25580.65685003
0.12100001 820190.30111211 21013.27650439
0.12200001 811368.65914620 22454.62869974
0.12300001 802597.75422728 16421.15082516
0.12400001 793877.44994634 17862.24346542
0.12500001 785208.96461232 22260.67519569
0.12600001 776595.55937787 16273.56071363
0.12700001 768036.09989348 20644.81133805
0.12800001 759531.72467302 17636.32747809
0.12900001 751083.89836876 19039.97772104
0.13000001 742693.65808499 17512.71728310
0.13100001 734360.51123308 18902.44045016
0.13200001 726086.59459905 20279.59954314
0.13300001 717873.50265773 15872.18389202
0.13400001 709719.89466223 15809.01139893
0.13500001 701628.24005240 20038.50348068
0.13600001 693597.50522429 21380.14410663
0.13700001 685630.21736968 17031.05540253
0.13800001 677724.84185471 15543.61998091
0.13900001 669884.07105329 19694.59261773
0.14000001 662107.55379813 18204.64805022
0.14100001 654395.21231722 15332.48054772
0.14200001 646747.83930439 19421.83853035
0.14300001 639167.04182040 15186.60962997
0.14400001 631650.02124385 17859.90519312
0.14500001 624200.93251738 16404.00128037
0.14600001 616818.01964506 13600.83797478
0.14700001 609503.58407254 17590.27426618
0.14800001 602253.37819407 14806.40000145
0.14900001 595071.73957762 18744.76068109
0.15000001 587957.34153526 15980.68129694
0.15100001 580910.99322002 13244.77127037
0.15200001 573932.47773011 14488.92608399
0.15300001 567023.10241113 19647.35142569
0.15400001 560179.04805611 15628.99617831
0.15500001 553404.83957421 14244.64124289
0.15600001 546696.18264137 18024.57399235
0.15700001 540059.07443949 17919.16093563
0.15800001 533486.02916571 13996.00663576
0.15900001 526983.48197698 12647.60416442
0.16000001 520546.15226071 17599.66623868
0.16100001 514179.48892834 14993.47460491
0.16200001 507878.82591143 17384.69303161
0.16300001 501645.41186727 13574.52548595
0.16400001 495479.29145882 13489.42434680
0.16500001 489379.65696333 17059.77564716
0.16600001 483347.57570289 13318.64307731
0.16700001 477380.34701521 14435.98237533
0.16800001 471478.92702602 16732.78791022
0.16900001 465645.46277780 11873.95986150
0.17000001 459875.68316566 12975.39301321
0.17100001 454170.93506594 14061.13281363
0.17200001 448531.69021537 16295.15707503
0.17300001 442956.67665563 15029.52074869
0.17400001 437445.73725344 14927.83648876
0.17500001 431998.13551513 15966.65184271
0.17600001 426612.39338530 11326.55957932
0.17700001 421291.26391456 15747.86818891
0.17800001 416030.64963816 11170.42347039
0.17900001 410832.72469424 13310.98090882
0.18000001 405695.86622223 18724.89358996
0.18100001 400621.47665470 14218.05687809
0.18200001 395604.58625815 13031.21568691
0.18300001 390648.70221290 12938.28562849
0.18400001 385751.48449385 13915.98546052
0.18500001 380914.69529647 13815.77665109
0.18600001 376134.32535248 12660.68198950
0.18700001 371411.53806904 13615.94762889
0.18800001 366745.58006334 13516.40899183
0.18900001 362138.06026341 12385.12224617
0.19000001 357582.48065231 14342.63397664
0.19100001 353086.87026145 13219.57304721
0.19200001 348642.39826084 15139.79685985
0.19300001 344254.69349399 12021.37446485
0.19400001 339918.35943381 12925.39622825
0.19500001 335636.27626368 13814.78978383
0.19600001 331405.91130249 9793.04514177
0.19700001 327226.91273250 9718.63976743
0.19800001 323099.62844326 14466.78654723
0.19900001 319022.92660861 10527.75707563
0.20000001 314995.06075645 15195.36244904
0.20100001 311017.78177649 9423.83923322
0.20200001 307087.72460804 12156.06815315
0.20300001 303207.07458056 10205.95061276
0.20400001 299373.39009292 12888.02505266
0.20500001 295586.15989632 11873.69660427
0.20600001 291845.17826021 11780.33117731
0.20700001 288150.24040844 14384.46068113
0.20800001 284499.09001766 11594.76096176
0.20900001 280894.86349599 15041.92065126
0.21000001 277332.05166154 11410.82780503
0.21100001 273813.23568948 12190.16582917
0.21200001 270336.77254876 9500.98632038
0.21300001 266901.33041152 11137.79304462
0.21400001 263508.47749471 11047.59344126
0.21500001 260157.16818442 8429.09264768
0.21600001 256844.95451636 10032.36439772
0.21700001 253572.94408535 8291.83566363
0.21800001 250339.93509736 11513.13415948
0.21900001 247144.52609042 11418.07764524
0.22000001 243987.07767341 8896.98920803
0.22100001 240868.45403218 11229.28785794
0.22200001 237786.81128475 11135.55689900
0.22300001 234739.97586317 9464.71627435
0.22400001 231728.86905083 11731.27455043
0.22500001 228755.19161686 11632.20204377
0.22600001 225814.02239534 11533.45173924
0.22700001 222909.37416751 9910.55124415
0.22800001 220037.16145256 11337.41527999
0.22900001 217197.45571307 9741.30634941
0.23000001 214391.90074293 8171.54768326
0.23100001 211619.04659872 9573.64612089
0.23200001 208876.37527347 10220.32152549
0.23300001 206165.76239346 11578.26976360
0.23400001 203486.88846383 8607.49578911
0.23500001 200836.43607621 9953.45424270
0.23600001 198217.88816813 9160.64013496
0.23700001 195628.16817572 9079.10371446
0.23800001 193067.75534554 7613.62729217
0.23900001 190535.83278509 8231.14836565
0.24000001 188032.08477664 11555.51231653
0.24100001 185557.52253397 8082.88606391
0.24200001 183109.75083252 8009.22088027
0.24300001 180689.45071586 7274.55762993
0.24400001 178295.46449464 6552.35863013
0.24500001 175927.93918851 7140.91538946
0.24600001 173586.95557525 7717.67640996
0.24700001 171271.55092396 7008.43219535
0.24800001 168981.73929938 7573.76191369
0.24900001 166715.95058637 6877.03328702
0.25000001 164476.01473905 9288.78337182
0.25100001 162259.08146425 7360.07228342
0.25200001 160068.35088682 6682.05362390
0.25300001 157900.87085495 6617.62581061
0.25400001 155756.46031867 7149.22186686
0.25500001 153635.00865823 10029.29383971
0.25600001 151537.09248488 7010.10623002
0.25700001 149461.11687369 5784.14549668
0.25800001 147408.25693317 6872.17326337
0.25900001 145377.53199908 7370.64122109
0.26000001 143368.63992725 7296.74727435
0.26100001 141380.60528313 7223.13546569
0.26200001 139415.26005953 7149.91195046
0.26300001 137470.02304951 9254.48238959
0.26400001 135546.25875623 7004.35325266
0.26500001 133643.57955655 5865.61698429
0.26600001 131760.39405409 7387.80564420
0.26700001 129898.70035775 7310.69920208
0.26800001 128057.31465918 9300.80320382
0.26900001 126234.63668544 5623.75333046
0.27000001 124432.71715818 5564.00921103
0.27100001 122649.83952448 7005.75916517
0.27200001 120887.75932055 5940.42477413
0.27300001 119143.86185011 8324.58202142
0.27400001 117417.28509956 4843.46323957
0.27500001 115712.51230507 6227.64770698
0.27600001 114023.82126660 5211.45899763
0.27700001 112355.93404835 6559.33974017
0.27800001 110705.12400496 5559.61159065
0.27900001 109073.71770942 7329.75417697
0.28000001 107459.08581073 5435.28081755
0.28100001 105863.30416442 6269.22516933
0.28200001 104285.88851341 5312.32341230
0.28300001 102725.62664501 4376.11190220
0.28400001 101182.94889112 4325.57126983
0.28500001 99658.04775274  5557.92958623
0.28600001 98150.52806816  4647.91847666
0.28700001 96660.05246965  4593.28591077
0.28800001 95186.14212675  4951.58334781
0.28900001 93731.11538714  4892.76445480
0.29000001 92291.31928831  5639.92278867
0.29100001 90869.43840549  4776.09790867
0.29200001 89463.94095505  3931.94039109
0.29300001 88075.28557988  4272.53230572
0.29400001 86702.35385717  4603.89520775
0.29500001 85347.03999805  4547.29050635
0.29600001 84007.37182747  4491.03431049
0.29700001 82684.08297074  4804.77228888
0.29800001 81376.78329408  6204.57313597
0.29900001 80086.23572158  4324.65693369
0.30000001 78810.75513793  4625.79749180
0.30100001 77552.28527242  5269.67803373
0.30200001 76308.03869389  5202.30078424
0.30300001 75080.86454848  3423.68758549
0.30400001 73869.27959886  4731.32758230
0.30500001 72672.99557394  5337.10504762
0.30600001 71491.15801627  3950.60157901
0.30700001 70326.05497646  3898.87667248
0.30800001 69175.71017426  4488.81204572
0.30900001 68040.64299888  3480.27905416
0.31000001 66921.05376558  3746.24076716
0.31100001 65815.52296631  4312.23326892
0.31200001 64725.79807802  3950.53927273
0.31300001 63650.39720282  3597.52062023
0.31400001 62590.91793765  2957.42101258
0.31500001 61544.91834739  4084.12097490
0.31600002 60514.15843777  4603.91739193
0.31700002 59497.74604170  4540.86819290
0.31800002 58495.95920034  3638.74131435
0.31900002 57508.68676365  3864.58393350
0.32000002 56535.90963439  2994.42459557
0.32100002 55576.48478246  3221.21321052
0.32200002 54632.75815824  2646.95725810
0.32300002 53701.00186249  3131.84257692
0.32400002 52784.25948511  2830.55604892
0.32500002 51881.13762014  4820.27672454
0.32600002 50992.27430619  4001.87387705
0.32700002 50116.43114510  3452.01994074
0.32800002 49254.97822537  3159.95327768
0.32900002 48406.30016920  3354.55676058
0.33000002 47572.06342386  3542.92959126
0.33100002 46748.74155489  2793.70492761
0.33200002 45941.53562666  2983.21375719
0.33300002 45146.14569522  2940.36860837
0.33400002 44364.27512085  3121.02690255
0.33500002 43594.27725620  2416.86684554
0.33600002 42838.26216109  2382.02168027
0.33700002 42093.96861583  2560.99717187
0.33800002 41363.46778256  3365.33189816
0.33900002 40644.35373469  2487.43456636
0.34000002 39938.29060366  2859.98112557
0.34100002 39244.19422240  3422.48634022
0.34200002 38563.18673879  1984.07605167
0.34300002 37893.10024925  1955.28406546
0.34400002 37236.43541606  2119.68418645
0.34500002 36590.71340291  2278.86973866
0.34600002 35957.78253579  3368.88480533
0.34700002 35334.99766109  2397.83305485
0.34800002 34725.39289203  1817.87440399
0.34900002 34126.40202246  2687.45428655
0.35000002 33539.15644364  2295.58767151
0.35100002 32963.58506348  1740.47737379
0.35200002 32397.95697850  1887.01909359
0.35300002 31843.88391911  2536.36547429
0.35400002 31301.14483035  1833.46464528
0.35500002 30769.20223187  2300.30566781
0.35600002 30247.07305124  1781.70392247
0.35700002 29736.07548990  2235.55826122
0.35800002 29235.93700993  1574.35528255
0.35900002 28746.03553979  1552.28599267
0.36000002 28266.72579544  1683.70760176
0.36100002 27796.62403656  1660.29243235
0.36200002 27337.90705329  1637.40402052
0.36300002 26887.82640921  1908.49800893
0.36400002 26447.72046176  2027.21786942
0.36500002 26017.08741668  1999.67343357
0.36600002 25596.52608849  1831.81547629
0.36700002 25184.79080395  1946.28072552
0.36800002 24783.77681806  1920.49495660
0.36900002 24390.94766253  1489.06742533
0.37000002 24006.77943328  1603.17280650
0.37100002 23631.71510564  1582.37971843
0.37200002 23266.17034295  1431.91652159
0.37300002 22908.72758833  1413.69764644
0.37400002 22559.99714293  1268.99989940
0.37500002 22220.17954132  1378.54000405
0.37600002 21888.60661588  1237.80076276
0.37700002 21564.97060407  2078.64761500
0.37800002 21249.44874720  1328.83434036
0.37900002 20942.47741203  1671.20977665
0.38000002 20643.23344442  1179.76084724
0.38100002 20350.81914523  1282.71219149
0.38200002 20067.05579413  1498.70813298
0.38300002 19790.22471353  1367.90039700
0.38400002 19521.69481922  2367.49365136
0.38500002 19259.16179931  1449.63717731
0.38600002 19005.14798110  1544.54844960
0.38700002 18757.28029884  1419.17589464
0.38800002 18516.72072615  1080.45070556
0.38900002 18282.40792594  1176.47300577
0.39000002 18056.00189623  1058.98456138
0.39100002 17835.03774343  1153.57029590
0.39200002 17621.22316405  1246.52538568
0.39300002 17413.37580264  1749.52194978
0.39400002 17213.12753611  1427.82899677
0.39500002 17017.89043648  1415.20783575
0.39600002 16828.83315615  1603.45129909
0.39700002 16645.61014322  1391.24016168
0.39800002 16468.43745106  985.63602814
0.39900002 16296.77678259  1173.36798394
0.40000002 16130.70255368  970.26180457
0.40100002 15970.47136979  1059.32141615
0.40200002 15815.75361168  1147.27482135
0.40300002 15665.70767610  1234.14450920
0.40400002 15521.33206136  1131.50516088
0.40500002 15382.05922684  1217.79768669
0.40600002 15247.80855334  1023.96663192
0.40700002 15118.33213670  925.24197060
0.40800002 14993.80485996  1011.85696892
0.40900002 14873.72752696  1189.15457212
0.41000002 14758.76037533  1091.85314430
0.41100002 14647.87684770  1267.33436491
0.41200002 14541.16719528  1171.07295556
0.41300002 14439.63437335  1165.71173820
0.41400002 14341.61832033  982.04236102
0.41500002 14248.09147471  889.08095015
0.41600002 14157.93758341  1239.81065293
0.41700002 14072.20605322  882.32736135
0.41800002 13991.08289518  1231.07544228
0.41900002 13911.99856289  1139.39273629
0.42000002 13837.78518617  873.85617591
0.42100002 13767.26972192  958.61503616
0.42200002 13700.38507102  1130.07631613
0.42300002 13636.22922027  1561.07559511
0.42400002 13575.49651529  1038.52553263
0.42500002 13518.40967691  1122.97434507
0.42600002 13463.58669188  948.57704533
0.42700002 13413.14185473  1377.79799661
0.42800002 13364.79831264  860.02481217
0.42900002 13320.47727630  1031.00499004
0.43000002 13278.41940704  944.29484088
0.43100002 13238.31976262  1029.41179352
0.43200002 13201.97570338  1286.20254385
0.43300002 13168.02526474  942.96233389
0.43400002 13136.71673329  857.17080747
0.43500002 13107.62512256  1457.30583019
0.43600002 13081.40133572  1200.48025747
0.43700002 13056.91434017  1372.54290048
0.43800002 13034.74580987  944.17185748
0.43900002 13015.51745773  1202.63387009
0.44000002 12997.86256807  1117.75124451
0.44100002 12982.68412986  1118.97759818
0.44200002 12969.27962164  947.98953887
0.44300002 12957.99231223  1035.60279467
0.44400002 12949.01528401  950.78149229
0.44500002 12940.54538943  1212.01153861
0.44600002 12934.31706962  1040.69520074
0.44700002 12930.84789288  1042.74362350
0.44800002 12927.50902857  1044.80132920
0.44900002 12927.36043774  1483.41468053
0.45000002 12928.20865280  962.05269249
0.45100002 12930.23785603  1052.00420182
0.45200002 12933.91340001  1318.28918577
0.45300002 12938.66671656  1057.34789419
0.45400002 12945.16334807  971.85818442
0.45500002 12952.95471180  974.58035870
0.45600002 12961.83516828  888.53384290
0.45700002 12971.98721546  1069.41067673
0.45800002 12982.78041860  1072.63736902
0.45900002 12994.93766533  1344.97611211
0.46000002 13008.80098583  989.51449388
0.46100002 13022.53651019  992.70800522
0.46200002 13038.17960387  1086.60193969
0.46300002 13054.66187817  1181.18586272
0.46400002 13071.22072484  911.71768877
0.46500002 13089.30460648  1280.91940950
0.46600002 13107.82349103  1010.02338697
0.46700002 13126.94097769  1105.81356037
0.46800002 13147.61041455  1017.42788015
0.46900002 13167.92091919  928.33846880
0.47000002 13189.25189825  1025.00275985
0.47100002 13211.15933858  1028.88513805
0.47200002 13233.89545226  938.94492684
0.47300002 13257.16033071  1131.10097303
0.47400002 13280.23025773  1230.08138592
0.47500002 13304.13071968  949.91497841
0.47600002 13329.03048176  1049.06139379
0.47700002 13353.35574500  1148.92278276
