# SAXS profile: number of points = 501, q_min = 0, q_max = 0.5, delta_q = 0.001
#    q    intensity    error
0.00000000 1682732.95097188 378.61491397
0.00100000 1682646.37356607 555.27331646
0.00200000 1682386.61594472 832.78140126
0.00300000 1681953.88502503 1110.08960366
0.00400000 1681348.07442388 1261.01110373
0.00500000 1680569.81146260 1815.01546822
0.00600000 1679618.96946209 2469.03998563
0.00700000 1678496.24878756 3021.29337338
0.00800000 1677201.45661382 2943.48868063
0.00900000 1675736.04059370 3016.32500201
0.01000000 1674099.29305785 4419.62232451
0.01100000 1672292.84976914 3311.13998671
0.01200000 1670316.63517728 3582.82933954
0.01300000 1668171.92198221 4904.42566694
0.01400000 1665858.94479091 3748.18279194
0.01500000 1663379.15874298 5189.74320637
0.01600000 1660732.31466661 6775.78814674
0.01700000 1657920.52815472 4924.02418950
0.01800000 1654944.38816588 6603.22840591
0.01900000 1651804.83070578 6442.03913043
0.02000000 1648502.53574585 5712.06154475
0.02100000 1645040.33943293 6514.36003951
0.02200000 1641416.83052533 7361.75481937
0.02300000 1637635.07066752 7664.13247958
0.02400000 1633695.74149305 6126.35930995
0.02500000 1629601.16103903 8262.07826380
0.02600000 1625351.74991903 7240.94237708
0.02700000 1620949.45231810 7488.78681270
0.02800000 1616394.50107689 9140.71132278
0.02900000 1611690.70077650 9428.39103244
0.03000000 1606838.29058888 9713.33791309
0.03100000 1601838.93839290 9226.59270969
0.03200000 1596693.97572025 7903.63554384
0.03300000 1591407.49334516 9739.41430826
0.03400000 1585978.01785872 9991.66197353
0.03500000 1580409.45773799 13654.73834541
0.03600000 1574702.58796719 13109.39965066
0.03700000 1568860.45231512 9836.75549094
0.03800000 1562884.39715009 10971.44897575
0.03900000 1556777.23373322 13076.92936895
0.04000000 1550538.59802168 12396.55666563
0.04100000 1544173.00502369 15565.26461235
0.04200000 1537681.82424978 10909.85304919
0.04300000 1531066.76912273 11115.54525979
0.04400000 1524330.76611164 13376.00309384
0.04500000 1517476.25523876 15705.87997149
0.04600000 1510503.43708067 11713.95469911
0.04700000 1503416.72674137 11907.06102956
0.04800000 1496217.56280223 15396.07943759
0.04900000 1488908.59785823 12283.49650410
0.05000000 1481491.59313673 14733.43457982
0.05100000 1473970.51653863 16095.75879041
0.05200000 1466344.51950090 16320.41526260
0.05300000 1458619.11893819 11814.81541418
0.05400000 1450794.97468626 20347.40046885
0.05500000 1442876.07520957 13332.17555687
0.05600000 1434863.20815159 14721.69720261
0.05700000 1426761.07226816 13654.10409896
0.05800000 1418569.14474589 15065.20502063
0.05900000 1410291.29179570 16500.40888467
0.06000000 1401931.44115594 15393.20794304
0.06100000 1393490.68077811 20735.14229896
0.06200000 1384972.14139983 13087.98734801
0.06300000 1376378.81772215 14534.56099471
0.06400000 1367710.12616111 16002.20922446
0.06500000 1358972.61184558 14799.21243527
0.06600000 1350167.37957629 14926.10107959
0.06700000 1341295.50562779 15049.33627744
0.06800000 1332361.78309350 15168.93961056
0.06900000 1323369.08405243 13895.37603312
0.07000000 1314317.20656821 15397.22679598
0.07100000 1305210.63987605 14096.27557090
0.07200000 1296051.46493635 14191.76420589
0.07300000 1286842.89112704 19997.53946511
0.07400000 1277587.87277940 15810.15066657
0.07500000 1268286.61535159 15904.31490198
0.07600000 1258943.10065707 18903.03154255
0.07700000 1249560.67360546 19005.81873669
0.07800000 1240140.61420685 16165.23366427
0.07900000 1230685.26622778 14768.22388742
0.08000000 1221199.10040484 17805.08371916
0.08100000 1211683.26217783 17884.44578885
0.08200000 1202139.07216083 20953.28501100
0.08300000 1192569.95102794 19534.29671462
0.08400000 1182979.15197515 22624.47734349
0.08500000 1173368.27843439 16650.09665263
0.08600000 1163739.99130219 21261.53063935
0.08700000 1154096.39995989 18280.88783379
0.08800000 1144439.27983755 19861.74463436
0.08900000 1134772.02899965 15319.42311104
0.09000000 1125096.85652781 18429.08737564
0.09100000 1115415.64581740 16932.01029899
0.09200000 1105730.03038134 15424.93464859
0.09300000 1096044.48617139 16999.65077937
0.09400000 1086357.81608915 18576.71952818
0.09500000 1076673.95950708 18604.92689476
0.09600000 1066994.82821061 20182.20812432
0.09700000 1057325.15530860 26422.55687336
0.09800000 1047663.57998888 18669.36587319
0.09900000 1038014.49434746 21798.30540631
0.10000000 1028376.85502954 15579.91008638
0.10100000 1018754.81877010 17145.64440629
0.10200000 1009150.43367977 18709.64992046
0.10300000 999564.78147295 20271.17472184
0.10400000 990000.75305032 17151.76385350
0.10500000 980461.29123550 29619.73700181
0.10600001 970943.14694084 17142.00206583
0.10700001 961454.16403245 18690.66982833
0.10800001 951991.77216638 17121.57282818
0.10900001 942560.35131299 31104.49305728
0.11000001 933160.95647943 20198.26985372
0.11100001 923793.83945629 15519.73723343
0.11200001 914462.56006331 20150.18345961
0.11300001 905167.12110100 17026.19434952
0.11400001 895909.82834893 16999.88979335
0.11500001 886692.77968201 18514.14611155
0.11600001 877516.53986420 15400.41599985
0.11700001 868383.06881674 18444.45725031
0.11800001 859292.31563363 18406.04226777
0.11900001 850246.45162499 16834.88053513
0.12000001 841246.52889184 16795.48774048
0.12100001 832295.85160384 15231.01480185
0.12200001 823393.28956913 15191.60690825
0.12300001 814541.63809519 15150.47518238
0.12400001 805740.19594125 22661.44407860
0.12500001 796990.46910095 18075.74469095
0.12600001 788295.80491713 16518.73937046
0.12700001 779654.94303782 16466.31317296
0.12800001 771069.07431118 28348.35585309
0.12900001 762539.82950048 20817.33832653
0.13000001 754068.00058399 23707.89905583
0.13100001 745653.19426986 20669.50751947
0.13200001 737297.56194942 16179.99575971
0.13300001 729002.73592433 16118.25125115
0.13400001 720767.31310852 24812.41592356
0.13500001 712593.99980770 15990.61010961
0.13600001 704481.49573630 15924.80496199
0.13700001 696432.33931142 20182.61014492
0.13800001 688445.07782290 17224.89665938
0.13900001 680522.82800910 15720.07806834
0.14000001 672664.49169165 17072.22560427
0.14100001 664870.49007619 21242.61315980
0.14200001 657141.47830360 21143.52806166
0.14300001 649479.23435469 16834.50254852
0.14400001 641880.59413250 18149.17465519
0.14500001 634350.21964688 13892.27046559
0.14600001 626885.81686204 15205.11620528
0.14700001 619490.22254783 20629.02538405
0.14800001 612158.85718320 15049.92621388
0.14900001 604896.28346715 19054.23382821
0.15000001 597700.91213161 17599.30418810
0.15100001 590573.75133175 14811.59038228
0.15200001 583514.59232400 21426.65684120
0.15300001 576524.77349783 15981.26747550
0.15400001 569600.26457735 23837.77219749
0.15500001 562745.91719678 17118.73160901
0.15600001 555957.20993561 13092.79291190
0.15700001 549240.19474780 22128.88849080
0.15800001 542587.63805210 16822.93051183
0.15900001 536005.46677810 14150.54499086
0.16000001 529488.81961397 14065.87115699
0.16100001 523042.96235503 12709.94458519
0.16200001 516663.48295062 13895.66502992
0.16300001 510351.34402574 15065.57238685
0.16400001 504106.83630340 12476.64478753
0.16500001 497928.91938158 16117.95988133
0.16600001 491818.95002191 12320.06527972
0.16700001 485774.02171832 17138.10829539
0.16800001 479795.18849704 14595.37032322
0.16900001 473884.33164718 14500.86123311
0.17000001 468037.69714316 14406.20099832
0.17100001 462256.24985607 17889.31771419
0.17200001 456540.56771641 13031.95112087
0.17300001 450889.45084334 17652.32283414
0.17400001 445302.76379843 12858.11791192
0.17500001 439779.63159275 16254.25595132
0.17600001 434318.59179615 16143.62281951
0.17700001 428922.57825222 11452.23338023
0.17800001 423587.47886758 12510.65677926
0.17900001 418315.22801982 11294.51169002
0.18000001 413104.46674691 11215.78680196
0.18100001 407956.41538564 14478.37386594
0.18200001 402866.25341191 14376.28293211
0.18300001 397837.54409813 10980.31673581
0.18400001 392867.60714231 11992.28427454
0.18500001 387958.62971316 11906.45090838
0.18600001 383106.40660329 16119.20281936
0.18700001 378312.08351888 14935.76176296
0.18800001 373574.99723225 12709.02200629
0.18900001 368896.72803553 15770.33586863
0.19000001 364270.69695649 12523.62715309
0.19100001 359705.10193035 11395.45816759
0.19200001 355191.06516140 12339.33818676
0.19300001 350734.06197608 14288.90636009
0.19400001 346328.90671162 11143.13310000
0.19500001 341978.28171388 15081.24293625
0.19600001 337679.91942346 9978.44209051
0.19700001 333433.28231785 13864.15653396
0.19800001 329238.77829493 13758.88919517
0.19900001 325095.33268406 11703.43252973
0.20000001 321001.00757031 11613.81700278
0.20100001 316957.80427202 11524.58630801
0.20200001 312962.20455606 12388.60945288
0.20300001 309016.47749146 11347.08558980
0.20400001 305118.01049696 15950.04475262
0.20500001 301266.53758970 9309.13645154
0.20600001 297461.73410238 12930.66219264
0.20700001 293703.44754297 9163.54799649
0.20800001 289989.20667356 10909.39447075
0.20900001 286322.44880751 9921.07332016
0.21000001 282697.56438160 11631.59183633
0.21100001 279117.23320108 12426.29980955
0.21200001 275579.47340680 8804.76459159
0.21300001 272083.38115946 12227.42772736
0.21400001 268630.26742581 9529.65918746
0.21500001 265219.16734271 14608.27242788
0.21600001 261847.55056537 10227.76580864
0.21700001 258516.55411810 10144.19006321
0.21800001 255225.22767149 11737.80877558
0.21900001 251971.81511910 13304.11246733
0.22000001 248756.74412798 9070.91510352
0.22100001 245581.16620331 10631.20918762
0.22200001 242442.85433555 9731.65663319
0.22300001 239339.99305933 12866.91863529
0.22400001 236273.00365519 10366.47852556
0.22500001 233244.31420798 11069.77567577
0.22600001 230248.50266072 7839.96188634
0.22700001 227289.65575011 9327.96791310
0.22800001 224363.51920069 7706.88724900
0.22900001 221470.50432460 10697.02586475
0.23000001 218612.14518260 8332.40230769
0.23100001 215786.95398258 8260.32498911
0.23200001 212992.36535219 8188.49187323
0.23300001 210230.38793108 8854.90435845
0.23400001 207500.55460316 8045.83438527
0.23500001 204799.55476511 8699.88549789
0.23600001 202131.11834739 12215.79471510
0.23700001 199491.76732586 9258.41335950
0.23800001 196882.34234640 8469.87876836
0.23900001 194301.75432453 9093.32253250
0.24000001 191749.90650066 9011.28728224
0.24100001 189227.68516149 9616.55141478
0.24200001 186732.75401910 8848.33196774
0.24300001 184265.69496484 8092.94970567
0.24400001 181825.54353572 8686.71575333
0.24500001 179412.18207758 9268.43376457
0.24600001 177025.88856903 9182.33327445
0.24700001 174665.66635289 7147.31940527
0.24800001 172331.43405840 7723.89523989
0.24900001 170021.72697044 6375.81506302
0.25000001 167738.37712403 6946.88521724
0.25100001 165478.54325288 6880.59815397
0.25200001 163245.13311186 6814.66840415
0.25300001 161035.55017319 7976.09117743
0.25400001 158849.51808839 6075.99435434
0.25500001 156686.82887869 7220.12941633
0.25600001 154548.23999403 8936.75240048
0.25700001 152432.03461993 8258.76802646
0.25800001 150339.37006741 7008.82176416
0.25900001 148269.30861094 7517.25430225
0.26000001 146221.44414662 10304.22565656
0.26100001 144194.98209989 6233.54937113
0.26200001 142191.53951982 6170.40214943
0.26300001 140208.64450828 5552.26258525
0.26400001 138247.70010215 7143.95024082
0.26500001 136308.30965907 7070.31235658
0.26600001 134388.82220714 6996.95435931
0.26700001 132491.22775528 6923.99189014
0.26800001 130614.47477812 6324.35316803
0.26900001 128756.68543981 8864.89821203
0.27000001 126920.17532882 6707.09698265
0.27100001 125103.10469375 5614.62760436
0.27200001 123307.25211942 6059.31865590
0.27300001 121530.04185384 6493.35044354
0.27400001 119770.51127373 4940.53382385
0.27500001 118033.19621303 5863.88946537
0.27600001 116312.48304296 5799.34067898
0.27700001 114612.78290330 5257.28860058
0.27800001 112930.65619263 5671.37782240
0.27900001 111268.36444424 6075.25298618
0.28000001 109623.15672137 5082.67790194
0.28100001 107997.27911478 5025.11363504
0.28200001 106390.11837028 4967.88681243
0.28300001 104800.52416586 4910.95279485
0.28400001 103228.85952082 4854.33734873
0.28500001 101675.40776704 4361.87519966
0.28600001 100139.57924258 5173.21090853
0.28700001 98621.34767022  4260.44242101
0.28800001 97119.93880646  5473.19441050
0.28900001 95637.83964383  4576.27084357
0.29000001 94171.27746712  5754.80703842
0.29100001 92723.00786713  5279.64831787
0.29200001 91291.47455374  4413.48654621
0.29300001 89877.15482627  4359.94098700
0.29400001 88478.97579051  4306.71435047
0.29500001 87098.66070432  4640.61686200
0.29600001 85734.41739509  4201.41532333
0.29700001 84386.79475705  4903.71687546
0.29800001 83055.47220868  5587.55715735
0.29900001 81741.38893918  4414.03521167
0.30000001 80442.59414042  4721.57828659
0.30100001 79161.21959345  3944.60375908
0.30200001 77894.40296536  4956.42109533
0.30300001 76644.91866985  3495.00845680
0.30400001 75411.33414278  4485.08931047
0.30500001 74193.26554722  3746.01815482
0.30600001 72990.15292273  3697.31637134
0.30700001 71803.96697154  4312.54646048
0.30800001 70632.93308960  3601.22026407
0.30900001 69477.39275862  3553.76880785
0.31000001 68337.69831727  3825.54453292
0.31100001 67212.27406991  3460.08803294
0.31200001 66102.93857872  3103.53311321
0.31300001 65008.25770720  3368.07799128
0.31400001 63929.75569276  3926.88542935
0.31500001 62865.04990507  3277.78385724
0.31600002 61815.81164224  2939.34198276
0.31700002 60781.24459906  3189.19205511
0.31800002 59761.57432578  3431.50976026
0.31900002 58756.63076278  2820.31841015
0.32000002 57766.48513188  3615.89330804
0.32100002 56790.00180128  3017.25293857
0.32200002 55829.34861354  2975.42527525
0.32300002 54880.95954816  2933.93623637
0.32400002 53947.75302041  3418.93900956
0.32500002 53028.49734184  3111.71237136
0.32600002 52123.81911773  2556.67344879
0.32700002 51232.29783842  3528.88084221
0.32800002 50355.39987125  2982.04692158
0.32900002 49491.52787273  2939.79689485
0.33000002 48642.35043851  2656.60209500
0.33100002 47804.30391507  2380.65444771
0.33200002 46982.56798197  3285.49113456
0.33300002 46172.86693522  2544.58681730
0.33400002 45376.95163580  2736.23031321
0.33500002 44593.07105380  2472.23997630
0.33600002 43823.40352976  3544.43704534
0.33700002 43065.56929554  2183.42446668
0.33800002 42321.85363252  2367.27299504
0.33900002 41589.65945251  2757.39455229
0.34000002 40870.75428769  2299.59309890
0.34100002 40163.98669788  2678.53639973
0.34200002 39470.45021108  2233.83023549
0.34300002 38788.00877914  2802.04588691
0.34400002 38119.26537243  2367.20649174
0.34500002 37461.58640029  2138.68206888
0.34600002 36816.88140459  2107.95064465
0.34700002 36182.50283056  2266.47208465
0.34800002 35561.42689229  2047.80486458
0.34900002 34951.18332963  2385.41837523
0.35000002 34352.87442224  2170.41470879
0.35100002 33766.33991540  1961.14911517
0.35200002 33189.95557520  1933.14905404
0.35300002 32625.22962557  2425.35968524
0.35400002 32072.00621297  2049.40129408
0.35500002 31529.78170341  2525.53563406
0.35600002 30997.44634817  2323.87866279
0.35700002 30476.35317235  1963.89629145
0.35800002 29966.37436739  2743.27187140
0.35900002 29466.74238483  2227.68582981
0.36000002 28977.77980374  2510.63496111
0.36100002 28498.17323275  1702.19596782
0.36200002 28030.09919309  1526.23897336
0.36300002 27570.81031932  1806.43957769
0.36400002 27121.62025043  1484.90877905
0.36500002 26681.99907741  1904.29436436
0.36600002 26252.55440228  2167.80478245
0.36700002 25832.02600233  2138.89185431
0.36800002 25422.43090505  1407.13161725
0.36900002 25021.10454791  1944.13991546
0.37000002 24628.55462882  1781.75286902
0.37100002 24245.10223949  1623.45212286
0.37200002 23871.41658236  1602.72698526
0.37300002 23505.87484266  1978.01946171
0.37400002 23149.19875375  1432.35674074
0.37500002 22801.44405557  1929.00225848
0.37600002 22462.17439018  1270.23602194
0.37700002 22130.80890790  1756.74369433
0.37800002 21807.65092987  1239.76501409
0.37900002 21493.21526283  1837.66999203
0.38000002 21186.57986668  1331.89440641
0.38100002 20886.83235511  1316.49710571
0.38200002 20595.86534114  1538.20227587
0.38300002 20311.83136041  1637.94615850
0.38400002 20036.20752148  1504.21835094
0.38500002 19766.67122568  1831.18450910
0.38600002 19505.79533010  1358.77376707
0.38700002 19251.01160659  1232.44982144
0.38800002 19003.72691420  1330.64102157
0.38900002 18762.70610432  1207.38019501
0.39000002 18529.70687501  1086.76735971
0.39100002 18302.17700070  1183.78486449
0.39200002 18081.87722489  1385.70472678
0.39300002 17867.61196827  1478.36628430
0.39400002 17661.01096653  1674.26391895
0.39500002 17459.47526016  1244.51145551
0.39600002 17264.19569022  1130.89119227
0.39700002 17074.81308950  1223.23966769
0.39800002 16891.56629716  1314.24837802
0.39900002 16713.84505956  1103.11382620
0.40000002 16541.73399285  1094.48388149
0.40100002 16375.51747629  1382.42125085
0.40200002 16214.96785666  980.19485338
0.40300002 16059.07924638  1265.13432297
0.40400002 15908.90112080  1063.11236777
0.40500002 15763.97834986  1248.03422509
0.40600002 15623.91146627  1335.37577629
0.40700002 15488.85281315  1327.08497191
0.40800002 15358.76557008  1319.16443732
0.40900002 15233.14371874  1311.57373633
0.41000002 15112.70163138  1118.03771966
0.41100002 14996.35712604  1019.45240573
0.41200002 14884.23330183  922.07829674
0.41300002 14777.30641182  917.67077166
0.41400002 14673.97990290  913.45529224
0.41500002 14575.18863149  1091.39017644
0.41600002 14479.74552159  996.27893782
0.41700002 14388.80811118  1082.61397358
0.41800002 14302.54124722  988.80623598
0.41900002 14218.28482002  1254.05278055
0.42000002 14138.99216278  982.16513713
0.42100002 14063.44283282  1246.30236290
0.42200002 13991.53733080  1065.31570285
0.42300002 13922.36558276  1151.10124093
0.42400002 13856.69123814  883.36410829
0.42500002 13794.62288420  1145.91937729
0.42600002 13734.92077978  1143.63823292
0.42700002 13679.60419152  1317.34594607
0.42800002 13626.42976550  964.54687666
0.42900002 13577.34291573  963.31252552
0.43000002 13530.45081082  1312.11552956
0.43100002 13485.63385475  1048.64293824
0.43200002 13444.54775294  960.54575973
0.43300002 13405.94104535  959.99948375
0.43400002 13369.98479764  959.63070433
0.43500002 13336.29103740  1221.07086525
0.43600002 13305.45386518  872.17254219
0.43700002 13276.41754873  959.48674172
0.43800002 13249.63890432  959.73763952
0.43900002 13225.91049384  1134.78317415
0.44000002 13203.78665499  960.77358148
0.44100002 13184.14065476  1223.75199357
0.44200002 13166.32641274  1137.37316107
0.44300002 13150.59348527  1664.07617849
0.44400002 13137.20037447  1227.67143317
0.44500002 13124.37459781  1053.62484264
0.44600002 13113.79833697  879.28022016
0.44700002 13106.01396896  1056.86901654
0.44800002 13098.35429193  1146.82646438
0.44900002 13093.99816166  1060.61390136
0.45000002 13090.58623754  1151.25166122
0.45100002 13088.37736306  976.13123000
0.45200002 13087.91032904  889.32354901
0.45300002 13088.46733430  891.32466771
0.45400002 13090.79632030  1429.51502593
0.45500002 13094.49182218  1164.36226801
0.45600002 13099.27174908  1167.34165724
0.45700002 13105.36437774  1530.57557822
0.45800002 13112.16362193  1083.32700979
0.45900002 13120.21347600  905.29477275
0.46000002 13130.15025212  1089.53991956
0.46100002 13139.88621487  1365.89123677
0.46200002 13151.57995463  1004.71499825
0.46300002 13164.14763763  916.22471900
0.46400002 13176.83481191  1102.90112603
0.46500002 13191.03161601  1014.25846903
0.46600002 13205.69297577  1017.56472048
0.46700002 13220.92059472  1113.73040369
0.46800002 13237.84066462  931.28213490
0.46900002 13254.37116801  1308.20649629
0.47000002 13271.95340235  1218.96261801
0.47100002 13290.13364954  1035.03565768
0.47200002 13309.15711161  1133.14169019
0.47300002 13328.77066871  1042.44320341
0.47400002 13348.15506474  1521.68974950
0.47500002 13368.46850128  1336.31217473
0.47600002 13389.76119489  958.03745890
0.47700002 13410.50785704  1153.84015071
