# SAXS profile: number of points = 501, q_min = 0, q_max = 0.5, delta_q = 0.001
#    q    intensity    error
0.00000000 1664650.74656090 249.69761198
0.00100000 1664564.64259990 599.24328557
0.00200000 1664306.31037501 823.83164972
0.00300000 1663875.94769984 1297.82328544
0.00400000 1663273.45892248 1372.20065575
0.00500000 1662499.46698874 1496.24957951
0.00600000 1661553.83763927 2268.02108071
0.00700000 1660437.27497659 2191.77729406
0.00800000 1659149.60265589 2687.82246978
0.00900000 1657692.24169354 2486.53846883
0.01000000 1656064.48647875 4645.26108515
0.01100000 1654267.96420571 4168.75545130
0.01200000 1652302.64931301 3544.18933817
0.01300000 1650169.72656437 5198.03486794
0.01400000 1647869.51856075 4449.24789735
0.01500000 1645403.41367839 3948.96836867
0.01600000 1642771.19625753 5026.88008527
0.01700000 1639974.94798197 5756.31232564
0.01800000 1637015.27674214 5598.59249838
0.01900000 1633893.11171929 7352.51933450
0.02000000 1630609.17600970 6163.70296414
0.02100000 1627166.20553539 5369.64872172
0.02200000 1623562.88212342 6721.55063737
0.02300000 1619802.18832361 6414.41695774
0.02400000 1615884.83187038 7271.48207498
0.02500000 1611813.21162813 8800.50053741
0.02600000 1607587.53139420 6510.72979994
0.02700000 1603210.00193644 6733.48231653
0.02800000 1598680.60638933 6954.26095671
0.02900000 1594003.25695703 7890.31648421
0.03000000 1589178.26639809 7389.67927842
0.03100000 1584207.13442358 8364.61405464
0.03200000 1579091.33339653 10161.45319842
0.03300000 1573834.90330955 8829.21421460
0.03400000 1568436.29315230 10704.57819468
0.03500000 1562899.52009218 10127.58935787
0.03600000 1557225.25786628 9506.86063862
0.03700000 1551416.67506317 9727.38300251
0.03800000 1545474.86216054 9945.13119826
0.03900000 1539402.88328188 9236.41772743
0.04000000 1533200.24152027 9429.18192229
0.04100000 1526871.54957696 11543.14945002
0.04200000 1520418.01224711 14710.04495093
0.04300000 1513841.43469957 13987.89550591
0.04400000 1507144.85884261 12207.87392358
0.04500000 1500330.43294758 14493.19265570
0.04600000 1493398.53193074 15792.69020932
0.04700000 1486353.49368911 11771.92021751
0.04800000 1479196.93295753 11959.30775941
0.04900000 1471931.31456923 11039.48537313
0.05000000 1464558.46089242 11203.87274755
0.05100000 1457082.20284440 12501.76588279
0.05200000 1449501.91736960 14980.60301413
0.05300000 1441822.84601628 18686.02495547
0.05400000 1434045.92348921 14197.05530461
0.05500000 1426174.96979833 14375.84436619
0.05600000 1418210.78558557 19401.12445215
0.05700000 1410157.96968117 12268.37490890
0.05800000 1402016.21460100 16130.19730214
0.05900000 1393789.14604798 13798.51319035
0.06000000 1385480.88187126 13944.86572752
0.06100000 1377092.39509724 12806.95987289
0.06200000 1368626.80443003 21986.99064092
0.06300000 1360087.10733055 18279.57157719
0.06400000 1351472.77185561 15812.23217020
0.06500000 1342790.28988628 13293.62449172
0.06600000 1334040.68820939 16088.53145256
0.06700000 1325225.12809944 16220.75632705
0.06800000 1316348.43246149 20436.31037057
0.06900000 1307413.27336791 15100.62401439
0.07000000 1298419.64591341 17976.62083949
0.07100000 1289372.00290754 13925.21828363
0.07200000 1280272.19014734 14018.98113886
0.07300000 1271123.68883151 14109.47360714
0.07400000 1261929.28823882 18455.71670540
0.07500000 1252689.55141062 21420.99233318
0.07600000 1243407.73695012 17233.63204205
0.07700000 1234087.88782033 15882.71186096
0.07800000 1224730.77276206 15964.36637162
0.07900000 1215338.87871559 16042.47395150
0.08000000 1205916.95651955 19047.45922176
0.08100000 1196465.71897029 19131.48774395
0.08200000 1186986.61376882 20689.17764883
0.08300000 1177483.21965453 16319.91819034
0.08400000 1167958.59729452 14891.47281449
0.08500000 1158414.36550147 17932.25521980
0.08600000 1148853.28950389 16491.78974514
0.08700000 1139277.34498393 15038.46165996
0.08800000 1129688.44545841 16589.47560066
0.08900000 1120089.85737875 18145.45654182
0.09000000 1110483.67709937 18189.72348536
0.09100000 1100871.90516636 19749.64290655
0.09200000 1091256.28445025 16745.32847170
0.09300000 1081641.03926200 18301.36724433
0.09400000 1072025.23765255 15276.36035450
0.09500000 1062412.56549097 15298.74166215
0.09600000 1052804.97891169 18381.97579589
0.09700000 1043207.30376631 21469.20732084
0.09800000 1033618.12005782 16884.15278500
0.09900000 1024041.70944053 18432.75163668
0.10000000 1014477.08633528 16906.26143883
0.10100000 1004928.60544211 21525.57174096
0.10200000 995397.89929425 18454.67792096
0.10300000 985886.40378914 18455.79434711
0.10400000 976396.87200914 19991.72689490
0.10500000 966932.17936885 26136.17803803
0.10600001 957489.00421965 18441.23908900
0.10700001 948075.24124117 24574.11140937
0.10800001 938688.53115188 23021.33730992
0.10900001 929333.06772593 19934.19524094
0.11000001 920009.79232918 22977.24564495
0.11100001 910719.09586259 22950.12229608
0.11200001 901464.40141682 27503.68018202
0.11300001 892245.93649260 19834.62810206
0.11400001 883065.65429818 18279.45990465
0.11500001 873925.93992559 16726.94327781
0.11600001 864827.27002524 24284.35088589
0.11700001 855771.34540117 15147.15352695
0.11800001 846758.63342704 21160.49924597
0.11900001 837790.77487084 19604.30505537
0.12000001 828869.15178879 16548.37339497
0.12100001 819996.98091041 18007.13454907
0.12200001 811172.89059408 19455.98269750
0.12300001 802399.80364775 19402.02816632
0.12400001 793677.34494134 16369.59601071
0.12500001 785006.55226745 20771.27435175
0.12600001 776390.86963022 20706.34546879
0.12700001 767829.10273659 23587.71114767
0.12800001 759322.51610344 19100.75879279
0.12900001 750872.51007583 26355.62634586
0.13000001 742480.07742959 16048.70763009
0.13100001 734144.80132499 18896.88807686
0.13200001 725868.72476278 20273.51443832
0.13300001 717653.41080182 21637.25135572
0.13400001 709497.79303782 17240.79718365
0.13500001 701403.89549994 18601.23218567
0.13600001 693371.12349306 22798.04361540
0.13700001 685401.62938953 15606.59583710
0.13800001 677494.18034970 14125.75432640
0.13900001 669651.44392914 15468.94908425
0.14000001 661872.73553615 13998.60901677
0.14100001 654158.35069706 13933.57352700
0.14200001 646508.94139622 20801.42617053
0.14300001 638926.20385846 15180.88731972
0.14400001 631407.18761069 15106.41767615
0.14500001 623956.20408275 19130.49811960
0.14600001 616571.26417607 14954.93671808
0.14700001 609254.81545189 17583.09480345
0.14800001 602002.70356191 21527.61769502
0.14900001 594819.34100057 14721.77938435
0.15000001 587702.85701064 14642.61737330
0.15100001 580654.68256248 17210.60560323
0.15200001 573674.28133589 15798.99045350
0.15300001 566763.04630376 17019.89508365
0.15400001 559917.13975871 14319.88152510
0.15500001 553141.21232873 25887.00995867
0.15600001 546430.92347354 14155.29374064
0.15700001 539791.90463763 15351.68249244
0.15800001 533217.20401050 16532.40019065
0.15900001 526712.96730553 13905.22299320
0.16000001 520273.87436764 15077.53759087
0.16100001 513905.48587625 12487.90389627
0.16200001 507603.16392920 12410.89794394
0.16300001 501368.17132192 14800.38911612
0.16400001 495200.48947309 14707.45523168
0.16500001 489099.24304817 18267.85759030
0.16600001 483065.63283577 13310.87414124
0.16700001 477096.89213114 12022.84224936
0.16800001 471193.95262169 11944.76726295
0.16900001 465358.93537825 13053.31875371
0.17000001 459587.75692765 15324.95447839
0.17100001 453881.60099289 17565.21878788
0.17200001 448241.01858430 13958.22597786
0.17300001 442664.50180592 15019.60725557
0.17400001 437152.15066059 14917.81784580
0.17500001 431703.30116671 15955.75476467
0.17600001 426316.15461441 13582.43332750
0.17700001 420993.65355612 13488.63729701
0.17800001 415732.04571639 14511.12774112
0.17900001 410532.84416292 14409.70351074
0.18000001 405394.78293778 12107.11576432
0.18100001 400319.17048339 13114.45664452
0.18200001 395301.16531701 14106.32275069
0.18300001 390344.08153077 10773.49715918
0.18400001 385445.75868416 12835.34437053
0.18500001 380607.96212620 12742.75517398
0.18600001 375826.47228587 14758.70626392
0.18700001 371102.60405012 15697.64089295
0.18800001 366435.57838479 14543.82879323
0.18900001 361827.26841693 13405.70092823
0.19000001 357270.71289847 15353.70961226
0.19100001 352774.12579596 14223.85342417
0.19200001 348328.91562059 11092.53484207
0.19300001 343940.20013994 13011.25838611
0.19400001 339603.04692479 14900.08438791
0.19500001 335320.09526681 17745.14028007
0.19600001 331089.03241905 12718.78578142
0.19700001 326909.22007945 10680.12472471
0.19800001 322781.23338078 11562.02432611
0.19900001 318703.90754178 14341.67651717
0.20000001 314675.31082303 11384.95328364
0.20100001 310697.45371938 12238.37328042
0.20200001 306766.80457052 10275.15460473
0.20300001 302885.64140667 11121.96127813
0.20400001 299051.36583524 12874.16190771
0.20500001 295263.53720096 10036.00810383
0.20600001 291521.96290439 9956.93311364
0.20700001 287826.70037371 8980.19347615
0.20800001 284174.94538559 10690.66195076
0.20900001 280570.38231336 10605.56095278
0.21000001 277007.18773200 13150.91685925
0.21100001 273487.98817863 9566.61027873
0.21200001 270011.16916473 9489.54298891
0.21300001 266575.47828367 9412.78058319
0.21400001 263182.33648315 10185.15690342
0.21500001 259830.75377403 8418.51682029
0.21600001 256518.25603696 10019.60355452
0.21700001 253246.02015307 9109.25977559
0.21800001 250012.87015900 13140.67707686
0.21900001 246817.38048474 9773.96872932
0.22000001 243659.70828731 11308.24759630
0.22100001 240541.11409880 8010.01947823
0.22200001 237459.24381288 9531.61449735
0.22300001 234412.48862442 10239.13798728
0.22400001 231401.28458303 12495.66995836
0.22500001 228427.72201921 10841.18019968
0.22600001 225486.50455270 10748.94218033
0.22700001 222581.95675252 9134.76393710
0.22800001 219709.83304435 15094.06624395
0.22900001 216870.23119277 12719.43966097
0.23000001 214064.88172796 8159.08335292
0.23100001 211292.20237171 8823.56278833
0.23200001 208549.84081206 8017.69900921
0.23300001 205839.37577767 8669.95491780
0.23400001 203160.65265904 10025.97868291
0.23500001 200510.55068890 9227.49597913
0.23600001 197892.34445505 8442.08781374
0.23700001 195302.91174692 9761.23999080
0.23800001 192742.88293604 6909.83268008
0.23900001 190211.34680327 8901.89145145
0.24000001 187707.93587060 7464.20642295
0.24100001 185233.80052204 8068.78473240
0.24200001 182786.60782019 7995.08660424
0.24300001 180366.66722928 7921.70439943
0.24400001 177973.15114863 10464.82178256
0.24500001 175606.22917114 6479.87016294
0.24600001 173265.60598732 6419.49100551
0.24700001 170950.85044398 6995.30913109
0.24800001 168661.62771690 10709.17055850
0.24900001 166396.51443985 8735.81742136
0.25000001 164157.18385131 6798.57009083
0.25100001 161941.04251265 7345.64603589
0.25200001 159750.86879551 6668.80033337
0.25300001 157584.13169938 7204.74684216
0.25400001 155440.42415535 8323.83510733
0.25500001 153319.67298541 6476.22329331
0.25600001 151222.56512500 6995.55619366
0.25700001 149147.51630428 6926.41098488
0.25800001 147095.33580594 7429.05028638
0.25900001 145065.50134419 6789.06578413
0.26000001 143057.54195670 6720.84363913
0.26100001 141070.33156975 7761.69001022
0.26200001 139105.91136797 9877.91123363
0.26300001 137161.55081653 6517.91720321
0.26400001 135238.67609922 5913.31139225
0.26500001 133336.98903379 9576.26300554
0.26600001 131454.83049019 5264.76621026
0.26700001 129594.04425052 5209.68082539
0.26800001 127753.78890216 5670.35218875
0.26900001 125931.99542427 6120.29526724
0.27000001 124131.22214070 5550.52786068
0.27100001 122349.37531143 4991.85474893
0.27200001 120588.35033409 7900.94908779
0.27300001 118845.64656176 5861.46756581
0.27400001 117120.15656948 7246.81003069
0.27500001 115416.56955245 5733.89544672
0.27600001 113729.12929116 8505.80198223
0.27700001 112062.34877538 5607.60019811
0.27800001 110412.68819614 5544.92546364
0.27900001 108782.51864749 5939.52579926
0.28000001 107169.14005244 4968.89741370
0.28100001 105574.66299884 6252.13183870
0.28200001 103998.49070022 5297.68336701
0.28300001 102439.53068019 4800.31663487
0.28400001 100898.07318913 5176.07139959
0.28500001 99374.59000957  5968.43815847
0.28600001 97868.31929489  4634.55447957
0.28700001 96379.17967389  4996.29691078
0.28800001 94906.58570611  4525.62075361
0.28900001 93453.05254773  4471.72877607
0.29000001 92014.59507077  4819.72471794
0.29100001 90594.07260204  6348.83290847
0.29200001 89190.03940899  3919.90241758
0.29300001 87802.83200657  4646.52608974
0.29400001 86431.31217866  4207.04431944
0.29500001 85077.46672595  4910.67161188
0.29600001 83739.26231000  6341.99333126
0.29700001 82417.40206286  4420.86965593
0.29800001 81111.59658102  3637.85527887
0.29900001 79822.56047038  3592.01539121
0.30000001 78548.51889398  4255.75895514
0.30100001 77291.68555264  4201.57622554
0.30200001 76048.88782268  5184.63317276
0.30300001 74823.32462355  4094.33251723
0.30400001 73613.30350525  4378.15143324
0.30500001 72418.52096981  4653.61437783
0.30600001 71238.27055562  3936.62701727
0.30700001 70074.79669829  3561.20133681
0.30800001 68926.00601478  4153.13668905
0.30900001 67792.61480889  4728.53510679
0.31000001 66674.65571590  5909.70838917
0.31100001 65570.78879380  3375.58436692
0.31200001 64482.66691094  4238.44589673
0.31300001 63408.91046051  4778.49571855
0.31400001 62351.00134810  3535.30194382
0.31500001 61306.67646464  3196.53026221
0.31600002 60277.62945667  3439.44169965
0.31700002 59262.99475593  3392.21398044
0.31800002 58262.87026462  2787.87847416
0.31900002 57277.33935620  3299.17490313
0.32000002 56306.12716742  3524.48219693
0.32100002 55348.50818558  3207.99968633
0.32200002 54406.46960723  2635.99357729
0.32300002 53476.50368547  2858.85402239
0.32400002 52561.38692549  3074.84128074
0.32500002 51660.06150038  3536.64797778
0.32600002 50772.89619820  2988.49281174
0.32700002 49898.78011686  2946.02411760
0.32800002 49039.16823566  3146.10798714
0.32900002 48192.26463634  2624.06893371
0.33000002 47359.74018072  3527.11681698
0.33100002 46538.17060994  2549.36110674
0.33200002 45732.75998201  2969.65691006
0.33300002 44939.23283044  2701.74680571
0.33400002 44159.07451243  2662.79231920
0.33500002 43390.94778314  2405.59425902
0.33600002 42636.66277070  2370.81174564
0.33700002 41894.20308571  2761.24705614
0.33800002 41165.49253996  2093.26539479
0.33900002 40448.20160914  2475.43005571
0.34000002 39744.03544207  2439.48901096
0.34100002 39051.70299364  3806.36967105
0.34200002 38372.45749421  2566.54194105
0.34300002 37704.24290884  2723.75463673
0.34400002 37049.41978899  3067.69210381
0.34500002 36405.57569658  2267.33936176
0.34600002 35774.40312359  2234.46932493
0.34700002 35153.56743345  2202.01956832
0.34800002 34545.66691088  2170.15889812
0.34900002 33948.57820662  2316.99057234
0.35000002 33363.17630306  2107.88557866
0.35100002 32789.44384790  2596.92407575
0.35200002 32225.68485022  1876.98510300
0.35300002 31673.49761599  1850.04908337
0.35400002 31132.51805563  1823.58733148
0.35500002 30602.46298360  1961.00592087
0.35600002 30082.17192900  1771.99042141
0.35700002 29573.07360100  1905.68895311
0.35800002 29074.74578548  2348.51270206
0.35900002 28586.76768942  2161.15973968
0.36000002 28109.27394897  1826.54070772
0.36100002 27641.07606821  1651.00155176
0.36200002 27184.14966256  2072.24782693
0.36300002 26736.01661955  1751.74389189
0.36400002 26297.78251291  2015.72512509
0.36500002 25869.05452213  2272.33785686
0.36600002 25450.27353293  2101.55643653
0.36700002 25040.43006851  1796.90134683
0.36800002 24641.28702616  1636.67436180
0.36900002 24250.34737529  1615.07321170
0.37000002 23868.06904266  1593.90972617
0.37100002 23494.83975098  1442.11333223
0.37200002 23131.08987554  2329.53217172
0.37300002 22775.55642795  1788.79228659
0.37400002 22428.70614441  1261.61478039
0.37500002 22090.70684393  1495.09911002
0.37600002 21761.08900718  1230.58964165
0.37700002 21439.27087451  1215.60671617
0.37800002 21125.57020329  1441.18646754
0.37900002 20820.46646713  1305.44330933
0.38000002 20523.13606566  1524.76646623
0.38100002 20232.59669822  1854.92455317
0.38200002 19950.64029591  1375.39720716
0.38300002 19675.68136411  1359.98316031
0.38400002 19408.96113053  1345.04107007
0.38500002 19148.36541171  1108.69040986
0.38600002 18896.17119306  1316.30734767
0.38700002 18650.12487571  1411.06851495
0.38800002 18411.44957680  1289.16976044
0.38900002 18178.93394928  1276.16122370
0.39000002 17954.37974066  1158.32686385
0.39100002 17735.36716819  1355.69153056
0.39200002 17523.33297108  1446.20073862
0.39300002 17317.36708993  1125.80208785
0.39400002 17118.90455811  1115.72465743
0.39500002 16925.47660163  1005.37335777
0.39600002 16738.28550709  1395.47092884
0.39700002 16556.86976375  1284.97872324
0.39800002 16381.61416826  1372.61551619
0.39900002 16211.78212905  1167.24836859
0.40000002 16047.46958582  965.25534132
0.40100002 15889.07016116  1341.35536656
0.40200002 15736.15648435  1141.50084546
0.40300002 15587.89113655  1039.08887239
0.40400002 15445.32802094  1219.79483825
0.40500002 15307.94585615  1211.93013085
0.40600002 15175.43737623  926.46049572
0.40700002 15047.83273513  920.92740702
0.40800002 14925.03748580  1281.91153039
0.40900002 14806.77691472  1001.67850574
0.41000002 14693.66670873  1268.21043372
0.41100002 14584.54091099  1081.58960521
0.41200002 14479.67282759  1255.82208384
0.41300002 14379.94770897  1339.49219256
0.41400002 14283.64231417  1066.98813143
0.41500002 14191.90261212  1151.24719445
0.41600002 14103.56180355  1058.61339914
0.41700002 14019.55176306  1142.73371835
0.41800002 13940.28794087  1051.37656632
0.41900002 13862.93035371  1135.37404977
0.42000002 13790.41526540  870.86476528
0.42100002 13721.75031587  1042.30420338
0.42200002 13656.57019636  1126.46224602
0.42300002 13594.19839499  951.05016478
0.42400002 13535.22823068  1121.73209277
0.42500002 13479.84374332  1033.63446722
0.42600002 13426.77962282  1031.98233071
0.42700002 13378.09965840  1288.31105815
0.42800002 13331.50339760  1115.24696957
0.42900002 13288.94832691  942.85092847
0.43000002 13248.61133899  942.17504002
0.43100002 13210.24773212  1027.22891233
0.43200002 13175.61223804  1026.90726650
0.43300002 13143.41457512  855.63632939
0.43400002 13113.76262405  941.24035694
0.43500002 13086.42779457  941.43766015
0.43600002 13061.94524975  941.83160687
0.43700002 13039.19264547  1199.34499637
0.43800002 13018.66431692  857.27908590
0.43900002 13001.12714799  1115.49676216
0.44000002 12985.17858976  1202.55744619
0.44100002 12971.69075897  946.02545188
0.44200002 12959.98861699  1119.54866973
0.44300002 12950.39346336  948.74587009
0.44400002 12943.02316196  1036.73620440
0.44500002 12936.18714506  865.43096102
0.44600002 12931.69568882  867.07023703
0.44700002 12929.85117206  1129.55185192
0.44800002 12928.22445864  1044.85915026
0.44900002 12929.79057176  872.76090496
0.45000002 12932.23254584  1137.32524514
0.45100002 12935.90457382  1052.46524600
0.45200002 12941.21035786  967.29081404
0.45300002 12947.63436299  1146.25412448
0.45400002 12955.82626844  884.23518473
0.45500002 12965.21603565  1064.18498264
0.45600002 12975.74641632  978.43620489
0.45700002 12987.47433124  1070.68743461
0.45800002 12999.97092263  1163.56245258
0.45900002 13013.66193229  1167.32553065
0.46000002 13029.15040089  1081.15895151
0.46100002 13044.51947763  994.38376691
0.46200002 13061.72681593  907.13697036
0.46300002 13079.82761650  1001.39164978
0.46400002 13097.97825853  1004.94242952
0.46500002 13117.64561301  1008.61581899
0.46600002 13137.73591227  920.29844427
0.46700002 13158.38993315  1016.09091880
0.46800002 13180.64588522  1298.16187476
0.46900002 13202.52163609  1303.08894724
0.47000002 13225.41771567  934.37580590
0.47100002 13248.86935924  1500.83199215
0.47200002 13273.16570017  941.73115106
0.47300002 13298.00153945  1040.03674970
0.47400002 13322.59596577  1139.08200906
0.47500002 13348.07977674  1048.35823536
0.47600002 13374.40369091  1626.79567005
0.47700002 13400.31942440  1441.20442240
