# SAXS profile: number of points = 501, q_min = 0, q_max = 0.5, delta_q = 0.001
#    q    intensity    error
0.00000000 1646666.22097350 271.69992646
0.00100000 1646580.57433818 592.76902084
0.00200000 1646323.60855687 1037.18390623
0.00300000 1645895.53693023 987.53735734
0.00400000 1645296.23199033 1727.56110923
0.00500000 1644526.33938759 1480.07376403
0.00600000 1643585.71582916 2070.91808626
0.00700000 1642475.08435353 2562.26123808
0.00800000 1641194.23197432 2658.73476805
0.00900000 1639744.58355475 2951.54037657
0.01000000 1638125.49054446 3784.07004655
0.01100000 1636338.53141218 4712.65517565
0.01200000 1634383.63217198 4780.57233370
0.01300000 1632262.06945522 4798.85069585
0.01400000 1629974.11047323 4767.67448449
0.01500000 1627521.17683650 5468.47139768
0.01600000 1624902.97041509 5800.90386370
0.01700000 1622121.69041040 5693.64738875
0.01800000 1619177.87633573 4614.65715521
0.01900000 1616072.37104876 6787.50426467
0.02000000 1612806.07662760 6096.40724543
0.02100000 1609381.53645085 6373.15117329
0.02200000 1605797.58187523 8864.00305466
0.02300000 1602057.17308818 7497.62791133
0.02400000 1598160.91135679 6592.41405994
0.02500000 1594111.18449035 7460.44068414
0.02600000 1589908.47589730 9658.69443285
0.02700000 1585554.53826998 11320.85992176
0.02800000 1581049.81052198 10316.35048676
0.02900000 1576397.85471835 8512.54880633
0.03000000 1571599.06797529 9500.31680260
0.03100000 1566655.11476028 7519.94489687
0.03200000 1561567.28002692 10048.68590980
0.03300000 1556339.56937282 8731.06538669
0.03400000 1550970.63398800 8142.59620414
0.03500000 1545464.31260166 10849.15997546
0.03600000 1539821.27033931 12819.01266799
0.03700000 1534044.73879497 11367.27204018
0.03800000 1528135.91750174 10727.51463733
0.03900000 1522097.55599021 10959.10291065
0.04000000 1515929.47059492 11187.56001141
0.04100000 1509636.09451527 9510.70783642
0.04200000 1503218.70755982 9695.76111357
0.04300000 1496678.99636287 9878.08183452
0.04400000 1490019.90913454 14080.68879526
0.04500000 1483244.00810222 12281.26095773
0.04600000 1476351.36251362 11449.10534853
0.04700000 1469346.45455604 16926.87194372
0.04800000 1462230.49288175 15046.35247183
0.04900000 1455006.24867167 13095.05684759
0.05000000 1447675.64054182 17719.55066536
0.05100000 1440242.52970601 14604.05993154
0.05200000 1432705.63598941 12529.01137060
0.05300000 1425071.20543562 11543.07730214
0.05400000 1417339.33691543 14031.66008981
0.05500000 1409514.15534086 14207.90334862
0.05600000 1401596.29867233 14380.37869543
0.05700000 1393590.78020216 12124.24035370
0.05800000 1385496.96415237 17166.30818738
0.05900000 1377318.57245320 12395.86773104
0.06000000 1369059.53041762 15032.27434628
0.06100000 1360720.82917817 18982.05645409
0.06200000 1352305.77907585 12779.29020962
0.06300000 1343817.26652924 14190.71099804
0.06400000 1335254.63550205 15622.47996599
0.06500000 1326624.78462228 15760.30317854
0.06600000 1317928.33936736 15894.21651644
0.06700000 1309166.57818124 16024.19966685
0.06800000 1300343.86936353 14804.41564568
0.06900000 1291463.64155099 14916.40575828
0.07000000 1282525.70886131 16390.67932680
0.07100000 1273534.17095384 19255.83756672
0.07200000 1264491.03644012 18000.03074697
0.07300000 1255399.85822066 15328.43298710
0.07400000 1246263.22495550 15422.50813159
0.07500000 1237081.71910483 16923.27871059
0.07600000 1227858.74770131 17018.12304096
0.07700000 1218598.19017207 14257.59949353
0.07800000 1209301.15693461 17196.26325805
0.07900000 1199969.50854898 17279.56173358
0.08000000 1190608.59196661 21698.84260651
0.08100000 1181218.61656083 17434.78759845
0.08200000 1171801.73422271 16047.82550323
0.08300000 1162360.48605860 20504.03993637
0.08400000 1152898.90695236 20579.24645506
0.08500000 1143418.04534130 19175.12152055
0.08600000 1133920.76180605 17757.19996361
0.08700000 1124408.95383829 16326.41877638
0.08800000 1114884.61238849 19348.82335670
0.08900000 1105351.03425685 22383.35949504
0.09000000 1095810.44580374 20940.93860302
0.09100000 1086264.37518083 14990.44908176
0.09200000 1076715.02296522 21028.24538656
0.09300000 1067166.50404099 18056.45809689
0.09400000 1057617.64471458 22606.57821823
0.09500000 1048072.34875251 19619.91529084
0.09600000 1038532.70608977 18132.78190071
0.09700000 1029002.94129448 15126.34394816
0.09800000 1019482.48806041 22708.97348927
0.09900000 1009974.41237178 18179.54027754
0.10000000 1000479.22196890 22735.89138845
0.10100000 991000.09322698 18194.76256738
0.10200000 981538.92364341 19714.21020866
0.10300000 972097.51276741 19714.13848629
0.10400000 962678.27977552 19710.83870570
0.10500000 953283.98270073 24251.54566093
0.10600001 943911.47202353 18179.73580659
0.10700001 934568.95004225 16654.01947345
0.10800001 925253.33695446 19666.26060249
0.10900001 915969.45642970 16624.84641666
0.11000001 906717.84457818 19625.90866968
0.11100001 897499.02743106 16585.78280767
0.11200001 888316.67498915 24091.14935985
0.11300001 879170.48473662 22550.72399520
0.11400001 870062.87450419 18010.30235024
0.11500001 860995.70011039 20973.85624231
0.11600001 851970.05605388 16447.28270665
0.11700001 842987.13877039 17905.04767072
0.11800001 834047.58796587 22331.62521957
0.11900001 825153.09117470 16338.03197481
0.12000001 816304.82274985 16297.52655389
0.12100001 807506.15933058 23643.78145901
0.12200001 798756.03038823 17684.45934593
0.12300001 790056.55850854 20573.07375285
0.12400001 781407.95211064 19046.81973013
0.12500001 772811.22916691 17527.35950340
0.12600001 764269.69744050 16015.27226456
0.12700001 755782.08348332 20315.42336142
0.12800001 747349.75462766 20245.70580703
0.12900001 738973.93420889 14409.99239625
0.13000001 730655.73976420 24407.55613727
0.13100001 722394.79287722 18594.44284516
0.13200001 714193.12113520 15672.96878214
0.13300001 706052.15000042 15610.81377245
0.13400001 697970.80794315 16960.69143264
0.13500001 689951.28023980 18297.50881465
0.13600001 681992.91631119 16817.94610921
0.13700001 674098.04544687 15349.21321859
0.13800001 666264.97914074 16669.95056419
0.13900001 658496.20629912 19359.78937817
0.14000001 650791.84748110 17893.52269036
0.14100001 643151.76199330 15069.04649420
0.14200001 635576.42507903 17723.04944924
0.14300001 628067.78482522 16279.51775054
0.14400001 620622.73587159 25647.23576967
0.14500001 613245.62478808 16116.09577966
0.14600001 605934.59757925 20041.28776037
0.14700001 598692.09001248 13290.96502530
0.14800001 591513.50008422 14542.36008566
0.14900001 584403.46329644 24983.24923465
0.15000001 577360.75853226 13077.22179778
0.15100001 570385.82807333 15605.75699244
0.15200001 563478.66682854 16811.38681811
0.15300001 556640.50625088 18001.75482164
0.15400001 549867.59497572 19176.63327974
0.15500001 543164.39139433 15252.05683014
0.15600001 536526.50480627 12635.19978450
0.15700001 529960.11766116 13816.06091950
0.15800001 523457.63527700 12484.46519061
0.15900001 517025.42885662 14890.33305390
0.16000001 510658.38975890 18498.60104219
0.16100001 504361.94917271 20835.19310383
0.16200001 498131.03985074 17051.02629900
0.16300001 491967.47417111 12102.40043594
0.16400001 485870.78289535 14430.36293324
0.16500001 479840.59147973 15532.44067951
0.16600001 473877.62410546 13057.69854872
0.16700001 467979.33351644 16510.31166599
0.16800001 462146.63616061 17573.12666975
0.16900001 456381.66811996 15129.05301254
0.17000001 450680.21400885 11559.94803518
0.17100001 445043.68956800 14926.76605297
0.17200001 439472.31550117 15966.02997612
0.17300001 433965.02470338 12459.13644761
0.17400001 428521.38529842 15748.16165344
0.17500001 423141.03705054 12288.01629628
0.17600001 417822.32916408 11093.18336323
0.17700001 412567.91894727 14320.23314301
0.17800001 407373.63468931 13125.57912964
0.17900001 402241.94703409 11946.58639119
0.18000001 397171.12742932 12939.83594286
0.18100001 392162.46484846 11776.63937569
0.18200001 387210.93492313 15943.41099859
0.18300001 382320.10167206 11607.23883508
0.18400001 377487.91914328 15712.93537663
0.18500001 372715.64496277 14558.27378001
0.18600001 367999.52414980 11354.62585407
0.18700001 363340.79830831 12295.45319565
0.18800001 358738.66538151 13221.31413729
0.18900001 354194.47758534 12113.45170575
0.19000001 349702.25510332 12022.76409851
0.19100001 345269.40230358 10938.13518181
0.19200001 340887.52637440 13816.17209679
0.19300001 336562.17053531 15670.33540059
0.19400001 332287.66927892 12635.23922139
0.19500001 328067.27799382 10609.69627168
0.19600001 323898.28539925 13399.67270019
0.19700001 319780.31166061 10447.22327566
0.19800001 315713.72655392 12251.27173791
0.19900001 311697.45468530 12156.20130723
0.20000001 307729.72049765 9278.05151150
0.20100001 303812.21206830 10126.06150682
0.20200001 299941.55466393 13699.83115678
0.20300001 296120.12080439 10873.53134987
0.20400001 292345.17706793 11686.49900566
0.20500001 288616.39581292 14269.19528345
0.20600001 284933.59045449 10616.62608216
0.20700001 281296.41101050 9654.09328222
0.20800001 277702.87880768 9576.58422837
0.20900001 274155.63034014 8635.90276394
0.21000001 270649.73781901 8566.06460691
0.21100001 267187.44495959 13594.49784220
0.21200001 263767.11899680 9270.09583538
0.21300001 260387.52352270 11701.81586032
0.21400001 257050.19799366 9118.85620493
0.21500001 253753.97729225 10688.11802886
0.21600001 250496.63832000 9784.39915537
0.21700001 247279.10597918 8086.02714782
0.21800001 244100.21671702 12028.03874742
0.21900001 240958.56321480 8746.79625826
0.22000001 237854.63105564 8673.36953154
0.22100001 234789.12248213 11727.71722251
0.22200001 231760.25009779 8527.61880557
0.22300001 228765.73910585 7686.52919742
0.22400001 225806.88094224 9145.17911060
0.22500001 222884.88525103 12844.85654442
0.22600001 219995.15368210 7490.83533710
0.22700001 217141.51255251 8911.48809657
0.22800001 214320.19948661 8098.08912056
0.22900001 211530.84540375 10216.94031617
0.23000001 208775.36756082 10127.69355933
0.23100001 206052.16183012 8604.73868497
0.23200001 203358.90883222 9950.35187975
0.23300001 200697.37200541 11975.61275394
0.23400001 198067.28770272 9774.62111042
0.23500001 195465.27403961 8995.31233675
0.23600001 192894.67573736 6857.40604680
0.23700001 190352.76981830 8834.27246511
0.23800001 187839.75339969 9427.67766905
0.23900001 185354.88295863 6672.77610213
0.24000001 182897.88765516 6611.75895147
0.24100001 180469.75661933 7861.26297019
0.24200001 178068.08988137 9735.87327479
0.24300001 175693.66314273 6430.38837520
0.24400001 173345.04354078 7644.51678176
0.24500001 171022.65651272 8835.03085338
0.24600001 168726.54577638 8126.71446175
0.24700001 166455.68122626 8669.01228836
0.24800001 164209.91413013 8586.53681607
0.24900001 161987.96404212 6682.00383285
0.25000001 159791.58798293 6617.76892939
0.25100001 157617.88914244 6553.75214059
0.25200001 155470.15625429 8260.12979257
0.25300001 153345.25051419 7595.19061730
0.25400001 151243.16276608 7520.56662435
0.25500001 149163.80941469 6300.67960777
0.25600001 147107.54395290 7939.39452277
0.25700001 145072.87238030 6737.18451210
0.25800001 143061.18618589 6113.72008092
0.25900001 141071.24055491 7152.31223454
0.26000001 139102.83206867 5990.46374648
0.26100001 137155.06357683 5929.21367897
0.26200001 135229.59476943 6935.25009590
0.26300001 133324.09709998 5279.63449498
0.26400001 131439.65857850 7314.61734601
0.26500001 129575.96823414 6204.09765262
0.26600001 127731.54812120 6650.34336762
0.26700001 125908.42191504 5061.51880050
0.26800001 124105.27830294 6009.17785979
0.26900001 122320.53199777 5944.77813641
0.27000001 120556.25627536 5880.73445940
0.27100001 118810.76066107 5332.22719080
0.27200001 117085.83404372 5274.13164409
0.27300001 115378.66187738 5216.26955033
0.27400001 113688.78890020 5627.59531688
0.27500001 112020.28673038 8347.75216221
0.27600001 110367.77767715 5961.51579337
0.27700001 108735.58382876 6347.98368435
0.27800001 107120.34766683 5379.58411443
0.27900001 105524.34951036 6648.03433379
0.28000001 103944.78029894 5695.65450605
0.28100001 102383.74853149 5196.99932143
0.28200001 100840.95283737 5564.90824572
0.28300001 99314.95662781  6346.22602889
0.28400001 97806.39370872  4599.34588184
0.28500001 96315.25661390  7437.46446775
0.28600001 94841.37397581  6124.38201437
0.28700001 93384.23862933  4841.03915968
0.28800001 91943.53255571  3985.75232495
0.28900001 90521.28886106  5906.51437776
0.29000001 89114.23195343  4278.82004978
0.29100001 87724.73074385  3842.34338846
0.29200001 86351.53558911  4174.66518566
0.29300001 84994.86752422  4123.10121877
0.29400001 83653.68170294  4442.01070869
0.29500001 82329.94949978  4386.53991699
0.29600001 81021.63532254  4331.41682938
0.29700001 79729.46621401  4276.68877017
0.29800001 78453.11280892  4926.07118647
0.29900001 77193.19324020  4863.17140435
0.30000001 75948.37028240  4800.69671281
0.30100001 74720.17283439  3384.82398964
0.30200001 73505.95075959  4677.18386825
0.30300001 72308.71542129  4945.91636896
0.30400001 71126.89708381  3579.46126520
0.30500001 69960.14569526  4174.52209127
0.30600001 68807.62875879  3485.45059979
0.30700001 67671.61286100  3751.71439463
0.30800001 66550.16606568  3393.06037750
0.30900001 65443.88659168  4260.39721882
0.31000001 64352.78301327  3902.67471061
0.31100001 63275.67847327  3553.56227130
0.31200001 62214.16021971  2920.95496061
0.31300001 61166.65819858  3745.23465882
0.31400001 60135.12059689  2841.38458273
0.31500001 59116.73773803  3082.34685160
0.31600002 58113.48675446  2763.29642601
0.31700002 57124.40511829  2724.83425316
0.31800002 56149.77265196  2955.44342347
0.31900002 55189.33124028  4768.35844494
0.32000002 54243.41902090  3134.18489943
0.32100002 53310.65482500  3604.86664996
0.32200002 52393.29157632  2792.30060678
0.32300002 51487.94509144  3753.47137490
0.32400002 50597.31657758  2466.61929995
0.32500002 49720.18079433  2674.44865157
0.32600002 48857.08372205  2875.72808405
0.32700002 48006.99563821  2598.13872697
0.32800002 47171.01993215  2793.46793266
0.32900002 46347.65238339  3441.31335243
0.33000002 45538.68663261  3165.39425773
0.33100002 44740.26377979  2896.48481426
0.33200002 43958.06203125  2415.27583268
0.33300002 43187.38923238  2380.05713330
0.33400002 42430.11032794  2132.11314495
0.33500002 41684.51083125  2731.16927900
0.33600002 40952.80720876  2898.23030341
0.33700002 40232.73065929  2039.79954102
0.33800002 39526.09053443  4220.79377760
0.33900002 38830.92082685  3168.60328953
0.34000002 38148.51245698  1951.29650458
0.34100002 37478.02957965  2114.88530934
0.34200002 36820.40870890  2083.85112957
0.34300002 36173.63654629  2426.52765444
0.34400002 35540.03302763  2207.03615554
0.34500002 34917.38942842  1993.43385688
0.34600002 34307.40928354  1785.70073778
0.34700002 33707.26687469  1759.51941419
0.34800002 33120.29660124  2080.61713103
0.34900002 32543.81495742  1879.40540280
0.35000002 31978.75271088  2020.41769196
0.35100002 31425.47199089  1825.19149968
0.35200002 30881.83362226  1962.23180130
0.35300002 30349.68705298  2578.50953415
0.35400002 29828.81782337  1588.38462433
0.35500002 29318.44577396  1722.16558633
0.35600002 28817.81119428  1697.51324880
0.35700002 28328.21689392  2281.83797888
0.35800002 27849.48189924  1649.66413844
0.35900002 27380.61165918  1922.11902952
0.36000002 26922.20267883  1603.62107852
0.36100002 26473.03237313  1724.98287114
0.36200002 26035.00564112  1984.64857403
0.36300002 25605.49943466  2097.09050303
0.36400002 25185.86980947  1930.49701234
0.36500002 24775.62374941  1632.21816993
0.36600002 24375.26446337  1744.41588395
0.36700002 23983.59738408  1323.89463831
0.36800002 23602.54143756  1698.32094959
0.36900002 23229.43962525  1676.00414835
0.37000002 22865.05181364  1908.66029056
0.37100002 22509.52776338  1256.03170869
0.37200002 22163.41646084  1612.05617264
0.37300002 21825.30828938  2081.47975016
0.37400002 21495.72024531  1450.96118529
0.37500002 21174.93535367  1552.54633368
0.37600002 20862.30181559  1297.73954591
0.37700002 20557.42426509  1748.40901657
0.37800002 20260.55475630  1382.17511095
0.37900002 19972.03754575  1935.29052986
0.38000002 19691.21107892  1462.95859641
0.38100002 19417.01528380  1223.85453132
0.38200002 19151.47146802  1870.42854953
0.38300002 18892.56625253  1414.67542801
0.38400002 18641.90426801  1184.22702473
0.38500002 18397.09214125  1491.26835962
0.38600002 18160.62645996  1159.64685754
0.38700002 17930.37969591  1147.90296251
0.38800002 17707.02993363  1446.48734381
0.38900002 17489.96475789  1125.47928549
0.39000002 17280.61146105  1013.50791021
0.39100002 17076.51819792  1004.09931761
0.39200002 16879.51369332  1393.06633111
0.39300002 16688.38614674  1479.42550200
0.39400002 16504.68641419  1369.06380292
0.39500002 16325.74580107  969.74934653
0.39600002 16152.99248470  1250.48397245
0.39700002 15985.90250082  1049.79426697
0.39800002 15824.64388305  1041.81547940
0.39900002 15668.93042097  1316.19021772
0.40000002 15518.50924294  1306.81372526
0.40100002 15373.89402781  1112.45502456
0.40200002 15234.52987993  1197.20558734
0.40300002 15099.76500989  1372.56870443
0.40400002 14970.60601983  1000.41079467
0.40500002 14846.33144907  904.14162809
0.40600002 14727.03566538  1078.90268396
0.40700002 14612.17672495  983.69178373
0.40800002 14502.30338851  1067.65962605
0.40900002 14396.68429866  1593.71302737
0.41000002 14295.94201271  1233.88281358
0.41100002 14199.29992704  1316.27516560
0.41200002 14106.63011495  873.90577703
0.41300002 14018.88812833  957.63029342
0.41400002 13934.62644308  1648.11802065
0.41500002 13854.67747136  1296.79787277
0.41600002 13778.05283469  1551.27104216
0.41700002 13705.55002748  1117.13943567
0.41800002 13637.71533449  942.84349433
0.41900002 13571.56762347  1197.01232111
0.42000002 13510.24625172  938.48930035
0.42100002 13452.45016102  1192.15618976
0.42200002 13398.14607569  935.12364966
0.42300002 13346.51232728  933.72204666
0.42400002 13297.94002092  847.74371650
0.42500002 13253.06052562  846.87060772
0.42600002 13210.19320841  930.72420660
0.42700002 13171.67376428  1352.99439318
0.42800002 13134.88911881  1014.27618582
0.42900002 13102.15699417  929.59808279
0.43000002 13071.53225159  1183.10444016
0.43100002 13042.64227799  845.16325966
0.43200002 13017.45444916  1352.77393046
0.43300002 12994.40919682  1015.12329456
0.43400002 12973.87090670  1015.85414013
0.43500002 12955.47627420  1016.74582618
0.43600002 12939.70895203  1102.65735060
0.43700002 12925.56814745  1358.73578805
0.43800002 12913.66570949  1190.51089818
0.43900002 12904.45032805  851.69376201
0.44000002 12896.68777545  938.42753045
0.44100002 12891.25109507  854.68998811
0.44200002 12887.48181298  1284.55981058
0.44300002 12885.62278322  858.18251803
0.44400002 12885.92960726  1032.16301046
0.44500002 12886.64842521  1293.17523075
0.44600002 12889.37512344  1209.92570018
0.44700002 12894.81006578  1039.83753298
0.44800002 12900.12269190  1129.47029582
0.44900002 12908.50216376  1306.98590602
0.45000002 12917.75831266  1048.66366952
0.45100002 12927.98344622  1051.82078303
0.45200002 12939.70539732  967.17832576
0.45300002 12952.46642380  1058.47560632
0.45400002 12966.72677477  1061.97497318
0.45500002 12982.14071173  976.77631344
0.45600002 12998.47692831  1158.35932637
0.45700002 13015.92601240  983.61357537
0.45800002 13033.91891118  1256.33950339
0.45900002 13053.18861986  990.73706320
0.46000002 13073.89872856  1446.49622388
0.46100002 13094.34203693  1088.92553540
0.46200002 13116.62494106  1002.04460986
0.46300002 13139.52871081  1005.96236578
0.46400002 13162.36557480  918.07504236
0.46500002 13186.54118451  1013.91319973
0.46600002 13211.14063144  1203.07257862
0.46700002 13236.12729338  1022.09379804
0.46800002 13262.46818653  1679.42642606
0.46900002 13288.34567839  936.82841473
0.47000002 13315.05915364  1128.85076855
0.47100002 13342.35622230  1133.56663837
0.47200002 13370.12610023  1138.33259013
0.47300002 13398.36466081  1143.14852704
0.47400002 13426.26868444  1147.94602693
0.47500002 13454.88017432  960.67848998
0.47600002 13484.31293915  1061.28290018
0.47700002 13512.99876994  1550.21129236
