# SAXS profile: number of points = 501, q_min = 0, q_max = 0.5, delta_q = 0.001
#    q    intensity    error
0.00000000 1646666.22097350 395.19989303
0.00100000 1646580.55522454 642.16643179
0.00200000 1646323.53895448 1333.52210878
0.00300000 1645895.37312887 1185.04471087
0.00400000 1645295.94714997 1357.36920798
0.00500000 1644525.90086281 1628.08070630
0.00600000 1643585.08090197 1725.76440521
0.00700000 1642474.22152656 2562.25989207
0.00800000 1641193.11878119 2880.29404507
0.00900000 1639743.16964496 2705.57634557
0.01000000 1638123.72936524 2702.90427016
0.01100000 1636336.39778536 3534.48677311
0.01200000 1634381.12610086 4143.15633632
0.01300000 1632259.11828470 4798.84201941
0.01400000 1629970.69481216 5134.40791627
0.01500000 1627517.23190964 7030.87475493
0.01600000 1624898.50989289 4143.49138546
0.01700000 1622116.63628144 5255.65813731
0.01800000 1619172.21471283 5999.03332545
0.01900000 1616066.06727576 4848.19842059
0.02000000 1612799.10306604 7620.47610670
0.02100000 1609373.87818357 6373.12084655
0.02200000 1605789.17041185 9971.95120131
0.02300000 1602047.96010274 8651.05937834
0.02400000 1598150.92559520 5993.06624425
0.02500000 1594100.37310774 8082.08926077
0.02600000 1589896.74242901 7726.89852162
0.02700000 1585541.93880498 7325.20409278
0.02800000 1581036.23861886 10316.26193009
0.02900000 1576383.32345818 9221.84286564
0.03000000 1571583.57313276 12423.36871666
0.03100000 1566638.56997382 9775.82512645
0.03200000 1561549.66863383 9275.60545890
0.03300000 1556320.85636244 8730.96040669
0.03400000 1550950.76733908 12213.73785634
0.03500000 1545443.32802380 9179.93379237
0.03600000 1539799.12204633 13673.41683567
0.03700000 1534021.40817428 8743.92243098
0.03800000 1528111.29893868 12515.23211751
0.03900000 1522071.67712939 10958.91658284
0.04000000 1515902.27480852 13051.91919091
0.04100000 1509607.58923020 9510.52825312
0.04200000 1503188.81442426 10665.12513313
0.04300000 1496647.73818078 16792.38840186
0.04400000 1489987.35793104 14080.38118637
0.04500000 1483209.88876073 12280.97844957
0.04600000 1476315.73590975 11448.82906420
0.04700000 1469309.30240633 13752.73571013
0.04800000 1462191.84836080 15045.95481969
0.04900000 1454966.13980536 15277.14517907
0.05000000 1447633.89752388 15504.15976445
0.05100000 1440199.11651243 11233.55363210
0.05200000 1432660.72238204 18223.44523794
0.05300000 1425024.53437811 17314.04889984
0.05400000 1417290.99812618 15200.44666376
0.05500000 1409464.17121795 18943.19934486
0.05600000 1401544.66419043 17974.81115702
0.05700000 1393537.33916991 21822.79575006
0.05800000 1385441.70626284 12261.15967293
0.05900000 1377261.49019013 17353.49558691
0.06000000 1369000.69286097 16284.26400236
0.06100000 1360660.21240483 18981.21085007
0.06200000 1352243.30584907 14056.56982135
0.06300000 1343752.92309189 18060.04013076
0.06400000 1335188.45720975 16923.51448659
0.06500000 1326556.64184411 15759.49364230
0.06600000 1317858.22196208 14568.92332545
0.06700000 1309094.44978197 16023.31681521
0.06800000 1300269.96324165 20186.69212425
0.06900000 1291387.69351207 14915.52855839
0.07000000 1282447.72195740 19121.29642981
0.07100000 1273454.14776362 13753.30544002
0.07200000 1264408.95988013 20767.91813894
0.07300000 1255315.63939582 13934.00425018
0.07400000 1246176.98489289 15421.44091076
0.07500000 1236993.45624918 18332.24388089
0.07600000 1227768.42596658 15598.79858319
0.07700000 1218505.80960943 18533.47423317
0.07800000 1209206.60333270 17194.91870577
0.07900000 1199872.82079174 14398.47452484
0.08000000 1190509.77669498 15911.16391194
0.08100000 1181117.70621694 18886.07300851
0.08200000 1171698.42151951 14587.64603245
0.08300000 1162255.17948482 17573.29913856
0.08400000 1152791.25608877 19107.51596655
0.08500000 1143308.15570017 19173.27867118
0.08600000 1133808.63974757 16275.82378775
0.08700000 1124294.64919345 14840.69006624
0.08800000 1114768.10609745 20835.01688145
0.08900000 1105232.37999230 16412.70161379
0.09000000 1095689.45604050 16451.77795528
0.09100000 1086141.19069598 19485.37387653
0.09200000 1076589.56033053 15018.42507228
0.09300000 1067038.70803082 16549.77113927
0.09400000 1057487.64314064 22603.79943445
0.09500000 1047940.08836640 21126.47317447
0.09600000 1038397.99904473 24173.90655412
0.09700000 1028866.09221595 18149.19871993
0.09800000 1019343.15571136 18164.69588884
0.09900000 1009833.04862940 28780.24323926
0.10000000 1000335.36946547 19701.60602813
0.10100000 990853.97622799 16676.07320422
0.10200000 981390.45258859 15162.48320568
0.10300000 971946.76112841 19711.08124291
0.10400000 962525.17690346 22739.65837413
0.10500000 953128.73726763 22732.12145336
0.10600001 943753.88689949 18176.70071696
0.10700001 934408.94816157 24219.88107608
0.10800001 925091.14945886 18150.28920657
0.10900001 915804.91711961 16621.86002804
0.11000001 906550.98740199 21131.70451100
0.11100001 897329.88356223 15075.14275348
0.11200001 888145.21878879 18064.87460061
0.11300001 878996.81492928 21043.18474014
0.11400001 869886.79299840 21007.76704005
0.11500001 860817.33096522 20969.51116972
0.11600001 851789.47859022 17938.68726387
0.11700001 842804.17859132 17901.16159633
0.11800001 833862.49094178 19349.78001365
0.11900001 824965.60967673 20789.13434306
0.12000001 816115.16272231 17774.98908138
0.12100001 807314.30776172 16251.23778081
0.12200001 798561.79520700 17680.15897882
0.12300001 789860.18304829 14691.40009687
0.12400001 781209.43346796 16112.44532445
0.12500001 772610.49433251 18983.04074024
0.12600001 764066.61692047 16011.01671206
0.12700001 755576.73279731 18859.19613939
0.12800001 747142.15522909 14457.20138504
0.12900001 738764.29605968 15846.49489736
0.13000001 730443.89483441 15788.54553104
0.13100001 722180.85084636 20018.85412910
0.13200001 713977.06181917 17092.61166570
0.13300001 705833.90134743 17024.71450310
0.13400001 697750.59158056 29671.84530586
0.13500001 689728.80208630 21105.70233894
0.13600001 681768.46574502 15411.37689482
0.13700001 673871.41642462 19528.79456883
0.13800001 666036.31279357 19441.60088723
0.13900001 658265.59909775 16588.29387954
0.14000001 650559.06651165 13759.32490562
0.14100001 642916.93055773 16432.95752008
0.14200001 635339.68574641 16353.64428244
0.14300001 627829.06121650 17629.44087050
0.14400001 620382.13046863 16191.97436900
0.14500001 613003.06920475 24164.58212795
0.14600001 605690.08052365 14691.01359614
0.14700001 598445.61014457 15942.59180637
0.14800001 591265.11062684 13214.77584597
0.14900001 584153.40677269 14457.79749975
0.15000001 577108.61348607 16992.96392587
0.15100001 570131.91212023 12999.00820970
0.15200001 563222.87709547 14218.56220321
0.15300001 556382.88513626 15422.93430377
0.15400001 549608.18356536 19167.58630638
0.15500001 542903.31125107 19055.90712422
0.15600001 536263.74256617 13891.91290680
0.15700001 529695.56910902 13809.16413842
0.15800001 523191.40687734 14973.73877157
0.15900001 516757.64955728 16122.83942719
0.16000001 510388.83739097 16023.65830625
0.16100001 504090.68825445 14699.28516337
0.16200001 497858.18274242 14607.15977121
0.16300001 491693.06791363 18143.47506253
0.16400001 485594.83300979 13220.31995282
0.16500001 479563.04605877 14329.34449274
0.16600001 473598.59376388 13050.00986729
0.16700001 467698.83866432 17679.01693622
0.16800001 461864.64688274 14049.92322156
0.16900001 456098.23616304 17445.75835699
0.17000001 450395.37738242 19639.49135813
0.17100001 444757.46338684 11474.74309723
0.17200001 439184.89814994 17095.27296777
0.17300001 433675.99317907 13582.73274781
0.17400001 428231.01342441 15737.49048657
0.17500001 422849.47068253 14512.19451920
0.17600001 417529.41290488 15519.56901065
0.17700001 412273.67419142 12108.47838289
0.17800001 407078.41736299 13116.06722693
0.17900001 401945.50380901 13023.03493854
0.18000001 396873.50592240 14007.65105318
0.18100001 391863.64123182 13907.24128425
0.18200001 386911.05807837 11682.77995055
0.18300001 382019.05212317 12652.47160401
0.18400001 377185.79698042 16747.05017707
0.18500001 372412.55462810 15585.46614748
0.18600001 367695.40606370 16502.17060376
0.18700001 363035.62690389 12285.12619484
0.18800001 358432.47119071 13210.02934986
0.18900001 353887.52565211 11094.37445337
0.19000001 349394.33338803 12012.17774944
0.19100001 344960.61368563 10928.35275793
0.19200001 340577.98198386 15775.57287091
0.19300001 336251.67637185 16634.37121613
0.19400001 331976.42893137 11652.37320611
0.19500001 327755.26111442 13490.40718496
0.19600001 323585.54152695 11474.34384478
0.19700001 319466.78631302 11385.79680226
0.19800001 315399.51685052 10356.14362521
0.19900001 311382.72594386 12143.92688573
0.20000001 307414.29463520 11122.24970555
0.20100001 303496.30061318 11035.12601184
0.20200001 299625.00500586 10948.29820037
0.20300001 295803.09116840 9956.73251933
0.20400001 292027.67489340 8979.85142741
0.20500001 288298.30756153 10690.10174967
0.20600001 284615.02502445 11488.48602815
0.20700001 280977.48942760 11396.44750988
0.20800001 277383.36828515 12174.35660952
0.20900001 273835.85100228 10350.99565719
0.21000001 270329.68030595 8555.93478614
0.21100001 266866.99308892 10183.64493769
0.21200001 263446.36457593 10942.24526995
0.21300001 260066.61025789 11687.39401752
0.21400001 256729.02004495 9107.46241666
0.21500001 253432.57032312 11495.70193335
0.21600001 250174.99645916 12214.79477962
0.21700001 246957.29215236 11305.70536926
0.21800001 243778.27942281 11211.36360073
0.21900001 240636.64211156 9529.21147817
0.22000001 237532.51630895 8661.62361675
0.22100001 234467.02383022 9369.30271527
0.22200001 231438.04723310 12386.56487361
0.22300001 228443.69219342 9210.85010478
0.22400001 225484.76757376 9893.14464511
0.22500001 222562.91701898 9808.34821684
0.22600001 219673.19175760 9723.83429297
0.22700001 216819.69916316 8156.75746824
0.22800001 213998.52016626 8821.01941840
0.22900001 211209.33060811 8015.39447563
0.23000001 208454.02637396 10112.10529762
0.23100001 205731.07630105 10739.16269080
0.23200001 203038.17582342 7805.80303870
0.23300001 200376.84174553 10549.84121685
0.23400001 197746.95985488 8364.69679747
0.23500001 195145.34701518 8980.58929439
0.23600001 192575.14869544 8899.86091790
0.23700001 190033.55222029 10176.29720271
0.23800001 187521.01266036 11428.46865714
0.23900001 185036.60995215 6661.31827335
0.24000001 182580.01822617 8580.34836239
0.24100001 180152.29271411 7847.43424182
0.24200001 177751.23986823 9718.54949950
0.24300001 175377.23103716 6418.80695959
0.24400001 173029.14211827 6358.82127364
0.24500001 170707.43155770 6299.10452245
0.24600001 168411.69814942 8735.51519625
0.24700001 166141.54590392 6798.51238000
0.24800001 163896.41269447 6121.53130373
0.24900001 161675.18008601 10913.07517208
0.25000001 159479.48031559 6004.40271794
0.25100001 157306.63255934 7730.04828967
0.25200001 155159.49033430 7065.96352411
0.25300001 153035.40783100 7579.84410848
0.25400001 150934.07270713 6350.55140960
0.25500001 148855.44965819 6859.25944477
0.25600001 146800.07078298 6225.05729608
0.25700001 144766.33267148 7283.19454129
0.25800001 142755.38566531 7209.86109415
0.25900001 140766.37472721 6038.87776153
0.26000001 138798.98319187 8694.36871852
0.26100001 136852.07699853 6991.77294468
0.26200001 134927.57548547 5322.89310476
0.26300001 133022.98414967 5794.48146374
0.26400001 131139.48870576 6776.63339953
0.26500001 129276.86288616 5673.96178056
0.26600001 127433.50967758 6124.45476491
0.26700001 125611.37958072 7069.40877733
0.26800001 123809.36790508 5994.84987765
0.26900001 122025.60018318 6424.64815367
0.27000001 120262.53556290 4888.67230197
0.27100001 118518.05483908 5319.09055289
0.27200001 116794.25703860 5739.27006248
0.27300001 115088.39980292 4730.13345575
0.27400001 113399.62781706 5145.50835571
0.27500001 111732.35235401 6476.00744892
0.27600001 110081.12934917 6403.41959729
0.27700001 108450.11413115 4522.36997330
0.27800001 106836.07370357 6706.63484415
0.27900001 105241.37237057 5304.16541851
0.28000001 103663.07995112 6554.09854010
0.28100001 102103.42260468 6910.35996895
0.28200001 100561.86449701 5122.62161993
0.28300001 99037.26660435  5484.68408414
0.28400001 97529.94220559  4586.34574929
0.28500001 96040.32721853  4120.13023269
0.28600001 94567.73724553  4071.14128112
0.28700001 93111.98087245  4826.92531690
0.28800001 91672.61209841  5166.21029934
0.28900001 90251.88656465  5496.34015195
0.29000001 88846.27282968  3878.13999258
0.29100001 87458.21949879  4596.80423445
0.29200001 86086.49844323  5296.90249994
0.29300001 84731.28736131  4857.64493436
0.29400001 83391.54178127  4059.08348835
0.29500001 82069.37480651  4008.26845529
0.29600001 80762.58290184  3957.77056246
0.29700001 79471.86794180  6749.54606381
0.29800001 78197.05032089  5611.42059666
0.29900001 76938.70922573  3462.24207906
0.30000001 75695.36472148  4101.17505476
0.30100001 74468.85335885  5734.84666865
0.30200001 73256.12501761  3662.44014364
0.30300001 72060.55453647  3614.55758667
0.30400001 70880.31735269  3567.05213964
0.30500001 69715.17301793  4479.89723022
0.30600001 68564.23799651  4736.07496383
0.30700001 67429.92316776  4672.89389676
0.30800001 66310.10401117  3073.47346643
0.30900001 65205.48787047  3941.67192839
0.31000001 64116.15922272  3888.32466015
0.31100001 63040.62873988  3835.39203412
0.31200001 61980.85331490  3492.00144109
0.31300001 60935.01654218  3731.05123953
0.31400001 59905.05877377  3113.56557718
0.31500001 58888.48986257  3628.70891714
0.31600002 57886.93211826  4128.78562882
0.31700002 56899.64762466  2985.52465222
0.31800002 55926.68611125  2943.70126285
0.31900002 54968.11141795  3957.70420949
0.32000002 54023.81104736  3121.49595012
0.32100002 53092.88561080  2820.82514607
0.32200002 52177.24282430  3033.58504145
0.32300002 51273.70607897  2491.90223343
0.32400002 50384.77746147  3438.76122458
0.32500002 49509.44871918  3389.41701981
0.32600002 48648.12483617  2386.19063621
0.32700002 47799.77527018  2586.92396012
0.32800002 46965.68635082  2781.30807740
0.32900002 46144.16650181  2512.54998500
0.33000002 45336.94574140  2701.17535518
0.33100002 44540.31403866  2661.72929299
0.33200002 43759.93445137  2185.80882935
0.33300002 42991.13108028  2584.62692294
0.33400002 42235.62434605  2122.34022389
0.33500002 41491.96494534  2509.43415873
0.33600002 40762.01894674  2472.62418640
0.33700002 40043.78561290  2639.28603473
0.33800002 39338.99757387  2200.42693350
0.33900002 38645.65419325  2562.20699435
0.34000002 37965.16851332  2330.30215371
0.34100002 37296.51619827  2678.63592022
0.34200002 36640.71698261  2073.68147584
0.34300002 35995.83259168  2971.81607951
0.34400002 35364.07532812  2196.10918188
0.34500002 34743.33962109  2163.81529408
0.34600002 34135.19534395  2665.10550270
0.34700002 33536.99920821  1750.63144158
0.34800002 32951.81903721  2242.53615079
0.34900002 32377.21012081  2039.76433422
0.35000002 31814.04948052  2177.51271983
0.35100002 31262.69376322  1815.73733977
0.35200002 30720.90486932  1789.33918886
0.35300002 30190.67148328  1603.12473169
0.35400002 29671.60515379  2528.02087884
0.35500002 29163.15744333  2335.96902185
0.35600002 28664.38494357  1688.47567507
0.35700002 28176.72946591  2118.32662158
0.35800002 27699.80892132  1789.96173728
0.35900002 27232.89940723  2205.86495647
0.36000002 26776.38574229  1449.94135662
0.36100002 26329.11431993  1715.60517035
0.36200002 25892.90898008  2114.80344112
0.36300002 25465.34200248  1807.53006095
0.36400002 25047.61177038  1645.62817126
0.36500002 24639.33824397  1758.50965377
0.36600002 24240.80795984  1734.79350382
0.36700002 23851.02122308  1711.54936404
0.36800002 23471.81669762  1558.99813890
0.36900002 23100.69157184  1923.13266445
0.37000002 22738.19091537  1265.38038438
0.37100002 22384.53067989  1498.86824533
0.37200002 22040.24491395  1479.78211362
0.37300002 21704.05334780  1339.35719554
0.37400002 21376.37008986  1563.14713687
0.37500002 21057.44862829  1781.46023834
0.37600002 20746.77628180  1642.52235604
0.37700002 20443.75541261  1275.07708549
0.37800002 20148.68668880  1603.63404953
0.37900002 19862.05869802  1471.77861925
0.38000002 19583.16316808  1902.60230773
0.38100002 19310.87485681  1549.11845440
0.38200002 19047.12941182  1860.23798213
0.38300002 18790.15383286  1731.70065927
0.38400002 18541.29844943  1391.98804704
0.38500002 18298.45468356  1271.37669164
0.38600002 18063.77194567  1258.32241335
0.38700002 17835.36948583  1141.82040858
0.38800002 17613.95125258  1438.88374599
0.38900002 17398.66709965  1119.60428090
0.39000002 17191.17309935  1411.56729006
0.39100002 16989.04471946  1198.74705220
0.39200002 16793.85722217  1187.99751618
0.39300002 16604.57539302  981.33045222
0.39400002 16422.68027696  1459.56577876
0.39500002 16245.60127408  1157.98651368
0.39600002 16074.71886191  1052.97450894
0.39700002 15909.45868557  1329.71261994
0.39800002 15750.09624362  1319.70062678
0.39900002 15596.22168091  1029.35067971
0.40000002 15447.58309573  1672.50990102
0.40100002 15304.78747836  1107.45447440
0.40200002 15167.25929886  1466.97738889
0.40300002 15034.28337897  1002.18537753
0.40400002 14906.92174020  996.15509249
0.40500002 14784.49695869  900.37590744
0.40600002 14666.98462481  984.96139915
0.40700002 14553.95914618  1157.91304453
0.40800002 14445.84122926  1329.37860211
0.40900002 14342.03957803  1146.64611859
0.41000002 14243.15013177  965.89927195
0.41100002 14148.26841097  1224.10824092
0.41200002 14057.39791726  957.94142646
0.41300002 13971.52253694  1127.92106785
0.41400002 13888.93800382  951.04507487
0.41500002 13810.78247454  1292.68930087
0.41600002 13735.95183129  1202.85735886
0.41700002 13665.21428165  1028.17077127
0.41800002 13599.18624317  1282.06334382
0.41900002 13534.76392361  937.95918435
0.42000002 13475.12207158  1361.52639863
0.42100002 13419.17177733  1019.32033651
0.42200002 13366.57996932  1187.35335494
0.42300002 13316.68994609  1101.02397692
0.42400002 13269.90696107  1015.14793063
0.42500002 13226.72370434  1098.74399018
0.42600002 13185.61700274  1097.90045176
0.42700002 13148.82380619  1012.98543403
0.42800002 13113.77732130  1181.42025486
0.42900002 13082.79475972  1012.60836239
0.43000002 13053.85273592  1265.89742905
0.43100002 13026.67463335  1266.19283436
0.43200002 13003.15461646  844.55493236
0.43300002 12981.88343165  1098.65684688
0.43400002 12963.00123061  1099.58663149
0.43500002 12946.35301804  1016.02983300
0.43600002 12932.28431316  1102.02465997
0.43700002 12919.82478313  1103.48228702
0.43800002 12909.59524190  1445.16470784
0.43900002 12902.01855265  936.68659131
0.44000002 12895.94885765  1279.60058604
0.44100002 12892.16560557  940.22568217
0.44200002 12890.06270526  1284.81706103
0.44300002 12889.87371579  944.31219317
0.44400002 12891.80282910  946.58066759
0.44500002 12894.12418478  948.87864373
0.44600002 12898.56304824  1210.78817072
0.44700002 12905.58145124  1214.15716047
0.44800002 12912.56263160  1130.55947479
0.44900002 12922.64309261  1046.73414011
0.45000002 12933.45545437  874.94830295
0.45100002 12945.30376352  1228.76829147
0.45200002 12958.64611140  880.54004500
0.45300002 12973.00941056  1060.15437927
0.45400002 12988.91900508  1241.09126975
0.45500002 13005.90048860  1334.40545337
0.45600002 13023.85472150  892.78528347
0.45700002 13042.88171317  985.65061778
0.45800002 13062.49255755  989.28792073
0.45900002 13083.28572904  1263.84546132
0.46000002 13105.58723081  1087.50167995
0.46100002 13127.63472366  909.74512947
0.46200002 13151.40544698  1461.38424253
0.46300002 13175.91346009  1283.86106840
0.46400002 13200.29936096  1012.79301647
0.46500002 13226.03601024  1479.19993749
0.46600002 13252.14436523  1206.80658382
0.46700002 13278.64147097  1305.02494562
0.46800002 13306.53207010  1029.72603305
0.46900002 13333.92754762  1880.08387332
0.47000002 13362.16649514  1321.65195068
0.47100002 13390.96533908  1422.12058641
0.47200002 13420.24269994  1142.59951763
0.47300002 13449.97306804  1243.18106960
0.47400002 13479.37600333  1056.44614433
0.47500002 13509.50328593  1253.95215443
0.47600002 13540.37043808  1356.33897107
0.47700002 13570.57388439  973.01019363
