# SAXS profile: number of points = 501, q_min = 0, q_max = 0.5, delta_q = 0.001
#    q    intensity    error
0.00000000 1664650.74656090 399.51617917
0.00100000 1664564.71537298 599.24331177
0.00200000 1664306.59616448 973.61938959
0.00300000 1663876.59916807 1297.82379358
0.00400000 1663274.61157554 2120.67521034
0.00500000 1662501.25947031 1945.12655057
0.00600000 1661556.41783989 2616.95146464
0.00700000 1660440.79828515 2391.03484890
0.00800000 1659154.18682154 3135.80154549
0.00900000 1657698.02525471 2486.54714418
0.01000000 1656071.63185814 3825.52563478
0.01100000 1654276.63083385 3871.00748469
0.01200000 1652312.92618856 4188.61345153
0.01300000 1650181.79234538 4851.53468347
0.01400000 1647883.47848910 5190.83318736
0.01500000 1645419.47354310 3949.00691235
0.01600000 1642789.41276812 4608.02450881
0.01700000 1639995.50512847 4870.78686873
0.01800000 1637038.34595878 7464.89519347
0.01900000 1633918.73542941 6372.28335571
0.02000000 1630637.55413534 5650.15938067
0.02100000 1627197.47046707 7517.65265440
0.02200000 1623597.13421478 7281.83347778
0.02300000 1619839.62068870 6997.70747990
0.02400000 1615925.48893487 10301.52546168
0.02500000 1611857.22485240 7543.49215683
0.02600000 1607635.11817940 7813.10703171
0.02700000 1603261.15308057 8753.80629675
0.02800000 1598735.63531146 7649.95036579
0.02900000 1594062.16357464 7890.60807199
0.03000000 1589241.14066368 9606.96313690
0.03100000 1584274.16389415 9125.41960392
0.03200000 1579162.65737414 8598.54106543
0.03300000 1573910.60040803 8829.63887534
0.03400000 1568516.54442004 9058.18346197
0.03500000 1562984.32790042 8440.11576041
0.03600000 1557314.76815476 8643.09736269
0.03700000 1551510.97119032 15034.14200613
0.03800000 1545574.17307926 9945.77026405
0.03900000 1539507.21033760 11084.45242775
0.04000000 1533309.78780081 14144.78344792
0.04100000 1526986.28931901 11544.01688251
0.04200000 1520538.20534632 12749.71344332
0.04300000 1513967.07636892 14988.27475178
0.04400000 1507275.95715744 11191.52450165
0.04500000 1500467.22077934 12423.86916533
0.04600000 1493541.12178256 13688.30501746
0.04700000 1486502.03080735 11773.09663154
0.04800000 1479351.40479821 10873.23333118
0.04900000 1472091.71659503 12144.75722722
0.05000000 1464725.00090905 13446.17613448
0.05100000 1457255.06640446 13639.90805695
0.05200000 1449680.88740087 16134.94902868
0.05300000 1442008.36542083 14016.32196530
0.05400000 1434237.88146333 16565.44830341
0.05500000 1426373.39712014 15575.99822316
0.05600000 1418415.75438171 19403.92842541
0.05700000 1410369.63922829 12270.21643404
0.05800000 1402234.61775034 13650.75464119
0.05900000 1394014.45807459 17564.58299211
0.06000000 1385713.01649092 19018.91203988
0.06100000 1377331.41412970 12809.18275000
0.06200000 1368872.81949808 14229.43362382
0.06300000 1360340.20162065 18282.97316461
0.06400000 1351732.85841434 18451.15438026
0.06500000 1343057.55705541 14625.89748050
0.06600000 1334315.13242632 16091.84124998
0.06700000 1325506.93008796 17576.22271552
0.06800000 1316637.33998687 16352.63652809
0.06900000 1307709.58046349 17850.23660906
0.07000000 1298723.34819840 20747.10645902
0.07100000 1289683.02770935 18107.15055714
0.07200000 1280590.72853459 14022.46913436
0.07300000 1271449.73683495 19758.32983620
0.07400000 1262262.87231458 18460.59537274
0.07500000 1253030.61698948 15713.00467356
0.07600000 1243756.29813734 21548.07887542
0.07700000 1234443.88776331 15887.29358045
0.07800000 1225094.46700860 20324.31816081
0.07900000 1215710.06622679 18965.07792267
0.08000000 1206295.74424386 21984.74097017
0.08100000 1196851.98869547 17665.53618198
0.08200000 1187380.77572526 14782.89135147
0.08300000 1177884.82675941 17809.61941644
0.08400000 1168367.83358666 16386.35963521
0.08500000 1158831.23019078 20928.49299974
0.08600000 1149277.83990383 16497.88416642
0.08700000 1139709.37414231 21061.83022317
0.08800000 1130128.06461172 18104.65244534
0.08900000 1120537.03799791 15127.25072349
0.09000000 1110938.47455804 19713.60415709
0.09100000 1101334.24169276 22797.61987410
0.09200000 1091726.04093850 18275.49478402
0.09300000 1082118.27646653 16783.65525670
0.09400000 1072509.88997574 19868.24664556
0.09500000 1062904.70204802 16836.41127180
0.09600000 1053304.60664333 15325.58274708
0.09700000 1043714.16424878 16876.85882933
0.09800000 1034132.50699223 19963.92898614
0.09900000 1024563.16526689 16905.29302183
0.10000000 1015005.91416273 15377.34032272
0.10100000 1005464.71442982 15383.61085429
0.10200000 995941.11416843 20003.47821896
0.10300000 986436.68725554 16927.25434958
0.10400000 976954.32268766 18464.43756746
0.10500000 967496.46145709 19998.15279922
0.10600001 958060.05412412 18452.23751067
0.10700001 948653.35943055 18441.82217516
0.10800001 939273.34695264 15357.11994541
0.10900001 929924.72115416 16878.13448333
0.11000001 920607.98658245 22992.18554713
0.11100001 911323.75472527 18372.28776011
0.11200001 902075.70067772 18348.22061557
0.11300001 892863.66487884 24428.75102121
0.11400001 883689.77361931 16768.01424394
0.11500001 874556.30603161 18260.73652980
0.11600001 865463.94609526 21264.45015694
0.11700001 856414.02518868 16674.38185570
0.11800001 847407.25222955 18151.46419766
0.11900001 838445.31651215 18110.41968969
0.12000001 829529.57096618 15055.96242225
0.12100001 820663.05910898 16519.94815809
0.12200001 811844.74876166 23965.65811250
0.12300001 803077.10712960 19418.40536528
0.12400001 794360.09483342 16383.67772790
0.12500001 785694.67349641 22274.44504321
0.12600001 777084.14990289 14803.45375324
0.12700001 768527.58531017 20658.02246668
0.12800001 760025.95939290 19118.45390957
0.12900001 751580.92881548 19052.57744346
0.13000001 743193.20864460 16064.12196203
0.13100001 734862.60379848 17460.33628929
0.13200001 726591.11651718 23192.78953254
0.13300001 718380.22935064 15883.38761973
0.13400001 710228.82711297 21573.20164064
0.13500001 702139.06245241 14323.63754936
0.13600001 694110.38969187 21395.95377109
0.13700001 686145.06460452 21304.80526056
0.13800001 678241.35002740 16969.59937790
0.13900001 670402.16031660 22525.51364890
0.14000001 662627.05771884 19620.38810436
0.14100001 654916.10775680 16739.65650376
0.14200001 647269.94439075 13883.94096202
0.14300001 639690.36437883 15199.04377454
0.14400001 632174.48534389 17874.73441625
0.14500001 624726.17504714 13681.50387892
0.14600001 617343.99932505 16334.92299273
0.14700001 610030.25199938 16251.20667994
0.14800001 602780.49412051 21555.43148671
0.14900001 595599.30066430 18761.37885610
0.15000001 588485.11703056 21326.70164744
0.15100001 581439.01122358 14582.49108956
0.15200001 574460.48654562 13183.86878833
0.15300001 567550.99757956 20976.68586041
0.15400001 560706.74995462 13036.43255165
0.15500001 553932.29490956 15554.41957512
0.15600001 547223.11961141 19330.65761258
0.15700001 540585.41849385 17936.62503218
0.15800001 534011.64314780 14009.79611923
0.15900001 527508.18981426 13926.21686842
0.16000001 521069.89521137 13842.22241968
0.16100001 514702.19346190 12507.26389152
0.16200001 508400.28348477 14916.46502159
0.16300001 502165.57022738 13588.60097184
0.16400001 495997.89817165 19641.51769487
0.16500001 489896.56160586 14638.10995187
0.16600001 483862.74196951 13332.83848445
0.16700001 477893.64724053 18064.38071860
0.16800001 471990.24035013 14357.94378938
0.16900001 466154.60545250 14264.33160038
0.17000001 460382.56003293 12989.69454470
0.17100001 454675.48782484 19942.06783769
0.17200001 449033.72253401 11652.42565002
0.17300001 443455.99196441 15046.46251791
0.17400001 437942.32410795 14944.78251597
0.17500001 432491.79009603 12559.56217755
0.17600001 427103.05180399 14741.46252924
0.17700001 421778.81677517 15766.09291570
0.17800001 416514.82054805 11183.42345993
0.17900001 411313.62145975 15547.65562555
0.18000001 406173.17380319 13233.12262757
0.18100001 401095.19562585 12044.88929360
0.18200001 396074.49415364 11959.46991591
0.18300001 391114.74043923 16192.15101909
0.18400001 386213.60392626 12860.91361830
0.18500001 381372.70113364 12768.35863716
0.18600001 376588.01839691 15844.94162262
0.18700001 371860.90348285 16778.36475784
0.18800001 367190.47000969 11450.83534826
0.18900001 362578.44661529 10333.48621677
0.19000001 358018.22313443 12308.66709293
0.19100001 353517.73035644 13235.70444993
0.19200001 349068.43800533 11116.08493353
0.19300001 344675.67859232 16048.10035357
0.19400001 340334.16302619 11945.72968670
0.19500001 336046.82814447 10867.75493575
0.19600001 331811.14152060 10785.52166481
0.19700001 327626.70994793 15568.82199247
0.19800001 323493.88058633 9656.29279185
0.19900001 319411.58755066 13415.28731113
0.20000001 315378.04149801 11410.37808067
0.20100001 311394.93447632 11322.32035268
0.20200001 307458.86851580 13106.97218431
0.20300001 303572.18498173 13005.03301930
0.20400001 299732.47253327 9216.77396604
0.20500001 295938.96405515 9144.51442154
0.20600001 292191.71857501 19959.61723931
0.20700001 288490.39696101 10801.08097278
0.20800001 284832.67865097 11608.35636715
0.20900001 281221.96604597 11516.04005396
0.21000001 277652.65187893 12302.78958634
0.21100001 274127.09399567 11332.41460150
0.21200001 270643.82225275 8647.07052976
0.21300001 267201.59041328 8577.17145776
0.21400001 263801.72976323 11059.88804320
0.21500001 260443.51097166 10126.04418531
0.21600001 257124.19843338 10043.27166564
0.21700001 253845.03991085 9130.80651729
0.21800001 250604.77936603 9878.84086969
0.21900001 247402.22393628 11429.98328628
0.22000001 244237.38819335 8906.11678157
0.22100001 241111.41687301 11240.61478612
0.22200001 238022.32724719 11942.77083434
0.22300001 234968.03914515 11052.89708403
0.22400001 231949.40042953 7828.29263467
0.22500001 228968.13925134 9314.42434520
0.22600001 226019.30880714 8465.55361169
0.22700001 223107.02038980 9156.31254979
0.22800001 220227.13591609 7564.80247646
0.22900001 217379.63879205 9749.47726089
0.23000001 214566.31468708 11152.08473326
0.23100001 211785.60473117 8844.16727184
0.23200001 209035.08030633 10228.08696311
0.23300001 206316.58684929 9414.22630317
0.23400001 203629.83291420 8613.54233965
0.23500001 200971.46314802 8537.26815831
0.23600001 198344.97929645 8461.39721699
0.23700001 195747.26963559 11181.08457043
0.23800001 193178.85940144 8310.55492453
0.23900001 190639.00691599 6863.00457359
0.24000001 188127.20924742 8841.03861677
0.24100001 185644.61167668 8760.56963941
0.24200001 183188.84845816 7344.95722636
0.24300001 180760.49371920 7939.00125968
0.24400001 178358.46988292 9176.54370956
0.24500001 175982.99399425 8441.90462124
0.24600001 173633.85133614 7076.44794596
0.24700001 171310.53445265 8284.57783804
0.24800001 169012.68387999 8206.41125401
0.24900001 166738.88587318 10004.33362567
0.25000001 164490.96840070 6812.39377860
0.25100001 162266.08065047 6747.02395264
0.25200001 160067.48090455 6074.56118771
0.25300001 157892.02236511 9023.52950507
0.25400001 155739.70878898 6552.74855731
0.25500001 153610.42546941 8258.09686394
0.25600001 151504.59252306 7008.60278171
0.25700001 149420.87882760 6939.10594107
0.25800001 147360.18121300 6297.43764209
0.25900001 145321.67762954 6234.30026528
0.26000001 143305.12725455 7293.51479672
0.26100001 141309.47635189 7219.50148842
0.26200001 139336.44823930 7695.55240039
0.26300001 137383.60277337 7072.50820543
0.26400001 135452.33571451 5384.23059942
0.26500001 133542.21776766 5861.16821517
0.26600001 131651.59238866 6327.17582960
0.26700001 129782.48208718 7825.88404018
0.26800001 127933.78963207 5678.34152152
0.26900001 126103.86456961 6128.64810810
0.27000001 124294.75492116 7073.61483730
0.27100001 122504.67364992 4998.19092145
0.27200001 120735.58466233 5932.94691107
0.27300001 118984.70314240 7824.43444893
0.27400001 117251.22394762 5803.93586008
0.27500001 115539.52370688 7175.00476176
0.27600001 113844.16873387 5203.24797823
0.27700001 112169.52524653 6548.45719381
0.27800001 110512.08167210 5087.42392055
0.27900001 108874.14216274 5944.52844343
0.28000001 107253.06198227 4972.78845416
0.28100001 105650.89676976 4915.93645936
0.28200001 104067.18534400 4417.65222694
0.28300001 102500.71392921 4803.18368206
0.28400001 100951.94175446 4315.69571427
0.28500001 99421.02353950  4691.67832289
0.28600001 97907.60899895  6322.38415036
0.28700001 96411.25001364  5830.95267682
0.28800001 94931.58394025  4526.81279446
0.28900001 93470.92024895  4472.58374562
0.29000001 92025.62952777  5623.68648663
0.29100001 90598.32413104  4365.02746325
0.29200001 89187.52251375  3919.79180002
0.29300001 87793.61494291  4646.03832270
0.29400001 86415.54557843  4206.27688014
0.29500001 85055.32432377  4531.74789449
0.29600001 83710.72462198  4102.24425429
0.29700001 82382.57373186  4050.75134215
0.29800001 81070.59888668  5090.42314507
0.29900001 79775.50418943  4666.86721601
0.30000001 78495.62786000  4607.30109535
0.30100001 77232.78435223  3498.64529678
0.30200001 75984.30756432  3798.83563652
0.30300001 74753.08472518  3749.61490733
0.30400001 73537.43810359  4710.07313352
0.30500001 72337.36734447  3652.31385013
0.30600001 71151.77724633  3276.53949731
0.30700001 69983.06591510  3879.86135802
0.30800001 68829.20408569  4147.30388853
0.30900001 67690.76165047  3462.38262235
0.31000001 66567.91404643  3105.39333729
0.31100001 65459.23185253  3982.53985446
0.31200001 64366.52449201  3324.20931478
0.31300001 63288.22369806  3577.05057277
0.31400001 62226.00821090  3234.19692989
0.31500001 61177.39419131  3769.75120856
0.31600002 60144.13043989  3717.80959917
0.31700002 59125.36317662  3102.30795277
0.31800002 58121.36153711  3337.32873748
0.31900002 57131.96941346  3016.56812786
0.32000002 56157.22626756  2974.36763010
0.32100002 55195.92634207  3732.34871598
0.32200002 54250.43467620  3942.65052678
0.32300002 53317.07797550  3109.45213477
0.32400002 52398.88844425  3576.22430566
0.32500002 51494.49081066  2518.08071988
0.32600002 50604.34703193  2978.57200734
0.32700002 49727.47163367  3669.88758034
0.32800002 48865.10248599  3134.94079844
0.32900002 48015.59123581  3089.80344234
0.33000002 47180.68311159  3513.78154113
0.33100002 46356.77781718  2539.42440908
0.33200002 45549.12307578  2502.69668591
0.33300002 44753.43754541  2914.79152536
0.33400002 43971.40200228  2872.43197182
0.33500002 43201.36816993  3048.28868242
0.33600002 42445.40765885  3003.86164227
0.33700002 41701.34188462  2959.96138715
0.33800002 40971.20886448  2083.38606942
0.33900002 40252.47113620  2463.45135020
0.34000002 39547.04813594  2629.68109034
0.34100002 38853.66816918  1993.19327147
0.34200002 38173.50127380  1964.02673355
0.34300002 37504.36316444  2322.27027712
0.34400002 36848.77119033  2479.00119923
0.34500002 36204.24471810  3382.20070175
0.34600002 35572.64592632  1851.55630816
0.34700002 34951.27710594  2554.23945187
0.34800002 34343.24041394  1977.65559290
0.34900002 33745.91910023  1948.82692034
0.35000002 33160.41872264  2968.02341834
0.35100002 32586.80839652  2752.93370372
0.35200002 32023.20214467  2034.75436064
0.35300002 31471.28305787  2005.35025143
0.35400002 30930.76470343  1976.47595816
0.35500002 30401.22641954  1785.76812446
0.35600002 29881.53945114  1760.17216474
0.35700002 29373.08901864  1892.80194601
0.35800002 28875.67141479  2176.93697107
0.35900002 28388.54859509  1686.27986642
0.36000002 27912.13375598  2116.01896027
0.36100002 27445.04299552  2235.39885787
0.36200002 26989.37271477  1469.57141393
0.36300002 26542.46298230  2028.90596647
0.36400002 26105.67815624  1715.14313611
0.36500002 25678.49801501  1550.72456858
0.36600002 25261.42830607  1668.77003295
0.36700002 24853.25710679  1509.08984301
0.36800002 24455.87818735  2165.81267486
0.36900002 24066.81147236  2537.84538998
0.37000002 23686.57148860  1713.60509551
0.37100002 23315.43623232  1561.20168407
0.37200002 22953.90381714  1541.12517529
0.37300002 22600.54367225  1775.04678410
0.37400002 22256.03899764  1502.28270351
0.37500002 21920.45685417  1607.20797268
0.37600002 21593.27818418  1831.64990874
0.37700002 21274.01544348  1326.86040607
0.37800002 20963.02390562  1310.92276204
0.37900002 20660.61405754  1648.71707990
0.38000002 20366.06476537  1396.70478778
0.38100002 20078.32729985  1265.53702966
0.38200002 19799.34783227  1251.21984553
0.38300002 19527.33491639  1124.77454447
0.38400002 19263.70308437  1668.71835874
0.38500002 19006.18545709  1760.73310416
0.38600002 18757.22651062  1415.51416568
0.38700002 18514.44033511  1400.80262212
0.38800002 18278.99852428  1279.89553731
0.38900002 18049.87207744  1795.05986314
0.39000002 17828.71243761  1045.65403400
0.39100002 17613.05384940  1242.77713849
0.39200002 17404.57538182  1231.19972084
0.39300002 17202.09260892  1321.63683776
0.39400002 17007.29924993  1511.52379245
0.39500002 16817.49103644  1098.85491638
0.39600002 16634.01334846  1089.61109601
0.39700002 16456.34684631  1080.68834860
0.39800002 16284.70792182  1364.49574142
0.39900002 16118.70736820  1063.83473670
0.40000002 15958.27447341  1439.83538258
0.40100002 15803.72633955  1238.85416645
0.40200002 15654.66493054  1135.58944787
0.40300002 15510.33012927  1221.90386548
0.40400002 15371.72964074  1027.21588191
0.40500002 15238.17371833  1113.60578810
0.40600002 15109.76811389  1291.43194188
0.40700002 14986.03153855  1008.85969098
0.40800002 14867.32581681  912.11048208
0.40900002 14753.10713338  998.04774486
0.41000002 14643.97360512  1354.20152330
0.41100002 14538.91322353  988.35536777
0.41200002 14438.08417502  983.88329273
0.41300002 14342.36409860  1068.79302327
0.41400002 14250.21804601  1153.19895002
0.41500002 14162.52437037  1148.86403136
0.41600002 14078.27171902  968.65553153
0.41700002 13998.35521068  965.46660463
0.41800002 13923.13266855  875.06892968
0.41900002 13849.79965097  1221.55238710
0.42000002 13781.47806394  1131.39049527
0.42100002 13716.74492462  1302.40499231
0.42200002 13655.66287650  1126.38740574
0.42300002 13597.30807167  1470.14101837
0.42400002 13542.30702898  1035.98653681
0.42500002 13490.96389120  1120.69442355
0.42600002 13441.87870097  1033.14284591
0.42700002 13397.13764291  1032.11553292
0.42800002 13354.47770495  1203.10495345
0.42900002 13315.78255173  858.86801529
0.43000002 13279.33456128  1116.06172609
0.43100002 13244.81196074  1029.91662687
0.43200002 13214.07221876  1115.73024066
0.43300002 13185.63096020  1115.90000104
0.43400002 13159.79177110  1030.41174451
0.43500002 13136.20169715  859.10763171
0.43600002 13115.39359126  1031.65690878
0.43700002 13096.25801017  1032.50903045
0.43800002 13079.45647844  1205.79514989
0.43900002 13065.48676767  1207.25103454
0.44000002 13053.06792114  1122.49862907
0.44100002 13043.07673002  864.75602818
0.44200002 13034.84814643  1212.63198053
0.44300002 13028.63250036  1301.56044847
0.44400002 13024.70867077  1130.21914847
0.44500002 13021.22738870  958.23216895
0.44600002 13019.89753001  1134.87942199
0.44700002 13021.36085875  1487.56033500
0.44800002 13022.85266115  1140.21591878
0.44900002 13027.47378443  967.28997434
0.45000002 13033.06311039  1058.02411344
0.45100002 13039.70150032  1060.91016435
0.45200002 13048.00260728  886.61181918
0.45300002 13057.27446558  1155.96056322
0.45400002 13068.22559288  1337.85965848
0.45500002 13080.38767547  1163.10812723
0.45600002 13093.64153972  1166.83992111
0.45700002 13108.04489124  1350.78409006
0.45800002 13123.04013633  1174.57776307
0.45900002 13139.33152819  1269.25948578
0.46000002 13157.24566418  1000.80593888
0.46100002 13174.90360880  913.02086336
0.46200002 13194.53962872  1374.54123097
0.46300002 13214.82355970  1379.62764502
0.46400002 13235.17711705  1107.78437720
0.46500002 13256.91022850  1019.32387578
0.46600002 13279.09253662  1209.26061916
0.46700002 13301.69663136  1307.29080689
0.46800002 13325.84536008  1593.70455137
0.46900002 13349.55746450  1035.25823044
0.47000002 13374.18687316  1228.35225159
0.47100002 13399.36583584  948.67514614
0.47200002 13425.21428257  1143.02279819
0.47300002 13451.54662736  1147.68601264
0.47400002 13477.62967408  1248.36550773
0.47500002 13504.42640336  1253.48091817
0.47600002 13532.18014078  1549.16405594
0.47700002 13559.19054034  1166.63280939
