# SAXS profile: number of points = 501, q_min = 0, q_max = 0.5, delta_q = 0.001
#    q    intensity    error
0.00000000 1682732.95097188 302.89193117
0.00100000 1682646.25200081 706.71144262
0.00200000 1682386.13421331 908.48854124
0.00300000 1681952.79207936 1009.17171120
0.00400000 1681346.14397225 1387.11062148
0.00500000 1680566.78834090 1815.01220325
0.00600000 1679614.63068932 1939.95497743
0.00700000 1678490.34841715 2215.60735199
0.00800000 1677193.74029628 2717.05397399
0.00900000 1675726.31305124 4273.10228095
0.01000000 1674087.28419303 3314.69296583
0.01100000 1672278.32399284 4214.14155994
0.01200000 1670299.37108563 3908.50069970
0.01300000 1668151.67322373 5254.67800241
0.01400000 1665835.48826935 4122.94301624
0.01500000 1663352.32388480 3992.04575508
0.01600000 1660701.81928800 4658.26881134
0.01700000 1657886.17795048 4923.92216939
0.01800000 1654905.93048165 5188.13032551
0.01900000 1651762.03915976 5946.34360929
0.02000000 1648455.24600874 5711.89768580
0.02100000 1644988.34416768 6514.15413825
0.02200000 1641359.94149911 6795.23046653
0.02300000 1637573.07704608 7074.31601485
0.02400000 1633628.36245259 7351.32796624
0.02500000 1629528.36047871 6990.67698572
0.02600000 1625273.15446590 6582.35657665
0.02700000 1620865.02587444 6807.63342047
0.02800000 1616304.02032283 12655.66105951
0.02900000 1611593.90548356 9427.82477995
0.03000000 1606735.07730403 7471.31845288
0.03100000 1601729.11415837 7688.30010172
0.03200000 1596577.35688260 7903.05828057
0.03300000 1591284.09626208 14607.98867712
0.03400000 1585847.49110496 12488.54956868
0.03500000 1580271.71992200 9386.81444980
0.03600000 1574557.50894849 8738.79457852
0.03700000 1568707.92634073 10729.96271240
0.03800000 1562724.19007137 12798.71170900
0.03900000 1556609.21422226 9339.65571785
0.04000000 1550362.76650123 9534.73145581
0.04100000 1543989.13328160 11672.55838883
0.04200000 1537489.87476612 12891.85319800
0.04300000 1530866.41932229 12124.46260383
0.04400000 1524122.33323228 15431.73934066
0.04500000 1517259.20343499 11515.99788916
0.04600000 1510277.93129240 17035.93585693
0.04700000 1503182.45353116 12987.49700253
0.04800000 1495974.83134940 10995.41552201
0.04900000 1488657.16399386 12281.42217462
0.05000000 1481231.39963824 13597.70488187
0.05100000 1473701.34078210 11494.87099358
0.05200000 1466066.45889067 12820.75178046
0.05300000 1458331.94411762 14174.98715763
0.05400000 1450499.09314477 14359.94169179
0.05500000 1442571.22276391 15752.87848744
0.05600000 1434549.39585006 14718.47748825
0.05700000 1426438.13603250 13651.01359904
0.05800000 1418237.11152034 16316.81872991
0.05900000 1409950.27998895 13958.50842383
0.06000000 1401581.35116974 12824.46996235
0.06100000 1393131.60036548 24616.63652883
0.06200000 1384604.06253405 14392.95990282
0.06300000 1376001.66474913 19814.42489882
0.06400000 1367324.25044939 15997.69447842
0.06500000 1358577.52324427 16139.90173113
0.06600000 1349763.38045997 14921.63486915
0.06700000 1340882.84968930 13677.00570690
0.06800000 1331940.41968711 22056.93438248
0.06900000 1322939.02613051 19447.20459462
0.07000000 1313878.37640191 13992.80536394
0.07100000 1304763.25665602 18318.87698147
0.07200000 1295595.52445059 15605.44882307
0.07300000 1286378.58011547 25701.84523498
0.07400000 1277115.27197435 15804.30223134
0.07500000 1267806.04723558 15898.28857753
0.07600000 1258454.35230874 20349.20783082
0.07700000 1249064.13371023 17536.86125957
0.07800000 1239636.25108399 19096.59734351
0.07900000 1230173.05361414 19190.70053650
0.08000000 1220679.47794605 20763.75889391
0.08100000 1211156.22411136 16386.94448107
0.08200000 1201604.64589980 25431.96352387
0.08300000 1192028.58511333 18023.47305279
0.08400000 1182430.66865909 15075.99173305
0.08500000 1172812.96434118 19668.07433532
0.08600000 1163178.29699936 19733.32073510
0.08700000 1153528.13307690 19794.54369311
0.08800000 1143864.93914359 16797.65742020
0.08900000 1134191.71647089 19905.06555900
0.09000000 1124510.63083703 16884.52791518
0.09100000 1114823.74669406 19999.93895531
0.09200000 1105132.62281703 18499.92097521
0.09300000 1095441.80196920 15445.73013359
0.09400000 1085750.15892872 20113.52263944
0.09500000 1076061.46704121 21693.40019520
0.09600000 1066377.74476159 23273.69537347
0.09700000 1056703.72788783 21746.96374232
0.09800000 1047038.30478793 20213.07542430
0.09900000 1037385.22564598 18672.93493968
0.10000000 1027743.76075925 17127.35057850
0.10100000 1018118.73882694 15577.21743668
0.10200000 1008511.15696203 17139.64791876
0.10300000 998922.49407779 20258.14913286
0.10400000 989356.02076674 26490.00870225
0.10500000 979814.11633364 15579.04518269
0.10600001 970293.96233982 20245.18447683
0.10700001 960803.00281180 20234.51219141
0.10800001 951339.21171594 20220.71589664
0.10900001 941906.69123976 27974.63004647
0.11000001 932506.20714117 24841.96652754
0.11100001 923138.57914483 17059.60174565
0.11200001 913806.74974140 18586.83016475
0.11300001 904511.15780970 17013.85567943
0.11400001 895254.06590469 16987.44670039
0.11500001 886037.63532101 15417.05558054
0.11600001 876862.09010607 24622.28864968
0.11700001 867729.45601090 21502.33693260
0.11800001 858640.16689012 19924.74601111
0.11900001 849595.78122432 18351.26973882
0.12000001 840598.14492338 22885.28557355
0.12100001 831649.79819737 19784.94963115
0.12200001 822749.71286730 22769.59937631
0.12300001 813900.78292253 21193.97738584
0.12400001 805102.81817753 22643.51782815
0.12500001 796356.33151833 19566.47598739
0.12600001 787665.47518154 16505.53081023
0.12700001 779028.70155769 23931.76283967
0.12800001 770447.11830936 14908.15244190
0.12900001 761922.44488040 19314.73488806
0.13000001 753455.81010262 16285.94810300
0.13100001 745046.34045596 20652.68553096
0.13200001 736696.33484792 16166.80183035
0.13300001 728407.39251701 21961.48391972
0.13400001 720178.15647014 18958.69086290
0.13500001 712011.24741395 15977.53314528
0.13600001 703905.69101555 20251.36768538
0.13700001 695863.58735753 20166.12771252
0.13800001 687883.70696354 18645.08875647
0.13900001 679969.18449832 15707.28890264
0.14000001 672118.82164196 18479.90787257
0.14100001 664333.22916023 14150.29844848
0.14200001 656612.63183710 18309.64410236
0.14300001 648959.40257084 19624.53325938
0.14400001 641370.05514674 13949.79935745
0.14500001 633849.05159482 16657.55386168
0.14600001 626394.31473880 13811.99529156
0.14700001 619008.40772847 15116.18602986
0.14800001 611687.44386340 16405.45801840
0.14900001 604435.55703644 14959.78074247
0.15000001 597250.81029624 17586.05093893
0.15100001 590134.77376998 14800.58082452
0.15200001 583086.83342568 17396.39649614
0.15300001 576108.43274026 13308.10542430
0.15400001 569195.75685257 18527.32275987
0.15500001 562353.43854177 13159.07108289
0.15600001 555577.17399331 18317.38029105
0.15700001 548872.69090968 14309.11172736
0.15800001 542232.81321476 18105.15448778
0.15900001 535663.53433274 17998.29560311
0.16000001 529160.09549963 12779.21690953
0.16100001 522727.63777834 16512.96685690
0.16200001 516361.93433442 12625.04989046
0.16300001 510063.72840198 15057.08197324
0.16400001 503833.39123591 19951.80323486
0.16500001 497669.66123173 12391.97514971
0.16600001 491574.11055258 17239.50487101
0.16700001 485543.89150187 17129.98930097
0.16800001 479579.77871133 13373.08276079
0.16900001 473683.95062615 13286.83544244
0.17000001 467852.61113675 12000.42004231
0.17100001 462086.52487492 13114.01619521
0.17200001 456386.30204377 13027.54760704
0.17300001 450750.76892219 14117.51474934
0.17400001 445179.89879148 11685.97289516
0.17500001 439672.69970085 11607.35982029
0.17600001 434227.63717045 12681.61874250
0.17700001 428847.81565316 14885.30838436
0.17800001 423529.03512098 17057.63269517
0.17900001 418273.32030231 14681.39423607
0.18000001 413079.02995036 11215.09619290
0.18100001 407947.56638421 12250.66599720
0.18200001 402874.24657436 15482.45802721
0.18300001 397862.31876135 10981.00051655
0.18400001 392909.47813707 10903.23853338
0.18500001 388017.54351044 15155.96596552
0.18600001 383182.31570045 16122.39669477
0.18700001 378405.06278769 11738.12560224
0.18800001 373685.10071621 18009.75427991
0.18900001 369024.29920759 13672.35093163
0.19000001 364415.42724687 11484.55273232
0.19100001 359867.04343080 10364.17134051
0.19200001 355370.78412130 11316.78315508
0.19300001 350930.78047032 13275.71205250
0.19400001 346543.28139399 11150.03060573
0.19500001 342209.74420829 14085.35373722
0.19600001 337928.88998638 12981.53892229
0.19700001 333699.71720494 12884.14669016
0.19800001 329522.63047647 9836.25098457
0.19900001 325396.58528020 13666.65722765
0.20000001 321319.70595627 19375.57918488
0.20100001 317293.65524794 11536.79785007
0.20200001 313315.47705883 12402.59374556
0.20300001 309386.87537969 13254.13436772
0.20400001 305505.76605941 11273.16330043
0.20500001 301671.32839340 12118.13783435
0.20600001 297883.53757608 13873.92641840
0.20700001 294142.42320481 11930.41724913
0.20800001 290444.95149603 11837.08455776
0.20900001 286795.34683312 11744.27000798
0.21000001 283187.14548908 11651.73565195
0.21100001 279623.28176648 9781.22285858
0.21200001 276102.28375590 10585.76205964
0.21300001 272622.59101147 9626.30414370
0.21400001 269185.67718250 10417.48619947
0.21500001 265790.94369069 12917.44047407
0.21600001 262435.45327941 9396.50184892
0.21700001 259120.43472866 9320.56247786
0.21800001 255844.73198923 11766.29978050
0.21900001 252607.24200837 9169.64331846
0.22000001 249407.74732060 12401.80082191
0.22100001 246247.53349613 12300.06487972
0.22200001 243124.29131659 10572.26030781
0.22300001 240036.70542190 9678.28042025
0.22400001 236984.61353302 8798.05419344
0.22500001 233970.62783598 13483.72791980
0.22600001 230989.27830971 8651.70382821
0.22700001 228044.82672377 9358.96013132
0.22800001 225132.94863013 9279.98058138
0.22900001 222253.94588598 9201.31379482
0.23000001 219409.47750057 7602.53875493
0.23100001 216597.87485549 9798.88832188
0.23200001 213816.80031084 7472.89752428
0.23300001 211067.83131779 11112.72184445
0.23400001 208350.82954387 8078.80379765
0.23500001 205662.68870618 10920.68928680
0.23600001 203006.66716241 7938.57609486
0.23700001 200379.70957482 7868.91156719
0.23800001 197782.31401844 8508.59555152
0.23900001 195213.55445319 7730.45712199
0.24000001 192673.26327167 11840.73595443
0.24100001 190162.43116525 7593.18623560
0.24200001 187678.81867083 8893.16124338
0.24300001 185222.24031891 9490.78804288
0.24400001 182792.63063159 6717.62949348
0.24500001 180389.94656280 7322.02827735
0.24600001 178013.30502586 9233.55056849
0.24700001 175662.97636272 7841.59563579
0.24800001 173338.48753894 9711.28922378
0.24900001 171038.18558264 8338.11194161
0.25000001 168763.77485317 6989.35206620
0.25100001 166512.60754643 6923.59454933
0.25200001 164287.76828904 6234.72110153
0.25300001 162086.49633018 7410.59496281
0.25400001 159908.26153735 8563.08781045
0.25500001 157753.29891248 6663.49966133
0.25600001 155621.96036384 8398.91759821
0.25700001 153513.13239306 6535.05435517
0.25800001 151427.03481912 6471.23463918
0.25900001 149363.56307623 7572.73300627
0.26000001 147322.11846501 6921.19345297
0.26100001 145301.46617984 6852.41746927
0.26200001 143303.80998492 8480.00335710
0.26300001 141326.26779669 6715.82456348
0.26400001 139370.48582956 7755.96790341
0.26500001 137435.91593853 6032.06263597
0.26600001 135521.11246039 9226.95537848
0.26700001 133627.67031601 8057.74890135
0.26800001 131754.99562188 7974.47148737
0.26900001 129900.78786696 5260.98215757
0.27000001 128067.75173484 6247.14522525
0.27100001 126253.86180748 5666.27358606
0.27200001 124460.84633193 7645.00784773
0.27300001 122686.24665180 5546.64547362
0.27400001 120929.07370467 5487.15697903
0.27500001 119193.79909939 6908.47292275
0.27600001 117474.82113803 4881.07904929
0.27700001 115776.56693555 6276.24799061
0.27800001 114095.64026413 5729.88332524
0.27900001 112434.20346041 6611.13147636
0.28000001 110789.67943142 9339.57041810
0.28100001 109164.18073488 6002.93858272
0.28200001 107557.13386032 7761.86093240
0.28300001 105967.34484548 5417.05092489
0.28400001 104395.21127272 4909.18504246
0.28500001 102841.14785965 5294.26254240
0.28600001 101304.32777741 4361.15151724
0.28700001 99784.76478368  4741.77224696
0.28800001 98281.81656971  5538.67203495
0.28900001 96798.13481687  5473.93478300
0.29000001 95329.53654182  4993.36136042
0.29100001 93878.97952729  5345.46934731
0.29200001 92445.02902021  6500.73474842
0.29300001 91028.12033887  5218.64238606
0.29400001 89626.98703517  7535.38929168
0.29500001 88243.47449082  5093.41358872
0.29600001 86875.74248068  6966.56611931
0.29700001 85524.37697687  3822.93983184
0.29800001 84189.20601409  5663.82910272
0.29900001 82871.05355528  5220.87662113
0.30000001 81567.81965801  4051.06595509
0.30100001 80281.95628219  5455.15918762
0.30200001 79010.29661816  4668.32359669
0.30300001 77755.99682037  4609.37570973
0.30400001 76517.06055770  3850.72125487
0.30500001 75293.58735679  3455.97582329
0.30600001 74084.93332581  4435.09474352
0.30700001 72892.98424263  3367.65603145
0.30800001 71715.85900894  4653.64231141
0.30900001 70554.25108539  4265.00468004
0.31000001 69408.18813973  4209.25976902
0.31100001 68276.34483253  4153.93301628
0.31200001 67160.23495720  4414.44245274
0.31300001 66058.79451108  3733.64324254
0.31400001 64973.13941590  3683.97717931
0.31500001 63901.19699359  3634.70025709
0.31600002 62844.69914278  3287.09214430
0.31700002 61802.63304102  2947.98573564
0.31800002 60775.32706479  3198.90949152
0.31900002 59762.74683566  3155.47318233
0.32000002 58764.45584565  3961.31215612
0.32100002 57779.84692242  3069.84341235
0.32200002 56811.07398663  3027.74633148
0.32300002 55854.43221045  4071.78830094
0.32400002 54912.74260551  4015.49449317
0.32500002 53985.10455425  5279.74347541
0.32600002 53071.59398407  3384.11035064
0.32700002 52171.26426635  4620.28738221
0.32800002 51285.62705183  3037.13497783
0.32900002 50412.74070516  2994.51693969
0.33000002 49554.31619971  2952.44629899
0.33100002 48707.24189720  2668.18283748
0.33200002 47876.16878630  2391.41474412
0.33300002 47057.25011439  2593.32517661
0.33400002 46251.75928589  2556.56611560
0.33500002 45458.55905132  3665.77837550
0.33600002 44679.15750063  2710.23782234
0.33700002 43911.80508137  3339.49293459
0.33800002 43158.49423456  3072.45335006
0.33900002 42416.51902745  3028.53960198
0.34000002 41687.98462663  2345.57456610
0.34100002 40971.38737817  2312.01549924
0.34200002 40267.94377201  3107.67870778
0.34300002 39575.68791027  2858.94783004
0.34400002 38897.07997804  2214.21638261
0.34500002 38229.44237914  2182.51896879
0.34600002 37574.62842621  2151.33545243
0.34700002 36930.43117278  2120.54545837
0.34800002 36299.24792781  2280.31886282
0.34900002 35679.01120204  2809.72226523
0.35000002 35070.70777570  2400.41470740
0.35100002 34474.14594368  2184.28199044
0.35200002 33887.90323877  1973.80101763
0.35300002 33313.16644932  2122.71506669
0.35400002 32749.76681033  2092.71019830
0.35500002 32197.70959931  1891.29355144
0.35600002 31655.39244687  2203.69024957
0.35700002 31124.49017959  1838.52372199
0.35800002 30604.40492173  1977.65673971
0.35900002 30095.03985483  1787.64545205
0.36000002 29596.29105135  2403.95885451
0.36100002 29106.93803001  2054.65885286
0.36200002 28628.97654400  2650.04133932
0.36300002 28160.11204119  1998.80484736
0.36400002 27701.25901576  1971.63720384
0.36500002 27252.03872003  1645.75069626
0.36600002 26813.04256829  2214.08709495
0.36700002 26383.11992357  2475.79209090
0.36800002 25964.01072238  1868.24048003
0.36900002 25553.47137004  1418.21772822
0.37000002 25151.57622987  1819.59086854
0.37100002 24758.95631028  1934.16975858
0.37200002 24376.04102501  1636.60747195
0.37300002 24001.44426865  2154.36973961
0.37400002 23635.85114254  1595.42002770
0.37500002 23279.11558642  1706.82483565
0.37600002 22931.14750301  1296.75645272
0.37700002 22591.02486725  1409.00228772
0.37800002 22259.26055183  1391.98292455
0.37900002 21936.31379938  1250.36994580
0.38000002 21621.26766094  1359.22105589
0.38100002 21313.20507942  1831.87006336
0.38200002 21013.91906214  1327.97467804
0.38300002 20721.80366684  1193.57594775
0.38400002 20438.10743749  1416.36091252
0.38500002 20160.79988573  1517.50347929
0.38600002 19892.17965479  1385.68930040
0.38700002 19629.57795938  1142.44149136
0.38800002 19374.79505590  1356.62321408
0.38900002 19126.18608777  1902.09929654
0.39000002 18885.89656745  1661.48682924
0.39100002 18651.25686066  1425.70214197
0.39200002 18423.78849604  1411.90709829
0.39300002 18202.56338036  1183.34870142
0.39400002 17989.10223532  1172.43979373
0.39500002 17780.79272628  1267.41496558
0.39600002 17578.96805994  1256.19311708
0.39700002 17383.08227689  1660.43209776
0.39800002 17193.55441662  1543.55142088
0.39900002 17009.56485719  1122.63133376
0.40000002 16831.38681071  1113.64876109
0.40100002 16659.29395758  1305.92211521
0.40200002 16492.74020949  1196.38343148
0.40300002 16331.23537760  1484.50936616
0.40400002 16175.43238525  1277.45483315
0.40500002 16025.16414043  1073.52579663
0.40600002 15879.73209781  1454.18653576
0.40700002 15739.68930324  1155.92283720
0.40800002 15604.35472896  1148.79264958
0.40900002 15473.96873217  1332.30877097
0.41000002 15348.85516925  1040.88266262
0.41100002 15227.80217338  941.07821891
0.41200002 15111.26968768  1404.21480226
0.41300002 15000.05825178  1117.80439389
0.41400002 14892.46034657  1019.76127055
0.41500002 14789.53988639  1015.15406590
0.41600002 14690.22657541  1102.64845900
0.41700002 14595.48734675  1281.19194001
0.41800002 14505.56167263  1276.34443205
0.41900002 14417.79216059  1089.98513899
0.42000002 14335.11059218  1086.31473215
0.42100002 14256.33759705  1173.15407645
0.42200002 14181.17059507  1079.75438027
0.42300002 14109.07551189  987.07096958
0.42400002 14040.48766370  984.58924407
0.42500002 13975.69786391  1071.65656299
0.42600002 13913.34496062  1336.72468043
0.42700002 13855.57030813  1067.43318712
0.42800002 13800.24237710  1065.65476686
0.42900002 13748.82983759  975.47952320
0.43000002 13699.90200819  974.26857748
0.43100002 13653.17471982  1150.14349290
0.43200002 13610.28394122  883.98798387
0.43300002 13569.88069778  1236.75898540
0.43400002 13532.31806917  882.98379586
0.43500002 13497.19234689  1324.07463198
0.43600002 13465.11444992  1147.42978223
0.43700002 13434.82410566  1147.46838124
0.43800002 13406.86272508  971.12614751
0.43900002 13382.13385771  1236.50922705
0.44000002 13359.14798602  972.07844927
0.44100002 13338.73370901  884.35808682
0.44200002 13320.21543636  1150.66686500
0.44300002 13304.00492180  1063.25612374
0.44400002 13290.07075977  887.11226526
0.44500002 13276.83137904  977.04206749
0.44600002 13266.07236824  1067.38823333
0.44700002 13258.15509407  980.04287100
0.44800002 13250.58642893  1249.39785359
0.44900002 13246.29327839  983.53732253
0.45000002 13243.02283174  1164.65769813
0.45100002 13241.06306336  1077.29294189
0.45200002 13240.98764866  1259.61521471
0.45300002 13242.01838183  991.95964399
0.45400002 13244.94487319  1355.95129566
0.45500002 13249.21283103  1087.49544071
0.45600002 13254.78607539  1090.33875424
0.45700002 13261.61161543  911.07276116
0.45800002 13269.36187036  913.59560807
0.45900002 13278.32485223  1099.44534987
0.46000002 13289.20332075  918.94845318
0.46100002 13300.09358831  1198.20548816
0.46200002 13312.98226117  1386.87999279
0.46300002 13326.79855854  1484.07235782
0.46400002 13340.82065201  1116.62674150
0.46500002 13356.44652712  1120.33878779
0.46600002 13372.52518703  1217.76906387
0.46700002 13389.17855585  1503.87260667
0.46800002 13407.63318379  1131.87244702
0.46900002 13425.89461648  1230.48329992
0.47000002 13445.20111282  1044.89385401
0.47100002 13465.06732081  1048.65949265
0.47200002 13485.92925812  1052.50939884
0.47300002 13507.42810667  960.37818390
0.47400002 13528.74178528  1253.09976725
0.47500002 13550.98744961  1161.04865971
0.47600002 13574.14459081  971.23009151
0.47700002 13597.01454060  974.90598877
