# SAXS profile: number of points = 501, q_min = 0, q_max = 0.5, delta_q = 0.001
#    q    intensity    error
0.00000000 1700912.83420644 382.70538770
0.00100000 1700825.60693320 561.27246362
0.00200000 1700563.90402549 1224.40604967
0.00300000 1700127.91884362 1428.10750270
0.00400000 1699517.57521876 1657.02969880
0.00500000 1698733.47628352 1681.74620809
0.00600000 1697775.49943052 1960.93078168
0.00700000 1696644.36714978 2850.36265527
0.00800000 1695339.84696375 3204.19244604
0.00900000 1693863.44020777 3048.95432271
0.01000000 1692214.38757278 3909.01540408
0.01100000 1690394.39259212 3651.25204697
0.01200000 1688403.34899902 3621.62534239
0.01300000 1686242.49876949 3895.22034396
0.01400000 1683912.12980804 4546.56295204
0.01500000 1681413.73717801 6053.08972338
0.01600000 1678746.98371956 4708.88549984
0.01700000 1675914.04219932 5429.96174031
0.01800000 1672915.53011970 4767.80947538
0.01900000 1669752.27398129 6011.10845757
0.02000000 1666425.14965167 5774.16340474
0.02100000 1662936.85159724 6036.46104498
0.02200000 1659286.09361629 6296.99101136
0.02300000 1655475.81210476 6555.68451434
0.02400000 1651506.69791437 6193.15039957
0.02500000 1647381.29741406 7709.74482401
0.02600000 1643099.72195496 7985.46501394
0.02700000 1638664.17273465 8947.10679292
0.02800000 1634074.84013382 8529.87105668
0.02900000 1629335.38136700 8065.21050807
0.03000000 1624446.20555358 7553.67520303
0.03100000 1619408.98232717 8550.47982012
0.03200000 1614224.95563276 11985.62084761
0.03300000 1608898.48017735 12308.07394076
0.03400000 1603427.83586644 11785.19513739
0.03500000 1597816.91634649 10353.85409605
0.03600000 1592066.64627804 8835.97029519
0.03700000 1586180.09235462 10849.47233347
0.03800000 1580158.53403395 13865.89177786
0.03900000 1574004.73791500 10388.43175133
0.04000000 1567718.64536689 10605.61712736
0.04100000 1561304.31455216 13770.70469285
0.04200000 1554763.65233322 11031.04862507
0.04300000 1548097.94951827 12260.93632931
0.04400000 1541310.38322277 17686.53746888
0.04500000 1534403.20769017 11646.12088750
0.04600000 1527377.05488264 12921.61048499
0.04700000 1520235.68540385 12040.26718837
0.04800000 1512981.36900057 18904.70308526
0.04900000 1505616.19721089 14679.75860611
0.05000000 1498142.04559807 14899.02333726
0.05100000 1490562.84796682 18602.22520919
0.05200000 1482877.99278311 15325.54476960
0.05300000 1475092.88383271 13143.07820765
0.05400000 1467208.33925922 14525.36323604
0.05500000 1459228.20847214 13483.26927527
0.05600000 1451153.06479046 14888.83113952
0.05700000 1442988.05234018 15064.79596963
0.05800000 1434732.44783211 12697.38275619
0.05900000 1426390.17815282 17972.51708415
0.06000000 1417965.13973762 15569.25796170
0.06100000 1409458.60775705 15729.55879763
0.06200000 1400873.49465107 17209.73168623
0.06300000 1392212.90635796 20047.86678890
0.06400000 1383476.58406366 18884.45625563
0.06500000 1374670.19394595 14970.15911234
0.06600000 1365795.84088450 17844.12349606
0.06700000 1356854.32802854 15223.90627294
0.06800000 1347850.27106006 16740.30115016
0.06900000 1338786.68952995 15462.98698803
0.07000000 1329663.20032209 15577.00512122
0.07100000 1320484.45835967 17113.47938190
0.07200000 1311252.74995043 15794.04011305
0.07300000 1301971.14814843 21677.82063240
0.07400000 1292642.53319482 17450.67501594
0.07500000 1283267.48706332 20480.95005352
0.07600000 1273849.38413094 14712.96107646
0.07700000 1264392.13296540 22190.08297400
0.07800000 1254896.86244315 17844.63422079
0.07900000 1245365.60589427 25405.45955185
0.08000000 1235803.36491151 24024.01854087
0.08100000 1226211.18505613 18098.87794060
0.08200000 1216590.07221833 16661.20182086
0.08300000 1206943.90487249 21290.49148116
0.08400000 1197275.59625966 15265.26456884
0.08500000 1187586.92851636 27575.76977470
0.08600000 1177880.76603897 15371.34471852
0.08700000 1168158.85779298 20045.60694102
0.08800000 1158423.37116488 18557.94327761
0.08900000 1148677.39516328 23260.71834461
0.09000000 1138923.25076931 23319.45465494
0.09100000 1129162.95135104 18698.93935287
0.09200000 1119397.89137099 17177.16145019
0.09300000 1109632.95848833 21904.15562988
0.09400000 1099866.64743053 23509.65069372
0.09500000 1090103.10791098 18836.98259009
0.09600000 1080344.15898534 18862.80990258
0.09700000 1070594.61274871 20459.06401147
0.09800000 1060853.19687350 15753.67071427
0.09900000 1051124.02741154 15766.86115257
0.10000000 1041406.02212314 18932.76237255
0.10100000 1031704.21130474 20520.59772797
0.10200000 1022019.89117073 17369.22886743
0.10300000 1012353.98972684 23689.08447396
0.10400000 1002709.88071174 17371.94950060
0.10500000 993090.21131251 15790.13510278
0.10600001 983492.10743380 20520.56378717
0.10700001 973923.26341112 17355.31337069
0.10800001 964380.95288266 15767.62932168
0.10900001 954869.86352088 22057.49488548
0.11000001 945390.79851452 17314.83328979
0.11100001 935944.22899045 20441.02292338
0.11200001 926533.51585240 18845.69259964
0.11300001 917158.74780945 23525.12298889
0.11400001 907822.42164273 21923.91251495
0.11500001 898526.59294970 21888.10883492
0.11600001 889271.56032699 23410.07492802
0.11700001 880059.42324973 20250.16828266
0.11800001 870890.38720654 17099.93355818
0.11900001 861766.39069362 20165.33449205
0.12000001 852688.93529485 20119.19637599
0.12100001 843660.65874509 16982.88986057
0.12200001 834680.69626882 16939.84552883
0.12300001 825751.87063571 18430.78262094
0.12400001 816873.83439072 18379.66213979
0.12500001 808047.46052811 22908.14658541
0.12600001 799276.63077955 24361.95285418
0.12700001 790559.87829082 19732.37549205
0.12800001 781898.30303192 15129.73287672
0.12900001 773293.97017993 15079.23312922
0.13000001 764747.37038489 19535.47249728
0.13100001 756258.08472976 14973.91078348
0.13200001 747828.26171275 16411.09197691
0.13300001 739459.58250942 19322.07980187
0.13400001 731150.66313930 17766.96195192
0.13500001 722904.39084093 20646.15037585
0.13600001 714719.14381294 19093.72282725
0.13700001 706597.98459084 21939.86845608
0.13800001 698538.79297160 24759.70868444
0.13900001 690545.07989711 18851.88157021
0.14000001 682615.85900127 14437.32609875
0.14100001 674751.34365071 15809.42472736
0.14200001 666952.17458813 15736.73730163
0.14300001 659220.31207438 14239.15941243
0.14400001 651552.56574685 15588.39587080
0.14500001 643953.20560685 15512.83345484
0.14600001 636420.50058997 14033.07270001
0.14700001 628956.98762090 18151.69951907
0.14800001 621558.26188870 16670.19337033
0.14900001 614228.84115377 15202.16453581
0.15000001 606966.90678760 17872.14141362
0.15100001 599773.80477037 16409.81207281
0.15200001 592649.09404821 19041.81629030
0.15300001 585594.30119354 22996.28929304
0.15400001 578605.21046578 21524.11484507
0.15500001 571686.84650254 18728.46197528
0.15600001 564834.67710088 14632.04300086
0.15700001 558054.70688195 22484.02520145
0.15800001 551339.50368433 14464.39256186
0.15900001 544695.22020807 16994.49167264
0.16000001 538117.06259062 14295.08044248
0.16100001 531610.11893122 12918.12649982
0.16200001 525170.25366009 14124.45463895
0.16300001 518798.04530381 14038.67576866
0.16400001 512494.10722854 15221.07570327
0.16500001 506257.06777084 13866.38174089
0.16600001 500088.55230171 15032.66259193
0.16700001 493985.69041787 16182.97198216
0.16800001 487949.22576788 13606.46480299
0.16900001 481981.46816900 15977.68642424
0.17000001 476078.36960109 12211.41075689
0.17100001 470240.91329280 12132.21613585
0.17200001 464469.66316860 19284.78132544
0.17300001 458763.57646376 14368.47589339
0.17400001 453122.51249512 13083.91316620
0.17500001 447545.33789064 18904.31596531
0.17600001 442030.67467611 19951.05544378
0.17700001 436581.63912257 12822.40334664
0.17800001 431193.94059324 16208.58099247
0.17900001 425869.66791921 14948.02605001
0.18000001 420607.22554615 12561.43538428
0.18100001 415408.12738049 18145.02786109
0.18200001 410267.36960012 12388.02381026
0.18300001 405188.56248587 14538.16630877
0.18400001 400169.06651257 12215.16133235
0.18500001 395210.92525868 13231.66240275
0.18600001 390309.92723268 13137.83277133
0.18700001 385467.24377355 11957.19446677
0.18800001 380682.35346040 10792.34523050
0.18900001 375956.84744317 13929.20185589
0.19000001 371283.75932507 12764.73624871
0.19100001 366671.64002647 13728.18685125
0.19200001 362111.81788852 11531.45138554
0.19300001 357608.94028347 20812.84130796
0.19400001 353158.72111480 16527.82892918
0.19500001 348763.11652648 15380.45416562
0.19600001 344420.38087361 16284.19637724
0.19700001 340130.02086949 11112.04830693
0.19800001 335891.96659957 10026.37567683
0.19900001 331705.41180829 10946.27910699
0.20000001 327568.37851774 12839.04320279
0.20100001 323482.75770108 15682.44483454
0.20200001 319445.21962208 11672.52887667
0.20300001 315457.84596884 11583.61265147
0.20400001 311518.28236096 11495.02516244
0.20500001 307625.88484508 13307.89640742
0.20600001 303780.61783627 12262.10521857
0.20700001 299982.29491720 12167.28245698
0.20800001 296228.15029511 12072.77883596
0.20900001 292522.13681344 13821.67161780
0.21000001 288858.12089543 11885.06794608
0.21100001 285238.93718370 13605.89794686
0.21200001 281662.78271618 11698.86423317
0.21300001 278128.62195416 14284.68669888
0.21400001 274637.57506179 13285.59332171
0.21500001 271189.09860401 9665.17993119
0.21600001 267780.30555535 12202.74910109
0.21700001 264412.31862799 9510.91155072
0.21800001 261084.28389286 13722.59061022
0.21900001 257794.72336071 10208.67152777
0.22000001 254543.47605191 10125.73995612
0.22100001 251332.12397822 12554.04018631
0.22200001 248158.17765210 9130.98057846
0.22300001 245020.18793785 9055.94657440
0.22400001 241918.01047802 12247.09985957
0.22500001 238854.60967117 8906.88881582
0.22600001 235824.20583746 8832.79604733
0.22700001 232831.12588243 9555.38985808
0.22800001 229870.88109901 10264.88468090
0.22900001 226943.97190711 11744.35110159
0.23000001 224052.02558062 8539.74335887
0.23100001 221193.38340827 7697.53010664
0.23200001 218365.52250714 11447.81305885
0.23300001 215570.45704411 10593.13276014
0.23400001 212807.64824673 7501.46995548
0.23500001 210074.00296804 8180.28206247
0.23600001 207373.00400664 8109.32170523
0.23700001 204701.31911114 7307.83743791
0.23800001 202059.72836347 12314.53072757
0.23900001 199447.10605171 11488.15385196
0.24000001 196863.29273535 9251.59087970
0.24100001 194309.47221551 8464.12101007
0.24200001 191782.95737107 7689.53803952
0.24300001 189284.30230248 6927.80579198
0.24400001 186812.77051760 8924.98053366
0.24500001 184368.49658636 7483.51763044
0.24600001 181950.78341930 8089.53221350
0.24700001 179559.67847347 6679.62035520
0.24800001 177194.69989525 8603.68906043
0.24900001 174854.34036910 8524.14949625
0.25000001 172540.31631927 8444.98618176
0.25100001 170249.87010721 7722.53447341
0.25200001 167986.08647792 8925.10119682
0.25300001 165746.16195359 9472.39360379
0.25400001 163529.82372819 8757.02247495
0.25500001 161336.94198951 6814.87275206
0.25600001 159168.08582584 6135.92999889
0.25700001 157022.07092269 7899.78076189
0.25800001 154899.31148750 8424.97395042
0.25900001 152799.31332851 6555.09085195
0.26000001 150721.67446235 7670.97998472
0.26100001 148665.42710580 6426.80671788
0.26200001 146632.15786801 6941.56668192
0.26300001 144619.52042100 8017.70659152
0.26400001 142628.99367188 6803.40332007
0.26500001 140660.05166872 6173.56995987
0.26600001 138711.05997782 7221.99167949
0.26700001 136783.87263653 6598.45432823
0.26800001 134877.67267656 5986.54578504
0.26900001 132990.35773356 5924.72071740
0.27000001 131124.41677134 7462.29091159
0.27100001 129278.00455019 8966.72281993
0.27200001 127452.83181455 5741.11308078
0.27300001 125646.28398564 5680.46876781
0.27400001 123857.45018424 5109.12006189
0.27500001 122090.78093407 6065.47028386
0.27600001 120340.87670387 8500.27822826
0.27700001 118611.86329027 6924.56090660
0.27800001 116900.59295228 6359.97706057
0.27900001 115208.93575162 6774.28574281
0.28000001 113534.54622760 4785.48134998
0.28100001 111879.44109825 5205.75064068
0.28200001 110243.13015121 5615.78531570
0.28300001 108624.30744164 5552.87485924
0.28400001 107023.47147965 4575.25362231
0.28500001 105440.92508150 5880.44067012
0.28600001 103875.91416971 4919.04414833
0.28700001 102328.44009784 6188.82435005
0.28800001 100797.80574019 4369.58508566
0.28900001 99286.70868048  5182.76643844
0.29000001 97790.94090735  5122.28972719
0.29100001 96313.55628986  4640.38736170
0.29200001 94852.91288203  5002.54286220
0.29300001 93409.57064179  5355.17093839
0.29400001 91982.29931396  5698.30371224
0.29500001 90572.95240792  4825.72713273
0.29600001 89179.50102984  5959.42043842
0.29700001 87802.79841074  4709.74232970
0.29800001 86442.28494875  4264.63032983
0.29900001 85099.24824573  5744.19952851
0.30000001 83771.35224442  4160.50440618
0.30100001 82460.96420428  5229.67459741
0.30200001 81165.13496163  3688.95555864
0.30300001 79886.71451482  4007.11778977
0.30400001 78623.97522966  3956.75174075
0.30500001 77376.87349428  3906.75852768
0.30600001 76144.87248193  3506.47154380
0.30700001 74929.70262642  4500.27815280
0.30800001 73729.72233792  4784.32190902
0.30900001 72545.31088778  4048.02853919
0.31000001 71376.67105897  3995.66623505
0.31100001 70222.46048389  4600.97582874
0.31200001 69084.22265426  3243.50440718
0.31300001 67960.78688373  5121.52514204
0.31400001 66853.54575873  6001.77735465
0.31500001 65759.99659242  3428.72638467
0.31600002 64682.06936547  3383.19579835
0.31700002 63618.84500325  3338.08095537
0.31800002 62570.51950220  3592.79939993
0.31900002 61537.10680806  5021.42815330
0.32000002 60518.35418811  3788.14655977
0.32100002 59513.31876077  3736.84146193
0.32200002 58524.25258885  2835.50017219
0.32300002 57547.44588524  3915.52840344
0.32400002 56585.86648020  3310.27334584
0.32500002 55638.48167296  3264.86625917
0.32600002 54705.42526758  3219.96148372
0.32700002 53785.78724984  3440.13911540
0.32800002 52880.77889397  3131.59987439
0.32900002 51988.88845628  3602.83014063
0.33000002 51111.65391913  3299.00185843
0.33100002 50245.87319015  3002.69352403
0.33200002 49396.20599404  3947.74496999
0.33300002 48558.76472747  2919.35307366
0.33400002 47735.15850407  2878.43019411
0.33500002 46923.69213933  3074.44045456
0.33600002 46126.50308371  3497.54226195
0.33700002 45341.27902888  2758.56354675
0.33800002 44570.31898198  2493.04091032
0.33900002 43810.81659592  2681.22210265
0.34000002 43064.92962914  2863.60263130
0.34100002 42331.10871194  2171.58597977
0.34200002 41610.67336479  2997.21694441
0.34300002 40901.34833548  2532.61160888
0.34400002 40206.03335989  2496.79478990
0.34500002 39521.67793861  2871.64525502
0.34600002 38850.42087086  2831.03030294
0.34700002 38189.74072714  2591.55592848
0.34800002 37542.38104362  2161.87811479
0.34900002 36906.00706406  2131.32200889
0.35000002 36281.71740394  2292.27901415
0.35100002 35669.30617565  2071.67340080
0.35200002 35067.27091865  2042.49329140
0.35300002 34476.95216736  2379.94412084
0.35400002 33898.13035284  2888.12084285
0.35500002 33330.69177872  2491.80263540
0.35600002 32773.19901098  2106.00586820
0.35700002 32226.99036113  2076.70735723
0.35800002 31692.09699859  2389.26730589
0.35900002 31167.78324867  2524.59056272
0.36000002 30654.28567853  2655.88743699
0.36100002 30150.23158881  2292.02071395
0.36200002 29657.83623568  1937.84311143
0.36300002 29174.45454392  1752.21782291
0.36400002 28701.30050073  1728.53590453
0.36500002 28237.94652529  1705.28967144
0.36600002 27784.86859997  2294.33563332
0.36700002 27340.91078737  1811.06201634
0.36800002 26908.00411809  2382.97295758
0.36900002 26483.62259195  1469.84112348
0.37000002 26068.09631757  2030.96548031
0.37100002 25661.93818646  2147.90432795
0.37200002 25265.65664430  1554.97491183
0.37300002 24877.71386150  2233.02370199
0.37400002 24498.83833977  1929.28361065
0.37500002 24128.97790358  1633.04930187
0.37600002 23767.93752408  1612.89231679
0.37700002 23414.93853362  1725.91520107
0.37800002 23070.34201177  1705.01370715
0.37900002 22734.68111195  1814.22763868
0.38000002 22406.96559581  1280.55814446
0.38100002 22086.33932760  1518.65676411
0.38200002 21774.66528818  1751.33641209
0.38300002 21470.14453048  1978.68861367
0.38400002 21174.28709571  1589.65967902
0.38500002 20884.69056324  1571.99073317
0.38600002 20604.00810621  1435.27527267
0.38700002 20329.47045989  1774.76285523
0.38800002 20062.75721387  1170.66193889
0.38900002 19802.38545000  1390.12752445
0.39000002 19550.42184177  2063.93813162
0.39100002 19304.06375580  2270.15800523
0.39200002 19065.11547790  1461.05519387
0.39300002 18832.35899237  1558.18945685
0.39400002 18607.62030636  1653.75233308
0.39500002 18388.05093313  1747.60044348
0.39600002 18174.99327725  1515.24926131
0.39700002 17968.02282620  1179.96011490
0.39800002 17767.41518005  1276.05581869
0.39900002 17572.49618837  1054.34982126
0.40000002 17383.49364603  1254.74063082
0.40100002 17200.53540748  1140.91156763
0.40200002 17023.42815703  1440.69279319
0.40300002 16851.22129468  1225.42087061
0.40400002 16684.94352351  1419.05451391
0.40500002 16524.19478299  1509.48526495
0.40600002 16368.38302417  1199.14779717
0.40700002 16217.99486503  1389.55786587
0.40800002 16072.52199284  1281.86405228
0.40900002 15931.96636633  979.81597795
0.41000002 15796.75493200  1071.25698647
0.41100002 15665.71313278  1161.76934097
0.41200002 15539.28990641  1058.92496085
0.41300002 15418.21250110  1053.21814585
0.41400002 15300.88339975  1333.47205147
0.41500002 15188.30425918  1232.07529988
0.41600002 15079.32882526  1320.49688780
0.41700002 14975.12576352  1314.51660181
0.41800002 14875.67622049  1028.42992423
0.41900002 14778.49963708  1117.25462550
0.42000002 14686.56001225  1020.20193959
0.42100002 14598.52081518  924.08641139
0.42200002 14514.19215238  1105.11064285
0.42300002 14432.98797493  1376.90711805
0.42400002 14355.42688412  1098.19020867
0.42500002 14281.60571482  1003.85411326
0.42600002 14210.41871371  1001.19509792
0.42700002 14143.74565444  1180.43706826
0.42800002 14079.65967940  996.62875763
0.42900002 14019.57738236  1085.11534082
0.43000002 13962.00278049  1263.70093155
0.43100002 13906.70870712  1171.50119700
0.43200002 13855.32836880  1439.84579232
0.43300002 13806.49289950  898.80273035
0.43400002 13760.65906224  1167.24796027
0.43500002 13717.25478043  1076.53020618
0.43600002 13676.92917984  1344.78412534
0.43700002 13638.48770800  896.04868488
0.43800002 13602.44349112  1254.00932487
0.43900002 13569.72427735  1164.28239817
0.44000002 13538.76770159  1164.26638367
0.44100002 13510.48865318  1254.04361622
0.44200002 13484.18145231  896.02389997
0.44300002 13460.15542734  1344.66959092
0.44400002 13438.57365494  1166.13228417
0.44500002 13417.74447881  1346.47072226
0.44600002 13399.34404531  988.26866690
0.44700002 13384.01560218  989.34648020
0.44800002 13368.87979486  990.43350654
0.44900002 13357.23782185  1081.93631484
0.45000002 13346.66601536  1173.77259835
0.45100002 13337.44712297  1085.13474935
0.45200002 13330.23108891  1268.10494359
0.45300002 13324.08412536  1088.84420633
0.45400002 13319.92168545  999.99316793
0.45500002 13317.18818549  1366.34357259
0.45600002 13315.79147439  1277.91656836
0.45700002 13315.81459662  1189.23545799
0.45800002 13316.69853728  1008.54021152
0.45900002 13318.90326637  1286.60611651
0.46000002 13323.14674544  1289.81389756
0.46100002 13327.31182298  1108.29930373
0.46200002 13333.65960450  1111.22724411
0.46300002 13340.97172053  1392.79751364
0.46400002 13348.53830480  1210.37876815
0.46500002 13357.76744492  1307.19118411
0.46600002 13367.53947829  1404.59427725
0.46700002 13377.88369363  1314.77847173
0.46800002 13390.18183042  1130.39920370
0.46900002 13402.26044771  944.85940635
0.47000002 13415.47886089  1326.92507702
0.47100002 13429.31235401  1521.27257557
0.47200002 13444.16902021  1049.25022091
0.47300002 13459.73647709  1148.38477066
0.47400002 13475.19402373  1344.15066758
0.47500002 13491.59873867  1444.95029340
0.47600002 13509.14214822  1256.55291648
0.47700002 13526.28270310  1648.71867683
