# SAXS profile: number of points = 501, q_min = 0, q_max = 0.5, delta_q = 0.001
#    q    intensity    error
0.00000000 1682732.95097188 328.13292544
0.00100000 1682646.10799033 504.79384439
0.00200000 1682385.55727834 984.19558217
0.00300000 1681951.49780748 1110.08802810
0.00400000 1681343.83312389 1387.10871503
0.00500000 1680563.19418679 1815.00832156
0.00600000 1679609.43434361 1939.94897565
0.00700000 1678483.29064631 3021.27004873
0.00800000 1677184.53117511 3396.29881902
0.00900000 1675714.62430890 3519.00086148
0.01000000 1674072.86979583 3038.44238988
0.01100000 1672260.91577100 3913.09071328
0.01200000 1670278.66460312 3582.74789265
0.01300000 1668127.38658362 4904.29473286
0.01400000 1665807.36157848 4122.87340268
0.01500000 1663320.04907294 4790.36195464
0.01600000 1660665.14045589 6352.04444620
0.01700000 1657844.81042861 4923.79930785
0.01800000 1654859.65115803 6602.89030523
0.01900000 1651710.48854527 5946.15802707
0.02000000 1648398.24596938 5711.70018066
0.02100000 1644925.51178454 6513.90532200
0.02200000 1641291.09096754 9626.17268586
0.02300000 1637497.91676056 7073.99132240
0.02400000 1633546.67001137 10413.86049617
0.02500000 1629439.79510259 6990.29704024
0.02600000 1625177.58693709 6581.96952814
0.02700000 1620762.07236769 6807.20101572
0.02800000 1616193.54337564 10545.66335415
0.02900000 1611475.56312318 7251.64036701
0.03000000 1606608.65572259 9711.94977026
0.03100000 1601594.41070305 8456.41887762
0.03200000 1596434.05594126 12643.75830540
0.03300000 1591131.93407018 9737.72788542
0.03400000 1585686.38393401 9157.33928974
0.03500000 1580101.34208969 9385.80240543
0.03600000 1574377.58985552 9611.57563025
0.03700000 1568518.27729114 9834.61005344
0.03800000 1562524.69388856 10968.92385873
0.03900000 1556399.48625156 12139.91655496
0.04000000 1550142.71821441 12393.39160642
0.04100000 1543758.50328044 11670.81482594
0.04200000 1537248.53944486 13881.35495518
0.04300000 1530614.25572852 11112.26001240
0.04400000 1523858.69404647 15429.06999378
0.04500000 1516984.32871407 13607.35006083
0.04600000 1509991.61160665 10645.44135670
0.04700000 1502884.43977379 16231.15270443
0.04800000 1495664.79839417 10993.13677969
0.04900000 1488335.02846496 13395.01587969
0.05000000 1480896.98045137 11328.86242799
0.05100000 1473354.59346201 12641.38300079
0.05200000 1465707.03866290 15148.08295050
0.05300000 1457960.00226817 12990.42422580
0.05400000 1450114.08733998 15552.47431199
0.05500000 1442173.20170076 16959.95764317
0.05600000 1434137.87278566 12261.87938451
0.05700000 1426013.39625574 12406.31712653
0.05800000 1417798.98449798 16311.77807829
0.05900000 1409498.51730308 16491.13342268
0.06000000 1401115.86885980 12820.21079901
0.06100000 1392652.21980548 15541.99949933
0.06200000 1384110.69321101 18311.78532714
0.06300000 1375494.20783115 15845.69401509
0.06400000 1366802.55266603 15991.59061407
0.06500000 1358041.63004977 18822.45787296
0.06600000 1349213.26310533 21695.35028583
0.06700000 1340318.13693492 20506.86845480
0.06800000 1331360.94913560 13779.58646856
0.06900000 1322344.94095189 22215.39604809
0.07000000 1313269.76340014 15384.95599869
0.07100000 1304139.76558002 16901.65215355
0.07200000 1294957.23918555 15597.76067670
0.07300000 1285725.38667163 14271.55246076
0.07400000 1276447.02921616 17232.03570198
0.07500000 1267122.74107877 20223.27989553
0.07600000 1257755.95624303 18885.20656834
0.07700000 1248350.57201974 18987.41309071
0.07800000 1238907.73115294 19085.37449344
0.07900000 1229429.19341611 16228.46611427
0.08000000 1219920.38063639 19268.64331606
0.08100000 1210381.95622464 17865.23851208
0.08200000 1200815.17438502 17940.17954716
0.08300000 1191223.75906234 21013.18809605
0.08400000 1181610.81854978 21091.75410113
0.08500000 1171977.86101691 22677.77267529
0.08600000 1162327.88852380 15168.37965741
0.08700000 1152662.62270570 27387.26520153
0.08800000 1142984.10249684 24414.14157591
0.08900000 1133295.64747798 22949.23793935
0.09000000 1123599.48954351 16870.84712801
0.09100000 1113897.37494536 15371.78449643
0.09200000 1104191.21502819 16943.81499074
0.09300000 1094485.41848501 15432.24512583
0.09400000 1084778.67822398 21641.33564766
0.09500000 1075075.08972601 18577.29842365
0.09600000 1065376.60875206 17051.35342462
0.09700000 1055687.81775717 21726.05631084
0.09800000 1046007.53931097 15533.21268910
0.09900000 1036339.63289367 18654.11426925
0.10000000 1026683.72940594 27997.66661755
0.10100000 1017044.05024286 15560.77470057
0.10200000 1007422.12592769 26459.94338207
0.10300000 997819.33743873 23348.97359442
0.10400000 988238.40043613 15564.75553911
0.10500000 978682.30444042 15561.04937274
0.10600001 969148.15429149 17110.31146912
0.10700001 959643.45732854 20210.09216238
0.10800001 950165.64130272 18642.25075970
0.10900001 940719.35029086 17074.05701138
0.11000001 931305.41110846 21708.73015476
0.11100001 921924.25866753 21683.65958458
0.11200001 912579.27835722 18561.86339562
0.11300001 903270.39821107 20079.70189760
0.11400001 894000.47611262 18505.81072687
0.11500001 884770.91921243 15395.01471922
0.11600001 875582.74372797 19976.42123887
0.11700001 866437.61701036 16869.54119766
0.11800001 857335.78940141 24485.51129853
0.11900001 848279.28615470 18322.83344398
0.12000001 839269.34910871 21325.83516540
0.12100001 830308.98735772 19753.05173977
0.12200001 821397.31969044 18185.73751470
0.12300001 812536.67434311 19647.13771128
0.12400001 803727.13806896 16576.87300373
0.12500001 794969.59130217 22537.38897539
0.12600001 786267.77863003 14978.40188874
0.12700001 777620.01514349 17916.36599324
0.12800001 769027.76205943 16368.75668688
0.12900001 760492.81097278 17795.53261550
0.13000001 752015.69391629 17732.53089837
0.13100001 743596.23807186 16195.52682862
0.13200001 735236.24536090 14667.96378640
0.13300001 726937.62430600 20456.02571233
0.13400001 718698.87937430 16009.01829282
0.13500001 710522.84620465 21742.00011896
0.13600001 702408.11768246 15877.93624887
0.13700001 694357.47959655 21559.80075809
0.13800001 686369.03594083 15741.87458162
0.13900001 678445.88661808 21371.04643629
0.14000001 670587.41275400 17019.50933835
0.14100001 662793.74806733 19764.51049952
0.14200001 655065.64898611 18266.50648352
0.14300001 647404.86296408 20975.91854942
0.14400001 639808.09275487 19482.15734336
0.14500001 632279.89494472 15231.62338773
0.14600001 624818.48733370 16532.69795477
0.14700001 617426.38815019 17818.92640265
0.14800001 610098.93150120 14999.28293860
0.14900001 602840.80800459 16276.70258407
0.15000001 595650.44037332 17538.92804433
0.15100001 588528.73791147 18785.83820054
0.15200001 581475.43005293 14679.34792436
0.15300001 574492.07858487 25214.45851894
0.15400001 567574.48146422 15835.32878014
0.15500001 560727.55912695 15745.23060335
0.15600001 553946.81024721 14349.99279670
0.15700001 547238.29340982 15563.45779912
0.15800001 540594.48871867 16761.13291383
0.15900001 534021.64030380 17943.12796113
0.16000001 527514.81939550 17835.27688563
0.16100001 521079.38043373 18993.34431338
0.16200001 514710.67085728 17618.54709515
0.16300001 508409.73855702 12506.88015893
0.16400001 502177.02412590 13671.77012727
0.16500001 496011.19462549 13585.74726219
0.16600001 489913.75514040 12272.34014568
0.16700001 483881.84088949 14632.58755937
0.16800001 477916.34037726 14538.21576072
0.16900001 472019.38569919 12036.49490367
0.17000001 466187.07318394 15545.00868935
0.17100001 460420.38332899 14254.61574099
0.17200001 454719.73980135 14159.97336609
0.17300001 449084.23667138 11721.09913065
0.17400001 443513.38377988 12806.44956144
0.17500001 438006.55530767 12719.71096686
0.17600001 432562.26147910 13781.43430161
0.17700001 427183.24141448 12546.37239292
0.17800001 421865.38421172 14725.21193141
0.17900001 416610.94729362 12373.34571906
0.18000001 411418.30858661 12287.00836632
0.18100001 406288.69032364 16637.52265465
0.18200001 401217.39887765 13216.10174333
0.18300001 396207.72307330 13122.40040808
0.18400001 391257.46221489 14114.61361619
0.18500001 386368.10902585 12935.60490129
0.18600001 381535.99447876 10702.08515073
0.18700001 376761.91979683 14874.56129632
0.18800001 372045.53140102 21094.98262709
0.18900001 367388.18404149 11517.62011388
0.19000001 362783.38825079 13511.86793382
0.19100001 358239.06192000 12380.74256495
0.19200001 353746.89278363 10240.97302999
0.19300001 349311.74838806 11181.46959426
0.19400001 344928.69627107 12106.99781122
0.19500001 340600.42918692 14019.11432781
0.19600001 336324.66777677 9938.39440246
0.19700001 332101.03590961 16767.78209548
0.19800001 327929.56603950 13704.17721243
0.19900001 323809.27678506 12628.56239144
0.20000001 319738.36399459 11568.13455605
0.20100001 315718.68165167 10522.90415679
0.20200001 311746.77575559 13289.76567858
0.20300001 307824.93543934 12245.27651055
0.20400001 303950.44172688 9346.47652487
0.20500001 300123.09761545 12055.94540106
0.20600001 296342.67856359 14722.30496693
0.20700001 292608.74598708 10955.27196760
0.20800001 288919.03943355 10869.13477728
0.20900001 285276.86617996 12580.71039324
0.21000001 281676.71979104 8915.06860282
0.21100001 278121.09739120 9728.67644665
0.21200001 274608.20857800 10528.47921461
0.21300001 271137.06888756 13055.25048413
0.21400001 267708.89174268 10360.33460024
0.21500001 264322.81143846 11133.27734414
0.21600001 260976.24644252 11892.68811265
0.21700001 257670.31993227 10953.56581820
0.21800001 254403.96222539 15042.90699762
0.21900001 251175.73071432 11604.31930767
0.22000001 247985.70904326 8220.72664348
0.22100001 244835.16473601 9783.61364545
0.22200001 241721.98414479 8894.16082716
0.22300001 238644.11320888 9622.13109957
0.22400001 235602.05240949 8746.72660930
0.22500001 232598.34048389 8673.59252679
0.22600001 229627.43722007 8600.69606779
0.22700001 226693.40423810 7752.91479157
0.22800001 223792.09093822 7687.25868726
0.22900001 220923.79278389 8384.05833264
0.23000001 218089.98394273 10579.54562139
0.23100001 215289.29363797 8990.48132751
0.23200001 212519.19851880 7427.54633951
0.23300001 209781.49542273 8835.99700510
0.23400001 207075.80651794 8029.36477748
0.23500001 204398.97478586 7235.72404964
0.23600001 201754.29652267 8606.83869674
0.23700001 199138.83300923 9242.03367709
0.23800001 196553.01429210 7046.42589566
0.23900001 193995.98794119 6983.85589622
0.24000001 191467.35090216 8998.00858126
0.24100001 188968.43926987 6859.55466996
0.24200001 186496.46088566 9516.91484916
0.24300001 184052.20725357 8083.57332495
0.24400001 181634.58714593 6675.07139337
0.24500001 179243.88328177 8598.32948777
0.24600001 176879.68245411 9174.74956291
0.24700001 174541.51880282 8440.82824861
0.24800001 172229.07238324 9649.13423674
0.24900001 169941.07181489 6372.79049454
0.25000001 167679.01958941 6944.42692482
0.25100001 165440.35319746 8129.73934073
0.25200001 163227.95314485 8052.85144938
0.25300001 161039.07195806 7362.70671826
0.25400001 158873.49265815 6076.91138168
0.25500001 156731.05340066 8425.86182946
0.25600001 154612.33828472 8344.42829202
0.25700001 152515.95025476 6492.60430953
0.25800001 150442.66947824 7013.63758292
0.25900001 148391.64790226 8102.18435882
0.26000001 146362.72516267 6303.11105736
0.26100001 144354.97388683 5673.15074218
0.26200001 142369.84259419 8424.73583414
0.26300001 140405.07343766 7228.05352258
0.26400001 138461.83628571 6604.62990335
0.26500001 136539.99643768 5447.94611565
0.26600001 134637.75190813 7009.91488480
0.26700001 132757.07432833 5870.51810459
0.26800001 130896.94736217 10563.38415200
0.26900001 129055.48363064 7840.12100157
0.27000001 127234.94589161 6206.52095430
0.27100001 125433.59991099 6652.99845412
0.27200001 123653.18595062 8608.11694732
0.27300001 121891.10303438 5510.69702897
0.27400001 120146.37720042 6442.84978228
0.27500001 118423.46897054 7354.09777111
0.27600001 116717.06569999 4849.59430935
0.27700001 115031.13597263 4796.79859707
0.27800001 113362.61568761 5218.64826016
0.27900001 111713.51250026 4691.96774707
0.28000001 110081.27973545 5567.91139254
0.28100001 108467.93756336 5047.01337369
0.28200001 106873.06355148 6351.46646748
0.28300001 105295.40337933 4934.14283589
0.28400001 103735.40518728 4434.68878165
0.28500001 102193.30161437 5260.91141611
0.28600001 100668.48273636 7800.80109647
0.28700001 99160.86566057  5140.49951916
0.28800001 97669.81156785  5504.18249144
0.28900001 96197.76768623  5858.44432939
0.29000001 94740.91746503  5789.61774033
0.29100001 93302.05876753  6129.94555119
0.29200001 91879.65700391  5249.54445141
0.29300001 90474.12066868  5585.87247450
0.29400001 89084.41940816  4336.18431995
0.29500001 87712.31009174  6231.08280388
0.29600001 86355.76566254  5386.00935933
0.29700001 85015.65452734  4560.23992472
0.29800001 83691.53993131  7507.13148722
0.29900001 82384.38959612  5190.21679026
0.30000001 81092.18271387  3661.31222286
0.30100001 79817.10343759  4700.42944396
0.30200001 78556.21825332  3927.41831750
0.30300001 77312.51932707  3877.99615303
0.30400001 76084.22083007  5569.36522842
0.30500001 74871.27425236  4123.90998106
0.30600001 73672.99519878  5767.49070219
0.30700001 72491.26965981  4353.82586189
0.30800001 71324.43732079  4958.83173950
0.30900001 70172.84984866  4568.25274143
0.31000001 69036.69565626  3864.67440581
0.31100001 67914.70044784  3814.08975773
0.31200001 66808.45030790  3763.98826856
0.31300001 65716.50111200  5571.44522806
0.31400001 64640.63114516  5497.68593919
0.31500001 63578.09829269  3917.68260229
0.31600002 62530.92046119  2973.34540871
0.31700002 61498.11239788  3226.80611030
0.31800002 60479.92137419  2893.96437478
0.31900002 59476.18953126  3140.34295594
0.32000002 58487.03009829  2816.15063258
0.32100002 57511.23223356  3611.13044293
0.32200002 56551.05489679  3561.86836133
0.32300002 55602.97501834  3242.76565662
0.32400002 54669.77128565  2931.66662401
0.32500002 53750.37228249  3942.58999361
0.32600002 52845.13671944  3110.46489459
0.32700002 51952.95625607  3067.30268260
0.32800002 51075.19195770  3024.67301096
0.32900002 50210.22914057  4225.19098226
0.33000002 49359.71343866  3185.92285476
0.33100002 48520.16275404  2899.56506349
0.33200002 47696.70026878  2620.69532037
0.33300002 46885.06114018  2583.83584179
0.33400002 46086.98063195  2547.45797507
0.33500002 45300.80444351  2511.47671728
0.33600002 44528.60955886  2250.92131980
0.33700002 43768.14809606  2662.85425627
0.33800002 43021.47605068  2625.17059293
0.33900002 42286.24675142  2803.57829239
0.34000002 41564.19851263  2551.21062553
0.34100002 40854.11370211  2724.56097182
0.34200002 40156.99148396  3305.72369552
0.34300002 39470.83055732  2647.70343918
0.34400002 38798.29265009  3011.71760960
0.34500002 38136.62773860  2177.22018071
0.34600002 37487.79806242  2926.85997234
0.34700002 36849.14804045  1923.52561881
0.34800002 36223.67557066  2654.83330831
0.34900002 35608.88140497  2617.25290722
0.35000002 35005.86472341  1843.05886498
0.35100002 34414.62064551  2180.51046737
0.35200002 33833.35314421  1791.47613384
0.35300002 33263.62196186  2472.81777377
0.35400002 32705.20954448  1915.70773980
0.35500002 32157.80903400  2232.39520888
0.35600002 31620.19114587  2201.23971088
0.35700002 31093.65049137  2003.67493257
0.35800002 30578.20775686  2140.62753541
0.35900002 30072.99262975  2111.12418260
0.36000002 29578.35451577  2082.16836476
0.36100002 29093.01720917  2053.67618207
0.36200002 28619.07930496  1714.13983616
0.36300002 28153.91637338  1537.20390680
0.36400002 27698.76414229  2274.76111294
0.36500002 27253.11368971  1496.19601244
0.36600002 26817.60406756  2804.98743031
0.36700002 26390.98893926  1893.81745599
0.36800002 25975.16863897  2012.81591318
0.36900002 25567.61700150  1702.80337296
0.37000002 25168.77946039  1400.64264332
0.37100002 24779.04769430  2627.07476099
0.37200002 24399.02639715  1638.15070990
0.37300002 24027.16207281  1482.71624175
0.37400002 23664.03279721  1863.54267106
0.37500002 23309.84398243  1314.67526289
0.37600002 22964.12517139  1558.34560795
0.37700002 22626.29491715  2180.94867038
0.37800002 22296.68131708  1394.32303222
0.37900002 21975.72982180  1628.40165694
0.38000002 21662.60113838  1485.62125645
0.38100002 21356.39609129  1713.21017560
0.38200002 21058.93524675  1814.75383086
0.38300002 20768.34733514  1315.88254949
0.38400002 20486.29636661  1301.39203834
0.38500002 20210.24296554  1755.25968471
0.38600002 19942.91065512  2083.83483308
0.38700002 19681.72227270  1374.57154865
0.38800002 19427.91844420  1360.34291391
0.38900002 19180.43948320  1458.67249180
0.39000002 18941.06785668  1221.98305067
0.39100002 18707.16189283  1869.96799140
0.39200002 18480.52369905  1525.19769314
0.39300002 18259.91713742  1510.82561553
0.39400002 18047.09502258  1069.29043075
0.39500002 17839.25204483  1165.61678383
0.39600002 17637.71393687  1365.42368911
0.39700002 17442.15492358  1249.55603793
0.39800002 17252.74510147  1135.83452757
0.39900002 17068.93638949  1126.54985508
0.40000002 16890.79025604  1117.57919024
0.40100002 16718.54719508  1411.37982108
0.40200002 16552.00925772  1400.79660985
0.40300002 16390.20877995  1688.51938851
0.40400002 16234.18643324  1084.84955980
0.40500002 16083.44858608  1371.27489142
0.40600002 15937.60631980  1167.58909431
0.40700002 15796.88686502  1546.83123511
0.40800002 15661.10458443  1152.97057413
0.40900002 15529.95981050  1146.11108832
0.41000002 15403.95888479  1424.48116537
0.41100002 15282.13431691  1038.87954009
0.41200002 15164.68585496  1409.17849984
0.41300002 15052.38837406  934.75336232
0.41400002 14943.77051518  1302.34966211
0.41500002 14839.75062400  1111.20057938
0.41600002 14739.21094249  1198.51899458
0.41700002 14643.20433494  1009.94185084
0.41800002 14551.96279520  1188.96817652
0.41900002 14462.73120206  1640.07379603
0.42000002 14378.61009249  1271.21297851
0.42100002 14298.27700655  995.58907514
0.42200002 14221.54782975  1263.30015358
0.42300002 14147.87257319  1079.76568595
0.42400002 14077.52803615  987.18670031
0.42500002 14010.94449297  1074.35927463
0.42600002 13946.79792640  982.62169447
0.42700002 13887.12273950  1159.01931876
0.42800002 13829.67714449  978.93374306
0.42900002 13776.32661574  1421.71697411
0.43000002 13725.37121851  1064.81434959
0.43100002 13676.47931234  974.85949158
0.43200002 13631.41963916  1239.50504653
0.43300002 13588.78740143  973.09311193
0.43400002 13549.03096342  1414.51889961
0.43500002 13511.55131060  972.02104735
0.43600002 13477.08338327  1060.10742917
0.43700002 13444.41971094  1059.95810024
0.43800002 13414.04244925  1059.97768457
0.43900002 13386.77618360  1060.23272399
0.44000002 13361.23145636  1148.99915354
0.44100002 13338.23234617  1149.62230040
0.44200002 13317.21287813  884.92883769
0.44300002 13298.23346971  974.22863016
0.44400002 13281.68346055  1063.86289561
0.44500002 13265.78362154  976.22906297
0.44600002 13252.16677380  1332.83673644
0.44700002 13241.54062184  978.81472915
0.44800002 13230.99047392  980.21797571
0.44900002 13223.82800594  1160.39096251
0.45000002 13217.65511705  1341.26161657
0.45100002 13212.71004234  1074.98613999
0.45200002 13209.68541731  1346.39724997
0.45300002 13207.73673621  899.44691436
0.45400002 13207.61593630  901.41983037
0.45500002 13208.84258755  903.48487581
0.45600002 13211.26008675  1358.44788280
0.45700002 13215.03086601  998.65992987
0.45800002 13219.61573768  1001.18764534
0.45900002 13225.48337903  912.55839640
0.46000002 13233.24280732  1372.61817524
0.46100002 13240.88242759  1376.38979358
0.46200002 13250.60906359  1380.38226462
0.46300002 13261.18855240  1107.57452039
0.46400002 13271.96888577  1018.29186102
0.46500002 13284.27406623  1021.42788136
0.46600002 13297.18831427  1304.05531979
0.46700002 13310.57100190  1027.84234148
0.46800002 13325.76071178  1124.96077261
0.46900002 13340.65826775  1222.67138819
0.47000002 13356.62106229  1226.73891961
0.47100002 13373.19069598  1230.86853000
0.47200002 13390.70254890  1140.08446905
0.47300002 13408.79383676  1239.37487307
0.47400002 13426.74682110  1052.32133198
0.47500002 13445.58439407  1536.02363398
0.47600002 13465.49259089  1541.52966487
0.47700002 13484.92939657  1160.24338027
