# SAXS profile: number of points = 501, q_min = 0, q_max = 0.5, delta_q = 0.001
#    q    intensity    error
0.00000000 1682732.95097187 302.89193117
0.00100000 1682646.20593155 807.67019803
0.00200000 1682385.95568357 832.78107443
0.00300000 1681952.38324458 1009.17146590
0.00400000 1681345.42491014 1513.21093992
0.00500000 1680565.67373325 1663.76008285
0.00600000 1679613.01254252 1763.59373497
0.00700000 1678488.14356014 2819.86019838
0.00800000 1677190.87687176 2717.04933525
0.00900000 1675722.67858755 3770.37618800
0.01000000 1674082.78257557 3867.13139473
0.01100000 1672272.90222449 4214.12789709
0.01200000 1670292.94020773 4234.19278907
0.01300000 1668144.12202049 4203.72337290
0.01400000 1665826.73315735 5247.35444207
0.01500000 1663342.28562289 4790.42599591
0.01600000 1660690.41295630 5928.66503929
0.01700000 1657873.29947197 6266.76135312
0.01800000 1654891.50872621 5659.72921452
0.01900000 1651745.98273666 5450.76198898
0.02000000 1648437.51162355 5192.57839650
0.02100000 1644968.77387961 5971.23691991
0.02200000 1641338.51484286 6228.87994682
0.02300000 1637549.62818202 5895.17892979
0.02400000 1633602.92364700 6738.61236731
0.02500000 1629500.80350931 10803.59082067
0.02600000 1625243.36988394 8556.90673382
0.02700000 1620832.98222159 7488.24872083
0.02800000 1616269.57092945 7733.85025157
0.02900000 1611556.99646412 8702.40818047
0.03000000 1606695.66147578 9712.47572006
0.03100000 1601687.07860423 8456.90816416
0.03200000 1596532.66175224 11063.97185553
0.03300000 1591236.61769891 10549.89926170
0.03400000 1585797.19482051 9157.97922264
0.03500000 1580218.56493809 9386.49870918
0.03600000 1574501.36660026 12233.87618386
0.03700000 1568648.78264780 13411.94771191
0.03800000 1562661.91518951 12798.20167770
0.03900000 1556543.76801461 14942.82086494
0.04000000 1550294.05024918 11441.17062101
0.04100000 1543917.14967006 10699.34634331
0.04200000 1537414.46358306 10907.95612517
0.04300000 1530787.69638726 12123.83911815
0.04400000 1524040.02458706 11315.99770810
0.04500000 1517173.36407946 11515.34636842
0.04600000 1510188.43650686 12776.19476677
0.04700000 1503089.29321488 16233.36512170
0.04800000 1495877.88297794 15392.58413203
0.04900000 1488556.46548092 15629.84361508
0.05000000 1481126.83733923 13596.74499992
0.05100000 1473592.79645470 13792.82921734
0.05200000 1465954.08192675 16316.06969219
0.05300000 1458215.55010087 21260.78371160
0.05400000 1450378.56779759 16751.87323927
0.05500000 1442446.61222850 13328.20731874
0.05600000 1434420.60973682 13490.72646411
0.05700000 1426305.12041014 13649.74063947
0.05800000 1418099.93308408 15060.22199255
0.05900000 1409808.68909579 16494.76243282
0.06000000 1401435.47820517 14105.44874712
0.06100000 1392981.34904232 12954.72715149
0.06200000 1384449.41971019 14391.35239059
0.06300000 1375842.63532251 13208.08991664
0.06400000 1367160.69934076 14662.79918616
0.06500000 1358409.48542228 16137.90544171
0.06600000 1349590.89402208 16276.06694344
0.06700000 1340705.64498151 20512.79732819
0.06800000 1331758.69192797 15162.07341732
0.06900000 1322752.59538939 19444.46406259
0.07000000 1313687.35345402 18188.00226029
0.07100000 1304567.57459588 15498.26351210
0.07200000 1295395.13964624 17021.49293235
0.07300000 1286173.49971396 21414.78977364
0.07400000 1276905.38318213 14365.18623401
0.07500000 1267591.49417585 20230.76119531
0.07600000 1258234.98399672 21798.92211969
0.07700000 1248840.06171212 17533.71528857
0.07800000 1239407.36160227 27905.25805513
0.07900000 1229939.39427690 19187.05545066
0.08000000 1220441.01205298 16311.19489126
0.08100000 1210912.99496457 20851.92275162
0.08200000 1201356.50457557 19443.95593897
0.08300000 1191775.69837340 19521.28685553
0.08400000 1182173.03600002 24116.33106639
0.08500000 1172550.55419953 15125.90285926
0.08600000 1162910.95187650 15175.98863452
0.08700000 1153256.08433544 19789.87533648
0.08800000 1143588.05721392 18320.28153696
0.08900000 1133910.12190998 16838.56610127
0.09000000 1124224.18678755 26087.62347988
0.09100000 1114532.56794337 16918.60517624
0.09200000 1104836.76145308 18494.96825574
0.09300000 1095141.18006196 26250.53531965
0.09400000 1085444.81487122 18561.10720662
0.09500000 1075751.49829447 23236.23345533
0.09600000 1066063.08375424 34124.68091510
0.09700000 1056384.54219388 21740.39490043
0.09800000 1046714.39936978 18652.45147376
0.09900000 1037056.84897949 15555.85346617
0.10000000 1027410.77360442 18678.32874252
0.10100000 1017781.12917809 15572.05200881
0.10200000 1008169.12308009 26479.56326320
0.10300000 998576.09883932 18693.34544962
0.10400000 989005.16637983 18692.19852396
0.10500000 979459.01375978 20245.41876695
0.10600001 969934.54314019 15567.45014990
0.10700001 960439.24267818 24894.58634170
0.10800001 950971.26875154 15548.38097582
0.10900001 941534.42289106 15535.31870888
0.11000001 932129.96531154 23279.94697943
0.11100001 922758.19348286 17052.57221829
0.11200001 913422.31044262 24772.01422540
0.11300001 904122.80568046 15460.50070503
0.11400001 894861.83387362 23154.55104170
0.11500001 885641.53955173 20033.21256798
0.11600001 876462.16946464 23072.86769769
0.11700001 867325.77857759 16886.83370419
0.11800001 858232.86079895 18383.34874414
0.11900001 849184.93697756 22927.99437834
0.12000001 840183.64266016 21349.06736564
0.12100001 831231.92352984 24338.47186749
0.12200001 822328.33641655 18206.35022599
0.12300001 813476.12730569 15130.65668076
0.12400001 804674.81928673 18105.18428702
0.12500001 795925.26309192 16547.28699940
0.12600001 787231.24528062 17996.10711515
0.12700001 778591.43984098 22423.43452416
0.12800001 770006.89749095 20859.48783612
0.12900001 761479.36726103 22273.27254217
0.13000001 753009.88603712 19235.63844549
0.13100001 744597.80942059 17691.64478578
0.13200001 736245.16389306 17625.71005448
0.13300001 727953.65188758 23410.99054837
0.13400001 719722.05563214 23318.99570187
0.13500001 711552.81142494 14515.67803746
0.13600001 703444.97512978 18792.53339667
0.13700001 695400.64320208 18713.23219096
0.13800001 687418.77419646 14332.68211786
0.13900001 679502.25494001 14269.54802667
0.14000001 671649.99712825 18467.01754196
0.14100001 663862.52958080 18382.35431106
0.14200001 656140.31205232 15481.63139307
0.14300001 648485.39880201 15408.01380229
0.14400001 640894.56837393 13939.45751966
0.14500001 633372.17570967 15257.93643260
0.14600001 625916.21766382 15181.59857562
0.14700001 618529.29627049 15104.48612750
0.14800001 611207.19832808 19124.67413796
0.14900001 603954.31850829 14947.87008833
0.15000001 596768.66566108 13516.81091499
0.15100001 589651.88703483 17477.28275638
0.15200001 582603.23928150 16044.89396692
0.15300001 575624.31041080 15956.30663755
0.15400001 568711.21044712 14544.78989357
0.15500001 561868.55341697 17092.04220157
0.15600001 555092.25173345 13072.42314527
0.15700001 548387.58529105 18195.50093873
0.15800001 541747.67629458 12920.68268947
0.15900001 535178.60435091 14128.71582175
0.16000001 528675.39998435 17874.51611719
0.16100001 522243.31492633 17766.71841246
0.16200001 515878.02893357 15135.86208342
0.16300001 509580.38451953 16296.38146625
0.16400001 503350.76007387 14949.51827995
0.16500001 497187.86125088 12379.97832962
0.16600001 491093.19762554 15992.45073573
0.16700001 485064.05540352 17113.06068262
0.16800001 479101.17125859 13359.73679134
0.16900001 473206.64756087 14480.12409909
0.17000001 467376.58858630 14385.85207598
0.17100001 461611.95928454 15482.46584551
0.17200001 455913.46454096 15380.24145259
0.17300001 450279.71280378 18803.68169468
0.17400001 444710.67030645 11673.65564684
0.17500001 439205.46782793 12754.52738809
0.17600001 433762.60307588 11516.39765557
0.17700001 428384.89838772 11437.87732717
0.17800001 423068.54183904 13631.26906189
0.17900001 417815.31147260 13537.21673112
0.18000001 412623.53607163 11202.72953351
0.18100001 407494.83749425 11124.60958908
0.18200001 402424.26149748 14360.51044990
0.18300001 397415.17588297 14259.25718428
0.18400001 392465.41054210 14158.19035415
0.18500001 387576.61221672 10813.38799169
0.18600001 382744.61240311 13956.78295065
0.18700001 377970.74447101 13856.40814695
0.18800001 373254.23820050 10581.75815293
0.18900001 368597.04589065 14707.02282591
0.19000001 363991.87054953 11471.20434237
0.19100001 359447.36304922 10352.08454495
0.19200001 354954.92802713 16441.51304310
0.19300001 350519.03039425 15300.15639968
0.19400001 346135.51937674 17211.58951432
0.19500001 341806.32243183 11054.01698980
0.19600001 337529.81552804 12966.20847625
0.19700001 333305.11779583 9899.16246635
0.19800001 329132.55340720 13754.45005691
0.19900001 325011.22603969 13650.47213879
0.20000001 320938.93563734 16449.72592352
0.20100001 316917.87361088 10562.87322668
0.20200001 312944.63335092 13340.83035028
0.20300001 309021.14038052 14184.07101387
0.20400001 305145.04738914 10321.53171579
0.20500001 301315.96668766 9310.66381073
0.20600001 297533.47138350 9238.41472314
0.20700001 293797.76664155 13749.73612876
0.20800001 290105.86907177 10913.78331038
0.20900001 286461.80688766 10828.25681222
0.21000001 282859.31375058 11638.24701443
0.21100001 279301.25322613 12434.49238145
0.21200001 275786.12011641 16741.59721312
0.21300001 272312.32782508 11363.59397736
0.21400001 268881.53525216 13007.14488276
0.21500001 265492.88462717 13763.15178976
0.21600001 262143.51579810 12799.15776397
0.21700001 258834.79320508 11003.06757937
0.21800001 255565.49286407 10913.92488878
0.21900001 252334.35428113 9992.44090199
0.22000001 249141.34319283 9084.93950909
0.22100001 245987.74059061 9010.53136388
0.22200001 242871.07526135 9748.84542196
0.22300001 239790.14268289 8862.64409263
0.22400001 236744.84083091 8789.15263145
0.22500001 233737.63617650 10300.81811340
0.22600001 230763.16169216 12571.97764350
0.22700001 227825.66870586 14804.11265258
0.22800001 224920.71532434 10816.43771146
0.22900001 222048.72491234 8426.74950893
0.23000001 219211.34534301 11393.51021302
0.23100001 216406.90309251 9037.15270053
0.23200001 213632.96722509 7466.47255763
0.23300001 210891.25561282 14064.33850198
0.23400001 208181.55539617 8072.24019227
0.23500001 205500.67617704 9457.14156495
0.23600001 202852.06278564 7211.39117311
0.23700001 200232.42967404 10007.61730845
0.23800001 197642.42861557 12753.86652180
0.23900001 195081.14218580 9129.79788613
0.24000001 192548.28000078 8352.74478152
0.24100001 190044.97138676 8278.35934518
0.24200001 187568.84247311 8887.95002101
0.24300001 185119.82541103 8130.46311665
0.24400001 182697.79403307 8728.38752281
0.24500001 180302.59151715 8649.11572422
0.24600001 177933.65036926 8570.17467545
0.24700001 175590.88158322 6531.98110390
0.24800001 173273.97472598 7766.13991461
0.24900001 170981.29697964 8976.51851609
0.25000001 168714.53334996 7622.52297736
0.25100001 166471.02431334 8180.38652176
0.25200001 164253.82050418 8726.80589625
0.25300001 162060.12746553 8026.83849312
0.25400001 159889.57222600 6727.35406969
0.25500001 157742.17688135 7268.75985459
0.25600001 155618.50933727 7798.82196442
0.25700001 153517.25786358 5941.11816041
0.25800001 151438.80648446 8236.75707440
0.25900001 149382.81085754 9904.08082846
0.26000001 147348.96930697 8653.06863198
0.26100001 145335.83569785 6854.03833582
0.26200001 143345.69207329 5654.98781987
0.26300001 141375.62326726 6718.16993555
0.26400001 139427.25194797 6096.45687990
0.26500001 137500.21622900 9326.64010814
0.26600001 135592.72603272 9231.83118878
0.26700001 133706.68741507 5912.50999728
0.26800001 131841.32861423 10639.59572264
0.26900001 129994.37448634 5791.24965742
0.27000001 128168.58985672 6252.06410907
0.27100001 126361.89192017 7217.79160805
0.27200001 124576.04493377 6631.80606589
0.27300001 122808.52224858 7066.40270459
0.27400001 121058.37268927 5992.38973171
0.27500001 119330.12456000 5928.32086870
0.27600001 117618.05716942 4887.03050667
0.27700001 115926.78879401 5800.97678579
0.27800001 114252.62816212 5737.76725785
0.27900001 112597.90970976 5674.93491795
0.28000001 110960.15077195 5144.66763403
0.28100001 109341.32485719 6937.70739054
0.28200001 107740.77908290 5488.31554624
0.28300001 106157.52127286 5426.77274432
0.28400001 104591.84200929 6259.82204054
0.28500001 103044.08226477 7072.94614143
0.28600001 101513.55784212 4370.15887195
0.28700001 100000.26575266 6048.01635899
0.28800001 98503.43785243  5124.14907963
0.28900001 97025.82840917  4220.62373558
0.29000001 95563.14736009  4171.33157971
0.29100001 94118.51900053  5359.10872556
0.29200001 92690.34713267  4481.11504424
0.29300001 91279.09055583  5233.03050928
0.29400001 89883.57398898  5966.02250593
0.29500001 88505.57421123  5108.54198530
0.29600001 87143.27272973  4270.45628227
0.29700001 85797.27716104  4602.16616478
0.29800001 84467.38035997  5303.70706387
0.29900001 83154.35962671  4490.33563241
0.30000001 81856.19553914  5174.13036497
0.30100001 80575.24494477  5475.08815319
0.30200001 79308.43745310  7209.13730577
0.30300001 78058.86923792  4627.32998749
0.30400001 76824.62190063  4217.67194202
0.30500001 75605.66051471  3470.29998192
0.30600001 74401.43770934  5139.27955308
0.30700001 73213.84115805  3720.72758380
0.30800001 72040.91869989  5342.55478372
0.30900001 70883.39586579  3955.29367657
0.31000001 69741.34472536  3578.77727402
0.31100001 68613.40594917  3211.10755045
0.31200001 67501.04844956  3169.17437475
0.31300001 66403.28477872  3127.59486116
0.31400001 65321.20669549  4012.35531124
0.31500001 64252.65332494  4568.36386770
0.31600002 63199.40435224  3305.64500116
0.31700002 62160.58558540  3261.56608009
0.31800002 61136.37722111  4095.52610396
0.31900002 60126.68774339  3751.90549284
0.32000002 59131.29834774  3701.32379533
0.32100002 58149.39872681  4493.78574639
0.32200002 57183.25407632  3878.74030766
0.32300002 56229.06656860  3279.27931756
0.32400002 55289.76492016  3503.98901773
0.32500002 54364.33102162  3455.94068669
0.32600002 53452.92861514  2884.05290000
0.32700002 52554.58995363  3361.39173261
0.32800002 51670.80413012  3314.94059594
0.32900002 50799.69667911  3268.96063610
0.33000002 49942.92222556  2479.66620592
0.33100002 49097.36143983  2445.04871549
0.33200002 48267.66517260  2893.16398745
0.33300002 47450.01536864  2852.69505905
0.33400002 46645.67438276  2812.73429848
0.33500002 45853.49095225  3004.32086946
0.33600002 45074.98257979  2734.24857277
0.33700002 44308.43601016  3145.01293694
0.33800002 43555.74429588  3322.21455350
0.33900002 42814.30295296  2838.58842021
0.34000002 42086.17588333  2367.97879822
0.34100002 41369.84267804  2546.72763587
0.34200002 40666.60053813  2510.75603613
0.34300002 39974.36556564  2887.74830522
0.34400002 39295.73226438  3457.04220968
0.34500002 38627.89229799  2606.22401678
0.34600002 37972.74073109  3755.31437246
0.34700002 37328.13973873  2338.23478398
0.34800002 36696.42400319  2305.26946506
0.34900002 36075.53396974  2272.75874774
0.35000002 35466.47782880  2240.77217535
0.35100002 34868.98624755  2025.19081718
0.35200002 34281.67778661  2722.82238716
0.35300002 33705.86674744  1968.75976996
0.35400002 33141.24678201  2117.72576967
0.35500002 32587.84156709  1914.20990432
0.35600002 32044.10207433  2745.53879577
0.35700002 31511.57763692  1861.38897918
0.35800002 30989.85612657  2169.44498090
0.35900002 30478.73079697  1975.02184919
0.36000002 29978.06816116  2434.96870172
0.36100002 29486.68305349  2401.69044847
0.36200002 29006.69014154  2053.23865892
0.36300002 28535.59269444  1558.04343492
0.36400002 28074.44037709  1844.49082014
0.36500002 27622.82339016  1516.49307595
0.36600002 27181.32082208  1945.23131677
0.36700002 26748.82783739  1624.18890322
0.36800002 26327.06490219  1748.64373363
0.36900002 25913.64286771  2157.31087093
0.37000002 25508.88976472  1987.39769571
0.37100002 25113.29661939  1401.32201774
0.37200002 24727.29758020  1660.19083818
0.37300002 24349.57079748  1502.61208509
0.37400002 23980.73572133  2158.26631716
0.37500002 23620.63777872  1731.86524398
0.37600002 23269.27734505  2105.40431392
0.37700002 22925.62818357  1429.87149754
0.37800002 22590.30933259  1412.68506104
0.37900002 22263.70388015  1522.83741754
0.38000002 21944.88929303  1254.15048251
0.38100002 21633.03833506  1735.40241745
0.38200002 21329.83960150  1225.39934316
0.38300002 21033.73318759  1332.69739790
0.38400002 20746.07150329  1557.51139190
0.38500002 20464.63456004  1184.90239716
0.38600002 20191.81702639  1523.77554408
0.38700002 19924.99749037  1507.52538154
0.38800002 19665.88533712  1262.25491016
0.38900002 19412.93567911  1249.22247013
0.39000002 19168.23756200  1686.32577941
0.39100002 18929.13329986  1669.54963614
0.39200002 18697.10158266  1212.41360957
0.39300002 18471.26451690  1309.98214160
0.39400002 18253.15695462  1622.24940120
0.39500002 18040.17126885  1500.22071379
0.39600002 17833.58133572  1168.18880074
0.39700002 17632.91936423  1263.22240310
0.39800002 17438.56309632  1148.06785584
0.39900002 17249.69011444  1138.47960149
0.40000002 17066.55877479  1231.86427073
0.40100002 16889.53075721  1018.43875291
0.40200002 16717.99185647  1010.60265561
0.40300002 16551.44549024  1203.62117308
0.40400002 16390.58048878  1294.44615543
0.40500002 16235.21971839  1384.21489878
0.40600002 16084.64966171  1178.36149005
0.40700002 15939.46316035  1365.69326829
0.40800002 15798.93130392  969.26448142
0.40900002 15663.31545503  1059.62334074
0.41000002 15533.02103382  1627.93834658
0.41100002 15406.65888882  952.13156444
0.41200002 15284.90853543  1515.04020582
0.41300002 15168.43375442  1130.35173694
0.41400002 15055.48856920  1312.08589098
0.41500002 14947.28088891  1025.98140883
0.41600002 14842.69472444  1114.09271881
0.41700002 14742.61262401  1294.10659746
0.41800002 14647.37678889  1196.76397724
0.41900002 14554.26253813  1191.99415836
0.42000002 14466.20013092  1461.66493049
0.42100002 14382.11243564  910.38776031
0.42200002 14301.59877897  1088.92378263
0.42300002 14224.17805898  995.12354416
0.42400002 14150.30905440  902.08224496
0.42500002 14080.14025391  989.69310534
0.42600002 14012.52173070  1166.75267719
0.42700002 13949.41115218  1253.77313377
0.42800002 13888.80479140  983.11909375
0.42900002 13832.12683565  1070.60666781
0.43000002 13777.94840831  1068.89328817
0.43100002 13725.96907620  1423.10854126
0.43200002 13677.88149672  1066.05413437
0.43300002 13632.27786128  1153.69973007
0.43400002 13589.51290998  975.38733534
0.43500002 13549.23313962  974.73187826
0.43600002 13512.02654204  1328.57007271
0.43700002 13476.62550062  1239.58007229
0.43800002 13443.60224365  1062.31349964
0.43900002 13413.84981701  1150.90836884
0.44000002 13385.85728394  974.02195142
0.44100002 13360.45896912  1505.85740177
0.44200002 13337.02335414  974.86976827
0.44300002 13315.88021377  1241.57272997
0.44400002 13297.12475110  1420.13299072
0.44500002 13279.05896585  1066.04290430
0.44600002 13263.51976865  889.31904263
0.44700002 13250.87806039  1157.59676222
0.44800002 13238.59255948  980.78117625
0.44900002 13229.69716860  1518.10782204
0.45000002 13221.77484258  1162.78904364
0.45100002 13215.29237243  985.59655185
0.45200002 13210.71045674  1256.73494531
0.45300002 13207.25857224  1259.18009195
0.45400002 13205.84987809  901.29929690
0.45500002 13205.73880546  1083.92709252
0.45600002 13206.99399562  905.33948131
0.45700002 13209.62188491  1089.00127980
0.45800002 13213.20933139  909.72950558
0.45900002 13218.01290040  1276.86010669
0.46000002 13224.82349031  1371.74488155
0.46100002 13231.73220331  1192.04681069
0.46200002 13240.64801293  919.56304808
0.46300002 13250.62192986  1291.14066204
0.46400002 13260.81740424  1017.43626356
0.46500002 13272.70121290  1113.31423050
0.46600002 13285.10587259  1209.80822363
0.46700002 13298.12842862  1120.23439192
0.46800002 13313.06232608  1030.23137693
0.46900002 13327.79095696  1409.41396050
0.47000002 13343.67987189  942.73102763
0.47100002 13360.18019274  1040.49088273
0.47200002 13377.75894137  1328.81285863
0.47300002 13396.05878476  1238.19777216
0.47400002 13414.20509682  1146.91459014
0.47500002 13433.40427398  1150.97413275
0.47600002 13453.54582793  1347.64174946
0.47700002 13473.51890907  1255.86675704
