# SAXS profile: number of points = 501, q_min = 0, q_max = 0.5, delta_q = 0.001
#    q    intensity    error
0.00000000 1664650.74656090 274.66737318
0.00100000 1664564.46011791 699.11708985
0.00200000 1664305.57798933 1048.51254733
0.00300000 1663874.30359849 1297.82200304
0.00400000 1663270.53194680 1496.94353563
0.00500000 1662494.89163556 1795.49455403
0.00600000 1661547.24780160 2616.93702183
0.00700000 1660428.32652388 2391.01688957
0.00800000 1659137.89671531 2687.80350616
0.00900000 1657677.42154377 2983.81948633
0.01000000 1656046.21343518 3005.72400717
0.01100000 1654245.91165436 4764.22843300
0.01200000 1652276.38471694 3544.13300061
0.01300000 1650138.95418941 3811.82115230
0.01400000 1647833.84048906 4449.15156656
0.01500000 1645362.59180198 5528.41855463
0.01600000 1642724.76976210 5026.73802018
0.01700000 1639922.64288319 5313.34960129
0.01800000 1636956.74853462 5598.39233190
0.01900000 1633827.91752325 5391.63237111
0.02000000 1630537.13921168 6677.04988711
0.02100000 1627086.87538044 8054.08039829
0.02200000 1623476.01389614 6161.09175265
0.02300000 1619707.46274626 7580.23127069
0.02400000 1615781.89040828 10906.52825757
0.02500000 1611701.72994533 6914.20073724
0.02600000 1607467.29068567 7161.26710755
0.02700000 1603080.56781348 7406.23256251
0.02800000 1598541.87900292 7649.02324181
0.02900000 1593854.75374727 7889.58139329
0.03000000 1589019.68456695 11822.30699659
0.03100000 1584038.35939949 7603.38447497
0.03200000 1578911.94924619 9378.73741049
0.03300000 1573644.69782286 12840.94132621
0.03400000 1568234.98992729 10703.20430010
0.03500000 1562686.89481647 10126.21154602
0.03600000 1557000.99805327 11233.76272011
0.03700000 1551180.53897879 14146.76716974
0.03800000 1545226.71447854 12655.40737727
0.03900000 1539142.26966196 14775.76647302
0.04000000 1532927.15807542 14141.25368854
0.04100000 1526585.67280522 11540.98822152
0.04200000 1520119.22559373 11765.72335194
0.04300000 1513529.41737061 11987.15354199
0.04400000 1506819.28126493 11188.13368299
0.04500000 1499991.26132214 17594.89831285
0.04600000 1493045.65750343 12631.16684966
0.04700000 1485986.75296975 11769.01563087
0.04800000 1478816.05274277 11956.22834273
0.04900000 1471536.10395524 11036.52129339
0.05000000 1464148.79197595 14560.96041425
0.05100000 1456658.02033666 13634.31970549
0.05200000 1449062.79953735 11520.04979317
0.05300000 1441369.02032773 11675.08960892
0.05400000 1433577.16290942 15375.11578920
0.05500000 1425691.09425706 13173.38632546
0.05600000 1417711.50811813 18182.15094007
0.05700000 1409643.40896900 14716.67787659
0.05800000 1401486.26154173 13643.46939316
0.05900000 1393243.83560193 15047.03412728
0.06000000 1384919.99642300 13939.22041522
0.06100000 1376515.76781976 20482.55558234
0.06200000 1368034.43816849 21977.47427648
0.06300000 1359478.99567475 18271.39855615
0.06400000 1350848.87760052 14487.85488982
0.06500000 1342150.46306084 19930.93530878
0.06600000 1333385.15298983 21440.83426326
0.06700000 1324553.77333546 16212.53894436
0.06800000 1315660.95591630 21787.34644982
0.06900000 1306709.96216096 19208.63734309
0.07000000 1297700.51368183 17966.66445328
0.07100000 1288636.95965651 15309.00779776
0.07200000 1279521.32932636 22417.21473997
0.07300000 1270357.16296071 16921.15820349
0.07400000 1261146.91240297 18444.27445827
0.07500000 1251891.47111137 17125.87612754
0.07600000 1242593.89726374 18657.54824209
0.07700000 1233258.43386205 17314.94922330
0.07800000 1223885.96979756 14503.04942224
0.07900000 1214478.41339226 16031.11580870
0.08000000 1205041.11409555 26354.25040158
0.08100000 1195574.57555936 19117.23836014
0.08200000 1186080.41681604 22150.05282343
0.08300000 1176561.89747165 25201.95702662
0.08400000 1167022.46124465 22319.30561894
0.08500000 1157463.43141209 16424.40686278
0.08600000 1147887.80175841 17975.92381953
0.08700000 1138297.25458857 16528.07691275
0.08800000 1128693.97540550 21095.29139104
0.08900000 1119081.18971897 21150.63547913
0.09000000 1109461.06977283 16658.55874518
0.09100000 1099835.27339068 15177.72748586
0.09200000 1090205.99486371 16729.21177723
0.09300000 1080577.25635269 19806.98203972
0.09400000 1070947.96292624 15261.00918893
0.09500000 1061322.24462844 16811.34514509
0.09600000 1051701.94792080 19892.94328005
0.09700000 1042091.51904547 19914.36986519
0.09800000 1032490.15270058 16865.72743735
0.09900000 1022901.22792280 16877.87105437
0.10000000 1013324.71980918 21492.61831789
0.10100000 1003764.58509957 16893.35876175
0.10200000 994222.31580294 15360.73550167
0.10300000 984699.60655699 16897.44604339
0.10400000 975199.15076049 18431.26481647
0.10500000 965723.58351874 21497.00798055
0.10600001 956269.90061972 24557.01220341
0.10700001 946846.11074728 23008.36157388
0.10800001 937449.43053028 18392.75869260
0.10900001 928084.33624896 18376.07072261
0.11000001 918751.72679899 21416.10375973
0.11100001 909452.08265965 15278.79570791
0.11200001 900188.66148196 18309.83823652
0.11300001 890961.66751774 21329.62332459
0.11400001 881773.50970935 21294.83126214
0.11500001 872625.94504560 16702.06137464
0.11600001 863519.82459865 21216.68308951
0.11700001 854456.70264854 16636.27278405
0.11800001 845437.07938200 22636.57886660
0.11900001 836462.72557827 16561.96274655
0.12000001 827534.96872004 15019.76038977
0.12100001 818657.01484363 16479.56648512
0.12200001 809827.64641517 20917.84909237
0.12300001 801049.19436178 17879.41886053
0.12400001 792321.96787569 19312.84887694
0.12500001 783646.72243835 19254.20087758
0.12600001 775027.01885270 16240.69194538
0.12700001 766461.58164877 23545.70089787
0.12800001 757951.53704116 24932.81698603
0.12900001 749498.46910454 16076.74292002
0.13000001 741103.34928381 18931.48594979
0.13100001 732765.82015664 14508.76392301
0.13200001 724487.76092490 15898.88466298
0.13300001 716270.85426374 18716.15830425
0.13400001 708113.81123355 17207.16642422
0.13500001 700019.12777826 14280.39087997
0.13600001 691985.96133852 15642.34339361
0.13700001 684016.48868297 21238.71297508
0.13800001 676109.19006344 19735.62818860
0.13900001 668266.87271417 25260.48897983
0.14000001 660489.20586833 18160.15157179
0.14100001 652776.16850047 15294.54634930
0.14200001 645128.45674135 13838.00604978
0.14300001 637547.78553622 20656.54922569
0.14400001 630031.21024836 17814.13331006
0.14500001 622582.84261619 17724.93436541
0.14600001 615200.99885721 14921.70093120
0.14700001 607888.28518987 21592.19290859
0.14800001 600639.93252079 18794.02437525
0.14900001 593460.63970978 14688.15152582
0.15000001 586348.95663634 15936.96539333
0.15100001 579305.68719501 21133.07246604
0.15200001 572330.51151999 15761.98303102
0.15300001 565425.00166668 14367.44997034
0.15400001 558585.05766930 14285.81352405
0.15500001 551815.39989211 19368.72145028
0.15600001 545111.69556510 15404.85724370
0.15700001 538479.85462959 17866.76241986
0.15800001 531912.45527765 19029.16898571
0.15900001 525415.71122578 15131.97319754
0.16000001 518984.72515040 16293.52621519
0.16100001 512624.93623470 16193.82250007
0.16200001 506331.20823276 13617.77848826
0.16300001 500105.23934067 13532.84841541
0.16400001 493946.87337379 13447.70426246
0.16500001 487855.24542606 13362.35580307
0.16600001 481831.51404746 14483.85599609
0.16700001 475873.04741425 16788.80190545
0.16800001 469980.61042271 14296.81084410
0.16900001 464156.45179687 15386.78710360
0.17000001 458396.31507031 11757.86603676
0.17100001 452701.67254144 16351.58518434
0.17200001 447072.66381918 20882.76511314
0.17300001 441508.33497734 16132.71532193
0.17400001 436008.18663910 18312.34470366
0.17500001 430571.83098663 14777.22593735
0.17600001 425197.67290511 11288.99874880
0.17700001 419888.25325854 11211.01689151
0.17800001 414639.55939392 12246.37996512
0.17900001 409453.98164312 15477.36123716
0.18000001 404329.71391270 13173.06270151
0.18100001 399268.21896584 11990.02518191
0.18200001 394264.43461355 11904.81516551
0.18300001 389321.90377992 11819.81355712
0.18400001 384438.45404663 10668.16760377
0.18500001 379615.44499204 13768.65284032
0.18600001 374849.09158240 10514.51751563
0.18700001 370140.62673461 13569.35601717
0.18800001 365489.21926836 13470.10581255
0.18900001 360896.54180794 12342.66231299
0.19000001 356355.88692351 11230.55630702
0.19100001 351875.30380405 14187.61291974
0.19200001 347446.40206574 11064.43119659
0.19300001 343074.16019099 11980.15023996
0.19400001 338753.50011036 11890.24841573
0.19500001 334487.26483535 14750.88907629
0.19600001 330273.08861514 13663.39832169
0.19700001 326110.45514239 10654.02907299
0.19800001 321999.58546138 11534.02569631
0.19900001 317939.50588890 14307.27844116
0.20000001 313928.39290514 12304.42394144
0.20100001 309967.97287071 11270.43602625
0.20200001 306054.95449924 10251.31118546
0.20300001 302191.49033532 12945.88405785
0.20400001 298374.96997746 12845.04306466
0.20500001 294605.15474740 10013.62968318
0.20600001 290881.70328984 9031.87731407
0.20700001 287204.38725171 11649.01049757
0.20800001 283570.88892022 12445.92690303
0.20900001 279984.44208997 12347.31447984
0.21000001 276439.51179602 9624.24205814
0.21100001 272938.63918801 9547.39405013
0.21200001 269480.22879706 12053.85120393
0.21300001 266062.84935677 11102.80322855
0.21400001 262688.12481257 10166.03091086
0.21500001 259355.02713207 9243.41360399
0.21600001 256061.05731197 10835.22415243
0.21700001 252807.37643759 12400.20240054
0.21800001 249592.58079021 10658.85166660
0.21900001 246415.54761762 8944.88480145
0.22000001 243276.43128561 8871.07548628
0.22100001 240176.19646345 7997.86772040
0.22200001 237112.85696798 9517.71052873
0.22300001 234084.42827234 9438.28459423
0.22400001 231091.69009058 10919.08287310
0.22500001 228136.34572216 10053.96923140
0.22600001 225213.53543371 9969.07761739
0.22700001 222327.27495960 7603.59316319
0.22800001 219473.33945684 8292.80052354
0.22900001 216651.90070728 9716.83820624
0.23000001 213864.57969600 11115.61205538
0.23100001 211109.84772450 8081.28535308
0.23200001 208385.35175737 10196.29574371
0.23300001 205692.74412737 12995.66818859
0.23400001 203031.89315768 10735.31185844
0.23500001 200399.42516904 8512.96798381
0.23600001 197798.70530116 9141.26759785
0.23700001 195226.82578733 9757.43721436
0.23800001 192684.04652627 8289.26807363
0.23900001 190169.75589798 7530.72268976
0.24000001 187683.47005864 8141.70931625
0.24100001 185226.39307598 6723.71838670
0.24200001 182796.02762979 8661.79017896
0.24300001 180392.86927577 8583.09312615
0.24400001 178015.90497398 7196.29329898
0.24500001 175665.53085287 7778.47007412
0.24600001 173341.28372595 7064.52435244
0.24700001 171042.70319221 7635.34663170
0.24800001 168769.42663557 7564.24605965
0.24900001 166520.24937048 7493.41157617
0.25000001 164296.55157588 8041.49509731
0.25100001 162095.83310996 6739.94505957
0.25200001 159921.24756480 6675.91279543
0.25300001 157769.62184916 7814.32973989
0.25400001 155640.95789550 6548.59361327
0.25500001 153535.13001093 8254.04897990
0.25600001 151452.55821739 7590.04531417
0.25700001 149392.00329947 6937.76496148
0.25800001 147354.17797305 5724.71008511
0.25900001 145338.39653047 7935.47682603
0.26000001 143344.24718945 7856.69856020
0.26100001 141370.85396368 7778.22475312
0.26200001 139419.85985293 6050.12510459
0.26300001 137488.90548396 7622.38528070
0.26400001 135579.17094456 7006.05399007
0.26500001 133690.36304922 8001.36860711
0.26600001 131820.84003485 5807.36738254
0.26700001 129972.60651224 7837.34854355
0.26800001 128144.59675664 5170.63472381
0.26900001 126334.93738407 5116.56520618
0.27000001 124545.87542936 6075.34809094
0.27100001 122775.76197661 5510.17645827
0.27200001 121026.17043628 6938.43067946
0.27300001 119294.47920423 8335.10565645
0.27400001 117580.04821042 6305.23038368
0.27500001 115887.13134665 5757.27295777
0.27600001 114210.24190780 6643.61008619
0.27700001 112553.74135259 6101.53860749
0.27800001 110914.25042019 6498.46623967
0.27900001 109293.86268636 5049.37669509
0.28000001 107690.13192660 4539.13927554
0.28100001 106104.95425229 6732.35966594
0.28200001 104537.96849176 4437.63697251
0.28300001 102987.87871771 4387.28384103
0.28400001 101455.24427397 5638.37546739
0.28500001 99940.13022732  5573.66132659
0.28600001 98442.13895896  5933.10799588
0.28700001 96960.98490207  4607.58622064
0.28800001 95496.26600482  4139.76332726
0.28900001 94050.16750322  4909.41897605
0.29000001 92619.08925450  5255.67046852
0.29100001 91205.65811939  4793.76961767
0.29200001 89808.46895607  4736.49887695
0.29300001 88428.00344256  3899.67513641
0.29400001 87062.96202893  5393.55075300
0.29500001 85715.31038709  4186.33595747
0.29600001 84382.97306019  5638.89244168
0.29700001 83066.93813474  4455.71077247
0.29800001 81766.62906318  3667.23348709
0.29900001 80482.91850260  5432.59725610
0.30000001 79214.08632525  4649.47101696
0.30100001 77961.97646132  3884.84547098
0.30200001 76723.90869400  5230.65272284
0.30300001 75502.78780079  3787.22001538
0.30400001 74296.95961961  4078.90327622
0.30500001 73106.23036410  4362.24897234
0.30600001 71929.84275831  3643.60635742
0.30700001 70769.86467827  3596.52469322
0.30800001 69624.51102474  3872.51548654
0.30900001 68494.20888300  4140.47512300
0.31000001 67379.15971315  3771.88553932
0.31100001 66278.13286228  4652.72514722
0.31200001 65192.59465885  3672.95095698
0.31300001 64121.12149491  3020.10496540
0.31400001 63065.54729531  3873.80142603
0.31500001 62023.12454507  4703.83398821
0.31600002 60995.87261297  3770.46004409
0.31700002 59982.76825736  3719.53163575
0.31800002 58984.14971589  3104.63086730
0.31900002 57999.69562314  3340.78262608
0.32000002 57029.68715102  4118.96934951
0.32100002 56072.82999889  3249.98138062
0.32200002 55131.52115595  2938.23455913
0.32300002 54202.03130467  3161.06261537
0.32400002 53287.31224596  3117.30791400
0.32500002 52386.16657238  3842.52550003
0.32600002 51498.96263513  4041.63877899
0.32700002 50624.74424464  3237.95879521
0.32800002 49764.76924078  2947.06977399
0.32900002 48917.36112388  3389.97328641
0.33000002 48084.24571734  2387.38291292
0.33100002 47261.86030831  3059.73298125
0.33200002 46455.56400013  3016.59219120
0.33300002 45660.86969144  2973.89258383
0.33400002 44879.51782068  2480.71546501
0.33500002 44109.95189489  2445.45584886
0.33600002 43354.15522612  2629.86318056
0.33700002 42610.04170705  2808.42798191
0.33800002 41879.51069606  2342.53054172
0.33900002 41160.24972331  2519.00740236
0.34000002 40454.06661839  2069.22560553
0.34100002 39759.62887836  2243.63596386
0.34200002 39078.08246118  2412.68092542
0.34300002 38407.40629573  2576.36893633
0.34400002 37750.07890020  2734.99334585
0.34500002 37103.50451321  2503.37356807
0.34600002 36469.67122442  2088.07112485
0.34700002 35845.83309467  1871.15257616
0.34800002 35235.07792957  2397.92334207
0.34900002 34634.85884694  1818.33017558
0.35000002 34046.23882829  1971.78801513
0.35100002 33469.25592347  1767.17679646
0.35200002 32902.15535586  1916.38612947
0.35300002 32346.47746710  1889.35783834
0.35400002 31802.01130152  1862.80290022
0.35500002 31268.33239737  2003.67483493
0.35600002 30744.36157445  1646.36064029
0.35700002 30231.37260066  1948.10974266
0.35800002 29729.31767001  1761.01621559
0.35900002 29237.30092300  1736.69575709
0.36000002 28755.81443148  1868.55291026
0.36100002 28283.51151701  2457.27159699
0.36200002 27822.44990628  1817.91896299
0.36300002 27370.04612795  1942.72596618
0.36400002 26927.55569026  2211.42561581
0.36500002 26494.44310983  1745.45399475
0.36600002 26071.37845088  2009.32123239
0.36700002 25657.07120374  1699.52447704
0.36800002 25253.45523333  1817.11245739
0.36900002 24857.91675859  1793.49877909
0.37000002 24471.08672853  1634.17924914
0.37100002 24093.24114134  1613.28350324
0.37200002 23724.89703593  1592.88966245
0.37300002 23364.64063664  2097.21024289
0.37400002 23013.04067145  1423.93195900
0.37500002 22670.26719934  1662.18406980
0.37600002 22335.83959660  1894.63768353
0.37700002 22009.17207423  1622.29615044
0.37800002 21690.68047296  1726.36134062
0.37900002 21380.65250692  1340.56697569
0.38000002 21078.43206543  1445.55893953
0.38100002 20782.94600964  2024.46686670
0.38200002 20496.10529148  1413.00156573
0.38300002 20216.13203619  1513.78403858
0.38400002 19944.50127654  1266.97450361
0.38500002 19678.84180015  1139.40499421
0.38600002 19421.76963936  1803.89404956
0.38700002 19170.75141106  1338.88534198
0.38800002 18926.99171781  1214.82902096
0.38900002 18689.46743231  1858.66762420
0.39000002 18459.94137504  1407.47829682
0.39100002 18235.76858728  1072.26324373
0.39200002 18018.79482877  1168.42880603
0.39300002 17807.79080897  1368.17263267
0.39400002 17604.41459032  1460.28625945
0.39500002 17405.92124231  1344.08530201
0.39600002 17213.70723820  1025.07631460
0.39700002 17027.34285572  1321.49214164
0.39800002 16847.00433843  1209.95190891
0.39900002 16672.21512590  1200.39954594
0.40000002 16502.98755201  1389.71664760
0.40100002 16339.64495439  1280.86482866
0.40200002 16181.73369545  1760.73452682
0.40300002 16028.58922977  971.33255335
0.40400002 15881.15435661  1157.73620745
0.40500002 15738.87114740  1150.19675795
0.40600002 15601.50642545  1333.46081736
0.40700002 15469.00832515  1041.37368979
0.40800002 15341.39870172  941.19485495
0.40900002 15218.34682721  1403.89256133
0.41000002 15100.40516602  1024.03402485
0.41100002 14986.52124318  1111.40046806
0.41200002 14876.93438652  1013.78874181
0.41300002 14772.39467678  1100.83890347
0.41400002 14671.48444402  913.29994992
0.41500002 14575.04894745  1273.27633638
0.41600002 14482.10751711  905.85586812
0.41700002 14393.49641565  1353.70840204
0.41800002 14309.63945918  1079.23305915
0.41900002 14227.67725185  985.97808027
0.42000002 14150.74052918  982.98123744
0.42100002 14077.49386370  980.21594418
0.42200002 14007.85148988  1244.31750681
0.42300002 13941.15291991  886.65736772
0.42400002 13877.63251035  1238.57876024
0.42500002 13817.89967152  1324.44574628
0.42600002 13760.47029339  1057.62979687
0.42700002 13707.48812129  1144.02701281
0.42800002 13656.55432531  966.67924372
0.42900002 13609.73630268  1404.52485299
0.43000002 13565.19620531  964.68897385
0.43100002 13522.64860356  1314.40150655
0.43200002 13483.87208021  1050.93303973
0.43300002 13447.43618332  1050.51376442
0.43400002 13413.78829430  1137.82464598
0.43500002 13382.30623729  1225.28401715
0.43600002 13353.81912074  1137.94575030
0.43700002 13327.01395598  1050.70183008
0.43800002 13302.54518985  1839.54254875
0.43900002 13281.04094247  1051.85849249
0.44000002 13261.16104683  1228.11618275
0.44100002 13243.77233629  1053.67457701
0.44200002 13228.26557120  1142.72377552
0.44300002 13214.77273162  1056.12468676
0.44400002 13203.65330667  1233.88145998
0.44500002 13193.06545218  1588.70901704
0.44600002 13184.73686462  972.44031354
0.44700002 13179.26076009  1062.77563806
0.44800002 13173.92940596  887.26418754
0.44900002 13171.75109894  1244.73053784
0.45000002 13170.60534380  1158.28894185
0.45100002 13170.63038339  982.26566054
0.45200002 13172.37647769  1611.11344334
0.45300002 13175.25223097  1166.40513529
0.45400002 13179.84711016  1079.42952948
0.45500002 13185.75882881  1172.47773063
0.45600002 13192.76764048  1537.41924985
0.45700002 13201.02625773  997.60160158
0.45800002 13210.04936859  909.51194213
0.45900002 13220.37598006  1003.42658444
0.46000002 13232.42857080  1281.03147065
0.46100002 13244.35344771  1101.40048491
0.46200002 13258.30474262  1657.42075443
0.46300002 13273.00952058  923.80150642
0.46400002 13287.86186687  1019.51125006
0.46500002 13304.19743096  2045.91957790
0.46600002 13321.02174449  1399.70642614
0.46700002 13338.40387935  1123.62719605
0.46800002 13357.38644896  939.69218122
0.46900002 13376.03760943  1037.31176578
0.47000002 13395.72299322  1041.04866176
0.47100002 13415.96702627  949.85051048
0.47200002 13437.04880271  1430.03798661
0.47300002 13458.72292937  1243.98981932
0.47400002 13480.11582327  1056.50412772
0.47500002 13502.40632694  1060.47904318
0.47600002 13525.63084827  1258.08661298
0.47700002 13548.34783542  1457.12487876
