# SAXS profile: number of points = 501, q_min = 0, q_max = 0.5, delta_q = 0.001
#    q    intensity    error
0.00000000 1682732.95097188 277.65093691
0.00100000 1682646.17057036 555.27324948
0.00200000 1682385.80904698 832.78100185
0.00300000 1681952.06467552 1211.00552971
0.00400000 1681344.84515028 1765.41215449
0.00500000 1680564.76451807 1815.01001752
0.00600000 1679611.69894546 2469.02929797
0.00700000 1678486.37445865 2417.02047967
0.00800000 1677188.56136410 4528.40930687
0.00900000 1675719.70321157 2513.57966227
0.01000000 1674079.13192883 2762.23068695
0.01100000 1672268.51342604 3913.10849179
0.01200000 1670287.69176761 3582.76725592
0.01300000 1668137.98690993 3853.39891972
0.01400000 1665819.61787385 4122.90373701
0.01500000 1663334.11519292 4790.40246507
0.01600000 1660681.11277644 6775.57924302
0.01700000 1657862.81991698 6266.72174040
0.01800000 1654879.79967299 7074.61146194
0.01900000 1651732.87884282 7432.79829018
0.02000000 1648423.03976167 7269.54593419
0.02100000 1644952.79599985 6514.01336749
0.02200000 1641320.96788351 7361.32487540
0.02300000 1637530.47156216 11790.21993192
0.02400000 1633582.11933938 8576.30651759
0.02500000 1629478.10033572 8261.45434601
0.02600000 1625218.95259050 7240.35076495
0.02700000 1620806.52925056 8849.60405503
0.02800000 1616241.23733309 7733.71467530
0.02900000 1611526.62960379 8702.24419942
0.03000000 1606663.11500955 7470.98382820
0.03100000 1601652.43872025 10763.10488344
0.03200000 1596495.72254120 11853.98128584
0.03300000 1591197.22943919 8115.10624425
0.03400000 1585755.43700421 9157.73807124
0.03500000 1580174.34603090 9386.23604886
0.03600000 1574454.59435197 9612.04574273
0.03700000 1568599.33441465 10729.21994360
0.03800000 1562609.89828162 11883.64882640
0.03900000 1556488.86847024 11206.72037197
0.04000000 1550236.39253184 12394.14053262
0.04100000 1543856.56393714 12644.18584491
0.04200000 1537351.01890131 9915.91453194
0.04300000 1530721.23991741 13133.58884813
0.04400000 1523970.26004715 10286.79973306
0.04500000 1517100.52685525 12561.59294603
0.04600000 1510112.39632237 13840.18075568
0.04700000 1503010.15214164 12986.00831846
0.04800000 1495795.22844865 16491.14316095
0.04900000 1488470.35715628 16745.29229746
0.05000000 1481037.15729199 13595.92173705
0.05100000 1473499.78066383 13791.95858950
0.05200000 1465857.19564014 12818.92177325
0.05300000 1458115.22080903 11810.73383914
0.05400000 1450274.34487918 14357.71668386
0.05500000 1442338.57533987 12115.64459804
0.05600000 1434308.51477646 13489.67221096
0.05700000 1426189.16452238 13648.63094158
0.05800000 1417979.92828112 17568.77213173
0.05900000 1409684.73040732 13955.87948285
0.06000000 1401307.38297936 14104.15946862
0.06100000 1392848.94682216 12953.49581078
0.06200000 1384312.69610185 15698.10670758
0.06300000 1375701.58756938 13206.73585815
0.06400000 1367015.13074979 19992.59722220
0.06500000 1358259.60543881 18825.47901200
0.06600000 1349436.52800194 16274.20528915
0.06700000 1340546.72461270 19143.00812334
0.06800000 1331594.91146662 15160.20877668
0.06900000 1322584.14641498 13887.13418754
0.07000000 1313514.22445634 15387.81986009
0.07100000 1304389.59445243 21131.11241986
0.07200000 1295212.39579631 19855.60695773
0.07300000 1285985.81102037 24266.55339098
0.07400000 1276712.76928401 15799.32126031
0.07500000 1267393.60081975 14448.28772657
0.07600000 1258032.06097058 15983.29808394
0.07700000 1248631.84048572 16069.89254054
0.07800000 1239194.08682662 20558.23086456
0.07900000 1229720.70682298 14756.64917402
0.08000000 1220216.94602592 16308.20024867
0.08100000 1210683.48545630 19358.82984073
0.08200000 1201121.64884324 19440.15479876
0.08300000 1191535.20973215 21018.68208612
0.08400000 1181927.08657636 19590.44237955
0.08500000 1172299.01927919 15122.65805864
0.08600000 1162653.72247606 21241.68450697
0.08700000 1152993.13613179 19785.36314510
0.08800000 1143319.27003873 18315.97556621
0.08900000 1133635.43990034 15304.07915748
0.09000000 1123943.83392299 18410.20086449
0.09100000 1114246.14634475 16914.25729616
0.09200000 1104544.42029541 16949.23492582
0.09300000 1094842.88486829 18524.74248249
0.09400000 1085140.27601743 17009.57462598
0.09500000 1075440.85786961 15486.34908122
0.09600000 1065746.45110818 17057.27275181
0.09700000 1056061.68711153 20181.33978948
0.09800000 1046385.19663158 20200.46717075
0.09900000 1036721.28787586 17105.90205431
0.10000000 1027069.10329112 20228.12694059
0.10100000 1017432.95652086 20236.74245697
0.10200000 1007814.42995870 20241.95377783
0.10300000 998215.08794394 20243.80293579
0.10400000 988637.53119841 26470.77114316
0.10500000 979084.81063284 17124.19414365
0.10600001 969553.58781250 20229.73656159
0.10700001 960051.97585425 24884.54838515
0.10800001 950577.15588631 15541.93723017
0.10900001 941133.60747754 21740.18735595
0.11000001 931722.31438899 20167.13044421
0.11100001 922343.71413500 17044.91263958
0.11200001 913001.19960489 23213.05659276
0.11300001 903694.71977234 15453.18043566
0.11400001 894426.95943317 16971.75235435
0.11500001 885199.48202286 18482.96605496
0.11600001 876013.35955796 18448.84222107
0.11700001 866870.06357715 18412.32101751
0.11800001 857770.00748158 16842.31489015
0.11900001 848715.10919891 19859.93449069
0.12000001 839706.66850145 15240.67675121
0.12100001 830747.67303723 15202.68313275
0.12200001 821837.25915880 22744.34721874
0.12300001 812977.77812452 18145.66486266
0.12400001 804169.20930608 16585.99072343
0.12500001 795412.48194524 22549.94492571
0.12600001 786711.33338167 17984.22192858
0.12700001 778064.24266131 16432.71757942
0.12800001 769472.50346830 19356.08173698
0.12900001 760937.81125070 20773.60322625
0.13000001 752460.88712741 22178.78569347
0.13100001 744041.50308580 17678.42694664
0.13200001 735681.40754810 16144.52924970
0.13300001 727382.61544708 19006.50863766
0.13400001 719143.47599797 17475.18729063
0.13500001 710966.90805768 17404.47072984
0.13600001 702851.73269606 15887.96416672
0.13700001 694800.20462725 17258.83789675
0.13800001 686810.76965363 18616.00678931
0.13900001 678886.74261012 14256.62226713
0.14000001 671027.02498471 15611.44447251
0.14100001 663232.06299679 18364.89669052
0.14200001 655502.54415884 19684.74232953
0.14300001 647840.06337584 15392.68063185
0.14400001 640241.75466457 19495.36234913
0.14500001 632711.75584872 16627.66572807
0.14600001 625248.34507610 15165.39932524
0.14700001 617854.15707406 17831.27181437
0.14800001 610524.46149012 20467.83353710
0.14900001 603263.96150680 19002.81568403
0.15000001 596071.11593008 16201.21369540
0.15100001 588946.73332533 16113.58338410
0.15200001 581890.70308985 14689.83149267
0.15300001 574904.48891949 18592.41204901
0.15400001 567983.94890802 15846.75292236
0.15500001 561133.84197878 17069.69227856
0.15600001 554349.82087143 16971.42056694
0.15700001 547637.94228647 15574.82381371
0.15800001 540990.70245305 12902.62886249
0.15900001 534414.17388122 12825.94077854
0.16000001 527903.62485908 15298.64777055
0.16100001 521464.36637384 16473.06011135
0.16200001 515091.59431989 12593.99007563
0.16300001 508786.64860294 15019.38257579
0.16400001 502549.66633611 14925.72579482
0.16500001 496379.56738562 17303.79253600
0.16600001 490277.60449144 15965.89094406
0.16700001 484241.26266099 15863.74451378
0.16800001 478271.13066528 12124.17373482
0.16900001 472369.38564389 16863.58786375
0.17000001 466532.20809646 15556.51721355
0.17100001 460760.55351915 14265.14741057
0.17200001 455054.96982450 11808.67702459
0.17300001 449414.21012535 14075.65372584
0.17400001 443838.10905258 11650.75091285
0.17500001 438325.97656734 12728.98696067
0.17600001 432876.28813410 14940.72579059
0.17700001 427491.71064768 12555.43213472
0.17800001 422168.37170933 11335.22131578
0.17900001 416908.19465383 11256.52178734
0.18000001 411709.72933826 15649.08755133
0.18100001 406574.35090160 11099.48030391
0.18200001 401497.13957336 14327.42610247
0.18300001 396481.46632411 16414.33348122
0.18400001 391525.04468275 14124.26665417
0.18500001 386629.67982694 15101.75600748
0.18600001 381791.25491557 12851.09424759
0.18700001 377010.98259119 11694.88123250
0.18800001 372288.26484835 11609.81008781
0.18900001 367624.59162826 11525.03149207
0.19000001 363013.23251362 13520.42848379
0.19100001 358462.44796787 11356.09088820
0.19200001 353963.69793975 13321.42440142
0.19300001 349521.99532292 12205.30865341
0.19400001 345132.31752639 15142.68114702
0.19500001 340797.30660948 10019.44128779
0.19600001 336514.91313534 10938.41776837
0.19700001 332284.43112128 13816.38729895
0.19800001 328106.02496013 11752.75836949
0.19900001 323979.03771651 12635.18306808
0.20000001 319901.24001679 14467.53426351
0.20100001 315874.69303300 19142.00730250
0.20200001 311895.80592340 11396.67328709
0.20300001 307967.08117775 11308.55175534
0.20400001 304085.59653605 11220.75904254
0.20500001 300251.23097214 18555.52695114
0.20600001 296463.81581997 11966.76249122
0.20700001 292722.95489047 9132.95662429
0.20800001 289026.16861866 9060.97081451
0.20900001 285376.92674879 9888.31097928
0.21000001 281769.73201367 9809.81368379
0.21100001 278207.03512098 14155.17461612
0.21200001 274687.20050248 11409.13341223
0.21300001 271208.97816896 10446.97033295
0.21400001 267773.72469586 11226.41393862
0.21500001 264380.70656373 9422.52882741
0.21600001 261027.12341321 8496.43326880
0.21700001 257714.16532844 8427.25360468
0.21800001 254440.85784393 11701.73560551
0.21900001 251205.70235098 9947.74628344
0.22000001 248008.69953262 10687.93541171
0.22100001 244851.24013039 10599.61068643
0.22200001 241731.08712366 8894.49577129
0.22300001 238646.46231086 12027.78226921
0.22400001 235597.54129462 10336.84261309
0.22500001 232587.05840419 7884.70165275
0.22600001 229609.43795592 10163.66225174
0.22700001 226668.72863777 9302.48506320
0.22800001 223760.68086491 10760.65165166
0.22900001 220885.74506990 10668.78199141
0.23000001 218045.45933230 8310.80307548
0.23100001 215238.21254896 7490.29015094
0.23200001 212461.60466873 8910.64012122
0.23300001 209717.48643174 10305.51777065
0.23400001 207005.41314587 8756.32939020
0.23500001 204322.23455153 7956.30818974
0.23600001 201671.42431200 7886.36142072
0.23700001 199049.74645751 8527.29154156
0.23800001 196457.85666079 7043.01449441
0.23900001 193894.69893481 8376.25139018
0.24000001 191360.16822570 8992.97153114
0.24100001 188855.28495947 10283.17075245
0.24200001 186377.47575167 7472.80524374
0.24300001 183927.40297106 7404.91759389
0.24400001 181504.07861396 10672.44032735
0.24500001 179107.70444879 7269.98206748
0.24600001 176738.04332346 7857.77377787
0.24700001 174394.44606060 9082.46318049
0.24800001 172076.61489725 7069.76805750
0.24900001 169783.37960889 7003.56474019
0.25000001 167516.09054240 7568.37732875
0.25100001 165272.30837146 7496.75226239
0.25200001 163054.81638021 8044.30974669
0.25300001 160861.02486546 7354.56640480
0.25400001 158690.56414648 9104.87154867
0.25500001 156543.34371817 6011.26468318
0.25600001 154419.96048514 7738.75668585
0.25700001 152319.02552214 7073.69587993
0.25800001 150241.24856189 6420.56006108
0.25900001 148185.95810301 6357.17790341
0.26000001 146152.75761557 6294.06880452
0.26100001 144140.72247479 6231.20372742
0.26200001 142151.47752078 5607.87605354
0.26300001 140182.75340138 7216.60848658
0.26400001 138235.79002463 5494.87291349
0.26500001 136310.07939868 7070.40415297
0.26600001 134404.17633226 6997.75377187
0.26700001 132519.91873026 6925.49128056
0.26800001 130656.35336942 5799.18251872
0.26900001 128811.50938802 5738.55301479
0.27000001 126987.72580303 5162.05129817
0.27100001 125183.26519056 6128.97295377
0.27200001 123399.76625381 5053.22066723
0.27300001 121634.73490910 6998.86297788
0.27400001 119887.15549267 7418.01809716
0.27500001 118161.64286664 6848.64914467
0.27600001 116452.59809243 6290.18738365
0.27700001 114764.21623839 7178.50206545
0.27800001 113093.24728012 5206.24788494
0.27900001 111441.89405720 7956.95161227
0.28000001 109807.47307035 5554.06225076
0.28100001 108192.06142672 5949.48173944
0.28200001 106595.25410650 5429.96250118
0.28300001 105015.78556980 4921.03994471
0.28400001 103454.07996821 5749.46076636
0.28500001 101910.30919919 4371.95247158
0.28600001 100383.98812050 5617.99016107
0.28700001 98874.93518143  5125.67688242
0.28800001 97382.64120242  5065.84523513
0.28900001 95909.39419615  5006.47061401
0.29000001 94451.45007166  6184.20898617
0.29100001 93011.59718276  4481.29896439
0.29200001 91588.26969239  5635.42650093
0.29300001 90182.05701936  3977.02890281
0.29400001 88791.70333321  3929.03305848
0.29500001 87419.04412140  6210.24918836
0.29600001 86061.99881621  4984.28089738
0.29700001 84721.62586800  4165.76254113
0.29800001 83397.19305787  4114.40071428
0.29900001 82089.88089549  4432.85377820
0.30000001 80797.67377452  6201.62574415
0.30100001 79522.67535846  4683.09057356
0.30200001 78261.98288474  4624.10947765
0.30300001 77018.43992355  4916.85743749
0.30400001 75790.59918653  5547.87212310
0.30500001 74578.07746460  3765.44730945
0.30600001 73380.36558746  3379.16599528
0.30700001 72199.23921801  4002.72601175
0.30800001 71033.09074392  6584.76782371
0.30900001 69882.34644772  4224.38804276
0.31000001 68747.12709003  5772.69653506
0.31100001 67626.18950896  5380.33989207
0.31200001 66521.03505243  4684.74411537
0.31300001 65430.26335254  4314.47176974
0.31400001 64355.62669606  3040.80350536
0.31500001 63294.54094724  3900.20979783
0.31600002 62248.74491630  3551.91355310
0.31700002 61217.51319929  3796.09817323
0.31800002 60200.90233111  3456.73597552
0.31900002 59198.85365929  3125.69962121
0.32000002 58211.44433236  3643.74553051
0.32100002 57237.52628656  3041.02991560
0.32200002 56279.28760129  2999.40477473
0.32300002 55333.22904652  3227.03407080
0.32400002 54401.99991726  3182.51714586
0.32500002 53484.71982675  3923.10438506
0.32600002 52581.70430744  3352.87253393
0.32700002 51691.82188032  2797.56153263
0.32800002 50816.37729136  2507.78833808
0.32900002 49953.84252490  3214.52991870
0.33000002 49105.78357534  3413.34317796
0.33100002 48268.76280214  3605.67675206
0.33200002 47447.89954522  2844.02723342
0.33300002 46638.96641160  2336.61232787
0.33400002 45843.58241915  3225.09617591
0.33500002 45060.14041359  2271.03118439
0.33600002 44290.76043305  2238.89804592
0.33700002 43533.10900433  2648.55447725
0.33800002 42789.42288497  3263.76338511
0.33900002 42057.10558539  2359.40373508
0.34000002 41338.10438532  2114.44413945
0.34100002 40631.05103550  2292.81031852
0.34200002 39937.09304587  2876.66894833
0.34300002 39254.04992409  2025.50907201
0.34400002 38584.68636045  3394.48794332
0.34500002 37926.23329528  2558.88308162
0.34600002 37280.65457754  2134.50397893
0.34700002 36645.33200572  2295.46370555
0.34800002 36023.14827451  2074.39309163
0.34900002 35411.74909003  1859.11691528
0.35000002 34812.10563153  1832.85744831
0.35100002 34224.28738493  1807.04245951
0.35200002 33646.45504896  2316.05384299
0.35300002 33080.18714067  2107.86962444
0.35400002 32525.30418511  2424.76154185
0.35500002 31981.46797179  2049.37256470
0.35600002 31447.34316279  2357.60742858
0.35700002 30924.38440897  1826.70347356
0.35800002 30412.54891570  1801.48742035
0.35900002 29910.92880601  1615.19023203
0.36000002 29419.89125789  1593.08718707
0.36100002 28938.17213908  2199.87995021
0.36200002 28467.86117799  1550.07511456
0.36300002 28006.32850177  2140.80385208
0.36400002 27554.82949755  1810.35238374
0.36500002 27112.85921709  2083.89445813
0.36600002 26681.03939297  1909.42867460
0.36700002 26258.02649417  1884.27607048
0.36800002 25845.94212144  3004.20322479
0.36900002 25442.07367013  1412.03515558
0.37000002 25046.93703213  1533.24832305
0.37100002 24660.81429226  1926.50290377
0.37200002 24284.47616974  1766.33145788
0.37300002 23916.20126661  1610.03874554
0.37400002 23556.79474607  1855.09767413
0.37500002 23206.22773138  1701.48069787
0.37600002 22864.19274203  1422.26717689
0.37700002 22529.96913105  1916.17396537
0.37800002 22203.95802667  1640.98359570
0.37900002 21886.64159384  1497.04635594
0.38000002 21577.10656786  1233.13169877
0.38100002 21274.47853631  1584.73598124
0.38200002 20980.50328430  1566.92896202
0.38300002 20693.53853623  1549.53223900
0.38400002 20414.99261640  1178.96587945
0.38500002 20142.43561961  1282.87178539
0.38600002 19878.63033843  1615.53636414
0.38700002 19620.92166615  1598.71277310
0.38800002 19370.53693843  1130.27088390
0.38900002 19126.50863535  1454.57105063
0.39000002 18890.48900940  1218.71995618
0.39100002 18659.97016955  1536.08881713
0.39200002 18436.68271175  1086.84249735
0.39300002 18219.39784469  1938.17963454
0.39400002 18009.83312716  1814.04052768
0.39500002 17805.27589398  1269.16012585
0.39600002 17606.93441895  1363.04089262
0.39700002 17414.58981029  1455.51148530
0.39800002 17228.38361216  1237.34256965
0.39900002 17047.70396209  1022.86228619
0.40000002 16872.61581415  1826.79820075
0.40100002 16703.46014468  1510.82804167
0.40200002 16539.94796748  999.83990201
0.40300002 16381.14819245  1389.77667850
0.40400002 16228.07389345  1183.02664288
0.40500002 16080.31460168  1566.86592903
0.40600002 15937.36953722  1070.27410198
0.40700002 15799.45677452  1063.61948046
0.40800002 15666.48426787  961.13885537
0.40900002 15538.12950941  955.59501011
0.41000002 15414.89162583  1045.36092514
0.41100002 15295.75079446  945.27744389
0.41200002 15180.94392131  1034.50547254
0.41300002 15071.26010169  1029.51782633
0.41400002 14965.20825863  1676.85166483
0.41500002 14863.72730976  1020.24629088
0.41600002 14765.70328472  1293.03269791
0.41700002 14672.14203595  1103.93201909
0.41800002 14583.30932131  1374.84155141
0.41900002 14496.38728879  913.27244247
0.42000002 14414.59856058  1001.31013646
0.42100002 14336.52931943  998.25258381
0.42200002 14262.08844400  1357.39433198
0.42300002 14190.60232526  1083.02682078
0.42400002 14122.40546625  1080.36406936
0.42500002 14057.90006010  1167.78981333
0.42600002 13995.82414296  1165.36235249
0.42700002 13938.16068379  1163.27894579
0.42800002 13882.67932237  1161.35559375
0.42900002 13831.30521668  981.33115163
0.43000002 13782.19290158  1069.22257597
0.43100002 13735.10934694  1157.04566622
0.43200002 13691.86525051  889.28669016
0.43300002 13651.00177592  1244.15236082
0.43400002 13612.96889343  1065.89551487
0.43500002 13577.10672475  1065.53138625
0.43600002 13544.25411055  1331.73884853
0.43700002 13513.16622211  1065.37807544
0.43800002 13484.34485739  1331.91622641
0.43900002 13458.58406353  977.09324932
0.44000002 13434.45540867  1155.29604762
0.44100002 13412.86029997  1511.76355605
0.44200002 13393.19496939  1156.97120226
0.44300002 13375.51584819  1158.05221702
0.44400002 13360.24267499  980.97586490
0.44500002 13345.52791577  1160.66061784
0.44600002 13333.09450731  1072.78083490
0.44700002 13323.59710884  895.34576815
0.44800002 13314.19555533  986.38222446
0.44900002 13308.07799531  988.12483798
0.45000002 13302.93949818  1169.92706961
0.45100002 13298.95387974  1262.33676209
0.45200002 13296.85783390  993.87368590
0.45300002 13295.77884238  1086.53109849
0.45400002 13296.48777351  907.48533355
0.45500002 13298.57468875  1000.58480700
0.45600002 13301.77233738  1003.02019064
0.45700002 13306.21380585  1005.55062496
0.45800002 13311.51668051  1283.09715364
0.45900002 13318.04634826  1194.62881406
0.46000002 13326.42779440  1013.67477822
0.46100002 13334.63868891  1016.49955543
0.46200002 13344.91667541  1112.16540844
0.46300002 13355.95415475  1115.48934387
0.46400002 13367.18348644  1398.54163855
0.46500002 13379.95712301  1122.31085667
0.46600002 13393.19550864  1219.65140680
0.46700002 13406.96966822  941.16931532
0.46800002 13422.46388592  1133.12445496
0.46900002 13437.63958037  947.35363532
0.47000002 13453.83304436  1140.61601956
0.47100002 13470.62802181  953.72050915
0.47200002 13488.29826056  1052.69428764
0.47300002 13506.57858682  1152.38133965
0.47400002 13524.58379872  963.62664133
0.47500002 13543.54838524  1353.81316076
0.47600002 13563.49133869  970.46785128
0.47700002 13582.91513188  973.89506112
