# SAXS profile: number of points = 501, q_min = 0, q_max = 0.5, delta_q = 0.001
#    q    intensity    error
0.00000000 1682732.95097188 328.13292544
0.00100000 1682646.14720971 706.71139861
0.00200000 1682385.71192812 908.48831321
0.00300000 1681951.84599115 1311.92248661
0.00400000 1681344.45095039 1387.10922474
0.00500000 1680564.14239079 2420.01246083
0.00600000 1679610.82927623 2469.02801956
0.00700000 1678485.17640780 2618.43698402
0.00800000 1677186.98107448 2717.04302405
0.00900000 1675717.76073534 3016.29209826
0.01000000 1674076.75318016 2762.22676202
0.01100000 1672265.59179724 3311.08601592
0.01200000 1670284.21965295 3908.46524535
0.01300000 1668133.90707499 3853.38949530
0.01400000 1665814.92118238 4122.89211270
0.01500000 1663328.66711311 5189.58567248
0.01600000 1660674.97448190 5928.60992393
0.01700000 1657855.91484293 4476.21117087
0.01800000 1654872.03840415 5188.02407385
0.01900000 1651724.31049651 5450.69047059
0.02000000 1648413.49084247 5711.75300414
0.02100000 1644942.39773872 5428.31015865
0.02200000 1641309.50411420 6795.02165575
0.02300000 1637518.07362552 7074.07840006
0.02400000 1633568.56444736 6738.47063560
0.02500000 1629463.51313919 8261.38038892
0.02600000 1625203.15889641 7240.28040404
0.02700000 1620789.59005762 8168.77990803
0.02800000 1616223.06092262 7733.62770118
0.02900000 1611507.20794070 7976.96104556
0.03000000 1606642.52432630 8217.97688967
0.03100000 1601630.47346394 7687.82662637
0.03200000 1596472.46346988 9483.04686978
0.03300000 1591172.66424701 10549.47525029
0.03400000 1585729.41203413 11655.11171622
0.03500000 1580146.81918644 9386.07253940
0.03600000 1574425.65946431 12233.28793938
0.03700000 1568568.96743332 11623.09658622
0.03800000 1562577.99158093 11883.40617593
0.03900000 1556455.55539292 10272.60714132
0.04000000 1550201.43421387 14300.60889330
0.04100000 1543820.09074078 11671.28042716
0.04200000 1537312.91156260 11898.80248751
0.04300000 1530681.47031047 15153.74725948
0.04400000 1523929.04222871 11315.17366405
0.04500000 1517057.63132220 12561.23777100
0.04600000 1510067.86304875 13839.77260821
0.04700000 1502963.85468696 11903.47428273
0.04800000 1495747.38440728 14291.86692299
0.04900000 1488420.78504689 16744.73461120
0.05000000 1480986.00004963 13595.45211354
0.05100000 1473446.84829436 14940.75173771
0.05200000 1465802.71926094 11653.13216118
0.05300000 1458058.83576471 12991.30483229
0.05400000 1450216.38670181 15553.57147270
0.05500000 1442278.89663004 12115.14329686
0.05600000 1434247.20645023 13489.09560612
0.05700000 1426126.20423025 14888.75826715
0.05800000 1417915.22327290 12548.55031189
0.05900000 1409618.33185457 15223.87869507
0.06000000 1401239.30506241 14103.47426435
0.06100000 1392779.36983298 16838.70336818
0.06200000 1384241.45274583 17005.40704188
0.06300000 1375628.60363133 21129.65633970
0.06400000 1366940.62754355 18658.74043858
0.06500000 1358183.45920820 14790.61856265
0.06600000 1349358.59538109 18985.47632531
0.06700000 1340467.40617928 15040.04500119
0.06800000 1331514.10115106 15159.28875120
0.06900000 1322501.90480007 15274.89771559
0.07000000 1313430.37866495 18184.44444417
0.07100000 1304304.28276427 19721.08167909
0.07200000 1295125.51388692 18436.11255385
0.07300000 1285897.44289904 17128.15474197
0.07400000 1276622.98654957 15798.21019892
0.07500000 1267302.56548405 17336.69990844
0.07600000 1257939.63823385 14529.20350274
0.07700000 1248538.06446776 20451.05445490
0.07800000 1239099.00367463 16151.65627035
0.07900000 1229624.54148338 17706.59422787
0.08000000 1220119.54330021 17789.34377583
0.08100000 1210584.88768514 20846.27274401
0.08200000 1201022.01832265 22429.08724466
0.08300000 1191434.46788661 16513.28249991
0.08400000 1181825.12142111 19588.75230702
0.08500000 1172196.05794261 16633.46284307
0.08600000 1162549.93468928 18205.53283201
0.08700000 1152888.32144902 16739.93921351
0.08800000 1143213.69393414 18314.28423693
0.08900000 1133529.05911627 15302.64301683
0.09000000 1123836.49857612 18408.44271142
0.09100000 1114138.33289861 21525.15360288
0.09200000 1104435.71582087 16947.56685558
0.09300000 1094733.59885110 16979.31891608
0.09400000 1085030.43634370 18554.02133347
0.09500000 1075330.48581249 23227.13958529
0.09600000 1065635.57207298 20156.49779327
0.09700000 1055950.29546791 26388.19912433
0.09800000 1046273.47185145 24859.45886002
0.09900000 1036609.22933508 31098.27834237
0.10000000 1026956.83230687 23337.59511167
0.10100000 1017320.55841674 17121.50580341
0.10200000 1007701.89638002 20239.69354079
0.10300000 998102.31105029 18684.47614179
0.10400000 988524.78547098 17126.19271399
0.10500000 978972.07961354 20235.35383767
0.10600001 969441.05592026 17115.48264762
0.10700001 959939.43100196 23326.52927104
0.10800001 950464.94233304 23310.15380773
0.10900001 941021.83313732 17079.54707530
0.11000001 931610.71428736 20164.71485989
0.11100001 922232.52695819 17042.85790045
0.11200001 912890.48358787 24757.59108042
0.11300001 903584.44625494 18541.55371010
0.11400001 894317.18157164 16969.66931933
0.11500001 885090.51237930 18480.69076870
0.11600001 875904.95531176 16909.34595858
0.11700001 866762.42290610 18410.03472954
0.11800001 857663.26855546 22963.93509713
0.11900001 848609.07912650 16802.46055813
0.12000001 839601.69918607 25905.91164868
0.12100001 830643.58481997 16720.85615011
0.12200001 821734.07604745 19709.29274253
0.12300001 812875.86252663 18143.39010641
0.12400001 804068.47181003 19599.16992383
0.12500001 795313.03435859 19540.84217496
0.12600001 786613.12854814 22477.47120748
0.12700001 777967.29775775 16430.67010296
0.12800001 769376.89261775 20842.42100330
0.12900001 760843.69405568 14836.45273336
0.13000001 752368.38314324 16262.44336817
0.13100001 743950.52009131 19149.28728980
0.13200001 735592.05690436 22012.59334054
0.13300001 727294.96512980 19004.21833476
0.13400001 719057.59320378 20385.28372840
0.13500001 710882.79836681 15952.21074747
0.13600001 702769.29928792 17330.29173758
0.13700001 694719.55201215 20132.97356665
0.13800001 686732.08660980 15750.20114911
0.13900001 678810.22008465 15680.51682342
0.14000001 670952.48421090 15609.71028133
0.14100001 663159.77623592 15537.83429002
0.14200001 655432.16099278 18276.72667131
0.14300001 647771.88639192 13991.87340603
0.14400001 640175.74728361 13923.82316020
0.14500001 632648.08025407 16625.99233336
0.14600001 625186.91722390 23435.13269767
0.14700001 617794.79583967 19201.06316054
0.14800001 610467.53612462 20465.92511413
0.14900001 603209.60110548 20358.32499783
0.15000001 596018.89487634 16199.79432709
0.15100001 588897.07172971 20140.28080347
0.15200001 581843.61651602 16023.97395497
0.15300001 574859.68904154 18590.96322089
0.15400001 567941.74484222 14525.11080979
0.15500001 561094.36374746 15755.53047758
0.15600001 554312.87549797 14359.47571747
0.15700001 547603.49188759 14276.02370729
0.15800001 540958.95154146 16772.43308418
0.15900001 534385.14141045 21802.91479866
0.16000001 527877.22706635 16572.70632602
0.16100001 521440.42675146 13938.10326500
0.16200001 515070.52027693 13852.82229679
0.16300001 508768.26450107 12515.69989757
0.16400001 502533.99831149 18656.57556808
0.16500001 496366.60265117 14831.43478743
0.16600001 490267.42501770 14737.43949183
0.16700001 484233.80308658 17083.76937950
0.16800001 478266.36243628 13336.45814624
0.16900001 472367.32823802 15658.97767048
0.17000001 466532.99430662 14359.88624283
0.17100001 460764.04901954 14265.25563127
0.17200001 455061.03206129 14170.60120757
0.17300001 449423.01523637 12902.93537677
0.17400001 443849.70819154 16311.47754637
0.17500001 438340.22980758 13886.61913614
0.17600001 432893.01497473 12642.64109944
0.17700001 427511.19225186 11414.54937224
0.17800001 422190.55790005 11335.81701503
0.17900001 416933.04211252 12382.91193563
0.18000001 411737.20044974 11178.66552024
0.18100001 406604.22004764 13320.35487797
0.18200001 401529.58624029 13226.38519554
0.18300001 396516.45380658 15321.39649886
0.18400001 391562.47764603 14125.61704838
0.18500001 386669.60805092 14024.50734655
0.18600001 381833.63382760 16065.65090229
0.18700001 377055.68158593 12759.56486769
0.18800001 372335.27882280 10555.70565334
0.18900001 367673.89322127 12574.44774228
0.19000001 363064.81301284 11441.98812272
0.19100001 358516.17501255 12390.31959388
0.19200001 354019.78798260 16398.19735419
0.19300001 349580.08144792 11190.05893591
0.19400001 345192.64222060 11106.57378828
0.19500001 340859.37874355 13027.64607120
0.19600001 336579.01825918 12929.68359744
0.19700001 332350.38761601 9870.80697867
0.19800001 328173.90078882 13714.38796209
0.19900001 324048.66231552 13610.04446046
0.20000001 319972.57629890 10611.89099448
0.20100001 315947.62133842 14359.82006851
0.20200001 311970.33676343 11399.39664411
0.20300001 308043.10990997 10368.73156964
0.20400001 304163.21685027 11223.62323227
0.20500001 300330.25309965 16704.36946697
0.20600001 296543.96568298 10128.45962665
0.20700001 292804.38920570 10049.04711255
0.20800001 289108.59129494 9063.55476553
0.20900001 285460.60065070 14387.21495290
0.21000001 281854.45370145 9812.76326949
0.21100001 278292.67509398 11504.61973225
0.21200001 274773.58002308 10534.81955611
0.21300001 271296.13241679 12192.04876720
0.21400001 267861.58852743 11230.09762993
0.21500001 264469.09638291 11139.43886629
0.21600001 261116.02126088 8499.32689388
0.21700001 257803.36897830 8430.17056417
0.21800001 254530.42334961 10869.72224307
0.21900001 251295.45619004 9951.30053564
0.22000001 248098.76321602 11514.26414528
0.22100001 244941.28824648 8972.19981271
0.22200001 241821.04758204 10515.58875133
0.22300001 238736.31112744 9625.84851982
0.22400001 235687.20544063 7954.44355976
0.22500001 232676.36992497 9465.27517614
0.22600001 229698.18658190 7821.22362297
0.22700001 226756.95987205 8530.59723379
0.22800001 223848.37802022 9995.94979320
0.22900001 220972.67826872 8385.91353688
0.23000001 218131.48579793 9069.90760841
0.23100001 215323.40626658 9741.23136019
0.23200001 212545.72337645 9657.01539832
0.23300001 209800.45648484 12518.79383052
0.23400001 207087.13323954 8029.80397114
0.23500001 204402.66862589 7959.44029274
0.23600001 201750.40003624 7889.44976656
0.23700001 199127.09610277 7819.72143381
0.23800001 196533.51211678 9159.44476543
0.23900001 193968.61048950 8379.44436949
0.24000001 191432.30561560 8996.36162794
0.24100001 188925.39194838 10286.98807818
0.24200001 186445.60871444 8834.72558683
0.24300001 183993.20537811 9427.81228954
0.24400001 181567.73090205 12010.70596732
0.24500001 179168.99571258 7933.60350545
0.24600001 176796.62255969 8515.40972841
0.24700001 174450.47452994 9085.38114331
0.24800001 172130.05025242 8357.77498539
0.24900001 169833.90261650 8279.40314423
0.25000001 167563.88373355 6308.78052103
0.25100001 165317.10746910 8748.58174115
0.25200001 163096.41723642 7427.41119234
0.25300001 160899.57183988 7356.32877255
0.25400001 158725.69263174 8499.76124256
0.25500001 156575.12921431 7214.98229555
0.25600001 154448.25997155 6549.37877396
0.25700001 152343.74191827 7074.84370942
0.25800001 150262.24814395 5837.68861660
0.25900001 148203.11810417 6357.91406749
0.26000001 146166.17958568 7439.12806200
0.26100001 144150.14035929 8497.65117626
0.26200001 142156.93682162 6168.90056527
0.26300001 140184.04226352 7216.67483720
0.26400001 138232.74409722 6044.22702165
0.26500001 136302.75520534 6526.17622804
0.26600001 134392.55250470 6458.90637901
0.26700001 132503.74123635 6391.98077971
0.26800001 130635.70231510 7379.61117299
0.26900001 128786.05201624 6780.58595952
0.27000001 126957.67240482 7741.24444122
0.27100001 125148.36142033 5106.05338758
0.27200001 123359.99896947 5556.75141654
0.27300001 121590.11807710 5497.08949841
0.27400001 119837.57864086 5437.63038816
0.27500001 118106.95210254 5867.55365814
0.27600001 116392.77149194 6770.56783811
0.27700001 114699.13355244 7174.43114325
0.27800001 113022.82419466 6622.00758297
0.27900001 111366.22686975 5612.85809988
0.28000001 109726.33989999 6012.45507938
0.28100001 108105.56993372 5944.72557201
0.28200001 106503.26099848 4521.06364337
0.28300001 104918.20250198 4916.46720194
0.28400001 103350.78383846 7952.84319278
0.28500001 101801.39541304 5240.73608391
0.28600001 100269.37387460 6043.23544946
0.28700001 98754.64548403  4692.82097552
0.28800001 97256.37059819  6745.70218399
0.28900001 95777.40686189  4582.94913527
0.29000001 94313.65944470  4528.47057259
0.29100001 92867.78564909  5287.89196516
0.29200001 91438.65720918  4018.72917457
0.29300001 90026.34878501  4367.17838629
0.29400001 88630.00693578  5490.62918958
0.29500001 87251.25091574  4261.35129644
0.29600001 85888.37877928  4591.59294690
0.29700001 84541.75351612  4534.81987327
0.29800001 83211.41500319  5971.25142330
0.29900001 81897.94109743  5159.57053339
0.30000001 80599.60448406  5458.60847209
0.30100001 79318.52998330  4671.06845185
0.30200001 78051.66592609  4256.93806114
0.30300001 76802.11085494  3502.17642078
0.30400001 75568.09206800  4494.41248852
0.30500001 74349.42490076  5460.22202321
0.30600001 73145.55217217  4042.02340439
0.30700001 71958.43845431  3324.48001398
0.30800001 70786.18203990  3609.03366217
0.30900001 69629.39018888  5180.42687532
0.31000001 68488.14038816  3833.96628045
0.31100001 67361.14817115  3467.75207203
0.31200001 66249.90195566  3421.47634849
0.31300001 65153.24221960  5830.56392229
0.31400001 64072.49352376  4843.88073974
0.31500001 63005.53946814  4479.69406829
0.31600002 61953.87107814  4124.26939295
0.31700002 60916.73505836  3777.44691982
0.31800002 59894.30687062  3152.53699140
0.31900002 58886.55968400  3674.52149827
0.32000002 57893.28968400  3066.31823330
0.32100002 56913.67771024  3023.82383992
0.32200002 55949.74065253  3795.07108816
0.32300002 54998.17589964  3207.49377034
0.32400002 54061.42336097  4216.79122183
0.32500002 53138.67303613  3637.87372831
0.32600002 52230.24788984  3330.46191440
0.32700002 51334.92416101  3535.94974365
0.32800002 50454.25831094  3485.88487177
0.32900002 49586.45889610  2699.98281475
0.33000002 48733.15611088  2419.60131548
0.33100002 47891.04887632  2623.47178168
0.33200002 47065.23955532  3056.18147525
0.33300002 46251.29771837  2548.90913796
0.33400002 45450.98296314  2969.08560267
0.33500002 44662.92891590  3601.61875834
0.33600002 43888.75310541  2662.29188945
0.33700002 43126.49942059  2405.16498659
0.33800002 42378.39192841  2370.43546477
0.33900002 41641.62312927  2760.83974422
0.34000002 40918.23847028  2302.26479656
0.34100002 40206.94360906  2681.40119628
0.34200002 39508.75339411  2642.54309591
0.34300002 38821.79973088  2003.20496098
0.34400002 38148.42686587  2566.43553895
0.34500002 37486.13284219  2529.18950265
0.34600002 36836.80195994  1917.35563282
0.34700002 36197.85358219  2078.48085113
0.34800002 35572.14433157  2420.86239714
0.34900002 34957.32968549  2752.88984311
0.35000002 34354.40701471  2170.51153799
0.35100002 33763.38400952  1782.70676014
0.35200002 33182.53354615  2284.11980483
0.35300002 32613.32621693  2424.47478580
0.35400002 32055.55710741  1706.95849682
0.35500002 31508.92621453  2355.60743537
0.35600002 30972.20957673  1658.56190139
0.35700002 30446.80754773  2942.98855696
0.35800002 29932.47147990  1773.05003209
0.35900002 29428.70338776  1906.98006985
0.36000002 28935.57485534  1723.54759790
0.36100002 28451.97237004  2008.42482473
0.36200002 27979.67364565  1980.54129282
0.36300002 27516.51720751  1802.88229283
0.36400002 27063.40372955  1629.89356682
0.36500002 26620.00386559  2046.01359402
0.36600002 26186.81757100  1585.74281313
0.36700002 25762.63626562  1564.30734815
0.36800002 25349.47789780  2244.94986897
0.36900002 24944.67068258  1522.87221731
0.37000002 24548.75193730  2049.20716504
0.37100002 24161.94936133  1617.88420587
0.37200002 23785.08044431  1596.93037668
0.37300002 23416.44328890  1576.39503688
0.37400002 23056.73600075  1426.63560763
0.37500002 22706.02565151  1280.61990741
0.37600002 22364.08683935  1391.15808774
0.37700002 22030.00621278  1498.92169372
0.37800002 21704.23851284  1480.66322149
0.37900002 21387.38745009  1340.98925665
0.38000002 21078.38457709  1325.09270921
0.38100002 20776.42364866  1785.73369720
0.38200002 20483.36975185  1412.12357759
0.38300002 20197.35525473  1279.70448956
0.38400002 19919.77321576  1380.44034925
0.38500002 19648.62841469  1365.18676693
0.38600002 19386.09207921  1350.43523821
0.38700002 19129.80884838  1224.69042049
0.38800002 18881.19806709  1101.71795941
0.38900002 18638.89663452  1853.63835812
0.39000002 18404.78608036  1187.38483023
0.39100002 18176.39061928  1389.40336476
0.39200002 17955.17888677  1375.99519918
0.39300002 17740.25370692  1048.44904375
0.39400002 17533.09619229  1454.37039805
0.39500002 17331.06833814  1235.35860967
0.39600002 17135.50899780  1734.71333558
0.39700002 16945.92708208  1922.17659999
0.39800002 16762.68973094  1504.87054189
0.39900002 16585.04672652  1094.61313581
0.40000002 16413.14002964  1085.97546151
0.40100002 16247.36178815  979.71596224
0.40200002 16087.20218926  1361.45998578
0.40300002 15931.99405225  1158.57466237
0.40400002 15782.56562938  1438.18636112
0.40500002 15638.55551169  1238.10449852
0.40600002 15499.46149385  1135.49060284
0.40700002 15365.67840290  940.37956281
0.40800002 15236.78120582  1028.25422839
0.40900002 15112.62392631  929.42641551
0.41000002 14993.75619857  1016.80162478
0.41100002 14879.09813202  1379.29246219
0.41200002 14768.82388770  1006.42155151
0.41300002 14663.83945313  1274.87426246
0.41400002 14562.54938317  997.17061626
0.41500002 14465.89895376  1083.20656498
0.41600002 14372.80974343  988.92122126
0.41700002 14284.22698320  1164.30739657
0.41800002 14200.56775412  981.75629820
0.41900002 14118.95547565  1245.29193196
0.42000002 14042.43729074  1064.13594832
0.42100002 13969.87354740  1149.58094869
0.42200002 13900.91540935  1323.01968678
0.42300002 13834.87896854  967.88817850
0.42400002 13772.42477030  877.99212071
0.42500002 13713.69807913  1051.56641854
0.42600002 13657.41417470  1137.18464514
0.42700002 13605.66512843  1397.57398822
0.42800002 13556.22148878  1221.28005180
0.42900002 13510.85337340  958.59509227
0.43000002 13467.81541604  1044.83316949
0.43100002 13426.90215645  1044.07596116
0.43200002 13389.89172391  1043.60821042
0.43300002 13355.41860168  956.38157139
0.43400002 13323.60720766  1043.23849380
0.43500002 13294.26294246  1043.33380517
0.43600002 13267.81945893  1043.64672810
0.43700002 13243.27882192  1218.11684377
0.43800002 13220.99474696  870.60254534
0.43900002 13201.85452941  1045.58692828
0.44000002 13184.44004701  1395.44120070
0.44100002 13169.49707685  1222.39277660
0.44200002 13156.49162862  1223.94847421
0.44300002 13145.69226614  1225.70440498
0.44400002 13137.14840866  1227.66657697
0.44500002 13129.27871590  966.18366649
0.44600002 13123.83521804  1319.92978961
0.44700002 13121.13512303  969.91435426
0.44800002 13118.63334231  1236.95599647
0.44900002 13119.55814907  1062.68426044
0.45000002 13121.32180591  1065.18895469
0.45100002 13124.42099029  889.83578531
0.45200002 13129.28827438  981.34869858
0.45300002 13135.18450711  1610.11099319
0.45400002 13142.97587762  1435.21303386
0.45500002 13152.05146167  989.56039887
0.45600002 13162.32448832  1172.96060237
0.45700002 13173.84968770  1086.05221973
0.45800002 13186.18951590  1361.80378680
0.45900002 13199.70979521  1821.56003807
0.46000002 13215.12081413  1187.97334189
0.46100002 13230.43306224  1191.92977107
0.46200002 13247.66357572  1104.06033473
0.46300002 13265.80308076  1384.94990727
0.46400002 13284.06483110  1111.87627906
0.46500002 13303.79413168  1208.91583004
0.46600002 13323.96495706  933.34378948
0.46700002 13344.65107632  1217.83291495
0.46800002 13367.14194575  1410.56772068
0.46900002 13389.27089348  1321.52109982
0.47000002 13412.33089157  1231.85558912
0.47100002 13436.00017539  1141.52262901
0.47200002 13460.48979768  1050.52397605
0.47300002 13485.53058140  1246.46765072
0.47400002 13510.37602009  1155.13720447
0.47500002 13536.07231813  966.47560932
0.47600002 13562.64706608  1067.44818793
0.47700002 13588.77768602  1364.04156878
