# SAXS profile: number of points = 501, q_min = 0, q_max = 0.5, delta_q = 0.001
#    q    intensity    error
0.00000000 1664650.74656090 374.54641798
0.00100000 1664564.32944384 749.05396604
0.00200000 1664305.05311000 1273.19340594
0.00300000 1663873.12324329 1098.15630046
0.00400000 1663268.42365903 1247.45136514
0.00500000 1662491.59340659 1795.49099195
0.00600000 1661542.52188476 2791.39155041
0.00700000 1660421.88443981 2590.25824738
0.00800000 1659129.47896974 3135.75484764
0.00900000 1657666.80119353 3232.45040051
0.01000000 1656033.13262585 3825.43670155
0.01100000 1654230.05080815 3275.37564321
0.01200000 1652257.52780996 3221.90232049
0.01300000 1650116.84306680 4504.81918026
0.01400000 1647808.25756490 3707.56874388
0.01500000 1645333.13466154 4343.67966893
0.01600000 1642691.35206241 4607.74944852
0.01700000 1639884.98847390 4870.45863425
0.01800000 1636914.53149964 5598.24794964
0.01900000 1633780.98638761 4901.34318032
0.02000000 1630485.12153177 6676.83687470
0.02100000 1627029.67053404 6443.03778743
0.02200000 1623413.21713419 8401.16378035
0.02300000 1619638.98013334 6413.77065327
0.02400000 1615707.44465583 6664.79351310
0.02500000 1611621.02926580 9427.98345179
0.02600000 1607380.15998192 6509.88994568
0.02700000 1602986.72329847 8079.05345545
0.02800000 1598441.10724875 7648.54104894
0.02900000 1593746.87978681 10757.79193250
0.03000000 1588904.55304270 7388.40651126
0.03100000 1583915.62399317 11404.19301749
0.03200000 1578781.41805580 9377.96205518
0.03300000 1573506.09691108 12037.32219630
0.03400000 1568088.08693612 10702.20168714
0.03500000 1562531.54034586 10968.97191975
0.03600000 1556837.03617140 11232.57973508
0.03700000 1551007.73921151 8840.74452237
0.03800000 1545044.86865909 10846.21547994
0.03900000 1538951.19214300 11080.44909657
0.04000000 1532726.55747526 10368.89564180
0.04100000 1526375.50415878 14424.24918310
0.04200000 1519899.17538817 14705.02520409
0.04300000 1513299.32060758 10986.55357758
0.04400000 1506579.08442509 15254.11393823
0.04500000 1499740.67491259 11383.03225150
0.04600000 1492784.51953850 14733.78389277
0.04700000 1485714.90000651 16045.72166632
0.04800000 1478533.28399126 13040.66417156
0.04900000 1471242.31301413 11034.31786123
0.05000000 1463843.79177430 19037.28939852
0.05100000 1456341.66686592 18175.14484916
0.05200000 1448735.03165538 18427.91046142
0.05300000 1441029.45731954 11672.33914843
0.05400000 1433225.81896795 15371.34762526
0.05500000 1425327.82456261 16761.85599878
0.05600000 1417336.15560310 18177.33704384
0.05700000 1409255.92742697 13486.57985501
0.05800000 1401086.35114222 16119.49922255
0.05900000 1392831.45259538 17549.67712237
0.06000000 1384495.07395541 15201.75662224
0.06100000 1376078.26234889 17916.53981305
0.06200000 1367584.11475320 20677.87278162
0.06300000 1359015.67101588 15655.86126210
0.06400000 1350372.61318146 17115.97367253
0.06500000 1341661.10858636 22580.15751376
0.06600000 1332882.47609401 14735.01646265
0.06700000 1324037.95912129 14855.70659657
0.06800000 1315131.78630546 14972.77608795
0.06900000 1306167.36156627 16457.70952627
0.07000000 1297144.42568424 20721.88317068
0.07100000 1288067.37093900 18084.46673502
0.07200000 1278938.01841820 18205.68354506
0.07300000 1269760.02780429 18322.63805973
0.07400000 1260536.05645832 22689.65007958
0.07500000 1251266.63442382 14264.44030104
0.07600000 1241955.34539018 14344.58491174
0.07700000 1232605.88879524 14421.48957511
0.07800000 1223219.52287566 17394.18243101
0.07900000 1213798.13085100 17478.69390407
0.08000000 1204346.75152664 16096.09508924
0.08100000 1194866.20782434 16166.54055037
0.08200000 1185357.93377981 17709.24836168
0.08300000 1175825.38828318 20741.56082276
0.08400000 1166271.75389031 19330.95522810
0.08500000 1156698.71899206 17905.69701058
0.08600000 1147108.97901890 17963.72745486
0.08700000 1137504.34292037 16516.56383478
0.08800000 1127886.99994252 15057.29215638
0.08900000 1118260.14758301 25664.07159246
0.09000000 1108625.88435482 15132.74403231
0.09100000 1098986.21796838 18199.21262458
0.09200000 1089342.80354591 16715.96610584
0.09300000 1079700.15165479 22835.65928060
0.09400000 1070056.85304561 19822.80413429
0.09500000 1060417.21413359 16797.00946138
0.09600000 1050783.04690378 18346.67286138
0.09700000 1041158.77033375 22957.55196516
0.09800000 1031543.43756712 16850.26284492
0.09900000 1021940.85657783 15329.11356948
0.10000000 1012350.80707895 18404.53853821
0.10100000 1002776.93157163 19945.23410702
0.10200000 993221.03554726 16879.79229309
0.10300000 983684.85264260 23018.22663463
0.10400000 974170.79473914 21480.46703455
0.10500000 964681.98322845 16872.28868050
0.10600001 955215.21602122 22996.80740779
0.10700001 945778.15221644 16853.76746560
0.10800001 936368.42370236 21433.47422724
0.10900001 926990.42784850 16824.87705732
0.11000001 917644.73666176 22918.17837688
0.11100001 908332.35219551 16785.98265875
0.11200001 899056.35474899 19810.70770952
0.11300001 889816.50609800 15215.86297065
0.11400001 880615.93831625 16709.68821632
0.11500001 871455.91896449 19712.33381519
0.11600001 862337.45613617 21187.63229502
0.11700001 853262.31556115 19633.56680570
0.11800001 844230.74242656 30139.03892413
0.11900001 835244.34421896 21048.15846572
0.12000001 826304.85025664 20996.40723406
0.12100001 817414.97479273 17950.43369206
0.12200001 808574.03416677 16410.01079651
0.12300001 799784.33803079 16363.58832707
0.12400001 791045.74011148 17798.52999113
0.12500001 782359.49922034 17743.91427842
0.12600001 773728.84630265 20635.34930330
0.12700001 765152.39732418 16160.01939305
0.12800001 756631.63170316 16104.90503981
0.12900001 748168.18582132 18966.06440448
0.13000001 739762.67615493 15989.97099877
0.13100001 731414.87690824 21723.02286815
0.13200001 723126.61008118 17311.65186142
0.13300001 714899.85334745 22991.18036753
0.13400001 706732.95635573 14311.34304092
0.13500001 698628.76246335 19952.83839669
0.13600001 690586.04174513 15610.69820970
0.13700001 682607.15368599 16955.96249709
0.13800001 674690.72488531 19694.22318810
0.13900001 666839.69035440 15403.99757361
0.14000001 659053.05739995 15332.87010352
0.14100001 651331.58239726 15260.69969531
0.14200001 643675.31941150 27613.67250516
0.14300001 636086.42452866 17861.30764324
0.14400001 628561.52304243 16405.45652525
0.14500001 621105.38684126 17682.87119751
0.14600001 613715.84628384 16238.92205873
0.14700001 606395.34913611 13461.97738591
0.14800001 599139.63003859 16068.92563575
0.14900001 591953.33706912 17314.63592619
0.15000001 584834.49834778 18545.10281762
0.15100001 577784.24993399 15808.17782410
0.15200001 570802.59559302 17029.89624311
0.15300001 563890.41934496 16933.63009201
0.15400001 557044.23664236 20722.04658099
0.15500001 550268.49160553 12876.28331124
0.15600001 543558.73663281 15360.97062220
0.15700001 536921.13943651 15270.03792627
0.15800001 530348.25948685 13913.68724435
0.15900001 523846.22746022 21372.92708919
0.16000001 517409.90131771 12495.44970664
0.16100001 511044.85046999 16143.90758841
0.16200001 504746.27227865 16043.36102172
0.16300001 498515.63110873 12263.48510421
0.16400001 492352.76456586 13404.30464812
0.16500001 486256.95148867 13318.57853006
0.16600001 480229.03389634 16841.63301389
0.16700001 474266.61691783 17927.27896593
0.16800001 468370.26875677 11873.18687359
0.16900001 462542.46018087 16512.76660816
0.17000001 456779.08182595 14059.66080250
0.17100001 451081.12249488 20948.20831786
0.17200001 445449.07206787 13871.28475924
0.17300001 439881.76909310 12629.00618706
0.17400001 434378.90141417 12542.69137068
0.17500001 428940.06622891 12456.42011157
0.17600001 423563.35247518 11245.60753934
0.17700001 418251.74816531 12284.05442380
0.17800001 413001.22913497 13306.90023124
0.17900001 407813.65310270 14314.25990002
0.18000001 402687.90671562 12026.27490212
0.18100001 397624.61480009 15197.21349552
0.18200001 392619.63973519 16166.11442975
0.18300001 387675.88180108 11769.84032748
0.18400001 382791.22660972 11684.70274426
0.18500001 377967.36452217 12654.34796202
0.18600001 373200.46723456 15702.41040073
0.18700001 368491.36061155 14548.03960426
0.18800001 363839.64326120 12377.82524855
0.18900001 359246.58632509 11262.38101341
0.19000001 354705.85011974 12194.78770331
0.19100001 350225.29764620 13112.43576344
0.19200001 345796.66004193 13014.05791561
0.19300001 341424.82931352 12916.10190325
0.19400001 337104.75871747 15776.50345348
0.19500001 332839.03396263 14678.20209137
0.19600001 328625.65856753 13595.24413740
0.19700001 324463.95137710 9636.57981130
0.19800001 320354.12896716 12431.34256206
0.19900001 316295.38564509 10437.74821958
0.20000001 312285.55994110 12240.03310037
0.20100001 308326.60142414 11210.75575763
0.20200001 304415.14673490 10196.38582180
0.20300001 300553.43441827 10116.62908068
0.20400001 296738.92392205 14599.55574702
0.20500001 292970.97487268 11768.64461690
0.20600001 289249.62670757 13471.80200069
0.20700001 285574.56337867 9800.91947844
0.20800001 281943.33893980 13258.38614037
0.20900001 278359.22978676 9645.14776805
0.21000001 274817.01123942 13916.73410704
0.21100001 271318.81998084 8627.93888326
0.21200001 267863.10095499 11125.69442413
0.21300001 264448.75965267 12733.20837924
0.21400001 261077.10966439 10103.68462168
0.21500001 257746.99159136 10856.30379909
0.21600001 254456.31959424 8282.55359438
0.21700001 251205.75779959 9857.31440211
0.21800001 247994.50459118 10590.60581930
0.21900001 244820.97296600 8887.00173886
0.22000001 241685.44266807 12017.80920490
0.22100001 238588.79044897 8739.50780738
0.22200001 235529.28063546 7878.45480978
0.22300001 232504.74058710 9374.59158375
0.22400001 229515.76596415 8520.77321434
0.22500001 226564.59616657 9984.70222521
0.22600001 223645.96222191 9899.68898589
0.22700001 220763.73659937 8305.13216361
0.22800001 217914.08266760 8233.88400298
0.22900001 215096.97713932 7420.84606225
0.23000001 212313.90458209 8092.34485585
0.23100001 209563.68015104 10939.22462123
0.23200001 206843.78040146 7952.10951362
0.23300001 204155.81636826 9315.63034146
0.23400001 201499.48647726 7813.14295768
0.23500001 198871.83739280 8448.07605201
0.23600001 196275.84974909 9070.88882518
0.23700001 193708.71103161 8298.48157309
0.23800001 191170.89679938 8909.52006674
0.23900001 188661.44893110 8829.35622760
0.24000001 186180.23913258 8076.49915559
0.24100001 183728.10482344 8003.19662467
0.24200001 181302.77398358 8591.03235158
0.24300001 178904.70610081 7857.49506363
0.24400001 176532.99276192 8433.86412815
0.24500001 174187.80286684 7070.28325282
0.24600001 171868.70948883 8914.83038290
0.24700001 169575.50258368 9462.31349179
0.24800001 167307.48571521 6248.93488708
0.24900001 165063.50906892 9284.82282437
0.25000001 162845.28792874 7970.46299474
0.25100001 160650.17892399 9716.12328098
0.25200001 158480.69166814 7818.64529335
0.25300001 156334.71100959 6551.98804839
0.25400001 154211.46264608 10027.60083298
0.25500001 152111.17641610 6425.17639580
0.25600001 150034.22501372 8675.72947189
0.25700001 147979.12298032 8017.50926241
0.25800001 145946.88297179 6237.04033890
0.25900001 143936.71767442 6736.23870589
0.26000001 141948.24711856 7780.18379269
0.26100001 139980.49564133 7151.60386070
0.26200001 138035.12641002 7623.68039235
0.26300001 136109.85918468 6467.94081450
0.26400001 134205.75250116 6401.61469722
0.26500001 132322.61286442 6335.60700374
0.26600001 130458.87036644 5747.36580596
0.26700001 128616.38547097 5170.37894060
0.26800001 126794.19057712 6650.98958145
0.26900001 124990.04255761 5062.09696313
0.27000001 123206.86667483 7011.70311427
0.27100001 121442.34730144 6441.30240569
0.27200001 119698.54166234 6862.31771825
0.27300001 117972.74844629 4848.68019060
0.27400001 116264.07970350 5275.48286621
0.27500001 114576.92408630 4743.48488166
0.27600001 112905.96741107 4691.24316795
0.27700001 111255.05295255 6031.13670599
0.27800001 109621.30120595 6881.47750888
0.27900001 108006.87302153 7258.06221056
0.28000001 106408.81880821 5382.15831005
0.28100001 104829.50316967 6651.43229092
0.28200001 103268.32520201 5698.86279600
0.28300001 101724.12063676 4333.44774423
0.28400001 100197.16001163 5140.11455188
0.28500001 98687.90937132  5503.82496614
0.28600001 97195.66139405  5021.12810528
0.28700001 95720.41080611  4135.12194255
0.28800001 94261.38853890  4086.23138658
0.28900001 92821.13639887  5249.03551181
0.29000001 91395.93658415  5984.14923110
0.29100001 89988.17731359  5518.07529407
0.29200001 88596.87742257  5840.74942056
0.29300001 87222.09794664  6154.39152244
0.29400001 85862.89104632  3799.43310865
0.29500001 84520.92804370  4878.54819762
0.29600001 83194.56112635  4447.58144835
0.29700001 81884.17709768  4758.28975639
0.29800001 80589.72062897  3614.44914131
0.29900001 79311.71360169  4282.83273724
0.30000001 78048.64931921  5285.84502537
0.30100001 76802.51519803  3827.06951349
0.30200001 75570.16808599  4121.59716253
0.30300001 74354.79625547  4068.69464372
0.30400001 73154.87045056  4016.20257787
0.30500001 71969.85578177  7267.51638090
0.30600001 70799.24991045  4238.39729655
0.30700001 69645.08709910  4182.88412920
0.30800001 68505.53575330  3810.27807899
0.30900001 67381.04693750  4073.18448021
0.31000001 66271.86157783  4019.05723567
0.31100001 65176.51660041  3355.28723345
0.31200001 64096.83513132  3009.34655190
0.31300001 63031.19079404  2968.76922696
0.31400001 61981.26478798  3221.47638988
0.31500001 60944.85928227  4044.30105346
0.31600002 59923.40842002  3134.29402581
0.31700002 58916.17836737  4215.45276178
0.31800002 57923.30408117  3603.11930097
0.31900002 56944.76078872  3280.01837674
0.32000002 55980.53645564  3504.10184536
0.32100002 55029.68036133  2923.72705604
0.32200002 54094.08029790  3931.28747180
0.32300002 53170.71193247  3100.91606673
0.32400002 52261.73595167  2802.53572311
0.32500002 51366.44693780  3516.54712388
0.32600002 50485.23162877  2971.56087438
0.32700002 49616.90765641  2441.15197229
0.32800002 48762.88305469  2647.09323197
0.32900002 47921.42853216  3083.74407207
0.33000002 47094.25287154  3741.16762527
0.33100002 46277.82916742  2304.63600167
0.33200002 45477.60481704  2725.92776182
0.33300002 44688.90064127  2238.91402815
0.33400002 43913.53672255  2647.98638977
0.33500002 43150.11087890  2609.71882954
0.33600002 42400.37435511  2143.33902515
0.33700002 41662.24883414  2745.95895070
0.33800002 40937.77653190  2914.36044932
0.33900002 40224.70499897  2051.46005210
0.34000002 39524.58953016  2628.18770527
0.34100002 38836.33875539  2390.76512700
0.34200002 38160.91116593  2356.05476696
0.34300002 37496.45340924  2515.26221381
0.34400002 36845.24337156  2288.08972174
0.34500002 36204.94753123  2066.94055245
0.34600002 35577.45826523  2036.98746945
0.34700002 34959.85850152  2007.39517023
0.34800002 34355.43415303  1978.35776940
0.34900002 33761.55081589  2304.22595232
0.35000002 33179.22202108  2270.95195879
0.35100002 32608.70982447  1893.91395631
0.35200002 32047.93895434  1866.63229280
0.35300002 31498.66475410  1672.57917766
0.35400002 30960.70149421  1978.38891918
0.35500002 30433.37865916  1625.14249737
0.35600002 29915.89331586  1922.39539553
0.35700002 29409.45402034  1737.21653126
0.35800002 28913.92979664  1868.41823196
0.35900002 28428.51697054  1995.68198586
0.36000002 27953.59887454  2119.16243105
0.36100002 27487.99717947  1492.59831754
0.36200002 27033.50675873  2207.96176910
0.36300002 26587.85527976  1887.20605715
0.36400002 26152.00524119  1431.82235478
0.36500002 25725.72449877  1694.81081026
0.36600002 25309.34726262  1950.59148593
0.36700002 24901.73136395  1512.03320004
0.36800002 24504.98398208  1491.98602042
0.36900002 24116.32039277  2141.52935232
0.37000002 23736.35537759  1717.20671113
0.37100002 23365.30518063  1564.54090901
0.37200002 23003.97361539  1673.19410017
0.37300002 22650.67019946  1270.70265838
0.37400002 22306.00578552  1254.71288487
0.37500002 21970.21078623  1239.11994704
0.37600002 21642.89890159  1223.90599086
0.37700002 21323.31274716  1329.93507904
0.37800002 21011.72140337  2030.67791123
0.37900002 20708.86621329  1416.48651609
0.38000002 20413.70690357  1283.30774529
0.38100002 20125.41684423  1729.77965971
0.38200002 19845.81150078  1596.19869463
0.38300002 19573.09618794  1352.89247260
0.38400002 19308.54494981  1115.06852368
0.38500002 19050.18812831  1213.30653937
0.38600002 18800.18270145  1418.75585478
0.38700002 18556.55260281  1295.98969518
0.38800002 18320.12436705  1175.87723821
0.38900002 18089.96210420  1375.74168320
0.39000002 17867.73610907  1571.91415867
0.39100002 17650.97471448  1764.39151605
0.39200002 17441.36721661  1233.80237536
0.39300002 17237.79437077  1120.62906514
0.39400002 17041.82648002  1009.72826678
0.39500002 16850.74850322  1301.21486107
0.39600002 16665.99243143  1290.19786521
0.39700002 16487.05860938  1476.41616842
0.39800002 16314.23106979  976.40677579
0.39900002 16146.99050574  1259.46531912
0.40000002 15985.16124027  1249.95974241
0.40100002 15829.34844970  1049.96073241
0.40200002 15678.96099173  1042.57256054
0.40300002 15533.39736985  1223.72110278
0.40400002 15393.46668917  1215.69908938
0.40500002 15258.73885077  1300.96013606
0.40600002 15128.86747909  1385.42610504
0.40700002 15003.97179130  1193.71605228
0.40800002 14884.00129598  913.13352277
0.40900002 14768.45567712  1180.73808733
0.41000002 14658.03448780  994.03465589
0.41100002 14551.86358183  1079.16625436
0.41200002 14449.75996111  1253.22774081
0.41300002 14352.84568098  891.31175902
0.41400002 14259.43737748  1065.18002257
0.41500002 14170.57216933  1237.94124337
0.41600002 14085.17368848  1233.43871834
0.41700002 14004.09328142  965.86235939
0.41800002 13927.85360664  1137.97533285
0.41900002 13853.44437821  1134.59714834
0.42000002 13783.94434268  957.50173913
0.42100002 13718.35335327  868.37180841
0.42200002 13656.22021875  953.13593533
0.42300002 13596.95071781  951.24271729
0.42400002 13540.99556530  949.56235901
0.42500002 13488.74180128  1206.70289872
0.42600002 13438.71169827  1463.27419261
0.42700002 13393.20086115  1117.79659684
0.42800002 13349.62045094  859.04811673
0.42900002 13310.25768192  1116.06515952
0.43000002 13273.05335286  943.91323392
0.43100002 13237.80880371  1029.37206136
0.43200002 13206.33404527  1372.40229902
0.43300002 13177.31487848  943.62756316
0.43400002 13150.84399538  858.09261136
0.43500002 13126.70002509  1030.18346679
0.43600002 13105.33570461  1202.67671461
0.43700002 13085.76914949  945.70858125
0.43800002 13068.44248371  860.55697833
0.43900002 13054.03044190  1120.03586499
0.44000002 13041.29990729  1035.21843570
0.44100002 13030.92464366  1036.74041378
0.44200002 13022.40591026  1298.00837062
0.44300002 13015.95958344  866.86294934
0.44400002 13011.70145771  1476.50289289
0.44500002 13008.04458664  1218.33351372
0.44600002 13006.62839409  959.30392267
0.44700002 13007.91564292  1136.37156442
0.44800002 13009.23961673  963.78956268
0.44900002 13013.92714823  1317.66018620
0.45000002 13019.36323232  968.83596085
0.45100002 13026.05908926  1678.01701140
0.45200002 13034.38618825  1062.82390016
0.45300002 13043.74939664  977.10731361
0.45400002 13054.85091714  1514.68914945
0.45500002 13067.17530534  1161.93328322
0.45600002 13080.50396262  986.33544805
0.45700002 13095.11602645  1169.52486775
0.45800002 13110.40047542  1353.97667327
0.45900002 13126.90512242  1268.05909492
0.46000002 13145.16000670  1363.48178632
0.46100002 13163.22918351  1277.09655591
0.46200002 13183.08681677  1373.34813423
0.46300002 13203.86271309  1378.48333258
0.46400002 13224.59695001  1383.62352147
0.46500002 13246.77276545  1018.54440621
0.46600002 13269.33590487  1022.46872661
0.46700002 13292.42837368  1119.75421927
0.46800002 13317.11769110  936.85927397
0.46900002 13341.38632401  1034.62455846
0.47000002 13366.52939720  1133.21441601
0.47100002 13392.29698019  1137.80960537
0.47200002 13418.70228381  1808.90824711
0.47300002 13445.61470475  1338.37655115
0.47400002 13472.28776902  959.90054904
0.47500002 13499.75285728  1060.27063966
0.47600002 13528.06564650  1161.51977146
0.47700002 13555.82251788  1166.34302472
