# SAXS profile: number of points = 501, q_min = 0, q_max = 0.5, delta_q = 0.001
#    q    intensity    error
0.00000000 1682732.95097188 328.13292544
0.00100000 1682646.00247826 504.79381273
0.00200000 1682385.13258402 832.78066700
0.00300000 1681950.54468841 1009.17036276
0.00400000 1681342.13273594 1387.10731221
0.00500000 1680560.53312723 1815.00544762
0.00600000 1679605.61236280 1939.94456126
0.00700000 1678478.08865290 2819.84330613
0.00800000 1677177.73083361 2490.60903544
0.00900000 1675706.02093383 3016.27096662
0.01000000 1674062.28269588 3314.64346286
0.01100000 1672248.11249313 3311.05140690
0.01200000 1670263.42978672 3257.01383088
0.01300000 1668109.52710009 3853.33317755
0.01400000 1665786.68196806 4122.82222064
0.01500000 1663296.25774001 5588.67567486
0.01600000 1660638.12717583 4234.62741360
0.01700000 1657814.38127231 6714.14854534
0.01800000 1654825.55320376 6602.75425439
0.01900000 1651672.54507565 5450.51964469
0.02000000 1648356.23061232 6230.78683357
0.02100000 1644879.28658100 7599.34264855
0.02200000 1641240.35913792 9625.87514367
0.02300000 1637442.59005149 6484.27295176
0.02400000 1633486.52157269 9800.91957633
0.02500000 1629374.56913355 6354.56110984
0.02600000 1625107.19190423 9872.52664237
0.02700000 1620686.18723157 8168.25875776
0.02800000 1616112.11118140 8436.10560724
0.02900000 1611388.36911488 7251.24799395
0.03000000 1606515.54599524 14940.59526450
0.03100000 1601495.18599523 7687.17724649
0.03200000 1596328.55195995 7901.82669615
0.03300000 1591019.84416165 8925.62173722
0.03400000 1585567.63040828 10821.49957684
0.03500000 1579975.72930047 10238.24319865
0.03600000 1574244.99939131 12231.88421055
0.03700000 1568378.50276567 12515.66103089
0.03800000 1562377.62794244 10053.90050110
0.03900000 1556244.93939427 10271.21707566
0.04000000 1549980.46201834 9532.38028313
0.04100000 1543588.47842678 12641.99022448
0.04200000 1537070.53538440 11896.92649581
0.04300000 1530428.20232234 11110.90926461
0.04400000 1523664.30520304 12341.68144532
0.04500000 1516781.57639953 12558.95203614
0.04600000 1509780.30616046 11708.34681856
0.04700000 1502664.56255588 15146.85949501
0.04800000 1495435.97849205 10991.45495333
0.04900000 1488097.26232136 12276.80298561
0.05000000 1480650.10085077 13592.36855875
0.05100000 1473098.61788007 14937.22068114
0.05200000 1465441.73988406 11650.26237500
0.05300000 1457685.26334793 17710.87677532
0.05400000 1449829.70275374 14353.31472661
0.05500000 1441879.17128271 15745.32128492
0.05600000 1433833.93712483 15937.06495483
0.05700000 1425699.65357787 16124.66383464
0.05800000 1417475.21990388 15053.58753827
0.05900000 1409164.62395626 17755.47509113
0.06000000 1400771.77317839 15380.47478806
0.06100000 1392297.90579374 14243.20824187
0.06200000 1383745.94593057 20922.23968045
0.06300000 1375118.94156007 15841.37094744
0.06400000 1366416.67448065 18651.58847893
0.06500000 1357645.17984538 16128.82549103
0.06600000 1348806.04642185 14911.05154086
0.06700000 1339900.22268332 16400.37949316
0.06800000 1330932.08935828 22040.23643146
0.06900000 1321905.20559912 19432.00743209
0.07000000 1312819.07398672 15379.67617196
0.07100000 1303678.07752796 23935.53062450
0.07200000 1294484.44253697 22679.36849570
0.07300000 1285241.39093309 18546.03414015
0.07400000 1275951.81908151 20096.24209233
0.07500000 1266616.22166003 15883.36816411
0.07600000 1257238.17341210 14521.10158367
0.07700000 1247821.37219012 18979.36396093
0.07800000 1238367.24243041 16142.11776208
0.07900000 1228877.38222721 16221.18220623
0.08000000 1219357.07819611 23704.30271213
0.08100000 1209807.17637149 28273.19503833
0.08200000 1200229.04988281 16437.13760946
0.08300000 1190626.09063033 16502.07839061
0.08400000 1181001.64219968 16563.54880932
0.08500000 1171357.27899861 16621.56056929
0.08600000 1161695.73376598 15160.13003744
0.08700000 1152019.00076636 18247.98182902
0.08800000 1142328.87795222 15250.09123686
0.08900000 1132628.97779450 19877.63949394
0.09000000 1122921.24271059 24524.60109285
0.09100000 1113207.81734177 21507.17604148
0.09200000 1103490.09568746 16933.05631395
0.09300000 1093772.92878678 24675.51843299
0.09400000 1084054.61709304 15447.77901958
0.09500000 1074339.69769839 18564.59084881
0.09600000 1064629.95097851 17039.40316640
0.09700000 1054929.75332365 18608.96172349
0.09800000 1045238.07235643 15521.78610429
0.09900000 1035558.95924260 21746.73916668
0.10000000 1025891.99215932 18650.71729455
0.10100000 1016240.93615687 15548.48705447
0.10200000 1006607.91651620 18662.51165003
0.10300000 996994.10292984 18663.73048480
0.10400000 987402.00821420 18661.89883320
0.10500000 977835.08014744 15547.57850585
0.10600001 968290.00567259 15541.05532231
0.10700001 958774.59033954 18638.57891329
0.10800001 949285.92461419 17072.90815767
0.10900001 939828.99471726 15507.17914269
0.11000001 930404.35028365 20138.60310980
0.11100001 921012.58515549 15473.01215898
0.11200001 911657.29894970 15452.59194466
0.11300001 902337.86702313 24687.96520408
0.11400001 893057.77696612 26188.92054262
0.11500001 883817.88969165 15378.43200477
0.11600001 874619.60325619 15349.57475998
0.11700001 865464.52690394 18382.46741716
0.11800001 856352.77623444 18343.07733087
0.11900001 847286.43850758 18301.38793379
0.12000001 838266.67828876 16735.99502038
0.12100001 829296.45961848 15176.12592594
0.12200001 820375.31788889 22703.88799218
0.12300001 811505.30366166 16603.39929518
0.12400001 802686.25389966 21070.51515766
0.12500001 793919.67501006 18006.09907768
0.12600001 785208.76660382 17949.87325042
0.12700001 776551.91975021 17891.75707422
0.12800001 767950.82860256 14859.84923379
0.12900001 759407.15775456 19250.97235642
0.13000001 750921.35189481 19182.28683831
0.13100001 742493.41144237 17641.64428746
0.13200001 734124.95596185 16110.37291803
0.13300001 725818.02744543 16047.83734336
0.13400001 717571.09258012 17436.97837177
0.13500001 709387.14252976 18812.94790689
0.13600001 701264.39137928 17293.18070680
0.13700001 693205.98753517 17219.23754232
0.13800001 685209.91614859 15715.29016793
0.13900001 677279.34719749 18489.72705043
0.14000001 669413.44775620 15573.90459652
0.14100001 661612.66568271 16910.82053241
0.14200001 653877.36753579 16830.80423420
0.14300001 646209.64713897 18145.56774755
0.14400001 638605.88784636 15278.64658742
0.14500001 631071.13461906 13820.45850010
0.14600001 623603.24052147 15125.49731238
0.14700001 616204.71552700 16415.69439607
0.14800001 608870.94286377 20412.39932254
0.14900001 601606.75139783 17596.99830863
0.15000001 594410.41144279 17502.41539075
0.15100001 587282.80767662 18746.06810557
0.15200001 580224.01867169 15979.37022824
0.15300001 573235.06357510 13241.73059345
0.15400001 566312.13492579 14483.43353422
0.15500001 559459.96679146 17018.77299296
0.15600001 552674.01066276 13015.47356537
0.15700001 545960.64130179 16821.04815241
0.15800001 539312.09050903 16721.37215546
0.15900001 532734.59294620 19178.44625130
0.16000001 526223.27783087 13979.12203543
0.16100001 519783.46058841 15156.88642623
0.16200001 513410.41679388 15063.46233982
0.16300001 507105.44304504 12474.79448782
0.16400001 500868.73609549 14875.80216432
0.16500001 494699.22476193 13549.81240593
0.16600001 488598.10815056 13463.32150573
0.16700001 482562.69806877 13376.63862204
0.16800001 476593.83578703 18122.48146148
0.16900001 470693.65835739 19204.30216777
0.17000001 464858.35250973 14308.34076588
0.17100001 459088.66469212 14213.38573004
0.17200001 453385.31034814 20001.09391052
0.17300001 447747.21957554 15192.06387764
0.17400001 442173.81962771 13928.47597606
0.17500001 436664.73965076 12680.74463834
0.17600001 431218.12736780 16028.37855127
0.17700001 425837.10708797 17054.77694438
0.17800001 420517.39508741 12419.98185053
0.17900001 415261.07721125 14575.66449858
0.18000001 410066.90394732 15586.64375527
0.18100001 404935.74641388 11054.74639929
0.18200001 399863.01875264 14269.11249823
0.18300001 394852.17844772 18526.46508794
0.18400001 389900.65272509 11901.71798668
0.18500001 385010.31439981 10741.78827922
0.18600001 380177.39481733 10663.97642843
0.18700001 375402.63821401 12703.62587734
0.18800001 370685.77880022 10508.94232549
0.18900001 366027.79952680 11474.97205733
0.19000001 361422.68737663 11390.23653085
0.19100001 356878.21450006 13361.52098221
0.19200001 352385.81998647 11221.72696771
0.19300001 347950.91606916 15188.05820409
0.19400001 343567.98005557 11054.30028065
0.19500001 339239.89500199 11968.38406124
0.19600001 334964.54000383 10888.02288735
0.19700001 330741.37077500 10805.32109385
0.19800001 326570.49278178 12672.56857129
0.19900001 322451.04122140 12575.59120196
0.20000001 318380.86958064 14398.77550729
0.20100001 314362.17867449 13335.24424963
0.20200001 310391.27328811 12286.83913383
0.20300001 306470.62512511 14067.00235811
0.20400001 302597.42242657 12096.33253324
0.20500001 298771.40636772 14771.25902901
0.20600001 294992.49885709 12823.32453145
0.20700001 291260.06549500 14539.70315679
0.20800001 287572.06395606 11720.00002054
0.20900001 283931.40850547 11626.99172792
0.21000001 280333.26320813 12421.56747995
0.21100001 276779.65518559 13202.39017647
0.21200001 273268.70245964 9604.02900197
0.21300001 269799.77128661 8660.57306773
0.21400001 266373.85345115 12026.78005190
0.21500001 262989.97890958 9372.96329147
0.21600001 259645.88076855 15212.65287346
0.21700001 256342.23053943 13411.82613593
0.21800001 253078.60209160 11639.08546050
0.21900001 249852.87435632 8245.14524360
0.22000001 246665.57890038 10630.05362533
0.22100001 243517.76759064 8109.14204420
0.22200001 240407.43958434 8845.79215777
0.22300001 237332.49383410 8771.80938689
0.22400001 234293.31494803 11070.35965477
0.22500001 231292.72045018 7840.82359403
0.22600001 228325.02404562 12439.14789823
0.22700001 225394.06142194 9250.17271819
0.22800001 222496.01907475 10699.83406330
0.22900001 219630.96493027 11365.90297265
0.23000001 216800.48304589 9765.77822064
0.23100001 214003.19538298 8192.04270668
0.23200001 211236.51971823 10335.80339863
0.23300001 208502.43710922 8782.12306639
0.23400001 205800.35613787 8705.35547635
0.23500001 203127.12235534 9347.91061291
0.23600001 200486.17625295 9978.19746405
0.23700001 197874.34386600 7770.52585115
0.23800001 195292.31296463 9801.72165130
0.23900001 192739.02676961 9020.18687947
0.24000001 190214.37141346 8251.49982221
0.24100001 187719.34443489 7495.63377784
0.24200001 185251.18411079 8778.12777431
0.24300001 182810.98347831 7359.97054298
0.24400001 180397.45155783 7955.52799003
0.24500001 178010.64054845 7225.45224166
0.24600001 175650.65666719 7158.64285111
0.24700001 173316.67834300 7736.85688723
0.24800001 171008.27736122 7025.87540776
0.24900001 168724.29945730 8225.30998766
0.25000001 166466.56823187 7520.95990852
0.25100001 164232.22189150 7449.57393743
0.25200001 162023.90603450 8608.33053487
0.25300001 159839.38227278 9134.82112906
0.25400001 157678.09345545 7237.42483202
0.25500001 155540.01224913 6570.01042824
0.25600001 153425.68504434 7688.92856978
0.25700001 151333.49076080 8199.24891735
0.25800001 149264.74704950 6958.72283669
0.25900001 147218.17311787 7463.96173023
0.26000001 145193.60371307 7389.62881062
0.26100001 143190.37229224 6190.12008709
0.26200001 141209.56937726 6684.86133063
0.26300001 139249.34792507 10477.12143363
0.26400001 137310.65043992 6549.71833591
0.26500001 135393.25231198 6482.62922745
0.26600001 133495.51293477 6950.44420984
0.26700001 131619.43250886 6878.43186840
0.26800001 129763.83229453 7330.35923320
0.26900001 127926.82314440 8289.65853204
0.27000001 126110.88548708 5639.04851141
0.27100001 124314.05554501 6593.61781814
0.27200001 122538.20890864 7025.11584918
0.27300001 120780.66507352 5460.49412639
0.27400001 119040.53493863 5892.50675832
0.27500001 117322.21803769 5828.56806795
0.27600001 115620.50780182 6725.64525713
0.27700001 113939.03042738 6651.76091116
0.27800001 112275.07866098 5638.45471721
0.27900001 110630.69660238 5575.78737265
0.28000001 109003.03269269 5513.37365454
0.28100001 107394.28424432 5451.33412625
0.28200001 105804.09692325 5838.79936506
0.28300001 104231.06108856 4440.24341253
0.28400001 102675.69223983 4389.38605101
0.28500001 101138.12268644 4772.70823547
0.28600001 99617.94306785  5146.26318247
0.28700001 98115.06142962  5086.28502526
0.28800001 96628.63887120  4188.85169334
0.28900001 95161.15862180  4553.46165558
0.29000001 93709.01358966  4499.43850048
0.29100001 92274.72987535  4849.96003182
0.29200001 90857.01513463  5191.11580544
0.29300001 89456.03036428  5128.51446355
0.29400001 88070.98535644  5066.28367245
0.29500001 86703.48020100  5774.45205473
0.29600001 85351.72817015  5323.38753797
0.29700001 84016.19317532  4131.07641399
0.29800001 82696.71073412  4079.84241720
0.29900001 81394.14765213  4029.01049951
0.30000001 80106.69082274  5063.54416661
0.30100001 78836.27534201  4285.54013047
0.30200001 77580.08217946  4936.42086277
0.30300001 76340.92672709  3829.26106591
0.30400001 75117.42948947  5154.93384276
0.30500001 73909.09650454  3731.67045918
0.30600001 72715.52085286  5022.82484071
0.30700001 71538.45566866  3635.58448920
0.30800001 70376.27975464  4892.91108159
0.30900001 69229.40786875  3541.08438014
0.31000001 68097.93243547  4447.47617793
0.31100001 66980.62174093  4075.10121965
0.31200001 65879.04354859  3711.62548926
0.31300001 64791.78979320  3967.20147687
0.31400001 63720.61799006  4817.27894813
0.31500001 62662.90531180  2970.22185241
0.31600002 61620.41625100  3223.05602461
0.31700002 60592.38565496  3468.30831911
0.31800002 59578.88280628  3421.01961272
0.31900002 58579.83154872  4217.74807121
0.32000002 57595.49277142  3605.19004073
0.32100002 56624.54448759  3008.46219108
0.32200002 55669.02710438  4045.74673638
0.32300002 54725.90652225  3191.61501950
0.32400002 53797.40761412  3671.67324352
0.32500002 52882.65081014  3361.75027119
0.32600002 51982.36553727  2549.73515034
0.32700002 51095.04607141  2765.26402433
0.32800002 50222.06758959  3965.53464465
0.32900002 49361.95908089  2687.75879923
0.33000002 48516.37503129  2890.60576125
0.33100002 47681.63397020  2612.00003258
0.33200002 46863.15553745  3277.14062192
0.33300002 46056.38783617  4153.36525175
0.33400002 45263.27597024  3411.71958782
0.33500002 44482.04026104  2466.08442886
0.33600002 43714.83970720  2209.78525185
0.33700002 42959.25817310  2831.44484028
0.33800002 42217.60860385  2576.11859900
0.33900002 41487.38742912  2327.44254500
0.34000002 40770.31912849  2293.94211440
0.34100002 40065.29270835  2260.88457460
0.34200002 39373.25107146  2228.32924992
0.34300002 38692.15293984  1996.51518625
0.34400002 38024.62189803  2558.10655934
0.34500002 37368.11253674  2715.16718551
0.34600002 36724.54932576  2484.96674782
0.34700002 36090.96890453  2449.13326585
0.34800002 35470.72386124  1856.89248208
0.34900002 34861.14981817  2379.27358778
0.35000002 34263.23902978  1984.35558239
0.35100002 33677.29493117  2667.24188488
0.35200002 33101.24836413  2629.06677584
0.35300002 32536.75480874  1727.70176217
0.35400002 31983.76322438  1873.44901960
0.35500002 31441.62555303  2182.67774927
0.35600002 30909.30455654  1820.71267114
0.35700002 30388.13997104  2121.39615186
0.35800002 29878.18269493  1608.94021433
0.35900002 29378.31577365  2379.64369038
0.36000002 28889.02431997  1720.77481513
0.36100002 28409.21806373  1696.88267532
0.36200002 27940.74956948  1673.51127473
0.36300002 27481.01250691  1650.50968934
0.36400002 27031.40419562  2515.94806468
0.36500002 26591.33676657  2189.79668645
0.36600002 26161.37083649  2016.25694587
0.36700002 25740.24408753  1562.94769503
0.36800002 25330.14458921  1682.42828331
0.36900002 24928.13845589  1521.86292482
0.37000002 24534.99766313  1774.98449002
0.37100002 24150.82586285  1886.66260578
0.37200002 23776.56073544  1596.35836340
0.37300002 23410.36692822  1707.31814095
0.37400002 23052.99061770  1815.42309714
0.37500002 22704.52799174  1280.53543939
0.37600002 22364.62062347  1517.66322740
0.37700002 22032.56700286  1374.17126907
0.37800002 21708.67529733  1480.96589894
0.37900002 21393.57860498  1463.32084590
0.38000002 21086.27465236  1325.58871882
0.38100002 20785.90611847  1429.23897241
0.38200002 20494.41471156  1530.62543524
0.38300002 20209.68351962  1396.89339105
0.38400002 19933.52707570  1381.39349179
0.38500002 19663.34080714  1366.20898400
0.38600002 19401.89556235  1576.79212705
0.38700002 19146.72796335  1560.07546836
0.38800002 18898.85280186  1543.84735852
0.38900002 18657.41152477  1091.45862591
0.39000002 18424.01148937  1188.62515755
0.39100002 18196.10105259  1283.91695110
0.39200002 17975.46033129  1059.65343673
0.39300002 17760.93038292  1469.53944951
0.39400002 17554.08707447  1560.11956266
0.39500002 17352.26848885  1236.86975649
0.39600002 17156.78545149  1123.85528425
0.39700002 16967.28926312  1316.83138210
0.39800002 16783.93831582  1707.68188485
0.39900002 16606.22785092  1295.28583374
0.40000002 16434.05102807  1186.20985941
0.40100002 16267.89787592  1275.24057491
0.40200002 16107.48912638  1363.17686935
0.40300002 15951.74694968  1160.01109314
0.40400002 15801.79552962  1151.95094869
0.40500002 15657.15523017  1144.22495843
0.40600002 15517.39403068  1042.07064550
0.40700002 15382.70968367  1035.56406497
0.40800002 15253.08712584  1029.35463346
0.40900002 15127.94681715  1395.55316001
0.41000002 15007.97748230  1017.76604119
0.41100002 14892.28729462  1104.41207810
0.41200002 14780.84259858  1281.94253932
0.41300002 14674.53098400  1002.41725901
0.41400002 14571.95643476  1088.52519725
0.41500002 14474.00053891  993.49544407
0.41600002 14379.45879079  1349.15278497
0.41700002 14289.41534720  1075.13566167
0.41800002 14204.17663466  892.73254379
0.41900002 14120.89965965  978.57839278
0.42000002 14042.69780195  1064.15568986
0.42100002 13968.33370251  1414.71290443
0.42200002 13897.60061548  969.98308092
0.42300002 13829.73523644  1143.44256353
0.42400002 13765.29777059  965.29155190
0.42500002 13704.58563366  1050.86767619
0.42600002 13646.24471114  874.04201517
0.42700002 13592.39345767  1047.15804160
0.42800002 13540.65074168  1219.87728312
0.42900002 13493.11201294  870.30576608
0.43000002 13447.82081822  1304.10248564
0.43100002 13404.57295103  955.47800523
0.43200002 13365.19788002  954.87660779
0.43300002 13328.28028170  1475.04084867
0.43400002 13294.05684850  1040.92470057
0.43500002 13262.19344665  1387.75598802
0.43600002 13233.14660436  954.17608112
0.43700002 13206.00943798  1127.92531955
0.43800002 13181.09844858  1388.76059835
0.43900002 13159.29100814  1476.47252108
0.44000002 13139.11295470  1216.81330840
0.44100002 13121.43670847  1217.93181300
0.44200002 13105.71626379  870.87488700
0.44300002 13092.00956122  1046.31345372
0.44400002 13080.64702878  1047.75987666
0.44500002 13069.94436322  1224.13104707
0.44600002 13061.46512165  1050.92553349
0.44700002 13055.88527255  1403.76885103
0.44800002 13050.28942479  966.83073786
0.44900002 13048.16103253  1056.90109372
0.45000002 13046.88053198  970.88366080
0.45100002 13046.83076722  1149.94771832
0.45200002 13048.57794694  1595.97164433
0.45300002 13051.38994674  1066.55963699
0.45400002 13055.94974062  1158.38919564
0.45500002 13061.86193378  1072.11767834
0.45600002 13068.82926356  985.45511732
0.45700002 13077.15283162  1167.92057474
0.45800002 13086.20652027  1441.57657860
0.45900002 13096.51044677  1174.75704275
0.46000002 13108.69469806  1087.75953760
0.46100002 13120.63057540  1091.11169036
0.46200002 13134.59045893  1277.07629085
0.46300002 13149.35738010  1372.79297555
0.46400002 13164.25195525  1469.13058784
0.46500002 13180.58454546  1013.45519373
0.46600002 13197.49013279  1294.27791867
0.46700002 13214.82624603  1113.21701573
0.46800002 13233.89695068  1210.30610299
0.46900002 13252.60846504  1027.73983518
0.47000002 13272.22455970  1125.21925150
0.47100002 13292.55057018  1317.55767496
0.47200002 13313.59380022  1133.51942988
0.47300002 13335.16770741  1042.94351583
0.47400002 13356.58567988  1141.98812976
0.47500002 13378.82825123  1146.29805890
0.47600002 13402.05121006  1534.26689525
0.47700002 13424.69797038  1058.80597911
