# SAXS profile: number of points = 501, q_min = 0, q_max = 0.5, delta_q = 0.001
#    q    intensity    error
0.00000000 1682732.95097188 277.65093691
0.00100000 1682646.10053602 656.23199479
0.00200000 1682385.53322552 832.78086532
0.00300000 1681951.43602603 1311.92216684
0.00400000 1681343.73502013 1513.20941902
0.00500000 1680563.02897465 2268.76017892
0.00600000 1679609.21404681 2116.30769586
0.00700000 1678482.97559854 2417.01558531
0.00800000 1677184.12874903 2490.61853635
0.00900000 1675714.13398325 3016.28557011
0.01000000 1674072.25897340 3314.66321589
0.01100000 1672260.17967358 3311.07529992
0.01200000 1670277.80798213 4885.56280255
0.01300000 1668126.37714025 5254.59831974
0.01400000 1665806.18052779 4872.48329405
0.01500000 1663318.64724672 4790.35791738
0.01600000 1660663.57862351 4234.69231480
0.01700000 1657843.05239628 6266.64701917
0.01800000 1654857.62277851 5187.97888086
0.01900000 1651708.28064234 5946.15007862
0.02000000 1648395.78014593 6230.93633081
0.02100000 1644922.85426731 5428.24566519
0.02200000 1641288.10779824 7361.17749791
0.02300000 1637494.64924485 7073.97720673
0.02400000 1633543.16136562 8576.10198822
0.02500000 1629435.99288079 8261.24086120
0.02600000 1625173.40827229 6581.95260455
0.02700000 1620757.59354457 7487.90042513
0.02800000 1616188.64586332 7030.42093192
0.02900000 1611470.36349633 7976.77866555
0.03000000 1606603.15520355 8217.77551660
0.03100000 1601588.50109651 9225.15019079
0.03200000 1596427.82422744 8692.54990328
0.03300000 1591125.26477304 9737.68706932
0.03400000 1585679.18645028 9989.77933557
0.03500000 1580093.77030596 10239.00810440
0.03600000 1574369.62935117 13106.62777005
0.03700000 1568509.89463440 9834.55749418
0.03800000 1562515.80312482 10054.78965844
0.03900000 1556390.20886232 9338.34168563
0.04000000 1550132.82559800 14299.97597879
0.04100000 1543748.22319282 17506.10566270
0.04200000 1537237.59779899 10906.70126238
0.04300000 1530602.85604242 13132.57311443
0.04400000 1523846.88801218 10285.96697178
0.04500000 1516971.93857396 12560.52823502
0.04600000 1509978.53028713 17032.55861343
0.04700000 1502870.85901823 11902.73775700
0.04800000 1495650.56983987 13191.63863977
0.04900000 1488320.27072301 13394.88306001
0.05000000 1480881.57134217 15860.24236762
0.05100000 1473338.47444662 12641.24469963
0.05200000 1465690.52898294 13982.68829811
0.05300000 1457942.63689162 12990.26950028
0.05400000 1450096.06116191 13159.62236873
0.05500000 1442154.50494128 19382.55745059
0.05600000 1434118.65787108 15940.22962607
0.05700000 1425993.43097449 12406.14342858
0.05800000 1417778.26109948 22585.20875387
0.05900000 1409477.00324911 13953.82298389
0.06000000 1401093.68801286 15384.00941310
0.06100000 1392629.34911361 12951.45355200
0.06200000 1384087.05777566 15695.54796884
0.06300000 1375469.86442163 18486.31584216
0.06400000 1366777.34318653 17323.90363507
0.06500000 1358015.72742010 16133.22759643
0.06600000 1349186.42492688 14915.25662543
0.06700000 1340290.49640095 21873.54192492
0.06800000 1331332.71960931 22046.87086872
0.06900000 1322315.79412532 16661.17978604
0.07000000 1313239.67051735 18181.80408974
0.07100000 1304108.96542106 15492.81523485
0.07200000 1294925.51586482 17015.32207558
0.07300000 1285692.72340841 22833.90383763
0.07400000 1276413.51930761 18667.54859471
0.07500000 1267088.36308973 15889.28881792
0.07600000 1257720.68323411 20337.34440132
0.07700000 1248314.44085291 17526.33557136
0.07800000 1238870.55363911 16148.67842400
0.07900000 1229391.30993465 17703.23569341
0.08000000 1219881.54213909 23714.49829166
0.08100000 1210342.16381599 26796.97676415
0.08200000 1200774.34355734 14949.64127880
0.08300000 1191182.10576279 22513.34285551
0.08400000 1181568.02211551 21090.99018474
0.08500000 1171934.13518729 15117.95105363
0.08600000 1162283.10986483 22751.69294383
0.08700000 1152616.80213095 15214.54250257
0.08800000 1142937.32239807 22887.32095590
0.08900000 1133248.04778214 16828.73430001
0.09000000 1123550.62604921 16870.11344261
0.09100000 1113847.73279954 19982.42926522
0.09200000 1104140.47440958 16943.03637591
0.09300000 1094433.61790292 23147.27210639
0.09400000 1084725.79082594 17003.07757030
0.09500000 1075021.23773999 20124.39851639
0.09600000 1065321.62506014 24800.68859723
0.09700000 1055631.79559894 21724.90337477
0.09800000 1045950.25878204 20192.07069517
0.09900000 1036281.61414736 20207.49242608
0.10000000 1026624.58441105 18664.03582231
0.10100000 1016983.66458221 18671.82095990
0.10200000 1007360.62405796 23345.58356063
0.10300000 997756.66952304 24904.00764280
0.10400000 988174.69336875 21789.25301386
0.10500000 978617.79214651 17116.02598994
0.10600001 969082.46874708 18664.52922630
0.10700001 959576.56255730 15545.14104495
0.10800001 950097.83687025 18640.92043667
0.10900001 940650.41663182 23281.09890738
0.11000001 931235.33075307 18606.08278423
0.11100001 921853.04136311 18584.55818872
0.11200001 912506.95798876 18560.39239926
0.11300001 903197.06351034 16989.13756449
0.11400001 893925.91921907 15420.22283258
0.11500001 884695.36704929 21551.18015612
0.11600001 875505.99230335 21511.18324389
0.11700001 866359.74574662 23001.85233284
0.11800001 857256.96431806 16832.24128716
0.11900001 848199.31797039 21374.62381963
0.12000001 839188.26336277 15231.26769750
0.12100001 830226.75547689 19751.09544323
0.12200001 821313.85237638 16668.56541926
0.12300001 812452.30716583 15111.61362526
0.12400001 803641.64345785 15068.28152481
0.12500001 794883.10883695 25539.59549037
0.12600001 786180.05303735 16474.40378773
0.12700001 777531.22276564 17914.32021676
0.12800001 768937.93042163 25294.21441332
0.12900001 760401.82609102 23724.53809223
0.13000001 751923.71634982 17730.36206725
0.13100001 743503.17795391 17665.63634090
0.13200001 735142.15030113 16132.69524886
0.13300001 726842.44167158 17531.44051960
0.13400001 718602.82763463 18917.22032935
0.13500001 710425.71714698 15941.95384441
0.13600001 702309.90261827 15875.71609724
0.13700001 694257.92265500 18682.48157959
0.13800001 686268.52466684 20032.17917966
0.13900001 678344.59857525 18518.80841442
0.14000001 670485.05863102 14180.75965882
0.14100001 662690.50886968 15526.83935511
0.14200001 654961.29750356 15453.81254348
0.14300001 647299.35917051 15379.83349932
0.14400001 639701.71784346 16696.21562327
0.14500001 632172.77823630 19382.41829503
0.14600001 624710.34367980 17907.32284635
0.14700001 617317.12429149 19186.21712812
0.14800001 609988.81819049 19086.55102166
0.14900001 602729.93145868 17629.85132696
0.15000001 595538.40284365 13488.94546086
0.15100001 588415.79667946 14757.46887705
0.15200001 581361.63218383 16010.70010584
0.15300001 574377.23923891 17248.54930829
0.15400001 567458.86783526 15832.10315974
0.15500001 560611.05071340 22301.10864983
0.15600001 553829.61201952 14346.95677647
0.15700001 547120.06588809 16856.77002560
0.15800001 540475.46541107 14179.37450431
0.15900001 533901.94128233 12813.64719559
0.16000001 527394.23358319 20378.51414757
0.16100001 520957.84850092 21520.76973744
0.16200001 514588.31025918 12581.68477977
0.16300001 508286.67299541 16255.00856976
0.16400001 502053.11925779 12425.81528825
0.16500001 495886.57847051 18521.36458029
0.16600001 489788.27402729 17176.87558111
0.16700001 483755.77747275 18285.96925184
0.16800001 477789.51022993 20590.33991556
0.16900001 471891.81021915 13236.56590165
0.17000001 466058.85035042 16736.17410636
0.17100001 460291.34013567 17813.27570442
0.17200001 454590.14451425 12976.27628794
0.17300001 448953.84299563 14061.23502666
0.17400001 443382.33435540 13966.54419178
0.17500001 437874.91467463 12715.88812269
0.17600001 432429.83987182 11481.01279083
0.17700001 427050.13618671 13682.68700966
0.17800001 421731.98516243 14720.55563738
0.17900001 416476.90814507 11244.87705105
0.18000001 411283.62982200 12282.98618482
0.18100001 406153.40506549 16631.98272307
0.18200001 401081.51196366 13211.62562817
0.18300001 396071.22586809 10931.56635036
0.18400001 391120.31586603 14109.66606142
0.18500001 386230.58139211 15086.16722188
0.18600001 381397.88302103 11768.03223658
0.18700001 376623.29117951 12744.93277565
0.18800001 371906.33991741 13706.60880524
0.18900001 367248.60050263 13606.56129150
0.19000001 362643.13814753 13506.64431848
0.19100001 358098.44668437 13407.20647735
0.19200001 353605.79281254 11260.57700419
0.19300001 349170.22950621 13209.11040638
0.19400001 344786.78941437 12102.01688031
0.19500001 340457.92517906 13012.30251524
0.19600001 336181.83087203 10927.59092889
0.19700001 331957.65502446 13802.79994820
0.19800001 327785.66855065 13698.16373609
0.19900001 323665.19804308 9709.95640018
0.20000001 319593.68239253 11562.89997544
0.20100001 315573.66715356 10518.07082334
0.20200001 311601.41618272 10437.08992833
0.20300001 307679.14288466 12239.47688245
0.20400001 303804.40693845 12144.58174139
0.20500001 299976.62497249 16684.70066960
0.20600001 296195.65944722 14715.00105689
0.20700001 292461.48477599 10037.27863197
0.20800001 288771.32616095 12674.17410431
0.20900001 285128.80718468 9879.71363598
0.21000001 281528.33246764 10692.44657258
0.21100001 277972.30753378 9723.47177719
0.21200001 274459.08352934 11399.65857330
0.21300001 270987.57575633 9568.57175231
0.21400001 267559.05929396 8628.78007017
0.21500001 264172.62746539 13694.70965526
0.21600001 260825.68445554 11885.82700258
0.21700001 257519.31306868 9262.97012903
0.21800001 254252.70104650 10857.86211156
0.21900001 251024.10569892 11597.31423163
0.22000001 247833.85289477 10680.40039550
0.22100001 244682.94215177 8962.73659481
0.22200001 241569.22561039 12120.73646812
0.22300001 238491.14496113 11218.62398945
0.22400001 235448.77817251 9535.67596689
0.22500001 232444.66299923 8667.86189312
0.22600001 229473.35029521 11720.35192056
0.22700001 226538.97850420 11621.45014683
0.22800001 223637.35594744 7681.94354007
0.22900001 220768.60354418 8378.16890071
0.23000001 217934.51520319 10572.00383248
0.23100001 215133.47826296 10481.30355666
0.23200001 212362.95569377 7422.08565251
0.23300001 209624.85054533 10300.96564298
0.23400001 206918.77263862 9482.05320462
0.23500001 204241.51149707 9399.19480364
0.23600001 201596.57523060 9316.78616494
0.23700001 198980.59239236 9945.05047815
0.23800001 196394.30354342 7744.80972655
0.23900001 193836.82961031 9071.56405484
0.24000001 191307.87679800 10373.67011005
0.24100001 188808.41327314 7539.12029861
0.24200001 186336.09213163 8829.53614331
0.24300001 183891.23716504 9422.58743805
0.24400001 181473.18998357 8669.88206158
0.24500001 179081.97302811 7268.93762906
0.24600001 176717.15710875 7202.10807866
0.24700001 174378.52829928 7784.25787152
0.24800001 172065.63837916 8354.64746673
0.24900001 169777.04633328 6366.63953869
0.25000001 167514.51582260 6937.61400100
0.25100001 165275.32807709 8746.37077562
0.25200001 163062.23018961 7425.85431415
0.25300001 160872.87033243 7355.10797957
0.25400001 158706.61065727 7284.63377381
0.25500001 156563.52763996 7214.44769498
0.25600001 154444.26259225 5953.82660462
0.25700001 152347.17261365 6485.41944501
0.25800001 150273.26857455 8173.36346448
0.25900001 148221.60700285 6358.70724128
0.26000001 146192.14395059 6868.10724777
0.26100001 144183.52838418 6799.69552033
0.26200001 142197.66441596 6170.66793931
0.26300001 140232.15817707 6663.83247189
0.26400001 138288.21519163 7146.04385817
0.26500001 136365.63906169 8705.58280964
0.26600001 134462.62305824 5385.22830831
0.26700001 132581.11371302 6395.71322816
0.26800001 130720.26986935 6856.93208047
0.26900001 128877.82618484 6263.46264898
0.27000001 127056.55893914 6197.81923835
0.27100001 125254.35015689 5110.37772824
0.27200001 123473.05401287 6067.46616133
0.27300001 121710.05867048 7003.19710732
0.27400001 119964.45422555 4948.53397099
0.27500001 118240.74956024 5874.20071615
0.27600001 116533.33428834 5810.35232260
0.27700001 114846.50991587 4789.09969014
0.27800001 113176.95662312 4736.45585884
0.27900001 111526.88538500 7494.60705258
0.28000001 109893.63215733 6948.02522199
0.28100001 108279.37463819 5954.28309316
0.28200001 106683.47021895 8604.55569776
0.28300001 105104.78482980 5372.95685480
0.28400001 103543.66224816 6197.08847887
0.28500001 102000.53273704 4813.40536769
0.28600001 100474.56814319 4325.43036330
0.28700001 98965.93128567  5130.39412068
0.28800001 97473.68144836  4225.48429079
0.28900001 96000.62116310  5011.23266191
0.29000001 94542.62474071  4126.78576527
0.29100001 93102.53302714  6524.62582338
0.29200001 91678.99192515  4029.29188584
0.29300001 90272.29455586  5175.31089187
0.29400001 88881.37395272  5506.20137702
0.29500001 87508.00341652  4273.89108918
0.29600001 86150.34822648  4989.39765372
0.29700001 84808.95925285  4549.15278967
0.29800001 83483.65092277  4118.66611325
0.29900001 82175.15785603  4437.45873429
0.30000001 80881.64832611  4747.34857324
0.30100001 79605.40849407  5409.18776324
0.30200001 78343.19449598  4272.83803009
0.30300001 77098.16980194  3867.24438035
0.30400001 75868.70885065  3818.09295366
0.30500001 74654.33095003  5139.95092925
0.30600001 73454.72981351  3382.59046805
0.30700001 72271.72025483  3672.84899723
0.30800001 71103.47877243  3954.77567656
0.30900001 69950.61353888  4553.78515698
0.31000001 68813.21173827  4173.17742345
0.31100001 67689.87383959  3801.46349481
0.31200001 66582.21763236  5001.65642535
0.31300001 65489.02538352  3701.43988993
0.31400001 64411.61960332  3652.13900443
0.31500001 63347.82703449  3302.95585796
0.31600002 62299.23429168  3258.56160391
0.31700002 61265.16637536  3799.05314681
0.31800002 60245.56988810  3747.57585233
0.31900002 59240.56253247  3127.90184982
0.32000002 58249.96274505  3085.20942287
0.32100002 57272.84136573  3319.53404274
0.32200002 56311.30956675  3273.93969323
0.32300002 55361.95678862  3497.76859553
0.32400002 54427.34480410  4510.66641423
0.32500002 53506.59233473  2878.11973797
0.32600002 52600.03788792  3096.03837669
0.32700002 51706.50521119  4579.12831834
0.32800002 50827.42580746  3260.83365709
0.32900002 49961.14932638  2473.07700876
0.33000002 49109.30428145  2682.10478034
0.33100002 48268.49068217  2644.14804478
0.33200002 47443.75988782  2606.79751048
0.33300002 46630.90477853  3504.31266005
0.33400002 45831.48124875  3454.54806272
0.33500002 45044.14066071  2951.29223585
0.33600002 44270.68551457  2685.45991049
0.33700002 43508.95673187  3088.26589508
0.33800002 42761.18737477  2391.84712908
0.33900002 42024.74296212  2357.58819182
0.34000002 41301.53032365  4013.88941459
0.34100002 40590.19563270  2706.96027494
0.34200002 39891.97213285  2462.93047612
0.34300002 39204.72077267  2225.26005644
0.34400002 38531.10694097  2592.18034222
0.34500002 37868.35323328  2358.44115106
0.34600002 37218.42840417  2130.94121920
0.34700002 36578.83208329  2100.35663770
0.34800002 35952.30700158  2258.52403281
0.34900002 35336.52085437  2226.20091926
0.35000002 34732.60631917  2560.14053304
0.35100002 34140.35681685  1982.87201784
0.35200002 33558.23510085  2132.29035930
0.35300002 32987.64241741  2627.46584299
0.35400002 32428.35599595  2417.53405400
0.35500002 31880.10996365  2383.35713377
0.35600002 31341.68019674  2181.85117024
0.35700002 30814.40738325  1985.68050583
0.35800002 30298.15877341  2121.02270539
0.35900002 29792.28202328  2091.41829710
0.36000002 29297.00023077  2062.36242893
0.36100002 28811.08281307  1720.88605794
0.36200002 28336.48308194  1697.21373458
0.36300002 27870.78532345  1978.26843596
0.36400002 27415.06320608  1500.97478163
0.36500002 26969.02331202  2368.95911994
0.36600002 26532.97863078  1752.76865137
0.36700002 26105.93938001  2017.46709085
0.36800002 25689.77228766  2132.89344522
0.36900002 25281.88548883  1964.40259553
0.37000002 24882.74155332  2215.55941286
0.37100002 24492.73478406  1640.03359883
0.37200002 24112.40224074  1349.08896928
0.37300002 23740.35200535  1997.75071588
0.37400002 23377.13067077  1446.46002877
0.37500002 23022.77924669  1558.18177323
0.37600002 22677.09114899  1923.58434784
0.37700002 22339.24531027  1393.29879600
0.37800002 22009.58513879  1376.36947186
0.37900002 21688.75639989  1359.88509069
0.38000002 21375.71423819  1343.78433924
0.38100002 21069.64924717  1569.47824677
0.38200002 20772.35073512  1790.05740940
0.38300002 20482.09344512  1415.72236600
0.38400002 20200.23051551  1283.21970429
0.38500002 19924.62670883  1268.99953520
0.38600002 19657.54842144  1141.12073992
0.38700002 19396.79170344  1354.67199675
0.38800002 19143.53919801  1452.13323466
0.38900002 18896.56939615  1326.53923446
0.39000002 18657.75355890  1641.41594711
0.39100002 18424.57440522  1516.71103689
0.39200002 18198.49909427  1287.36188692
0.39300002 17978.65367001  1275.04617868
0.39400002 17766.53317217  1368.46728242
0.39500002 17559.54244609  1251.64424486
0.39600002 17358.90258927  1550.58404725
0.39700002 17164.20489279  1537.05462097
0.39800002 16975.85280341  1320.80628995
0.39900002 16793.03248664  1309.85659602
0.40000002 16615.84856173  1499.16500751
0.40100002 16444.79934304  1090.78359210
0.40200002 16279.37661595  1279.31487198
0.40300002 16118.77236355  1660.55600757
0.40400002 15963.96470258  969.81090163
0.40500002 15814.60624687  1155.73147928
0.40600002 15670.09271429  1243.65696719
0.40700002 15530.82617262  1330.68124952
0.40800002 15396.42836137  1133.48510967
0.40900002 15266.74671675  1314.46695459
0.41000002 15142.36160999  933.52663749
0.41100002 15022.11851441  1021.20366500
0.41200002 14906.29789496  1015.78971818
0.41300002 14795.77206963  1286.34448468
0.41400002 14688.79956559  1097.25337954
0.41500002 14586.56074709  1001.22157712
0.41600002 14487.89708086  906.21800535
0.41700002 14393.70430070  992.73383266
0.41800002 14304.42530972  1078.83980798
0.41900002 14217.19221453  1343.52472793
0.42000002 14134.98553763  1071.14925480
0.42100002 14056.80745802  978.77554968
0.42200002 13982.21852265  1153.32334949
0.42300002 13910.55695175  884.71146405
0.42400002 13842.51287476  1147.19830886
0.42500002 13778.14505578  880.42351078
0.42600002 13716.26957647  1054.23252960
0.42700002 13658.92734489  1139.97413022
0.42800002 13603.91054185  1225.57635879
0.42900002 13552.98859115  1311.25170833
0.43000002 13504.43189687  873.06156350
0.43100002 13458.00873451  1133.70270952
0.43200002 13415.48202641  1219.86983847
0.43300002 13375.52083021  957.82109204
0.43400002 13338.24152884  957.35233110
0.43500002 13303.49920710  957.05377831
0.43600002 13271.65809273  1043.94867505
0.43700002 13241.72606441  1043.97773239
0.43800002 13214.08887910  957.16257332
0.43900002 13189.66370659  957.56963048
0.44000002 13166.96880317  1306.49254141
0.44100002 13146.84444343  1045.96299349
0.44200002 13128.61009757  1046.87541879
0.44300002 13112.65089048  1135.29336790
0.44400002 13099.00677967  961.79461838
0.44500002 13086.07541976  963.00433578
0.44600002 13075.59046499  1227.40573512
0.44700002 13067.91709800  1141.61329178
0.44800002 13060.47894937  879.62329893
0.44900002 13056.52085810  969.44671966
0.45000002 13053.42697581  1412.90300282
0.45100002 13051.71319271  1238.86867497
0.45200002 13051.83174932  1507.68241598
0.45300002 13053.08550989  977.80668189
0.45400002 13056.25001066  980.19801600
0.45500002 13060.72823620  982.68923906
0.45600002 13066.48089186  895.70730759
0.45700002 13073.58724807  1257.41768111
0.45800002 13081.51892776  990.72888295
0.45900002 13090.68296427  1083.90860081
0.46000002 13101.83644604  905.99203318
0.46100002 13112.96572053  1090.47428100
0.46200002 13125.98570579  1549.71957580
0.46300002 13140.06897040  1006.00372805
0.46400002 13154.30035308  1284.51749036
0.46500002 13170.08645566  1012.64799557
0.46600002 13186.41406514  1016.07918395
0.46700002 13203.29960029  1204.93317863
0.46800002 13222.03667197  1209.22142115
0.46900002 13240.46252076  1213.48844754
0.47000002 13259.92609428  1217.85796985
0.47100002 13280.08556911  1128.27612343
0.47200002 13301.09688990  1321.19801670
0.47300002 13322.76713826  1041.97366727
0.47400002 13344.27700931  1045.85776018
0.47500002 13366.76066204  1622.45748606
0.47600002 13390.16764724  1149.67984868
0.47700002 13413.25562252  1154.07656846
