# SAXS profile: number of points = 501, q_min = 0, q_max = 0.5, delta_q = 0.001
#    q    intensity    error
0.00000000 1682732.95097188 277.65093691
0.00100000 1682646.12020169 656.23200246
0.00200000 1682385.60298473 1211.31767251
0.00300000 1681951.60266993 1311.92229682
0.00400000 1681344.02197742 1513.20967728
0.00500000 1680563.47327533 1663.75790440
0.00600000 1679609.85604855 2116.30850478
0.00700000 1678483.85065320 2618.43491584
0.00800000 1677185.25392189 2264.20018839
0.00900000 1675715.56382150 3519.00283445
0.01000000 1674074.04144414 4143.33343148
0.01100000 1672262.33090098 3913.09402468
0.01200000 1670280.33250889 3908.45614943
0.01300000 1668129.36037574 3853.37899242
0.01400000 1665809.63269442 4122.87902369
0.01500000 1663322.63022437 5588.76428642
0.01600000 1660668.08654189 5081.64457199
0.01700000 1657848.16271998 4923.80926415
0.01800000 1654863.35362467 6131.26900107
0.01900000 1651714.66069751 5946.17304682
0.02000000 1648402.82388802 5192.46913013
0.02100000 1644930.60813105 9770.88825530
0.02200000 1641296.60981616 6228.72091724
0.02300000 1637503.96707146 6484.51600477
0.02400000 1633553.25897810 8576.15500069
0.02500000 1629446.93117879 7625.81198619
0.02600000 1625185.26899133 7898.40076856
0.02700000 1620770.32339123 8168.68280403
0.02800000 1616202.36313190 7030.48060204
0.02900000 1611485.06814595 7976.85145357
0.03000000 1606618.83039919 11206.16685713
0.03100000 1601605.23130328 9994.01710319
0.03200000 1596445.63926148 10273.12816181
0.03300000 1591144.18406716 8114.83571284
0.03400000 1585699.28299401 10822.39810578
0.03500000 1580114.99178059 16211.98056431
0.03600000 1574392.03165637 10485.45141540
0.03700000 1568533.48034553 8940.64125145
0.03800000 1562540.69145882 9140.86346807
0.03900000 1556416.38339221 14941.59797251
0.04000000 1550160.31822313 13346.88095838
0.04100000 1543777.05936498 11670.95510994
0.04200000 1537267.82908854 9915.37795762
0.04300000 1530634.45729349 11112.40667577
0.04400000 1523879.81634878 12343.42708568
0.04500000 1517006.44347903 11514.07944101
0.04600000 1510014.54236538 15968.40452783
0.04700000 1502908.43320781 11903.03534459
0.04800000 1495689.67475154 16489.97943138
0.04900000 1488360.84382589 13395.24821795
0.05000000 1480923.77296562 11329.06739074
0.05100000 1473382.41284670 12641.62169112
0.05200000 1465735.95301358 15148.38178033
0.05300000 1457989.85724303 15352.63391248
0.05400000 1450144.97241570 11963.69658034
0.05500000 1442205.03732182 16960.33203009
0.05600000 1434170.91221479 12262.16187164
0.05700000 1426047.48703870 17369.25920290
0.05800000 1417834.14345390 15057.39930655
0.05900000 1409534.72913512 13954.39447019
0.06000000 1401153.21348876 19230.82875357
0.06100000 1392690.68345734 18132.83354599
0.06200000 1384150.27692901 22236.37523827
0.06300000 1375535.02048181 14525.65049544
0.06400000 1366844.35688239 14659.40641314
0.06500000 1358084.69766614 18823.05479015
0.06600000 1349257.38598460 17628.04857268
0.06700000 1340363.47690023 17773.22053547
0.06800000 1331407.51703850 16536.08213566
0.06900000 1322392.67619458 19439.17325018
0.07000000 1313318.62456086 25176.31921180
0.07100000 1304189.98240532 18310.82821061
0.07200000 1295008.61921453 15598.37954917
0.07300000 1285778.01530833 19980.99129411
0.07400000 1276500.82157517 17232.76189886
0.07500000 1267177.73310129 17334.99220136
0.07600000 1257812.14606988 15980.50406499
0.07700000 1248407.96805606 21909.56086669
0.07800000 1238966.28036365 17618.10133299
0.07900000 1229489.25676759 16229.25895055
0.08000000 1219981.59953965 19269.61026869
0.08100000 1210444.35791131 19355.00619110
0.08200000 1200878.97431902 19436.22711140
0.08300000 1191288.73403260 21014.33425458
0.08400000 1181676.99034310 18079.65880088
0.08500000 1172045.43917334 16631.32556263
0.08600000 1162396.65922218 19720.06024959
0.08700000 1152732.59830221 19780.89231573
0.08800000 1143055.32015794 16785.76816484
0.08900000 1133368.25478826 16830.51937413
0.09000000 1123673.18897395 16871.95372501
0.09100000 1113972.56452616 16910.10432396
0.09200000 1104267.65709472 20025.89490236
0.09300000 1094563.11653012 18520.00880198
0.09400000 1084857.53369572 17005.14263988
0.09500000 1075155.33626858 17030.46132697
0.09600000 1065458.16230546 15502.41699028
0.09700000 1055770.51255053 17071.80999054
0.09800000 1046091.48784234 20194.79712231
0.09900000 1036424.97671622 18655.65045813
0.10000000 1026770.41798113 20222.24433313
0.10100000 1017131.81502512 17118.32925198
0.10200000 1007511.11944543 20235.86178588
0.10300000 997909.51231600 20237.60586176
0.10400000 988329.95720478 18679.43706995
0.10500000 978775.21641751 18675.03200789
0.10600001 969242.24289087 24890.14196861
0.10700001 959738.86075379 21766.87838619
0.10800001 950262.35526691 17090.46926378
0.10900001 940817.34120025 20180.53291856
0.11000001 931404.59435573 24812.61956156
0.11100001 922024.63839235 18588.01758499
0.11200001 912680.95811724 17016.93726520
0.11300001 903373.24911559 24716.29325947
0.11400001 894104.56954909 20050.29591619
0.11500001 884876.37398923 20015.90452215
0.11600001 875689.25236255 16905.18181295
0.11700001 866545.43275621 18405.42585854
0.11800001 857444.86887360 22958.08744538
0.11900001 848389.57707141 16798.11441723
0.12000001 839380.77263079 18281.71408906
0.12100001 830421.54999274 15196.71508076
0.12200001 821511.07272427 16672.56800641
0.12300001 812651.73739224 16626.85533041
0.12400001 803843.24113540 16579.26762959
0.12500001 795087.05817185 15027.14610753
0.12600001 786386.26770018 19474.85683732
0.12700001 777739.81332229 17919.12614341
0.12800001 769148.76748445 16371.33228748
0.12900001 760614.85848632 17798.38852745
0.13000001 752138.93506736 16257.48384778
0.13100001 743720.56539080 16198.23467776
0.13200001 735361.70574961 20538.65340979
0.13300001 727064.24908442 21920.98814332
0.13400001 718826.69337430 21834.36184064
0.13500001 710651.81108252 15947.02739257
0.13600001 702538.10288669 30318.03325959
0.13700001 694488.35158245 18688.68242232
0.13800001 686501.07925675 15744.90299522
0.13900001 678579.15077519 14250.16283829
0.14000001 670721.74576262 15604.34215108
0.14100001 662929.25249758 15532.43311857
0.14200001 655202.14720221 15459.49539239
0.14300001 647542.24946731 16784.29589787
0.14400001 639946.60506154 13918.83931664
0.14500001 632419.59320273 20774.98461671
0.14600001 624959.22307885 16536.42182276
0.14700001 617568.02313634 13710.01076042
0.14800001 610241.63522717 15002.79130987
0.14900001 602984.53343063 13567.15264230
0.15000001 595795.09076774 20242.13916392
0.15100001 588674.34525652 18790.48598722
0.15200001 581622.14614374 21357.16621418
0.15300001 574639.64751197 14601.59413231
0.15400001 567723.10900906 14519.51919810
0.15500001 560877.09316480 17061.88197927
0.15600001 554097.27628093 13048.99147226
0.15700001 547389.68054677 15567.76324950
0.15800001 540746.81417003 12896.81212667
0.15900001 534174.98653557 15384.24033837
0.16000001 527669.04571785 15291.84966672
0.16100001 521234.45713696 13932.59769695
0.16200001 514866.52956110 13847.33596622
0.16300001 508566.54073117 18766.10623889
0.16400001 502334.54651289 14919.33673577
0.16500001 496169.66592442 12354.62526480
0.16600001 490072.97671211 13503.96151087
0.16700001 484041.90247744 13417.64217019
0.16800001 478077.27496171 15755.03734026
0.16900001 472181.19566492 14448.74526959
0.17000001 466349.59562682 13158.05446193
0.17100001 460583.57350369 14259.66810903
0.17200001 454883.79123371 17706.35240992
0.17300001 449248.96801240 14070.47834262
0.17400001 443678.87107446 15140.54219044
0.17500001 438172.80080951 12724.53873646
0.17600001 432729.13535363 13786.75090350
0.17700001 427350.80256494 12551.29366414
0.17800001 422033.72196283 12464.76656691
0.17900001 416779.90416101 11253.05794387
0.18000001 411587.93369603 12292.07422045
0.18100001 406458.99305915 14425.23034507
0.18200001 401388.22479049 15425.35020736
0.18300001 396379.21777108 13128.08031274
0.18400001 391429.35308782 13034.59807359
0.18500001 386540.68501768 14019.83130792
0.18600001 381709.09413866 12848.32871571
0.18700001 376935.67937469 11692.54532661
0.18800001 372219.80787593 14773.40487258
0.18900001 367562.92751147 11523.09832192
0.19000001 362958.48994783 15598.14184250
0.19100001 358414.76519875 12386.81487055
0.19200001 353922.88879984 11270.67492639
0.19300001 349488.32707854 14238.15511797
0.19400001 345105.74958711 13122.64674815
0.19500001 340777.82564248 11020.75540206
0.19600001 336502.44417183 14915.47154277
0.19700001 332279.11672757 9868.69023318
0.19800001 328107.88609286 10773.42294900
0.19900001 323988.04721092 12635.53443838
0.20000001 319917.39510237 9645.50991819
0.20100001 315897.94471668 14357.56226594
0.20200001 311926.35132682 17096.68412427
0.20300001 308004.64530582 14137.41388774
0.20400001 304130.53577673 9352.01441716
0.20500001 300303.35151412 12063.18620051
0.20600001 296523.04023900 11048.44900154
0.20700001 292789.25843560 12789.03541299
0.20800001 289099.67902992 12688.58551242
0.20900001 285457.53463461 9891.10404265
0.21000001 281857.50816756 12489.10677729
0.21100001 278301.91220717 10620.00147187
0.21200001 274789.09165764 12291.31665091
0.21300001 271317.85665183 8709.30361026
0.21400001 267889.68477609 11231.27556521
0.21500001 264503.49137206 9426.90487818
0.21600001 261156.93875000 10200.79050985
0.21700001 257850.84160414 10961.23979483
0.21800001 254584.39327613 9199.40748599
0.21900001 251355.97336579 11612.64651856
0.22000001 248165.84124113 11517.37723657
0.22100001 245015.00299116 8974.89998393
0.22200001 241901.54512033 10519.08918695
0.22300001 238823.41063226 14444.04055803
0.22400001 235781.14904132 11140.65981900
0.22500001 232777.02286100 7891.14144814
0.22600001 229805.78901520 10172.35373179
0.22700001 226871.35105678 10862.60080228
0.22800001 223969.63648352 7693.35737703
0.22900001 221100.84440203 9916.37334039
0.23000001 218266.56163199 9075.52406186
0.23100001 215465.36211890 8997.83394762
0.23200001 212694.63683476 9663.78128162
0.23300001 209956.42351511 7369.47081392
0.23400001 207250.15765481 10958.35260428
0.23500001 204572.59642300 7966.05728148
0.23600001 201927.41838749 8614.22407584
0.23700001 199311.16816353 9961.57265597
0.23800001 196724.56671863 8463.09126053
0.23900001 194166.74990586 7689.00365996
0.24000001 191637.45668062 7620.46382536
0.24100001 189137.59426224 9611.97299506
0.24200001 186664.73350808 7484.32284403
0.24300001 184219.55752628 6742.43612440
0.24400001 181801.09076790 8017.42848212
0.24500001 179409.29538497 9930.30496931
0.24600001 177044.14504348 7215.43447257
0.24700001 174704.97628712 8448.73305292
0.24800001 172391.50149350 9658.23432807
0.24900001 170102.24000977 7016.71773235
0.25000001 167839.10673990 6951.05693448
0.25100001 165599.26488209 11893.33976649
0.25200001 163385.54384974 8680.67435542
0.25300001 161195.47790969 7984.01239859
0.25400001 159028.58439614 7299.41236913
0.25500001 156884.84551764 6626.81618819
0.25600001 154764.78288038 7756.03746101
0.25700001 152666.87229060 7089.84988462
0.25800001 150592.22326358 7605.66059578
0.25900001 148539.79415013 7530.96791974
0.26000001 146509.38090409 6309.42678717
0.26100001 144500.04078372 5678.85187150
0.26200001 142513.28270663 8433.22390320
0.26300001 140546.88236546 7235.35384653
0.26400001 138602.12111141 7162.26494734
0.26500001 136678.56227243 5453.47489272
0.26600001 134774.57912052 5397.72214919
0.26700001 132892.17598950 8547.62516412
0.26800001 131030.26210761 7401.89985672
0.26900001 129186.88673844 5755.27607655
0.27000001 127364.55839263 6730.58040676
0.27100001 125561.28950340 5122.90085417
0.27200001 123779.01745196 6589.37630589
0.27300001 122014.90654067 6519.25676499
0.27400001 120268.23757563 5953.27804173
0.27500001 118543.32326719 6380.00196018
0.27600001 116834.76451181 6310.83010377
0.27700001 115146.81787027 5281.78478568
0.27800001 113476.14132629 5698.77208711
0.27900001 111824.85652502 6105.63745523
0.28000001 110190.40218221 6502.33594052
0.28100001 108574.88320998 8266.89199887
0.28200001 106977.72062112 4995.32490083
0.28300001 105397.80685398 4938.94146294
0.28400001 103835.48542963 5326.76065466
0.28500001 102290.95846730 4388.28232595
0.28600001 100763.79660975 4771.66981431
0.28700001 99253.83896388  5145.31925543
0.28800001 97760.27293339  5509.28044193
0.28900001 96285.78166885  5863.80438119
0.29000001 94826.47794726  4553.09355415
0.29100001 93385.06045409  6135.39876225
0.29200001 91960.07618911  5658.30375575
0.29300001 90551.96899331  5590.67883029
0.29400001 89159.64042889  4734.37713088
0.29500001 87784.81938001  5456.70463097
0.29600001 86425.72202899  4620.31931838
0.29700001 85082.92367563  4183.52755517
0.29800001 83756.15147466  4507.75628576
0.29900001 82446.17467240  5565.11705384
0.30000001 81151.25196077  4030.37711943
0.30100001 79873.43215867  5065.57330731
0.30200001 78609.79700147  5716.50470857
0.30300001 77363.13935537  4938.86305026
0.30400001 76132.12234064  4179.65371437
0.30500001 74916.31953679  5501.85476725
0.30600001 73715.12592140  4073.49805127
0.30700001 72530.52074338  4691.27430378
0.30800001 71360.77252153  3638.32915926
0.30900001 70206.22091421  4243.96625519
0.31000001 69067.19351016  4188.58014873
0.31100001 67942.19710279  4133.60346744
0.31200001 66832.99950317  4706.71421285
0.31300001 65738.17519835  3715.52183813
0.31400001 64659.20799065  3360.66249443
0.31500001 63593.75201465  3617.21278586
0.31600002 62543.48532937  3271.33715504
0.31700002 61507.65018079  4400.87257881
0.31800002 60486.40483720  3183.70206935
0.31900002 59479.67772754  2855.02466610
0.32000002 58487.51824071  4505.87861862
0.32100002 57508.64877614  3333.20144089
0.32200002 56545.42408386  3287.55111190
0.32300002 55594.31407108  2701.88379179
0.32400002 54658.05687352  3730.41255826
0.32500002 53735.52722825  2627.66740589
0.32600002 52827.27615539  3886.76702718
0.32700002 51932.05895422  3066.06890584
0.32800002 51051.16295046  3275.18751418
0.32900002 50183.14233800  3229.28536237
0.33000002 49329.57127768  2939.05599590
0.33100002 48486.99531491  3139.04822534
0.33200002 47660.45526350  4999.34369161
0.33300002 46845.78353990  3520.46079974
0.33400002 46044.67164816  3007.86831786
0.33500002 45255.45396371  2965.13748412
0.33600002 44480.28922403  2923.02234478
0.33700002 43716.72334559  2881.36937216
0.33800002 42967.13608417  2403.36687069
0.33900002 42228.87562670  2799.77458664
0.34000002 41503.80355663  3396.67144393
0.34100002 40790.70047439  2301.81933678
0.34200002 40090.73858839  2268.93545786
0.34300002 39401.61417354  2643.06040393
0.34400002 38726.15321172  2805.70993307
0.34500002 38061.50655017  1975.39228351
0.34600002 37409.85044963  3115.49249300
0.34700002 36768.29593844  1919.30513889
0.34800002 36140.06829790  2270.31919800
0.34900002 35522.41056797  2610.89730040
0.35000002 34916.62313057  2022.19632438
0.35100002 34322.53622626  2537.12199801
0.35200002 33738.54830839  2143.74746105
0.35300002 33166.07101384  1761.11845425
0.35400002 32605.03186178  2257.08343754
0.35500002 32054.88259721  2225.25005529
0.35600002 31514.62718093  1856.36920202
0.35700002 30985.45242456  2163.09453621
0.35800002 30467.39142232  1804.73601638
0.35900002 29959.57562134  1779.59887620
0.36000002 29462.48451606  1754.93297332
0.36100002 28974.63156203  1573.32256834
0.36200002 28498.25000011  1706.90276461
0.36300002 28030.60131678  2295.70635659
0.36400002 27573.01520335  1962.50945006
0.36500002 27125.06790199  1935.91618786
0.36600002 26687.22064165  1469.13156591
0.36700002 26258.25058437  1449.45550092
0.36800002 25840.20788798  2002.35780409
0.36900002 25430.43347219  1693.66694947
0.37000002 25029.38816275  1810.75117241
0.37100002 24637.54578314  1512.25263180
0.37200002 24255.41779771  1764.21789709
0.37300002 23881.42839344  1875.64747487
0.37400002 23516.31784995  1851.91011841
0.37500002 23160.13864574  1306.23188150
0.37600002 22812.47027242  1806.06335702
0.37700002 22472.77732940  1529.04784193
0.37800002 22141.29029722  1510.47889563
0.37900002 21818.58552624  1368.02537730
0.38000002 21503.60606374  1474.71737371
0.38100002 21195.64850463  1335.96178854
0.38200002 20896.52202035  1440.60629633
0.38300002 20604.39122506  1424.17558894
0.38400002 20320.69738418  1173.52032953
0.38500002 20043.12374853  1392.59630402
0.38600002 19774.22029644  1607.05095963
0.38700002 19511.60335415  1249.13290591
0.38800002 19256.45129896  1348.33678383
0.38900002 19007.67145917  1223.14371634
0.39000002 18766.96566234  1430.88736471
0.39100002 18531.82220829  1198.63831722
0.39200002 18303.94657688  1294.82124219
0.39300002 18082.17405176  1068.65653709
0.39400002 17868.24186389  1164.56271865
0.39500002 17659.40458577  1258.76241851
0.39600002 17456.87553903  1351.42408388
0.39700002 17260.35689944  1030.44335572
0.39800002 17070.04770060  1021.64240328
0.39900002 16885.37929192  1114.43508607
0.40000002 16706.39326052  1406.84544312
0.40100002 16533.47577287  1595.14981814
0.40200002 16366.22867088  989.33857003
0.40300002 16203.80802497  981.95081284
0.40400002 16047.16918337  1657.27147593
0.40500002 15895.87054620  1839.31126805
0.40600002 15749.57664178  961.51169954
0.40700002 15608.39680462  1241.80410861
0.40800002 15472.25511074  949.22289602
0.40900002 15340.70884984  943.45363897
0.41000002 15214.43140882  1031.76671488
0.41100002 15092.40262295  932.71052629
0.41200002 14974.70835565  1113.21987191
0.41300002 14862.32786168  1015.24566434
0.41400002 14753.60191936  1377.61764450
0.41500002 14649.53639674  914.13111447
0.41600002 14549.00985226  1274.05685313
0.41700002 14453.05074414  1359.30948690
0.41800002 14361.90660605  902.64587296
0.41900002 14272.86978962  1258.86717510
0.42000002 14188.93271508  1075.23737210
0.42100002 14108.84629169  1071.70801510
0.42200002 14032.51290371  979.39928452
0.42300002 13959.05063925  976.57522900
0.42400002 13889.20786157  973.98074745
0.42500002 13823.07443768  883.29449842
0.42600002 13759.38811556  881.28885056
0.42700002 13700.23547894  1143.42170726
0.42800002 13643.39344130  1316.92861433
0.42900002 13590.66613517  1490.21661234
0.43000002 13540.34803670  875.38354205
0.43100002 13492.15039093  1136.57880279
0.43200002 13447.84205886  1222.81233636
0.43300002 13406.08753752  1396.37814408
0.43400002 13367.10885880  872.20389437
0.43500002 13330.53052960  1046.18008554
0.43600002 13296.91993535  1045.93577168
0.43700002 13265.20427758  1045.82875481
0.43800002 13235.87383003  958.74056631
0.43900002 13209.68182773  959.02294614
0.44000002 13185.23555354  1308.30505980
0.44100002 13163.35770183  872.73065699
0.44200002 13143.39715669  1048.05453894
0.44300002 13125.66099562  1136.41978286
0.44400002 13110.36200673  1050.14004651
0.44500002 13095.73694344  963.71532734
0.44600002 13083.44927350  964.96984690
0.44700002 13074.10248700  1405.72756602
0.44800002 13064.90162186  1055.90539912
0.44900002 13059.14854058  1057.79108192
0.45000002 13054.40832182  1059.75691779
0.45100002 13050.98916187  1150.31423924
0.45200002 13049.42958791  1330.06317378
0.45300002 13048.97275541  1066.36210411
0.45400002 13050.35358023  1603.23601331
0.45500002 13053.19068382  1071.40594211
0.45600002 13057.19762669  1432.11350357
0.45700002 13062.66320636  1076.88600577
0.45800002 13068.83811403  989.76850147
0.45900002 13076.40277838  992.49901792
0.46000002 13085.89034034  1085.86723191
0.46100002 13095.28251895  1270.50437020
0.46200002 13106.69405883  1001.28594008
0.46300002 13119.09416818  1004.39789712
0.46400002 13131.65782342  915.93317659
0.46500002 13145.78457825  1010.77942413
0.46600002 13160.48243170  1014.08102184
0.46700002 13175.75934157  1017.43218458
0.46800002 13192.84328567  928.11656914
0.46900002 13209.61400501  1024.40561464
0.47000002 13227.45683584  1308.32781764
0.47100002 13245.99065297  1312.94265575
0.47200002 13265.39226206  941.17962560
0.47300002 13285.41453161  944.59301797
0.47400002 13305.31676521  1327.20541024
0.47500002 13326.15792746  951.48772112
0.47600002 13348.06036400  1241.56989361
0.47700002 13369.47200598  958.59118826
