# SAXS profile: number of points = 501, q_min = 0, q_max = 0.5, delta_q = 0.001
#    q    intensity    error
0.00000000 1682732.95097188 328.13292544
0.00100000 1682646.06592702 605.75259812
0.00200000 1682385.38874348 908.48813869
0.00300000 1681951.12032368 1110.08777896
0.00400000 1681343.16126352 1765.41038641
0.00500000 1680562.12826330 1966.25776789
0.00600000 1679607.91765020 1939.94722387
0.00700000 1678481.22249432 2014.17755070
0.00800000 1677181.82441435 3396.29333783
0.00900000 1675711.17810610 2513.56687461
0.01000000 1674068.64440807 3314.65605905
0.01100000 1672255.82908460 3010.06062341
0.01200000 1670272.59761003 3257.03170814
0.01300000 1668120.29282583 3853.35804638
0.01400000 1665799.12036744 5622.07228047
0.01500000 1663310.54142070 5588.72366803
0.01600000 1660654.35155608 5081.60254293
0.01700000 1657832.66423775 5371.37807308
0.01800000 1654846.02529391 6131.20479960
0.01900000 1651695.28871342 4955.08608973
0.02000000 1648381.41246085 5711.64185255
0.02100000 1644907.01407607 5971.01273181
0.02200000 1641270.70764970 6228.62261851
0.02300000 1637475.64912404 8842.36890776
0.02400000 1633522.52357132 7963.42266552
0.02500000 1629413.46100545 10167.54046103
0.02600000 1625149.20661892 7240.04004663
0.02700000 1620731.35344573 7487.77919587
0.02800000 1616160.55978722 9842.41826047
0.02900000 1611440.24132383 10152.07398646
0.03000000 1606570.88975165 7470.55498073
0.03100000 1601554.12300769 10762.44420183
0.03200000 1596391.17782325 8692.35036360
0.03300000 1591086.19416390 9737.44795718
0.03400000 1585637.78402254 9157.05862524
0.03500000 1580049.92000331 11945.17794683
0.03600000 1574323.23974681 13979.99101502
0.03700000 1568460.85579047 12516.31820806
0.03800000 1562464.18740522 9140.41591934
0.03900000 1556335.77982577 14007.02266710
0.04000000 1550075.64272117 10486.26220893
0.04100000 1543688.14551713 10697.75934445
0.04200000 1537174.67477760 11897.73253475
0.04300000 1530536.92820935 14142.16187310
0.04400000 1523777.70279351 13371.14996300
0.04500000 1516899.67497088 13606.59071672
0.04600000 1509903.09468314 17031.70769978
0.04700000 1502792.33757797 15148.14746729
0.04800000 1495568.57004400 12091.67245141
0.04900000 1488234.84453559 12277.93803893
0.05000000 1480792.62521730 16992.09616562
0.05100000 1473246.20200158 12640.45300202
0.05200000 1465594.44021548 13981.77161122
0.05300000 1457843.08746099 11808.52955892
0.05400000 1449992.66136291 20336.14802397
0.05500000 1442047.30002481 18169.79682792
0.05600000 1434007.48319258 14712.91746412
0.05700000 1425878.41704487 16126.68564955
0.05800000 1417659.24784298 15055.54191507
0.05900000 1409354.03246186 13952.60557304
0.06000000 1400966.58308104 16664.49828429
0.06100000 1392497.99355721 12950.23194526
0.06200000 1383951.42012814 18309.67814415
0.06300000 1375329.94390627 13203.16807882
0.06400000 1366632.95569550 15989.60632942
0.06500000 1357866.99551900 17475.74904981
0.06600000 1349033.24656900 14913.56323860
0.06700000 1340132.77059745 16403.22587977
0.06800000 1331170.21209747 16533.13480815
0.06900000 1322148.62289147 13882.56119033
0.07000000 1313067.89618555 16781.00849908
0.07100000 1303932.39617481 16898.96464594
0.07200000 1294744.16911969 24101.66383725
0.07300000 1285506.48426470 15696.03490832
0.07400000 1276222.38347417 17229.00298432
0.07500000 1266891.98225019 18775.34005699
0.07600000 1257519.35006353 17429.21900897
0.07700000 1248107.81852099 16063.14837754
0.07800000 1238658.88216404 22017.16266299
0.07900000 1229174.29782469 19175.11994545
0.08000000 1219659.18056845 20746.40363471
0.08100000 1210114.32708421 19349.72899793
0.08200000 1200541.25645409 17936.08721308
0.08300000 1190943.43218840 16506.47674481
0.08400000 1181323.89779256 16568.06844422
0.08500000 1171684.53820217 15114.73125237
0.08600000 1162027.82550871 19713.80298535
0.08700000 1152355.84781225 16732.20769594
0.08800000 1142670.54319896 19831.04820856
0.08900000 1132975.40846293 22942.75309899
0.09000000 1123272.32905927 22999.00201788
0.09100000 1113563.43918169 24587.48189228
0.09200000 1103850.28799082 16938.58346511
0.09300000 1094137.52125250 15427.33977462
0.09400000 1084423.51646681 23179.55375386
0.09500000 1074712.89135882 17023.45299927
0.09600000 1065007.24875618 15495.85619783
0.09700000 1055311.24274960 17064.38359751
0.09800000 1045623.50793461 23291.26473434
0.09900000 1035948.47047899 15539.22778788
0.10000000 1026285.37363166 15548.22414171
0.10100000 1016638.01693981 18665.47486889
0.10200000 1007008.47932883 24893.25077990
0.10300000 997398.25892310 23339.12035669
0.10400000 987809.65721615 17113.80311639
0.10500000 978246.26558300 18664.93962550
0.10600001 968704.26709839 17102.47464035
0.10700001 959192.03438187 18646.69402585
0.10800001 949706.50403399 15527.70207172
0.10900001 940252.37810841 17065.58146587
0.11000001 930830.53002770 17048.16195991
0.11100001 921441.45573666 15480.21718508
0.11200001 912088.78714218 20097.87737083
0.11300001 902771.91527573 16981.14052582
0.11400001 893494.06543152 16954.05068983
0.11500001 884256.37437168 21540.48629399
0.11600001 875060.31182551 16893.04011531
0.11700001 865907.13918144 18391.86850238
0.11800001 856797.32788390 25999.51613917
0.11900001 847732.72276599 16785.10870137
0.12000001 838714.57512564 16744.93728115
0.12100001 829745.84424595 18221.21959801
0.12200001 820826.12715325 18173.09131133
0.12300001 811957.35004813 27184.33336039
0.12400001 803139.47390925 21082.41218347
0.12500001 794373.79482268 18016.39851552
0.12600001 785663.62324958 16463.58200102
0.12700001 777007.58159378 19394.11015055
0.12800001 768407.06937143 16355.54524240
0.12900001 759863.90041866 17780.81610784
0.13000001 751378.39100435 25099.79633458
0.13100001 742950.57816739 23536.67542581
0.13200001 734582.14195403 27844.33740336
0.13300001 726275.18183518 16057.94502740
0.13400001 718028.00299309 23264.10839378
0.13500001 709843.59154715 18825.05293540
0.13600001 701720.53358398 15862.39340959
0.13700001 693661.41490273 18666.42955522
0.13800001 685664.45750669 15725.71507447
0.13900001 677733.07476755 15655.63476542
0.14000001 669866.09247688 14167.66852404
0.14100001 662064.10452958 19742.75252820
0.14200001 654327.50681012 14035.32568306
0.14300001 646658.19634251 13967.81769983
0.14400001 639052.96141223 18069.22333625
0.14500001 631516.53889417 17979.27671044
0.14600001 624046.67453972 17888.29876955
0.14700001 616646.26713656 13689.54777626
0.14800001 609310.30807520 19065.32043915
0.14900001 602043.92902873 14900.58794648
0.15000001 594845.14454009 18862.54042336
0.15100001 587715.00298066 18759.86378033
0.15200001 580653.54203979 15991.19930235
0.15300001 573661.84775687 14576.74823936
0.15400001 566736.09820153 15811.93788600
0.15500001 559880.83148123 15721.45448994
0.15600001 553091.73185645 15630.37307994
0.15700001 546375.02741452 16833.81538914
0.15800001 539723.15435174 15446.87740662
0.15900001 533142.08617383 12795.41067212
0.16000001 526627.14831615 17805.26472502
0.16100001 520183.58919376 12640.46181409
0.16200001 513806.67060605 16331.34579615
0.16300001 507497.74584402 18726.66770569
0.16400001 501256.83405510 18609.16084283
0.16500001 495083.08898438 13560.32644748
0.16600001 488977.60364582 19598.22327942
0.16700001 482937.80159606 12170.03317483
0.16800001 476964.45246383 14509.25932902
0.16900001 471059.50029689 13213.21960723
0.17000001 465219.42295604 16706.03026720
0.17100001 459444.95009443 14224.41632662
0.17200001 453736.68087851 12951.91416730
0.17300001 448093.36918953 15203.80873459
0.17400001 442514.88928841 13939.21967088
0.17500001 437000.55005720 17305.22259955
0.17600001 431548.58439655 14894.90009392
0.17700001 426162.17726842 13654.23680458
0.17800001 420836.96934744 15819.26242495
0.17900001 415575.02996283 11220.52633898
0.18000001 410375.08482700 14484.18930313
0.18100001 405238.20984408 14381.90474672
0.18200001 400159.69272297 15378.13771777
0.18300001 395142.85723487 13087.13204985
0.18400001 390185.35080530 11910.40839599
0.18500001 385288.97571118 12899.47551621
0.18600001 380449.85674953 19208.91417478
0.18700001 375668.94820271 12712.63780779
0.18800001 370945.80056798 10516.31394296
0.18900001 366281.56656201 15658.53771035
0.19000001 361669.97648590 12434.21437909
0.19100001 357119.05412252 10285.02924470
0.19200001 352620.19583382 12250.02618210
0.19300001 348178.77848671 13171.60381254
0.19400001 343789.22017983 12067.00219852
0.19500001 339454.48309661 12973.95095704
0.19600001 335172.51008978 14856.52221179
0.19700001 330942.56193253 11794.79346467
0.19800001 326764.87153740 12680.11143926
0.19900001 322638.70747720 10647.07784993
0.20000001 318561.71061968 13446.49044075
0.20100001 314536.15805426 12389.57985132
0.20200001 310558.33664560 10402.15197759
0.20300001 306630.81855900 10321.19384052
0.20400001 302750.71035139 10240.54326166
0.20500001 298917.69237659 12931.17998343
0.20600001 295131.87804980 10996.61429592
0.20700001 291392.51440892 10909.73625516
0.20800001 287697.47087599 10823.17936597
0.20900001 284049.82855948 9842.32702485
0.21000001 280444.67303196 10651.28918527
0.21100001 276884.05267176 10565.89594944
0.21200001 273366.15987294 12227.66890917
0.21300001 269890.16138714 9529.82204911
0.21400001 266457.20589108 9452.56982587
0.21500001 263066.42256291 9375.68774340
0.21600001 259715.31076520 12680.60064763
0.21700001 256404.75000820 8384.43572168
0.21800001 253134.11417760 8315.45604389
0.21900001 249901.52911776 9071.42593589
0.22000001 246707.33158766 9814.01811459
0.22100001 243552.62421905 11354.42387797
0.22200001 240435.37110371 11259.58896119
0.22300001 237353.63185493 11962.62361115
0.22400001 234307.64880123 9489.46022517
0.22500001 231300.30295251 10193.40483314
0.22600001 228325.92278408 11661.74705766
0.22700001 225388.29813847 8479.10817694
0.22800001 222483.53286568 8406.54068688
0.22900001 219611.88020283 10607.25431542
0.23000001 216774.89478516 12769.12578120
0.23100001 213971.08213537 11913.91041674
0.23200001 211197.90481940 9595.77725929
0.23300001 208457.44294991 10243.59923102
0.23400001 205749.08061948 10153.71760879
0.23500001 203069.45042798 8626.39066218
0.23600001 200422.33179112 9262.51850182
0.23700001 197804.36611385 7061.61620426
0.23800001 195216.21680523 8398.20204419
0.23900001 192656.91218939 6935.64916687
0.24000001 190126.32843057 7560.37380765
0.24100001 187625.28941031 8854.03782608
0.24200001 185151.35023884 7423.64373898
0.24300001 182705.35894159 8024.41974429
0.24400001 180286.12943069 7950.61868399
0.24500001 177893.70976850 6564.27820098
0.24600001 175528.28491721 8454.32024297
0.24700001 173188.81102569 8375.41129741
0.24800001 170875.03344534 7020.40108121
0.24900001 168585.85391328 7586.36378499
0.25000001 166322.85219851 6262.05568152
0.25100001 164083.37401836 7442.82219758
0.25200001 161870.04813844 7985.85920272
0.25300001 159680.60068423 9125.74676085
0.25400001 157514.45625706 7229.91388425
0.25500001 155371.61822339 8949.40563308
0.25600001 153252.66739324 6498.67966828
0.25700001 151155.88785445 6434.70645041
0.25800001 149082.65530645 6950.23371923
0.25900001 147031.73502672 6307.66173109
0.26000001 145002.96683899 7947.61298849
0.26100001 142995.46669717 5619.72210710
0.26200001 141010.60403040 6119.15545144
0.26300001 139046.37921680 7708.73162854
0.26400001 137103.92840400 8174.82211791
0.26500001 135182.70824059 7551.30643964
0.26600001 133281.27232067 7473.08129264
0.26700001 131401.62870727 9508.22230319
0.26800001 129542.63516443 8363.27292197
0.26900001 127702.30402342 6206.33226923
0.27000001 125883.05464337 5117.14641341
0.27100001 124083.09864030 6581.36786333
0.27200001 122304.22385919 5008.35820405
0.27300001 120543.73420622 5945.21725240
0.27400001 118800.77496789 6370.69185914
0.27500001 117079.82831365 5816.52614589
0.27600001 115375.46489292 6711.39111044
0.27700001 113691.58595369 5215.03329451
0.27800001 112025.20073823 6094.73133461
0.27900001 110378.56190961 4635.89981961
0.28000001 108748.73701738 5042.13543045
0.28100001 107137.96283076 6344.71045913
0.28200001 105545.75779855 5376.50115673
0.28300001 103970.98096474 5314.99679848
0.28400001 102413.86911664 4816.01242316
0.28500001 100874.70158400 5625.78237362
0.28600001 99353.01309801  4704.86215795
0.28700001 97848.74336629  4649.77250485
0.28800001 96360.99993318  5848.14936276
0.28900001 94892.35862068  5778.94491354
0.29000001 93439.16298989  5302.20555484
0.29100001 92003.90926013  5238.70284124
0.29200001 90585.29004338  5175.59079162
0.29300001 89183.61117437  3932.99743896
0.29400001 87797.94206629  3885.05912034
0.29500001 86429.89651206  6139.98013886
0.29600001 85077.67309482  4927.27367053
0.29700001 83741.82563325  4117.58576131
0.29800001 82422.11802614  5175.28503585
0.29900001 81119.40212592  4015.41059532
0.30000001 79831.95496443  5406.61940591
0.30100001 78561.62050869  4270.60989302
0.30200001 77305.65413076  4567.60479055
0.30300001 76066.73315461  3815.50751567
0.30400001 74843.62868394  3424.09617439
0.30500001 73635.79236809  3717.87133268
0.30600001 72442.77677189  3669.58903111
0.30700001 71266.36975806  4280.25837031
0.30800001 70104.93098554  4224.17281652
0.30900001 68958.93270659  4489.22673174
0.31000001 67828.39642122  3797.03381143
0.31100001 66712.13508187  4370.97929751
0.31200001 65611.72499027  4312.65888780
0.31300001 64525.67625061  3039.15949530
0.31400001 63455.74566098  2998.28412444
0.31500001 62399.52079915  3253.51116851
0.31600002 61358.42334797  4084.63043567
0.31700002 60331.96007913  3453.40155844
0.31800002 59320.11810545  3122.31456432
0.31900002 58322.77590894  2799.49337618
0.32000002 57340.27909857  3313.12148319
0.32100002 56371.20073158  2995.00203668
0.32200002 55417.64829511  4027.47778055
0.32300002 54476.59374716  3441.83135592
0.32400002 53550.10679817  3915.85174504
0.32500002 52637.55713657  2831.37433245
0.32600002 51739.54259212  3299.17208961
0.32700002 50854.51924863  3502.85945172
0.32800002 49983.90529030  2960.04701146
0.32900002 49126.25700496  3161.27478797
0.33000002 48283.21684307  2636.98801276
0.33100002 47451.05709825  3071.98158201
0.33200002 46635.15572356  3261.19659418
0.33300002 45831.17929261  3214.59906781
0.33400002 45040.78512676  2263.29955980
0.33500002 44262.34754336  2453.90466401
0.33600002 43498.05236439  2418.70931626
0.33700002 42745.34421284  2600.62686507
0.33800002 42006.71169166  2136.04139068
0.33900002 41279.45521048  2315.77754698
0.34000002 40565.46029612  2282.41573165
0.34100002 39863.53253656  2249.49924757
0.34200002 39174.71852496  3023.30904534
0.34300002 38496.78456001  3376.93810153
0.34400002 37832.51379188  2349.39921774
0.34500002 37179.28956620  2894.40782981
0.34600002 36539.00517024  2282.22637102
0.34700002 35908.81854916  1874.44041704
0.34800002 35291.93996037  2956.05303108
0.34900002 34685.82654392  1821.00597980
0.35000002 34091.36653344  1794.91053300
0.35100002 33508.89070286  2653.90426936
0.35200002 32936.37006316  2441.57322842
0.35300002 32375.43966524  1719.13592765
0.35400002 31826.00873156  2881.04957688
0.35500002 31287.50876964  1670.75304743
0.35600002 30758.77903928  1976.55923468
0.35700002 30241.23107452  3085.51295268
0.35800002 29734.95460066  1921.47285731
0.35900002 29238.73930403  1736.78119692
0.36000002 28753.17396147  1712.68288814
0.36100002 28277.05062442  2149.62149029
0.36200002 27812.27066938  1968.69167258
0.36300002 27356.25741601  1792.38207080
0.36400002 26910.34732350  1768.00990290
0.36500002 26474.05414210  1598.76820537
0.36600002 26047.87249884  1433.93544898
0.36700002 25630.45344326  1414.80109708
0.36800002 25224.11502334  1954.61676575
0.36900002 24825.90298663  1653.40521723
0.37000002 24436.52907103  1631.87148866
0.37100002 24056.09221459  1610.79601099
0.37200002 23685.59225334  1722.77163415
0.37300002 23323.12346596  2224.32639032
0.37400002 22969.49052094  1679.64407391
0.37500002 22624.76356513  1531.24407062
0.37600002 22288.62364640  1386.46389960
0.37700002 21960.26422171  1743.20585650
0.37800002 21640.08151887  1230.23869263
0.37900002 21328.72505430  1458.88486282
0.38000002 21025.06293586  1682.21536519
0.38100002 20728.38634376  1662.83123127
0.38200002 20440.48180739  1409.16688256
0.38300002 20159.45067449  1161.18441386
0.38400002 19886.91241492  1607.85694492
0.38500002 19620.32385079  1249.61848526
0.38600002 19362.49402310  1348.79139755
0.38700002 19110.87827481  1223.47848512
0.38800002 18866.55323353  1761.38149333
0.38900002 18628.65384129  1089.77630134
0.39000002 18398.70723983  1186.99265381
0.39100002 18174.27834028  1389.24190215
0.39200002 17957.04974404  1164.42494582
0.39300002 17745.95269853  1258.54302501
0.39400002 17542.49290008  1455.14985500
0.39500002 17344.08325034  1030.23859388
0.39600002 17151.89844092  1429.95384077
0.39700002 16965.71719881  1215.42403771
0.39800002 16785.65357283  1306.00783811
0.39900002 16611.16245416  1096.33677392
0.40000002 16442.17567498  1186.79629645
0.40100002 16279.21090739  981.63646422
0.40200002 16121.92435306  1072.02741065
0.40300002 15969.27897106  1258.05985695
0.40400002 15822.38679322  1249.57305620
0.40500002 15680.81491399  1050.45784086
0.40600002 15544.03415252  1423.44499496
0.40700002 15412.25625957  1037.55314055
0.40800002 15285.58927281  1125.32513558
0.40900002 15163.35705316  1119.05580355
0.41000002 15046.23403701  1020.36040957
0.41100002 14933.31440598  1199.74253622
0.41200002 14824.63119605  1102.06313533
0.41300002 14721.02040250  1188.42803341
0.41400002 14621.13493763  1001.18226229
0.41500002 14525.80913892  997.05158654
0.41600002 14433.88920182  1354.25971853
0.41700002 14346.37602651  1349.27672923
0.41800002 14263.67454976  896.47198793
0.41900002 14182.81356403  1072.22075625
0.42000002 14107.07216885  1069.03397961
0.42100002 14035.05032273  1154.94434578
0.42200002 13966.70516787  974.80623338
0.42300002 13901.12817474  884.11179381
0.42400002 13838.93777254  970.45555729
0.42500002 13780.40183947  968.62449120
0.42600002 13724.22018562  1054.84361345
0.42700002 13672.48313018  965.55080441
0.42800002 13622.81304576  1139.61647935
0.42900002 13577.30773675  1138.45730767
0.43000002 13533.98395442  962.46931453
0.43100002 13492.66497161  1049.18967791
0.43200002 13455.20030986  961.30683169
0.43300002 13420.13016166  1310.47577239
0.43400002 13387.72186619  1048.25867180
0.43500002 13357.58835640  1048.30358389
0.43600002 13330.24243153  1048.55691935
0.43700002 13304.78055092  1048.94894834
0.43800002 13281.50387366  874.58707153
0.43900002 13261.26775021  1312.86556949
0.44000002 13242.61505696  1576.79824956
0.44100002 13226.43683105  1403.06048553
0.44200002 13212.13072431  1316.91919235
0.44300002 13199.80923957  967.01807072
0.44400002 13189.83513271  1056.50584420
0.44500002 13180.40665328  969.94617158
0.44600002 13173.20289227  1236.56861410
0.44700002 13168.84080040  1061.93537247
0.44800002 13164.45121723  975.28841465
0.44900002 13163.43881967  1243.94502741
0.45000002 13163.26643888  1068.59402015
0.45100002 13164.22473592  1428.05516703
0.45200002 13167.01021080  984.16822485
0.45300002 13170.77615069  896.92989837
0.45400002 13176.22350807  1169.06048616
0.45500002 13183.06225360  991.89365097
0.45600002 13190.87312273  1085.08127450
0.45700002 13199.95869104  1088.20464606
0.45800002 13209.79810933  1091.39357152
0.45900002 13220.82099546  1733.24971465
0.46000002 13233.68261695  1281.15287487
0.46100002 13246.23736874  1009.76072248
0.46200002 13260.82272773  1105.15701851
0.46300002 13276.08526343  1108.81869375
0.46400002 13291.50929442  1483.33250756
0.46500002 13308.33145866  1116.30289566
0.46600002 13325.69226376  1026.81126605
0.46700002 13343.41372838  1124.04922575
0.46800002 13362.88906368  1128.09514822
0.46900002 13381.87967946  1226.44933075
0.47000002 13401.78564259  1041.51982058
0.47100002 13422.37804380  1330.42617476
0.47200002 13443.64120435  1144.59166639
0.47300002 13465.41312790  1531.82547003
0.47400002 13486.93347977  1057.03846158
0.47500002 13509.34280236  1446.85068271
0.47600002 13532.64601007  1258.73912829
0.47700002 13555.33225160  1263.49257906
