# SAXS profile: number of points = 501, q_min = 0, q_max = 0.5, delta_q = 0.001
#    q    intensity    error
0.00000000 1664650.74656090 274.66737318
0.00100000 1664564.35587557 699.11704607
0.00200000 1664305.15972869 973.61854927
0.00300000 1663873.36399821 1597.31848634
0.00400000 1663268.85643878 1372.19685870
0.00500000 1662492.26874501 1496.24310109
0.00600000 1661543.48407572 1919.08280224
0.00700000 1660423.19939765 2590.26029871
0.00800000 1659131.19296415 2463.80992557
0.00900000 1657668.93945735 2735.15386703
0.01000000 1656035.77411099 3552.19688885
0.01100000 1654233.29107608 4168.66807501
0.01200000 1652261.36926359 3866.29177359
0.01300000 1650121.35056028 4504.83148571
0.01400000 1647813.45710846 5932.12870857
0.01500000 1645339.13812547 3948.81410734
0.01600000 1642698.14724466 5445.54460155
0.01700000 1639892.64778284 5313.25241716
0.01800000 1636923.14821792 6531.32365528
0.01900000 1633790.52093930 5391.50896238
0.02000000 1630495.72982591 6676.88031567
0.02100000 1627041.32077148 9127.70222336
0.02200000 1623426.01521986 11761.72201463
0.02300000 1619652.92408292 6996.90095053
0.02400000 1615722.60290967 8482.54405206
0.02500000 1611637.43142923 8171.00215052
0.02600000 1607397.90654713 7811.95418312
0.02700000 1603005.77787279 9425.67440560
0.02800000 1598461.60501307 6953.30830068
0.02900000 1593768.81228807 7171.95998459
0.03000000 1588927.93331614 8127.36675249
0.03100000 1583940.55346546 10644.08100906
0.03200000 1578807.96092769 10941.13967316
0.03300000 1573534.23212556 8025.02495380
0.03400000 1568117.94499151 9055.88155017
0.03500000 1562563.10634414 11812.97762946
0.03600000 1556870.33112977 12960.94610563
0.03700000 1551042.78742835 8840.94429721
0.03800000 1545081.77648946 12654.22033508
0.03900000 1538989.97268376 10157.33429010
0.04000000 1532767.25569567 13197.12668308
0.04100000 1526418.13387675 11539.72162717
0.04200000 1519943.80975339 10784.00183050
0.04300000 1513346.07387201 10986.89300630
0.04400000 1506627.72533019 14237.63266559
0.04500000 1499791.48521257 12418.27407457
0.04600000 1492837.46673249 14734.30648160
0.04700000 1485770.09655000 10697.54519268
0.04800000 1478590.60219510 15214.69800450
0.04900000 1471301.84261001 11034.76433322
0.05000000 1463905.54403331 13438.65352001
0.05100000 1456405.80868331 11359.96583692
0.05200000 1448801.41870889 12669.76899704
0.05300000 1441098.34243466 14007.47654146
0.05400000 1433296.97513681 15372.11077520
0.05500000 1425401.39018694 14368.04668334
0.05600000 1417412.08144113 19390.19817894
0.05700000 1409334.32952859 14713.45108708
0.05800000 1401167.32400822 17360.46395506
0.05900000 1392914.90391497 20057.97555320
0.06000000 1384581.03877681 16469.59222569
0.06100000 1376166.71994164 20477.36174967
0.06200000 1367675.12259738 19386.79576902
0.06300000 1359109.35734788 13047.45044058
0.06400000 1350468.79232632 14483.77847506
0.06500000 1341760.00084571 13283.42462974
0.06600000 1332984.07549231 13396.49058550
0.06700000 1324142.12559399 20259.37546971
0.06800000 1315238.59913565 17696.53617973
0.06900000 1306276.83832333 15087.49818901
0.07000000 1297256.65590744 17960.51924210
0.07100000 1288182.29895872 18086.08032449
0.07200000 1279055.70896000 23809.62313770
0.07300000 1269880.52012028 16914.80932056
0.07400000 1260659.27107476 15600.65921066
0.07500000 1251392.66761204 15692.46478740
0.07600000 1242084.04584981 14346.07140212
0.07700000 1232737.35901754 17307.63333214
0.07800000 1223353.78054590 14496.74297931
0.07900000 1213935.09999347 17480.66625981
0.08000000 1204486.52804158 17561.41440267
0.08100000 1195008.65959013 14698.60720259
0.08200000 1185503.34984773 17711.42087784
0.08300000 1175973.48463836 19262.44658240
0.08400000 1166422.72238710 14871.89040850
0.08500000 1156852.51524725 20892.75740618
0.08600000 1147265.51151088 17966.17875380
0.08700000 1137663.66468331 19522.30940269
0.08800000 1128049.01932718 18071.34613832
0.08900000 1118424.99863683 19628.35964801
0.09000000 1108793.50056340 21189.04479113
0.09100000 1099156.58190267 16685.19769717
0.09200000 1089515.92669871 18238.49746990
0.09300000 1079876.06177887 25884.63041721
0.09400000 1070235.41641405 16775.94094072
0.09500000 1060598.57243498 19854.40620919
0.09600000 1050967.18979142 15291.57333029
0.09700000 1041345.54680573 21430.89236079
0.09800000 1031733.01593861 16853.35960776
0.09900000 1022133.08083443 16865.19662681
0.10000000 1012545.70926298 23010.10232510
0.10100000 1002974.44638869 16880.06072662
0.10200000 993421.24736087 16883.19489302
0.10300000 983887.71959976 24557.83863643
0.10400000 974376.33280073 19950.35635266
0.10500000 964890.14796723 15341.75407450
0.10600001 955425.77337293 19934.95969944
0.10700001 945991.48804291 16857.56911020
0.10800001 936584.15850067 18375.78205458
0.10900001 927208.62475791 18358.73163427
0.11000001 917865.52001247 21395.44627856
0.11100001 908555.44060131 19842.85175680
0.11200001 899282.01094504 27437.09544559
0.11300001 890044.65737909 19785.69366506
0.11400001 880846.49295578 19752.98353459
0.11500001 871688.85795973 21234.34157978
0.11600001 862572.82551939 22707.23070112
0.11700001 853499.91523858 16617.64413230
0.11800001 844470.66415514 15073.80206512
0.11900001 835486.65256610 16542.63649999
0.12000001 826549.29686931 22502.80566726
0.12100001 817661.71559404 17955.85212031
0.12200001 808823.07719560 19399.62242048
0.12300001 800035.45840961 22320.99034127
0.12400001 791299.00730423 20771.59992044
0.12500001 782614.85408382 19228.84787091
0.12600001 773986.25664918 23591.10221436
0.12700001 765411.96487042 19104.68354350
0.12800001 756893.25870010 19039.65081993
0.12900001 748431.71861936 16053.86112104
0.13000001 740028.15681761 26174.79714038
0.13100001 731682.30388725 15936.04132985
0.13200001 723396.00069123 14431.75089411
0.13300001 715171.00369775 14374.93785200
0.13400001 707005.98341954 17180.24620707
0.13500001 698903.56768899 17109.16014369
0.13600001 690862.58730977 22715.56294180
0.13700001 682885.56080342 16962.87813021
0.13800001 674970.86017602 18295.08602779
0.13900001 667121.30022270 18212.41235494
0.14000001 659336.41557255 18128.45560112
0.14100001 651616.48243680 13879.43173050
0.14200001 643961.73553400 15194.27786657
0.14300001 636374.34513153 19243.96110447
0.14400001 628850.95076783 15045.25970680
0.14500001 621396.20931416 17691.15091370
0.14600001 614008.05919139 20308.31751579
0.14700001 606689.17618359 17509.05045067
0.14800001 599434.64808914 16076.83802023
0.14900001 592249.52851654 21320.98403254
0.15000001 585132.07467426 17229.21475171
0.15100001 578083.05748741 18452.41206567
0.15200001 571102.57552653 15728.16567217
0.15300001 564191.63592183 14336.11014528
0.15400001 557346.58731753 16845.80139664
0.15500001 550571.87207635 16748.39713897
0.15600001 543863.14438729 12807.97765479
0.15700001 537226.58771196 12732.27072970
0.15800001 530654.63468426 13921.72499803
0.15900001 524153.47924362 13837.65250518
0.16000001 517718.15140279 16253.76213051
0.16100001 511354.11735785 13668.49620219
0.16200001 505056.27645471 18522.93981337
0.16300001 498826.43897565 13498.24407590
0.16400001 492664.20205639 15851.47144951
0.16500001 486569.11406949 15750.24296602
0.16600001 480541.84720657 12037.57384085
0.16700001 474580.05494745 14351.30153920
0.16800001 468684.43700248 20197.95676630
0.16900001 462857.18735188 11802.85883478
0.17000001 457094.21627252 14069.36064122
0.17100001 451396.74779208 15139.84763587
0.17200001 445765.18353779 12724.36776497
0.17300001 440198.40357161 16084.85042611
0.17400001 434695.92805227 13692.92238031
0.17500001 429257.43819672 15865.35566503
0.17600001 423881.10823526 15755.66153723
0.17700001 418569.83286666 13410.97807846
0.17800001 413319.43438853 11097.62733750
0.17900001 408132.14609536 15427.39585110
0.18000001 403006.47474096 13129.95156725
0.18100001 397943.58651818 17382.17668019
0.18200001 392938.51122627 16179.24396402
0.18300001 387994.90134893 11779.52576141
0.18400001 383110.37859458 15946.97026235
0.18500001 378286.51750951 15831.29150568
0.18600001 373519.48529607 13620.38867480
0.18700001 368810.44801112 13520.59166287
0.18800001 364158.73144283 15485.85078625
0.18900001 359565.53197502 13321.90358910
0.19000001 355024.70416197 14240.04155676
0.19100001 350544.07309397 11105.23676034
0.19200001 346115.07099856 12024.03813464
0.19300001 341743.18713874 12928.14538035
0.19400001 337422.76026207 11843.53944485
0.19500001 333156.82802455 10774.29232745
0.19600001 328943.16507821 11664.32518489
0.19700001 324781.13627051 11575.20024370
0.19800001 320670.96631422 11486.43455621
0.19900001 316611.79598278 10448.18976121
0.20000001 312601.55829166 12252.41865631
0.20100001 308642.20182941 10287.04507316
0.20200001 304730.30506898 11134.84587349
0.20300001 300868.13536510 11047.87845278
0.20400001 297053.03037312 14615.00978515
0.20500001 293284.61490865 9968.74453194
0.20600001 289562.76417596 9890.01667791
0.20700001 285887.03826621 10703.61121864
0.20800001 282255.37126072 14157.93009169
0.20900001 278670.51470156 11411.55811647
0.21000001 275127.68717642 8707.79171077
0.21100001 271628.90309165 9501.57947932
0.21200001 268172.50236923 9424.92304132
0.21300001 264757.39861787 12748.06934612
0.21400001 261385.02279908 10115.60086056
0.21500001 258054.21543244 9197.05267283
0.21600001 254762.79695333 9121.78237618
0.21700001 251511.48273036 12336.63881119
0.21800001 248299.45232710 12234.95609189
0.21900001 245125.02315233 8898.03876114
0.22000001 241988.71439113 8021.92626136
0.22100001 238891.26957729 8750.58761837
0.22200001 235830.84469146 10255.10476632
0.22300001 232805.38160906 10168.93954953
0.22400001 229815.59290263 10858.78727812
0.22500001 226863.43293441 9997.87196219
0.22600001 223943.90213085 7625.29022814
0.22700001 221060.77342384 12096.44609378
0.22800001 218210.16307312 12742.38307524
0.22900001 215392.02728566 8174.12782205
0.23000001 212608.03203480 10313.61612176
0.23100001 209856.79998454 9493.92208029
0.23200001 207135.74264264 11583.03127638
0.23300001 204446.83227306 8611.30098261
0.23400001 201789.62222175 7113.08451973
0.23500001 199160.76548178 8460.34971781
0.23600001 196563.81173168 6987.84383757
0.23700001 193995.63427902 9695.90225986
0.23800001 191456.66766515 8922.83841857
0.23900001 188946.18419414 9522.88813381
0.24000001 186463.90413055 8088.80454379
0.24100001 184010.72147903 7347.54845621
0.24200001 181584.21273994 7280.61935420
0.24300001 179185.14293894 7869.81185014
0.24400001 176812.29946393 7147.63754394
0.24500001 174465.85057688 6437.79019082
0.24600001 172145.84517311 8291.40502499
0.24700001 169851.45287438 6318.47434583
0.24800001 167582.24307836 7511.03649009
0.24900001 165337.12064371 6820.15654920
0.25000001 163117.74472067 6141.38337927
0.25100001 160921.37034231 6082.82808671
0.25200001 158750.87922650 8434.43461233
0.25300001 156603.62254765 8353.23762189
0.25400001 154479.26864792 7090.59876640
0.25500001 152377.83763249 7606.70201450
0.25600001 150299.66853080 6952.86299519
0.25700001 148243.29261939 5737.01569581
0.25800001 146210.04510467 6248.28657318
0.25900001 144198.65456348 8435.62169109
0.26000001 142208.91682127 7794.47109977
0.26100001 140240.05101188 6062.57769210
0.26200001 138293.38679506 6001.24180393
0.26300001 136366.98020241 5400.13267154
0.26400001 134461.75988888 8551.76833359
0.26500001 132577.42208178 6347.80726965
0.26600001 130712.38899522 6805.54085507
0.26700001 128868.74745790 5698.57628225
0.26800001 127045.28068297 6151.53278177
0.26900001 125240.08190956 7101.11298031
0.27000001 123455.58173189 5520.31659837
0.27100001 121689.95486880 5957.94047232
0.27200001 119944.97142469 5894.09617474
0.27300001 118217.82104935 5830.50321008
0.27400001 116507.99707454 5767.14612812
0.27500001 114819.62677263 5228.88605068
0.27600001 113147.42144168 5641.53070007
0.27700001 111495.36745580 6509.09986012
0.27800001 109860.46508972 5057.42674976
0.27900001 108244.74511663 5000.90746107
0.28000001 106645.57875784 5843.64476461
0.28100001 105065.00099020 5777.52467790
0.28200001 103502.64602725 5272.42503817
0.28300001 101957.18229651 4777.71378854
0.28400001 100429.15396390 4722.68118868
0.28500001 98918.59164008  5516.69011688
0.28600001 97425.21756491  5871.81814056
0.28700001 95948.80212197  4559.48729265
0.28800001 94488.62970281  4096.08229150
0.28900001 93047.10870582  6071.32413043
0.29000001 91620.73182191  6798.71672666
0.29100001 90211.85411986  4741.53527698
0.29200001 88819.34237757  5855.41542341
0.29300001 87443.38557942  5013.12953257
0.29400001 86082.98751642  4571.00685350
0.29500001 84739.92006348  4891.18841760
0.29600001 83412.33165443  4087.62150622
0.29700001 82100.85819993  4403.89024232
0.29800001 80805.16809144  4711.34554860
0.29900001 79526.00531326  3578.67040851
0.30000001 78261.88392357  4240.22907171
0.30100001 77014.45541315  3837.63049491
0.30200001 75781.06923483  5510.79961564
0.30300001 74564.48235266  3740.15461187
0.30400001 73363.39839447  4363.28832608
0.30500001 72177.28128738  3312.93736793
0.30600001 71005.55391240  3596.78650371
0.30700001 69850.21487317  3549.78808791
0.30800001 68709.50953497  3184.68591772
0.30900001 67583.90977738  3456.91714878
0.31000001 66473.49118022  4961.58161660
0.31100001 65377.11120341  3671.57873902
0.31200001 64296.23124421  3924.32065979
0.31300001 63229.42712806  4169.34862223
0.31400001 62178.54119623  3525.52345275
0.31500001 61140.91295061  2898.07941107
0.31600002 60118.30109685  3144.48788775
0.31700002 59109.93742453  3101.49856352
0.31800002 58115.96978735  5005.52871479
0.31900002 57136.21880865  3016.79249594
0.32000002 56171.02252812  3516.02532163
0.32100002 55218.98006737  2667.07686354
0.32200002 54282.26074572  3155.97078919
0.32300002 53357.74184926  3889.77956500
0.32400002 52447.69582915  3323.87288056
0.32500002 51551.22273373  3025.02589326
0.32600002 50668.90943146  2485.31012530
0.32700002 49799.55104445  3430.19323837
0.32800002 48944.30015278  3381.56185768
0.32900002 48101.70533025  2619.13797926
0.33000002 47273.52974228  2581.84394914
0.33100002 46455.95552638  3470.26004215
0.33200002 45654.57507995  3192.62458653
0.33300002 44864.76765903  3596.35994585
0.33400002 44088.33679932  2436.98293199
0.33500002 43323.66808218  3493.62075959
0.33600002 42572.89947326  2582.47220434
0.33700002 41833.65688577  2757.25645592
0.33800002 41108.09317996  2299.38130091
0.33900002 40393.83586403  3090.12858994
0.34000002 39692.58060186  2030.27559394
0.34100002 39003.17844443  2401.03577875
0.34200002 38326.73645129  2366.29282057
0.34300002 37661.06367752  2526.30427113
0.34400002 37008.75144452  1915.20297796
0.34500002 36367.32491138  2264.95710275
0.34600002 35738.70080899  2418.25930477
0.34700002 35119.92097117  2199.91195382
0.34800002 34514.39369068  1987.51145481
0.34900002 33919.40755641  2136.92277726
0.35000002 33335.87736677  2106.16083178
0.35100002 32764.16150970  1902.94259061
0.35200002 32202.26429377  2046.13197014
0.35300002 31651.83343877  1848.78367872
0.35400002 31112.76025402  1988.10547440
0.35500002 30584.32554389  1959.84367368
0.35600002 30065.64837703  2093.02021090
0.35700002 29557.99446615  1745.99081581
0.35800002 29061.41633463  2034.44454687
0.35900002 28574.74954523  1697.34020338
0.36000002 28098.62774537  1521.54076448
0.36100002 27631.82971552  1950.53095201
0.36200002 27176.21731587  2071.64314412
0.36300002 26729.24187647  2043.18334582
0.36400002 26292.24739909  1439.50061329
0.36500002 25864.74187518  1703.96927545
0.36600002 25447.21226321  1681.04292174
0.36700002 25038.39993772  2073.17961305
0.36800002 24640.46064790  1636.61947376
0.36900002 24250.48495374  1345.90197869
0.37000002 23869.31524433  1593.99294752
0.37100002 23497.07574572  1573.36426646
0.37200002 23134.47798723  1812.12374658
0.37300002 22779.90456253  1405.74797714
0.37400002 22434.01292054  1892.86992984
0.37500002 22096.97444767  1370.89635967
0.37600002 21768.35030798  1846.50040235
0.37700002 21447.47473855  1216.07187528
0.37800002 21134.71745149  1561.96136725
0.37900002 20830.56148537  1424.81047310
0.38000002 20534.10016646  1290.87626812
0.38100002 20244.45843138  1160.00752307
0.38200002 19963.59852238  1261.59966839
0.38300002 19689.48994714  1134.11467468
0.38400002 19423.77465753  1121.72303961
0.38500002 19163.97904911  1553.43221531
0.38600002 18912.76370581  1097.88598513
0.38700002 18667.76782674  1412.40338068
0.38800002 18429.95791585  1290.46571440
0.38900002 18198.47484209  1383.99407731
0.39000002 17974.91724745  1370.49763046
0.39100002 17756.74623338  1148.50640079
0.39200002 17545.73916994  1344.61778499
0.39300002 17340.82145314  1127.32685608
0.39400002 17143.45619439  1117.32481041
0.39500002 16951.01060029  1208.26809283
0.39600002 16764.84745397  1098.18138450
0.39700002 16584.55114872  1287.12707563
0.39800002 16410.25271914  1276.79977331
0.39900002 16241.57034017  1461.74139987
0.40000002 16078.33647971  1353.95677911
0.40100002 15921.08356553  1056.04552294
0.40200002 15769.29758613  1239.23030952
0.40300002 15622.22466493  1041.37754550
0.40400002 15480.86169299  1034.50863165
0.40500002 15344.69152146  1121.39010952
0.40600002 15213.39052546  1021.65528914
0.40700002 15086.92399565  1107.98375074
0.40800002 14965.51691211  1193.57485788
0.40900002 14848.48740224  1552.40943146
0.41000002 14736.55576263  1181.06131756
0.41100002 14628.81547446  1175.27909090
0.41200002 14525.25322404  1439.74316779
0.41300002 14426.70386222  1254.25769321
0.41400002 14331.83869397  981.37270107
0.41500002 14241.44577397  1066.39951008
0.41600002 14154.51446901  1239.51089078
0.41700002 14071.87139464  1146.99829173
0.41800002 13994.03708900  1231.33538181
0.41900002 13918.03275060  1402.93776774
0.42000002 13847.04997326  1049.32949670
0.42100002 13779.76128552  1395.61428913
0.42200002 13716.11535547  957.31631660
0.42300002 13655.23502947  868.47298903
0.42400002 13597.63479531  1300.27388892
0.42500002 13543.76942174  1038.53628847
0.42600002 13492.13467997  950.58839392
0.42700002 13444.97610646  1208.43450971
0.42800002 13399.76226457  948.50221684
0.42900002 13358.72969181  1120.12953774
0.43000002 13319.88288041  947.24351593
0.43100002 13282.97980455  1032.88455855
0.43200002 13249.89986350  1204.81345168
0.43300002 13219.15528534  1032.68045983
0.43400002 13191.03862563  860.71531111
0.43500002 13165.19738713  1205.40552989
0.43600002 13142.11814480  861.46588522
0.43700002 13120.85675513  1120.65242856
0.43800002 13101.83377539  1121.58253349
0.43900002 13085.77851803  950.02756543
0.44000002 13071.26904712  1037.59738613
0.44100002 13059.21315807  1298.73881012
0.44200002 13048.95874270  1040.52401945
0.44300002 13040.74238004  1129.06752877
0.44400002 13034.82171895  1218.10414736
0.44500002 13029.42517228  871.66858533
0.44600002 13026.23290987  873.40895800
0.44700002 13025.80934425  962.86787236
0.44800002 13025.40823436  964.98741477
0.44900002 13028.24413644  1319.10978133
0.45000002 13031.97345134  1322.41956865
0.45100002 13036.86213287  1149.06908285
0.45200002 13043.39234506  974.92840704
0.45300002 13051.02693654  977.65247415
0.45400002 13060.26987326  980.49980720
0.45500002 13070.84440800  983.45037987
0.45600002 13082.38373008  896.79744720
0.45700002 13095.19003108  899.63959777
0.45800002 13108.67164421  1353.79812822
0.45900002 13123.41898446  905.51595284
0.46000002 13139.86753777  908.62188330
0.46100002 13156.05638336  1094.05770069
0.46200002 13174.20781741  914.94877628
0.46300002 13193.07788304  1377.35739627
0.46400002 13212.01843282  1197.99982818
0.46500002 13232.34114550  1202.42289688
0.46600002 13253.18751377  1206.90157814
0.46700002 13274.44531432  1211.42593680
0.46800002 13297.29980884  1403.19762883
0.46900002 13319.70409297  1502.46269290
0.47000002 13343.02826481  1414.02748738
0.47100002 13367.00609705  1230.29929948
0.47200002 13391.57368253  1425.19829671
0.47300002 13416.67130371  1049.31791240
0.47400002 13441.49516708  1245.01854886
0.47500002 13467.15248903  1634.64304660
0.47600002 13493.66024703  1158.56572372
0.47700002 13519.54701330  1357.09219352
