# SAXS profile: number of points = 501, q_min = 0, q_max = 0.5, delta_q = 0.001
#    q    intensity    error
0.00000000 1664650.74656090 299.63713438
0.00100000 1664564.67667061 599.24329783
0.00200000 1664306.45144374 823.83171955
0.00300000 1663876.26438554 1197.99095303
0.00400000 1663274.01906765 1746.43778638
0.00500000 1662500.33138566 1945.12546471
0.00600000 1661555.09713880 1919.09621533
0.00700000 1660438.98554578 2789.53761165
0.00800000 1659151.82313454 3135.79707812
0.00900000 1657695.08114229 2486.54272801
0.01000000 1656067.98583005 3279.01475353
0.01100000 1654272.18849569 3275.45907583
0.01200000 1652307.65949423 3222.00007728
0.01300000 1650175.60792117 4851.51650126
0.01400000 1647876.32973418 4449.26628752
0.01500000 1645411.23617996 5528.58199975
0.01600000 1642780.08783430 6283.63411687
0.01700000 1639984.98108299 5313.55157707
0.01800000 1637026.50204535 5598.63088892
0.01900000 1633905.57725988 5391.88864825
0.02000000 1630622.94093330 6163.75499555
0.02100000 1627181.42268272 7517.57851363
0.02200000 1623579.54899240 7841.88957791
0.02300000 1619820.40919708 7580.75986011
0.02400000 1615904.62023629 6059.64260219
0.02500000 1611834.64136220 10057.84862145
0.02600000 1607610.63606352 7812.98804862
0.02700000 1603234.88181924 7406.94549325
0.02800000 1598707.36389003 11127.00376295
0.02900000 1594031.88747767 10759.71573450
0.03000000 1589208.83158307 9606.76782850
0.03100000 1584239.72367991 7604.35102356
0.03200000 1579125.97946022 10161.67614585
0.03300000 1573871.72825654 8829.42080256
0.03400000 1568475.26106781 9881.39460066
0.03500000 1562940.66232676 10127.85595956
0.03600000 1557268.75289370 9507.12617578
0.03700000 1551462.49393148 9727.67028683
0.03800000 1545523.13053010 10849.57287843
0.03900000 1539453.53034989 11084.06593182
0.04000000 1533253.41253453 13201.31249366
0.04100000 1526927.23204370 13467.49881107
0.04200000 1520476.30089518 11768.48711490
0.04300000 1513902.23979863 14987.63286970
0.04400000 1507208.43634084 12208.38890134
0.04500000 1500396.63238084 10352.73724447
0.04600000 1493467.55983333 14740.52550080
0.04700000 1486425.24533129 11772.48849054
0.04800000 1479271.64411227 14134.44121714
0.04900000 1472008.90721068 15456.09424515
0.05000000 1464638.96019189 12324.93742394
0.05100000 1457165.62259746 15912.24934002
0.05200000 1449588.34526691 17286.34182287
0.05300000 1441912.21452309 17519.23422316
0.05400000 1434138.46258666 14197.97144171
0.05500000 1426270.65734779 14376.80889673
0.05600000 1418309.65895251 16977.16740989
0.05700000 1410259.92168668 14723.11426966
0.05800000 1402121.32263727 12408.77428474
0.05900000 1393897.55151792 13799.58640455
0.06000000 1385592.44570893 12678.17147055
0.06100000 1377207.24103981 20492.84470433
0.06200000 1368745.03365197 14228.10528988
0.06300000 1360208.51524319 14363.80259255
0.06400000 1351597.74204343 17131.50218158
0.06500000 1342918.33558757 15953.87057307
0.06600000 1334172.12777708 17430.95966498
0.06700000 1325360.02172631 14870.54013969
0.06800000 1316486.75467166 16350.76625839
0.06900000 1307555.02801190 16475.19412430
0.07000000 1298564.83268649 15212.68772731
0.07100000 1289520.56229881 16712.18727015
0.07200000 1280424.12080241 21030.96716941
0.07300000 1271279.09093426 19755.67799878
0.07400000 1262088.20539619 21297.73946416
0.07500000 1252851.78592305 18567.26433767
0.07600000 1243573.44739154 15799.60138980
0.07700000 1234257.05635392 18773.05070738
0.07800000 1224903.40275727 20321.14840473
0.07900000 1215514.97012770 21879.27048852
0.08000000 1206096.44892322 14654.07254186
0.08100000 1196648.65588530 23550.04665275
0.08200000 1187172.93176131 22170.45554100
0.08300000 1177673.11672106 17806.41836051
0.08400000 1168151.65706521 17872.72119202
0.08500000 1158610.75798552 20924.51127152
0.08600000 1149053.24659741 17994.17468657
0.08700000 1139480.52806009 18049.37241203
0.08800000 1129895.06595673 16592.50982282
0.08900000 1120299.79979184 15124.04800756
0.09000000 1110696.78446838 16677.11300221
0.09100000 1101088.37827433 18234.02440088
0.09200000 1091475.81370994 21316.52364335
0.09300000 1081863.80924581 19830.56455536
0.09400000 1072251.13716623 22919.36913408
0.09500000 1062641.64662983 27543.67277527
0.09600000 1053037.08258302 19918.19735337
0.09700000 1043442.54351521 18406.32733294
0.09800000 1033856.49729290 16888.04667732
0.09900000 1024283.05151450 15364.24649518
0.10000000 1014721.36225407 16910.33229721
0.10100000 1005175.97787360 16917.11250325
0.10200000 995648.08093370 21535.86900356
0.10300000 986139.28791748 16922.15097669
0.10400000 976652.64454293 23073.41981282
0.10500000 967190.57879779 24605.32948228
0.10600001 957750.26610232 16909.08174367
0.10700001 948338.93411469 16899.40060117
0.10800001 938954.97490190 15351.91456213
0.10900001 929602.01047442 23007.65084211
0.11000001 920281.11029338 16854.94932838
0.11100001 910992.94188296 15304.68214408
0.11200001 901740.56745496 16812.95367170
0.11300001 892524.33239044 18314.60016292
0.11400001 883346.36682688 22856.58831783
0.11500001 874208.80271118 18253.48066013
0.11600001 865112.22230958 16700.99223816
0.11700001 856058.20710031 22728.34646890
0.11800001 847047.54601194 15119.79940843
0.11900001 838081.47882423 19611.10752820
0.12000001 829161.88242868 16554.21776247
0.12100001 820291.32292925 18013.59830011
0.12200001 811468.94773128 16468.76307007
0.12300001 802697.39084592 17916.20660779
0.12400001 793976.59803685 22330.59287195
0.12500001 785306.93416435 17810.76210610
0.12600001 776692.92674966 16275.60104700
0.12700001 768132.29302683 20647.39700960
0.12800001 759626.90171607 26457.80623371
0.12900001 751177.89456680 20507.15748822
0.13000001 742786.70665049 17514.91136838
0.13100001 734452.34113088 20359.01985582
0.13200001 726177.05573765 15935.95623939
0.13300001 717962.49961603 15874.15161487
0.13400001 709807.48647579 20123.04319030
0.13500001 701714.13402224 14314.96900898
0.13600001 693681.85004905 15680.67895971
0.13700001 685712.76598533 18452.53140276
0.13800001 677805.55709704 19785.14514465
0.13900001 669963.16417641 14069.22711118
0.14000001 662184.46659981 18206.76276780
0.14100001 654470.21265335 19516.30266177
0.14200001 646820.52299435 20811.45130892
0.14300001 639237.70811128 16569.04217577
0.14400001 631718.39004522 16487.85075791
0.14500001 624267.02444774 20507.17272048
0.14600001 616881.54347621 19043.13414546
0.14700001 609564.33957029 20298.49346530
0.14800001 602311.60893037 13461.66509470
0.14900001 595127.52116952 14729.40684389
0.15000001 588010.10439272 14650.27244219
0.15100001 580960.97727790 14570.50199764
0.15200001 573979.35597254 18441.95757762
0.15300001 567066.80305689 15719.09252251
0.15400001 560219.55869789 20840.16856703
0.15500001 553442.25279541 16835.71412456
0.15600001 546730.39283566 14163.05149483
0.15700001 540089.79695713 14080.14167121
0.15800001 533513.40399775 17814.01340028
0.15900001 527007.02976808 16442.62010487
0.16000001 520565.94582170 12571.66818501
0.16100001 514195.41439757 14993.93899161
0.16200001 507890.99779522 16143.31612698
0.16300001 501653.74126713 14808.81914130
0.16400001 495483.65553480 14715.86526411
0.16500001 489379.82229548 12185.55815045
0.16600001 483343.55509082 16950.85927734
0.16700001 477372.17297921 15638.71312518
0.16800001 471466.31983732 21513.00918994
0.16900001 465628.21288846 15435.57598609
0.17000001 459854.14388489 12974.78528238
0.17100001 454144.64690257 12888.62568771
0.17200001 448500.66908886 13966.31149496
0.17300001 442920.79682309 15028.30334591
0.17400001 437404.95811374 14926.44490055
0.17500001 431952.40868410 12543.89854060
0.17600001 426561.45810041 13590.24869693
0.17700001 421235.16239183 14621.07317718
0.17800001 415969.51115660 12285.66009229
0.17900001 410766.33279385 13308.82981114
0.18000001 405624.11938140 13215.23443367
0.18100001 400544.07330739 12028.33908960
0.18200001 395521.75032198 13028.48707104
0.18300001 390560.28035903 10779.46424712
0.18400001 385657.41673923 11772.19320209
0.18500001 380814.87483603 14874.62971380
0.18600001 376028.60003270 13711.88354799
0.18700001 371299.78057453 11517.71973757
0.18800001 366627.83448091 11433.28955847
0.18900001 362014.37459736 12380.89219620
0.19000001 357452.61448537 13313.32325555
0.19100001 352950.62857706 11181.47644165
0.19200001 348500.45669493 15133.63304706
0.19300001 344105.99757412 10013.48500257
0.19400001 339763.38791050 10931.88752259
0.19500001 335474.49567000 11835.54076653
0.19600001 331237.87246033 12724.50347188
0.19700001 327052.23769557 10684.79711045
0.19800001 322918.32264708 10603.02362520
0.19900001 318835.01129936 10521.55587013
0.20000001 314800.33438785 9491.23053036
0.20100001 310816.17002958 10359.50343670
0.20200001 306879.33914928 10278.92395062
0.20300001 302991.78279669 9271.54899180
0.20400001 299151.17080202 10118.78883065
0.20500001 295356.84554262 17340.40122143
0.20600001 291608.60024750 9959.89221224
0.20700001 287906.73782631 9880.95970926
0.20800001 284248.22725762 9802.30058034
0.20900001 280636.93156088 12376.08926687
0.21000001 277066.88751087 10523.00088511
0.21100001 273540.68002001 10438.31284302
0.21200001 270056.90092978 10353.98207113
0.21300001 266614.15749103 10269.97783207
0.21400001 263213.87034797 11035.24203605
0.21500001 259855.20901842 8419.30917024
0.21600001 256535.41185820 12525.34207616
0.21700001 253255.87136672 9109.61412376
0.21800001 250015.32437925 12319.50569126
0.21900001 246812.46128417 10588.25508972
0.22000001 243647.44523208 10499.98714874
0.22100001 240521.31542487 11213.10425530
0.22200001 237431.85241485 11118.93417434
0.22300001 234377.60892076 14175.15845781
0.22400001 231358.76866042 8589.19469267
0.22500001 228377.52214561 10064.59787688
0.22600001 225428.69136203 9978.60149501
0.22700001 222516.35932270 10654.08378819
0.22800001 219636.55124100 7544.51589191
0.22900001 216789.19572872 7479.22760634
0.23000001 213975.99098077 10379.97581337
0.23100001 211195.57772909 8819.52774307
0.23200001 208445.37553849 8742.19946353
0.23300001 205726.95560406 7221.01648322
0.23400001 203040.35312143 7157.17278603
0.23500001 200382.36815927 7802.88978517
0.23600001 197756.20796180 9842.32693577
0.23700001 195158.88072994 7663.88960875
0.23800001 192590.90787945 9666.13812367
0.23900001 190051.45847689 9578.59396030
0.24000001 187540.07511988 8813.44624714
0.24100001 185058.07199668 6717.60833123
0.24200001 182603.05105883 9983.82228890
0.24300001 180174.90554060 9232.16259661
0.24400001 177773.58413130 7186.49747845
0.24500001 175398.89543603 7766.66345730
0.24600001 173050.16273326 8976.11236559
0.24700001 170727.53806556 8891.49060307
0.24800001 168430.50857407 7549.05575141
0.24900001 166157.55874498 7477.09049725
0.25000001 163910.47884422 6788.35280248
0.25100001 161686.46444215 8556.44810308
0.25200001 159488.48107878 7263.10577194
0.25300001 157314.12018713 8391.13556777
0.25400001 155162.57022453 7715.45916944
0.25500001 153034.25186505 7639.47021454
0.25600001 150929.42807381 11054.82648230
0.25700001 148846.88327586 6336.41212085
0.25800001 146787.09577712 6843.21472891
0.25900001 144749.69812458 6209.76234336
0.26000001 142734.40817801 6146.85757903
0.26100001 140739.66375348 6637.28285667
0.26200001 138767.92239217 6021.83427714
0.26300001 136816.29565308 6501.51067707
0.26400001 134886.13323833 6970.24126491
0.26500001 132977.27644668 6897.53165567
0.26600001 131088.06166959 6825.10025379
0.26700001 129220.13923021 5714.11482715
0.26800001 127372.98774529 6167.40035847
0.26900001 125544.15054074 5084.53833751
0.27000001 123736.49392712 7544.83307424
0.27100001 121947.87966482 6965.66321609
0.27200001 120180.15331555 4921.37751117
0.27300001 118430.81482224 5354.25739150
0.27400001 116698.83563086 5776.59263710
0.27500001 114988.84193024 6188.69976557
0.27600001 113295.06664528 6119.63331446
0.27700001 111621.88093620 6516.48571746
0.27800001 109965.92912137 5982.69665699
0.27900001 108329.73086241 4549.84891156
0.28000001 106710.29749945 5847.19102822
0.28100001 105109.92595373 6224.61010958
0.28200001 103527.97080175 4834.23882539
0.28300001 101963.22551477 7384.17714127
0.28400001 100416.17333725 5151.34993602
0.28500001 98887.15300484  4666.48497117
0.28600001 97375.38742774  4611.21168990
0.28700001 95880.95311519  4556.26310769
0.28800001 94403.09180585  4910.84906819
0.28900001 92944.47258222  4851.70169844
0.29000001 91501.04189775  4393.42273468
0.29100001 90075.54133386  6707.02512520
0.29200001 88666.82443408  3896.90711834
0.29300001 87274.94440778  4233.70775363
0.29400001 85898.93104458  4561.23345438
0.29500001 84540.60679033  4128.96343109
0.29600001 83198.16459275  4077.12624887
0.29700001 81872.01025727  4757.58274126
0.29800001 80562.21604665  3974.53711681
0.29900001 79269.20454280  4280.53724795
0.30000001 77991.33684448  3873.43992775
0.30100001 76730.77250166  4171.08499065
0.30200001 75484.41400823  5489.22684654
0.30300001 74255.57920758  4063.26548660
0.30400001 73042.13029354  4678.34866678
0.30500001 71844.14165588  5605.99863881
0.30600001 70660.94037323  3579.33010406
0.30700001 69494.51641761  3531.71149155
0.30800001 68342.81097771  3801.22732654
0.30900001 67206.86370602  4062.65510337
0.31000001 66086.40361832  3699.51704971
0.31100001 64980.22905348  3649.28983642
0.31200001 63889.78488683  3899.51320519
0.31300001 62813.96757604  3254.39181420
0.31400001 61753.97338687  3209.66291875
0.31500001 60707.84069975  2877.55178541
0.31600002 59677.14800688  4256.47278312
0.31700002 58660.95381314  3357.75315525
0.31800002 57659.44955743  3586.70622955
0.31900002 56672.65548816  3808.40262913
0.32000002 55700.24913116  2950.16383492
0.32100002 54741.58656043  3172.82250728
0.32200002 53798.68714696  3649.16512197
0.32300002 52868.16122222  3083.27130848
0.32400002 51952.36288522  4052.28449693
0.32500002 51050.67949300  3744.56751812
0.32600002 50163.19920846  2952.60604522
0.32700002 49288.87118750  2667.51383498
0.32800002 48429.31253662  3106.98269291
0.32900002 47582.50682080  2826.40103900
0.33000002 46750.13964851  3249.60236085
0.33100002 45929.04117013  2973.44626616
0.33200002 45124.21614116  2930.14111388
0.33300002 44331.40741904  2665.20434024
0.33400002 43551.96624917  2845.03232996
0.33500002 42784.93229113  2371.99675855
0.33600002 42031.64304694  2549.63958797
0.33700002 41290.40930473  3140.13577633
0.33800002 40563.16166943  2062.63686857
0.33900002 39847.32995232  2641.87810095
0.34000002 39144.86311681  2002.25984325
0.34100002 38454.34585696  2761.79125024
0.34200002 37776.90389575  2526.70833673
0.34300002 37110.85326810  2489.39615512
0.34400002 36458.19657881  2075.38293854
0.34500002 35816.68379164  2788.32896524
0.34600002 35187.89671828  2564.14215530
0.34700002 34569.67144953  1984.99062864
0.34800002 33964.40900893  2667.05534374
0.34900002 33370.19400717  1927.12879519
0.35000002 32787.72623340  1898.90125474
0.35100002 32217.07545115  2211.38016370
0.35200002 31656.60257547  2514.32577864
0.35300002 31107.72609041  1651.82033364
0.35400002 30570.12821582  2116.21722597
0.35500002 30043.69072271  1764.76647664
0.35600002 29527.05274295  2529.87799884
0.35700002 29021.83164350  1714.31967638
0.35800002 28527.32943476  1843.43611539
0.35900002 28043.51795924  2422.96006644
0.36000002 27570.16503438  2090.09431026
0.36100002 27106.31620746  1619.06034376
0.36200002 26653.62866321  1741.54817935
0.36300002 26210.10300557  1574.17886108
0.36400002 25776.47559130  1552.38831602
0.36500002 25352.46594773  1948.59062504
0.36600002 24938.49637709  1922.01000682
0.36700002 24533.62831957  1489.68198213
0.36800002 24139.50437516  1736.95811959
0.36900002 23753.71516042  1845.66375539
0.37000002 23376.65028391  1431.00171492
0.37100002 23008.71937276  1925.82990273
0.37200002 22650.37908310  1647.47540065
0.37300002 22300.34800342  1751.46941516
0.37400002 21959.14617986  1852.80304669
0.37500002 21626.73226342  1219.74775744
0.37600002 21303.04329502  1566.09330202
0.37700002 20986.97112557  1189.96131919
0.37800002 20679.21832419  1293.17497916
0.37900002 20380.21115123  1394.00650878
0.38000002 20088.97652229  1951.74460648
0.38100002 19804.62342596  1134.80497607
0.38200002 19528.95408445  1682.90769795
0.38300002 19260.31996689  1442.21282744
0.38400002 18999.96860447  1206.97306278
0.38500002 18745.96808632  1519.54824506
0.38600002 18500.32007376  1073.94363116
0.38700002 18260.83355747  1275.33667607
0.38800002 18028.88721987  1157.18418103
0.38900002 17803.06138060  1562.21871016
0.39000002 17585.35665671  1340.79558181
0.39100002 17373.28393588  1021.54914383
0.39200002 17168.09205302  1214.47088937
0.39300002 16969.19128926  1604.60680433
0.39400002 16777.73107501  1391.71285861
0.39500002 16591.32738493  1182.62987203
0.39600002 16411.28518983  1759.12574284
0.39700002 16237.01315689  1454.02459709
0.39800002 16069.05357745  1154.07948261
0.39900002 15906.46182413  1336.14285653
0.40000002 15749.43087572  1136.79397447
0.40100002 15598.41398040  1034.64284834
0.40200002 15452.78149511  1214.35689133
0.40300002 15311.97841673  1113.48712322
0.40400002 15176.74793723  1106.38497704
0.40500002 15046.94288894  1007.99475189
0.40600002 14921.82649291  1093.17306067
0.40700002 14801.85179790  1087.04804754
0.40800002 14686.48383807  991.11740877
0.40900002 14575.83980521  1075.69702859
0.41000002 14470.35576041  1248.93646486
0.41100002 14368.77310460  1509.58337390
0.41200002 14271.55857747  1060.94771492
0.41300002 14179.42210526  1144.70480080
0.41400002 14090.75943340  964.86479792
0.41500002 14006.61392248  961.41402519
0.41600002 13925.93861803  1219.49450256
0.41700002 13849.55133773  1128.87698303
0.41800002 13777.98134298  952.54078528
0.41900002 13708.25136649  1036.34385241
0.42000002 13643.35120385  947.73543628
0.42100002 13582.42392752  1203.67446549
0.42200002 13524.80897561  1802.11325735
0.42300002 13470.06832302  1199.37494031
0.42400002 13418.71499373  940.98743352
0.42500002 13370.94076830  1367.04504893
0.42600002 13325.41037001  853.49257464
0.42700002 13284.31712005  852.85319952
0.42800002 13245.39111599  1022.80915044
0.42900002 13210.33113536  852.06639861
0.43000002 13177.49882171  937.11787311
0.43100002 13146.64739044  1022.28334952
0.43200002 13119.52091923  1022.53550890
0.43300002 13094.76443521  1022.96304615
0.43400002 13072.47785391  1108.87298651
0.43500002 13052.58187523  1280.45834264
0.43600002 13035.45922894  1025.36927154
0.43700002 13020.05432195  1026.50113139
0.43800002 13006.76276253  942.14490535
0.43900002 12996.48267725  1200.87505629
0.44000002 12987.77341910  1202.79775334
0.44100002 12981.42496782  1635.27018069
0.44200002 12976.82773387  1121.00331692
0.44300002 12974.40217451  1036.91427093
0.44400002 12973.95643567  1039.21395975
0.44500002 12974.09679725  1041.56054024
0.44600002 12976.59947592  957.08913970
0.44700002 12981.63176787  1046.83883537
0.44800002 12986.87222022  1399.46541677
0.44900002 12995.30157411  1491.21092630
0.45000002 13004.42540619  879.74942042
0.45100002 13014.76317745  970.64108378
0.45200002 13026.75503103  1327.75206946
0.45300002 13039.73157210  1154.40749079
0.45400002 13054.49063042  1069.16283330
0.45500002 13070.29673428  1251.61167459
0.45600002 13087.25523850  1345.69708368
0.45700002 13105.27454806  1170.43212536
0.45800002 13124.10441920  1445.75141134
0.45900002 13143.95095547  1179.01245658
0.46000002 13165.57156422  910.39931681
0.46100002 13187.03922206  1279.40660596
0.46200002 13210.21479009  1651.40902918
0.46300002 13234.28525380  1381.65944598
0.46400002 13258.29522549  1387.14920371
0.46500002 13283.77307522  1392.80367295
0.46600002 13309.53166755  1025.56601125
0.46700002 13335.76875190  1310.63941506
0.46800002 13363.62654665  1222.17052375
0.46900002 13391.03333287  1038.47468418
0.47000002 13419.30963276  1422.11140574
0.47100002 13448.11464500  1047.33921819
0.47200002 13477.68226034  956.24160169
0.47300002 13507.72093756  1056.43890460
0.47400002 13537.43685447  1157.45090592
0.47500002 13567.96607831  968.75282391
0.47600002 13599.14166622  1070.32049557
0.47700002 13629.98901292  977.27025855
