# SAXS profile: number of points = 501, q_min = 0, q_max = 0.5, delta_q = 0.001
#    q    intensity    error
0.00000000 1646666.22097351 345.79990640
0.00100000 1646580.51631029 642.16641661
0.00200000 1646323.39499484 814.93010633
0.00300000 1645895.04000277 1086.29076510
0.00400000 1645295.35467437 1233.97156289
0.00500000 1644524.97101382 1628.07978575
0.00600000 1643583.76213891 1898.33932256
0.00700000 1642472.40900619 2168.06366999
0.00800000 1641190.76737670 2658.72915540
0.00900000 1639740.23237502 2951.53254445
0.01000000 1638120.08998804 4865.21687734
0.01100000 1636331.96270766 3239.93742723
0.01200000 1634375.86861841 4780.54962531
0.01300000 1632252.95256673 4113.27762188
0.01400000 1629963.55812345 4400.90180203
0.01500000 1627509.01274750 5859.03270679
0.01600000 1624889.19618220 7043.89498034
0.01700000 1622106.14059478 5693.59280889
0.01800000 1619160.39153888 9229.21464706
0.01900000 1616052.93949258 6302.60674841
0.02000000 1612784.53422176 5588.29866387
0.02100000 1609357.87574534 7435.23372305
0.02200000 1605771.61273200 6093.90354718
0.02300000 1602028.78655281 9227.68623057
0.02400000 1598130.11621123 6592.28702996
0.02500000 1594077.82481561 6838.59418078
0.02600000 1589872.28719854 9014.57628073
0.02700000 1585515.71353389 7990.99956221
0.02800000 1581008.02916486 8252.86229071
0.02900000 1576353.08386261 9931.02488431
0.03000000 1571551.32984083 10961.57102949
0.03100000 1566604.19339736 9023.64056917
0.03200000 1561513.06959966 10821.28607073
0.03300000 1556282.06313432 9524.44666546
0.03400000 1550909.57335677 8956.50319939
0.03500000 1545399.75028353 8345.15903689
0.03600000 1539753.21860395 10254.75690981
0.03700000 1533973.04199581 10492.37609250
0.03800000 1528060.36152666 9833.06888149
0.03900000 1522018.12352919 11871.74191331
0.04000000 1515846.01705648 11186.94412427
0.04100000 1509548.66283009 13314.21982350
0.04200000 1503127.01065775 9695.16966853
0.04300000 1496583.07328048 11852.93849057
0.04400000 1489919.97186637 11062.65630488
0.04500000 1483139.44012755 13303.76139610
0.04600000 1476242.33050726 11448.25980528
0.04700000 1469232.68964902 11636.32344320
0.04800000 1462112.28149489 12895.83092280
0.04900000 1454883.50615010 12002.78948444
0.05000000 1447548.04380039 16610.61457610
0.05100000 1440109.84538946 13479.42878077
0.05200000 1432568.40980606 11388.91938870
0.05300000 1424928.61242602 15004.49898832
0.05400000 1417191.84522408 12861.01659517
0.05500000 1409361.68268431 16574.09416154
0.05600000 1401438.85603460 17973.45416736
0.05700000 1393427.87600975 15759.67001331
0.05800000 1385328.70743506 17164.22348656
0.05900000 1377144.86408781 16112.59566238
0.06000000 1368880.43529190 17535.35919532
0.06100000 1360536.35099296 16448.88525218
0.06200000 1352115.83924301 14055.24480592
0.06300000 1343621.59736507 20638.02870046
0.06400000 1335053.67939438 14318.45138113
0.06500000 1326417.79339363 14444.69044575
0.06600000 1317715.58998502 13243.04229897
0.06700000 1308947.95302032 16021.52369476
0.06800000 1300119.76530972 17493.11226108
0.06900000 1291233.53552635 17625.33858513
0.07000000 1282289.67127670 16387.66276633
0.07100000 1273292.13138641 17877.02236198
0.07200000 1264242.82571865 17996.49746718
0.07300000 1255145.46887014 19504.96150016
0.07400000 1246002.78599787 18222.79159921
0.07500000 1236815.10901060 15509.66219397
0.07600000 1227586.06876564 15596.48173484
0.07700000 1218319.49067128 15679.77258014
0.07800000 1209016.10274094 22922.94638297
0.07900000 1199678.26582846 20154.59581124
0.08000000 1190311.04295269 15908.50783535
0.08100000 1180914.91729482 15977.77958065
0.08200000 1171491.22421516 18960.58635365
0.08300000 1162044.08043626 21962.63415100
0.08400000 1152575.74225203 19103.94382454
0.08500000 1143088.34903429 23593.34463166
0.08600000 1133584.76328125 20710.59459754
0.08700000 1124066.44309927 20772.74884392
0.08800000 1114535.83093500 14879.05404176
0.08900000 1104995.93974575 14917.44588724
0.09000000 1095448.53863588 17943.44790576
0.09100000 1085896.12761153 14985.36726507
0.09200000 1076340.15198747 21020.92415602
0.09300000 1066785.01730664 24066.67112138
0.09400000 1057229.75401133 16572.07717297
0.09500000 1047677.89214861 24138.49976968
0.09600000 1038131.35683760 21146.73673284
0.09700000 1028595.38649925 19656.45876011
0.09800000 1019068.07892893 21186.42635707
0.09900000 1009553.86581882 21200.63217910
0.10000000 1000051.80304265 15150.78552859
0.10100000 990566.21623596 18186.79658545
0.10200000 981098.48799094 19705.36405817
0.10300000 971650.45894407 16673.52265982
0.10400000 962224.65259468 18186.04678960
0.10500000 952823.97295072 18179.88225925
0.10600001 943445.24229839 25741.90464736
0.10700001 934095.70196858 21185.29151758
0.10800001 924773.98830859 18144.06650451
0.10900001 915483.46170463 18126.57339489
0.11000001 906225.37120435 21124.11439708
0.11100001 897000.38938780 21097.45015153
0.11200001 887811.34561460 25582.28512822
0.11300001 878658.79592316 16527.57272945
0.11400001 869544.83025151 17999.57883371
0.11500001 860471.24859775 16469.42047367
0.11600001 851439.21902476 17931.31079707
0.11700001 842449.85849993 22367.04479655
0.11800001 833504.28464013 16365.85739971
0.11900001 824603.38377975 19295.72008931
0.12000001 815749.09260559 20728.18541951
0.12100001 806944.12767712 19197.20170178
0.12200001 798187.67001578 16199.21952614
0.12300001 789482.16114040 20558.11644468
0.12400001 780827.62910798 16104.57060916
0.12500001 772224.47404831 18973.55622141
0.12600001 763677.19756359 23276.88207863
0.12700001 755183.27649369 15949.47155119
0.12800001 746744.95270325 14449.51551580
0.12900001 738363.22935331 15837.89201610
0.13000001 730039.31171618 15779.80046652
0.13100001 721772.60940940 18578.42784194
0.13200001 713564.96929733 17082.74617026
0.13300001 705418.20837338 19850.46931944
0.13400001 697331.36670470 25417.72951472
0.13500001 689306.00738771 22498.94914192
0.13600001 681342.03847571 18202.05341612
0.13700001 673441.31934385 15334.25956452
0.13800001 665602.73987794 18041.16311514
0.13900001 657828.92873377 17958.73060133
0.14000001 650118.87000752 17875.01917385
0.14100001 642473.43147162 15053.15320933
0.14200001 634892.73550980 16342.13978280
0.14300001 627378.84689808 14906.52210540
0.14400001 619928.56650306 14831.79165320
0.14500001 612546.51777765 16097.72324656
0.14600001 605230.20778431 18683.45739568
0.14700001 597982.35152283 18585.29236212
0.14800001 590798.95708196 17165.66450787
0.14900001 583684.44594598 14446.19071875
0.15000001 576636.41095183 14366.89685674
0.15100001 569656.73376134 15585.80897113
0.15200001 562744.63697385 14206.48903077
0.15300001 555901.60797185 16693.72607516
0.15400001 549124.02624462 16597.27447649
0.15500001 542416.35691925 15231.05202109
0.15600001 535774.16706892 12617.48222995
0.15700001 529203.14243971 16304.74958810
0.15800001 522696.34282617 16206.20087424
0.15900001 516259.82451676 13629.26001055
0.16000001 509888.20238031 16007.94086934
0.16100001 503587.35321304 15908.32523894
0.16200001 497352.35823193 15808.34545265
0.16300001 491184.77457081 14499.77522983
0.16400001 485084.20296289 13206.41804913
0.16500001 479049.89322120 14314.01148523
0.16600001 473083.05639382 15405.95045883
0.16700001 467181.15986750 12950.26236297
0.16800001 461344.52498697 16373.11796487
0.16900001 455575.65924019 16264.05180283
0.17000001 449870.94410025 13847.02831326
0.17100001 444230.60680533 11461.15019679
0.17200001 438655.94117281 18212.99553757
0.17300001 433144.88789383 18088.13137265
0.17400001 427697.87835418 12349.77682071
0.17500001 422314.29824635 16723.64700037
0.17600001 416992.22449856 13285.37289998
0.17700001 411734.41362238 12092.64029923
0.17800001 406537.51679597 10915.53284154
0.17900001 401402.71506244 13005.44858232
0.18000001 396328.98341598 10760.33240801
0.18100001 391317.09688160 17092.73159919
0.18200001 386362.95548877 13787.36271790
0.18300001 381469.38315083 11581.41101956
0.18400001 376634.45839374 10451.60671417
0.18500001 371859.61161074 11412.37201948
0.18600001 367140.98389730 10298.30508485
0.18700001 362479.55736103 15332.88600077
0.18800001 357874.91478503 12174.90517620
0.18900001 353328.64479350 11076.85353763
0.19000001 348834.02419317 11992.91431841
0.19100001 344398.82792202 11902.42405538
0.19200001 340015.32398476 10827.78850392
0.19300001 335687.48569863 10745.35692496
0.19400001 331411.16816742 14540.66569045
0.19500001 327188.57621907 15390.95135265
0.19600001 323017.93827940 13363.25273812
0.19700001 318898.09762717 11365.52873654
0.19800001 314829.84200107 9397.67122785
0.19900001 310812.01113756 12121.66900723
0.20000001 306842.61228749 11101.56623723
0.20100001 302923.54403875 12850.01734545
0.20200001 299051.64893594 11837.96008263
0.20300001 295228.77130550 10840.80099472
0.20400001 291452.78918575 10754.60842928
0.20500001 287722.50737330 9779.68848787
0.20600001 284038.31646603 9701.32915746
0.20700001 280400.34140440 9623.34017189
0.20800001 276805.51605726 9545.63867246
0.20900001 273257.52180368 14632.94098430
0.21000001 269750.75983783 13660.17912394
0.21100001 266287.48812400 9314.73677492
0.21200001 262866.42649784 9238.44099601
0.21300001 259486.18954048 9995.40849364
0.21400001 256148.23472835 9086.85905658
0.21500001 252851.55157945 11469.34692189
0.21600001 249593.44706936 10561.54721207
0.21700001 246375.51214215 9667.77555355
0.21800001 243196.19856974 11184.59370104
0.21900001 240054.41226518 11882.69396896
0.22000001 236950.20244751 9425.87949904
0.22100001 233884.60579664 8567.19351542
0.22200001 230855.44007590 12355.38373708
0.22300001 227861.22620714 7656.13756258
0.22400001 224902.22442203 7590.45043317
0.22500001 221980.29587564 7525.13238603
0.22600001 219090.77314794 10444.05764984
0.22700001 216237.23501254 9613.90792329
0.22800001 213416.25384147 8797.01839936
0.22900001 210627.34930650 10899.96584208
0.23000001 207872.14819344 8643.32433064
0.23100001 205149.62748735 7853.12811161
0.23200001 202457.11086742 9198.63926730
0.23300001 199795.90453956 7714.12023911
0.23400001 197166.26910459 7645.12244611
0.23500001 194565.21766377 6887.60903106
0.23600001 191995.39258170 8873.06748783
0.23700001 189454.23357114 9468.92304175
0.23800001 186942.22045404 8712.44259635
0.23900001 184458.38505566 8632.65282893
0.24000001 182002.27316063 6579.38248596
0.24100001 179575.28360543 10429.73296514
0.24200001 177175.00378764 6458.02919354
0.24300001 174801.30133451 10236.36469036
0.24400001 172454.04562977 8872.76106736
0.24500001 170133.24511622 7533.50045011
0.24600001 167837.96947391 8705.75588844
0.24700001 165568.61748090 6775.06814782
0.24800001 163324.39600099 7930.21642298
0.24900001 161104.11148144 8457.96625290
0.25000001 158909.30150709 7179.52258174
0.25100001 156737.41199496 6517.14189907
0.25200001 154591.02517335 7626.74858775
0.25300001 152468.09405943 9294.45545359
0.25400001 150367.58695095 6901.87256758
0.25500001 148290.10366986 6263.77427537
0.25600001 146235.77427896 7328.60617473
0.25700001 144203.33678761 7254.87021704
0.25800001 142193.41174480 7181.47859996
0.25900001 140205.56347866 7108.42240470
0.26000001 138239.53303056 7576.90916391
0.26100001 136293.59195493 5891.97225900
0.26200001 134370.44698857 6891.18869988
0.26300001 132467.22882642 5770.27276071
0.26400001 130584.91124165 8824.27579470
0.26500001 128723.70219080 6163.29115254
0.26600001 126881.84929446 5081.61830470
0.26700001 125060.97617882 8043.92236846
0.26800001 123260.55785708 5470.92011938
0.26900001 121478.04648569 7379.79167323
0.27000001 119716.49712407 6326.41858990
0.27100001 117973.54578259 6738.64925399
0.27200001 116251.26072359 5236.53828711
0.27300001 114547.03478274 5649.46002284
0.27400001 112859.81994573 5121.01457239
0.27500001 111194.33183019 5524.13466676
0.27600001 109544.87825153 6372.22586946
0.27700001 107915.34553278 5850.09115820
0.27800001 106302.87091345 4448.77535828
0.27900001 104709.99398489 5717.16594216
0.28000001 103133.41883457 5651.19595250
0.28100001 101575.65706649 5155.98059672
0.28200001 100035.99199185 5095.83367325
0.28300001 98513.20952685  6294.99438671
0.28400001 97007.68775127  5805.91038671
0.28500001 95520.06239034  7376.05956690
0.28600001 94049.24064879  4453.70200173
0.28700001 92595.45287903  4000.12375371
0.28800001 91157.96458252  4346.86774687
0.28900001 89739.35896843  6636.22590983
0.29000001 88335.78248011  4627.02850532
0.29100001 86949.56588660  4570.06939932
0.29200001 85580.04093941  4513.49157279
0.29300001 84226.90528899  4085.84736898
0.29400001 82889.36568360  4034.64006563
0.29500001 81569.18173755  4708.17339276
0.29600001 80264.64218738  5006.10597020
0.29700001 78976.00492564  3530.22758729
0.29800001 77703.42200289  4181.99837017
0.29900001 76447.27988068  3440.12775748
0.30000001 75206.02412008  6111.99386958
0.30100001 73981.86763252  3686.51663865
0.30200001 72771.34446821  3968.94931519
0.30300001 71578.25935930  3916.76253757
0.30400001 70400.30619411  3542.89557695
0.30500001 69237.35781976  3177.99487438
0.30600001 68088.90224192  4076.14232569
0.30700001 66956.93978356  4021.43399379
0.30800001 65839.33874751  3356.81884497
0.30900001 64737.30532725  3311.31332426
0.31000001 63650.38629582  4157.00692579
0.31100001 62577.49503089  4685.80304976
0.31200001 61520.12275765  2888.36990022
0.31300001 60476.82015675  3418.15003710
0.31400001 59449.10431684  4494.35249915
0.31500001 58435.15050380  3877.75677103
0.31600002 57436.26169513  2731.09437291
0.31700002 56451.57795269  4577.65867293
0.31800002 55481.19671425  3451.20800502
0.31900002 54525.24816850  3664.09685041
0.32000002 53583.47836423  2580.04460540
0.32100002 52655.18408396  3560.54371635
0.32200002 51742.23659550  3258.98492628
0.32300002 50841.60205784  2470.90197701
0.32400002 49955.15128252  3165.90786244
0.32500002 49082.59516848  2880.16682087
0.32600002 48223.93520438  3074.99937391
0.32700002 47378.23089986  2797.21088478
0.32800002 46547.01554513  2526.80485852
0.32900002 45728.27097279  2489.90447237
0.33000002 44923.71697353  3122.64771470
0.33100002 44129.96108913  2197.67216631
0.33200002 43352.44329510  2382.00010965
0.33300002 42586.57775139  2346.94641102
0.33400002 41833.72564523  2522.57377587
0.33500002 41093.12616604  2692.42175390
0.33600002 40365.91786306  2448.59669353
0.33700002 39650.57641646  2211.31275147
0.33800002 38948.73821137  2772.76080458
0.33900002 38258.32026863  3902.34885221
0.34000002 37580.83679622  1922.25989316
0.34100002 36915.11428603  2651.24363358
0.34200002 36262.15394025  2238.82549030
0.34300002 35620.39407894  2205.61490582
0.34400002 34991.64927492  1991.89972931
0.34500002 34373.90948495  2319.20778279
0.34600002 33768.68658547  1757.66022002
0.34700002 33173.64081639  1904.83054589
0.34800002 32591.31859374  2218.00229194
0.34900002 32019.84301449  2185.35438924
0.35000002 31459.80281386  3643.98913252
0.35100002 30911.40875325  1958.54695137
0.35200002 30372.80560702  1769.06414637
0.35300002 29845.66281788  1901.76572483
0.35400002 29329.57350364  1717.97984935
0.35500002 28824.27599897  2000.98133462
0.35600002 28328.61061485  1668.69688730
0.35700002 27844.21484233  2242.85161178
0.35800002 27370.24697113  1768.66544305
0.35900002 26906.63942046  2324.73375604
0.36000002 26453.26132362  1432.44416852
0.36100002 26009.27195628  1553.53388753
0.36200002 25576.06109345  1392.61659250
0.36300002 25151.88796042  1510.62246246
0.36400002 24737.32761654  1489.80562627
0.36500002 24332.31778458  1736.59760254
0.36600002 23936.90208797  1976.58978354
0.36700002 23550.42419183  1819.97686775
0.36800002 23174.50335991  1667.52146825
0.36900002 22806.66381303  1265.76990158
0.37000002 22447.36779444  1873.79411540
0.37100002 22096.94559286  1233.00962249
0.37200002 21755.88026389  1704.13818180
0.37300002 21422.99381105  1322.01301070
0.37400002 21098.66180088  1542.83971727
0.37500002 20782.92485620  1289.37271916
0.37600002 20475.74250474  1736.85494024
0.37700002 20175.91525157  1258.37189385
0.37800002 19884.13746913  1130.41326867
0.37900002 19600.92940766  1228.97833208
0.38000002 19325.33945620  1767.10912359
0.38100002 19056.41518386  1528.70569847
0.38200002 18795.97713655  1079.82893765
0.38300002 18542.42539279  1602.06562983
0.38400002 18296.85973438  1373.63680963
0.38500002 18057.54243655  1463.74445925
0.38600002 17826.13276325  1448.72987830
0.38700002 17601.04905493  1126.81921388
0.38800002 17383.07015967  1521.45328780
0.38900002 17171.11467500  1004.51025608
0.39000002 16967.05519163  1592.18853461
0.39100002 16768.51452979  985.98870106
0.39200002 16576.62894290  1270.35001922
0.39300002 16390.91718527  1356.18455216
0.39400002 16212.32845049  1152.69660744
0.39500002 16038.63800036  952.69514236
0.39600002 15871.17777385  945.12868121
0.39700002 15709.27046034  1125.41218910
0.39800002 15553.58538569  1023.97034238
0.39900002 15403.07545241  924.18457093
0.40000002 15257.85348914  1009.53592394
0.40100002 15118.54565671  911.64834629
0.40200002 14984.44783726  1086.97189761
0.40300002 14854.96945132  1170.27454882
0.40400002 14730.93285722  984.39463482
0.40500002 14612.23760629  1067.86237486
0.40600002 14498.01803989  1239.14566058
0.40700002 14388.69303462  1232.82327762
0.40800002 14283.88033589  1139.21093017
0.40900002 14183.61297921  1221.20913537
0.41000002 14088.34471876  955.40114237
0.41100002 13996.89868201  1124.51089339
0.41200002 13909.58337369  947.86860391
0.41300002 13827.22822650  1030.40509626
0.41400002 13748.14205295  1026.98626002
0.41500002 13673.44498914  853.22300775
0.41600002 13602.14759482  935.89580961
0.41700002 13534.91791226  1188.09515063
0.41800002 13472.46960137  846.74475457
0.41900002 13411.58607707  929.42295918
0.42000002 13355.32046369  927.72737997
0.42100002 13303.12610045  842.08792206
0.42200002 13253.93687105  1009.15480118
0.42300002 13207.56494059  1008.00140403
0.42400002 13164.39623795  839.23029994
0.42500002 13124.74318477  922.53824217
0.42600002 13087.08795424  838.22802319
0.42700002 13053.90603636  921.86688797
0.42800002 13022.52995277  1173.19977904
0.42900002 12995.07246805  1005.81865669
0.43000002 12969.70334851  838.49136122
0.43100002 12946.13099829  1258.36399266
0.43200002 12926.13468410  839.55248752
0.43300002 12908.48242456  1008.41069479
0.43400002 12893.04788684  841.27141448
0.43500002 12880.01410103  926.58825834
0.43600002 12869.56289739  1181.03984306
0.43700002 12860.74720115  1098.43647050
0.43800002 12853.94481373  1015.71876732
0.43900002 12849.98863637  1017.71914823
0.44000002 12847.52349639  934.85009152
0.44100002 12847.30448812  936.95396072
0.44200002 12848.73694457  1024.55833251
0.44300002 12852.24297431  855.95942265
0.44400002 12857.55939112  944.06634303
0.44500002 12863.41831149  1118.73154357
0.44600002 12871.58359775  1035.64766536
0.44700002 12882.06505106  952.24229370
0.44800002 12892.69651793  1476.14935778
0.44900002 12906.48022678  1132.54369357
0.45000002 12920.70750069  961.49449423
0.45100002 12936.13570158  1052.48405056
0.45200002 12953.11586776  1496.27925038
0.45300002 12971.03479610  1059.99301377
0.45400002 12990.62903741  1063.93256859
0.45500002 13011.16111740  1067.95615513
0.45600002 13032.70594301  982.73123821
0.45700002 13055.24908841  986.58522037
0.45800002 13078.54198049  1260.64072125
0.45900002 13102.74795494  994.49861691
0.46000002 13128.68345524  907.84850396
0.46100002 13154.39987037  1185.07994049
0.46200002 13181.60345139  915.46240309
0.46300002 13209.75982310  1103.27919272
0.46400002 13237.69080911  1477.32636432
0.46500002 13267.04223560  1205.57618509
0.46600002 13296.57161290  1024.56737419
0.46700002 13326.58820075  1403.28980405
0.46800002 13358.08256263  1127.68938339
0.46900002 13389.02379777  1038.31884473
0.47000002 13420.76085930  1232.62983954
0.47100002 13453.04383805  1142.97065865
0.47200002 13485.89111387  1052.50642187
0.47300002 13519.19391029  1057.33620584
0.47400002 13552.12083261  1062.14752060
0.47500002 13585.78677465  1261.03278819
0.47600002 13620.00503846  1364.31596937
0.47700002 13653.82841979  1076.87749851
0.47800002 13687.91830179  1475.21546490
