# SAXS profile: number of points = 501, q_min = 0, q_max = 0.5, delta_q = 0.001
#    q    intensity    error
0.00000000 1682732.95097188 302.89193117
0.00100000 1682646.35359456 757.19087710
0.00200000 1682386.54675927 984.19616102
0.00300000 1681953.72130534 1311.92394935
0.00400000 1681347.79040803 1261.01089072
0.00500000 1680569.36884468 2268.76873774
0.00600000 1679618.33004535 2469.03904569
0.00700000 1678495.37977600 2014.19453944
0.00800000 1677200.32248884 2490.64258405
0.00900000 1675734.61879682 2764.96223921
0.01000000 1674097.52467318 3314.71324198
0.01100000 1672290.71641905 3311.13576267
0.01200000 1670314.12208016 3908.53521703
0.01300000 1668168.95412177 3853.47045398
0.01400000 1665855.51569627 4872.62759942
0.01500000 1663375.22994071 5189.73094851
0.01600000 1660727.86319652 4658.34186451
0.01700000 1657915.50234653 4924.00926285
0.01800000 1654938.78721906 6131.54848255
0.01900000 1651798.54716238 6442.01462461
0.02000000 1648495.61646508 8308.41828282
0.02100000 1645032.75141790 7600.05165613
0.02200000 1641408.56391369 7361.71774361
0.02300000 1637626.06455581 7664.09033098
0.02400000 1633685.93769619 9189.48381856
0.02500000 1629590.61144642 6990.94404239
0.02600000 1625340.28387290 7240.89129584
0.02700000 1620937.17315904 8850.31737080
0.02800000 1616381.39130414 7734.38531209
0.02900000 1611676.63782343 10878.81780480
0.03000000 1606823.30102738 8218.90156254
0.03100000 1601823.00818487 14608.62650684
0.03200000 1596677.05869581 8693.90698502
0.03300000 1591389.66659771 8116.08767380
0.03400000 1585959.24127026 9158.91504093
0.03500000 1580389.57665452 9387.51451883
0.03600000 1574681.69139965 10487.38054938
0.03700000 1568838.52656665 9836.61801649
0.03800000 1562861.43679288 10057.01381120
0.03900000 1556753.10793281 10274.57098817
0.04000000 1550513.43328139 14303.48708483
0.04100000 1544146.64876201 12646.56163974
0.04200000 1537654.41032315 11901.44568804
0.04300000 1531038.19250719 13136.30830147
0.04400000 1524301.00586023 11317.93549414
0.04500000 1517445.26729656 16752.59652936
0.04600000 1510471.39976488 11713.70624971
0.04700000 1503383.30866331 12989.23239095
0.04800000 1496183.11874508 15395.72500822
0.04900000 1488872.98480758 13399.85748700
0.05000000 1481454.73741947 20399.63268420
0.05100000 1473932.40950982 14945.67532866
0.05200000 1466305.24498762 12822.83996498
0.05300000 1458578.66157016 15358.83402233
0.05400000 1450753.32819145 13165.58706730
0.05500000 1442833.38303059 12119.80098284
0.05600000 1434819.19648768 15948.01611316
0.05700000 1426715.84428922 14894.91410965
0.05800000 1418522.81028284 17575.49844005
0.05900000 1410243.71656135 13961.41344604
0.06000000 1401882.64502874 12827.22680129
0.06100000 1393440.81880254 15550.80026455
0.06200000 1384921.14334771 18322.50758295
0.06300000 1376326.58847131 14534.00945380
0.06400000 1367657.03409184 17335.05371782
0.06500000 1358918.09890785 22870.59267445
0.06600000 1350111.85030090 17639.21214949
0.06700000 1341238.91326735 15048.70131112
0.06800000 1332304.12560851 19305.08768372
0.06900000 1323310.40852229 19452.66391603
0.07000000 1314257.55213681 15396.52794428
0.07100000 1305149.79694478 19733.86585410
0.07200000 1295989.57083835 17029.30375858
0.07300000 1286780.02659639 17139.91075736
0.07400000 1277523.99701739 14372.14563998
0.07500000 1268221.93245289 18795.04991992
0.07600000 1258877.33418098 15994.03728058
0.07700000 1249494.08334273 16080.98960663
0.07800000 1240073.20892665 16164.35503641
0.07900000 1230616.92177431 16244.14412933
0.08000000 1221129.92399548 17804.07512706
0.08100000 1211613.38337546 14902.84531473
0.08200000 1202068.31254048 22448.62679010
0.08300000 1192498.58647643 18030.57947373
0.08400000 1182906.90227818 16590.27008318
0.08500000 1173295.24901305 16649.06036509
0.08600000 1163666.40247283 16704.43199180
0.08700000 1154022.15511354 16756.40247909
0.08800000 1144364.57429321 15277.26778429
0.08900000 1134696.77491679 22977.61077132
0.09000000 1125020.89535984 19963.49672596
0.09100000 1115339.29483754 24626.69278700
0.09200000 1105653.01350782 24678.17642104
0.09300000 1095967.09779043 16998.45048552
0.09400000 1086279.98855230 18575.38867724
0.09500000 1076595.81206392 18603.57650688
0.09600000 1066916.26254218 15523.63234972
0.09700000 1057246.41053526 21758.13215173
0.09800000 1047584.58108639 20223.62128874
0.09900000 1037935.27387566 20239.73879230
0.10000000 1028297.24529062 21810.18559829
0.10100000 1018675.31180404 17144.30630399
0.10200000 1009070.90291001 18708.17541992
0.10300000 999485.09588943 18710.36187520
0.10400000 989921.05857650 21827.76036850
0.10500000 980381.47125760 26499.71241489
0.10600001 970863.43872654 17140.59481724
0.10700001 961374.44924676 17131.69349175
0.10800001 951912.20122791 17120.14174479
0.10900001 942480.92074541 17106.02951664
0.11000001 933081.68232735 18642.97289042
0.11100001 923714.81965826 20173.93261099
0.11200001 914383.84213541 23248.21028075
0.11300001 905088.60400370 18572.41902856
0.11400001 895831.74314999 21634.33761571
0.11500001 886615.01728492 18512.52243263
0.11600001 877439.12103442 21558.68021905
0.11700001 868305.92166765 19979.72019852
0.11800001 859215.78610649 21471.80350609
0.11900001 850170.37406307 16833.37419933
0.12000001 841171.15977610 16793.98299601
0.12100001 832220.95943331 19798.53755759
0.12200001 823318.99161499 18228.28333311
0.12300001 814467.83119926 18178.92284886
0.12400001 805667.19942410 21148.76498136
0.12500001 796917.91603213 21086.44905181
0.12600001 788224.24208112 18018.80702308
0.12700001 779583.93022023 22452.01824842
0.12800001 770998.78951458 16410.71000824
0.12900001 762470.40640996 17841.80835091
0.13000001 753999.54273410 20742.52839831
0.13100001 745585.63696580 16238.85593858
0.13200001 737230.79915603 17649.30616379
0.13300001 728936.84882465 16116.79448731
0.13400001 720702.39072811 16053.64651033
0.13500001 712530.00440200 21803.41916269
0.13600001 704418.36458146 17370.95768963
0.13700001 696370.41095205 18739.32864234
0.13800001 688384.22907907 21529.21777967
0.13900001 680462.91662279 21434.58288443
0.14000001 672605.69593096 17070.73336779
0.14100001 664812.80353303 14160.51338311
0.14200001 657084.86496396 21141.70652737
0.14300001 649423.72065889 21041.32954182
0.14400001 641826.32967534 13959.72332892
0.14500001 634296.92656366 18058.43435112
0.14600001 626833.74837158 22114.69568580
0.14700001 619439.26998393 16501.86293087
0.14800001 612109.06752638 20520.95745697
0.14900001 604847.77431766 14969.98312066
0.15000001 597653.50543319 18951.59355148
0.15100001 590527.58472683 14810.43252378
0.15200001 583469.54662600 14729.68939962
0.15300001 576480.90778615 14648.38055809
0.15400001 569557.55180608 17214.87781573
0.15500001 562704.56378793 17117.47363825
0.15600001 555917.09360746 14401.03298956
0.15700001 549201.34118981 16920.89412067
0.15800001 542549.94889457 14233.79858107
0.15900001 535968.91169030 16722.23083404
0.16000001 529453.45144768 17900.82203841
0.16100001 523008.76541154 16521.84767925
0.16200001 516630.47775907 13894.77735525
0.16300001 510319.56767638 13809.24815323
0.16400001 504076.21349423 14971.06424756
0.16500001 497899.40956081 17356.77423673
0.16600001 491790.49866393 17247.09360243
0.16700001 485746.82825070 18361.23097480
0.16800001 479768.94972478 15810.78648471
0.16900001 473859.25661678 14500.09393714
0.17000001 468013.76998870 13205.00914377
0.17100001 462233.25976720 13118.18053165
0.17200001 456518.59915596 13031.32402828
0.17300001 450868.46498396 17651.50123770
0.17400001 445282.80049931 15195.27628465
0.17500001 439760.64132776 13931.61777522
0.17600001 434300.41662259 12683.74426650
0.17700001 428905.22763143 14887.30115422
0.17800001 423571.04392693 14784.74798658
0.17900001 418299.63409566 14682.31785026
0.18000001 413089.64849995 15701.53828115
0.18100001 407942.31215472 11136.82564789
0.18200001 402852.89530344 14375.80624799
0.18300001 397824.91565266 13175.96182884
0.18400001 392855.70968224 13082.09575043
0.18500001 387947.29473885 10823.73003455
0.18600001 383095.61750816 16118.74886816
0.18700001 378301.75697355 18135.78708613
0.18800001 373565.20269542 10590.57399678
0.18900001 368887.40847809 12615.94996602
0.19000001 364261.80541437 10436.10121821
0.19100001 359696.41316450 10359.25718861
0.19200001 355183.00240907 15423.82260841
0.19300001 350726.06899892 11226.74199915
0.19400001 346321.14192381 13168.86204393
0.19500001 341970.50655819 16086.29338866
0.19600001 337672.38298544 9978.21938875
0.19700001 333425.87252736 12873.57354666
0.19800001 329231.37611334 15724.09126627
0.19900001 325087.88216355 9752.63692582
0.20000001 320993.42486147 9677.95221696
0.20100001 316950.05710049 14405.38077605
0.20200001 312954.21921480 10482.40206803
0.20300001 309008.24436474 14183.47908672
0.20400001 305109.53820355 12196.75436618
0.20500001 301257.61491387 12101.51896309
0.20600001 297452.27575338 12006.66167832
0.20700001 293693.55568128 10995.88724447
0.20800001 289978.68321219 17272.58108201
0.20900001 286311.39705868 10822.57132041
0.21000001 282685.86552875 14315.21290709
0.21100001 279104.72464968 11538.18986247
0.21200001 275566.11665612 9684.77162772
0.21300001 272069.31701414 12226.79568464
0.21400001 268615.19804439 12127.97676507
0.21500001 265203.18380361 14607.39205450
0.21600001 261830.44392088 11079.35575833
0.21700001 258498.28944728 12679.34169686
0.21800001 255205.75858031 9221.86052231
0.21900001 251951.17346159 9977.26694082
0.22000001 248734.76286023 10719.22511229
0.22100001 245557.86102492 9812.49259052
0.22200001 242418.04626860 8919.77243422
0.22300001 239313.79123813 8845.03814240
0.22400001 236245.15968422 11162.58432292
0.22500001 233214.89706846 11858.97807671
0.22600001 230217.33732520 8622.79077727
0.22700001 227256.74556382 8549.39917240
0.22800001 224328.91243086 11558.54775960
0.22900001 221433.99211405 9931.31501598
0.23000001 218573.66653886 15904.51359785
0.23100001 215746.55794995 11261.97085760
0.23200001 212949.92763555 7442.60032285
0.23300001 210185.72197545 8115.27110928
0.23400001 207453.70237813 8775.29202563
0.23500001 204750.56871920 10147.43866566
0.23600001 202079.75394536 7902.32915179
0.23700001 199438.05743150 9967.91458189
0.23800001 196826.22042594 9878.70847043
0.23900001 194243.22448498 9090.58333588
0.24000001 191688.70081164 7622.50154832
0.24100001 189164.06420215 12359.98053961
0.24200001 186666.46667047 10205.98954797
0.24300001 184196.56737825 8089.91362193
0.24400001 181753.66939601 10687.11626602
0.24500001 179337.69885644 7279.31754093
0.24600001 176948.25086849 6555.93300481
0.24700001 174585.19921932 9092.39760547
0.24800001 172248.03690894 7076.81093118
0.24900001 169935.32995157 8921.60524452
0.25000001 167648.95612488 6943.18184638
0.25100001 165386.00782960 7501.90967006
0.25200001 163149.40659270 7429.82432773
0.25300001 160936.73431868 7971.19682793
0.25400001 158747.37323623 8500.92223899
0.25500001 156581.46879902 6614.00155499
0.25600001 154439.44935190 5953.64105420
0.25700001 152320.02412541 7073.74225507
0.25800001 150223.86634023 6419.81723180
0.25900001 148150.28532868 8666.79210180
0.26000001 146099.09300176 6863.73571398
0.26100001 144069.06827497 7926.68051155
0.26200001 142062.03881461 6725.21723570
0.26300001 140075.60212562 6656.39292797
0.26400001 138111.04426281 7136.88854999
0.26500001 136168.08610090 8692.97102802
0.26600001 134244.95965230 8064.76633273
0.26700001 132343.64237279 7980.32201271
0.26800001 130463.27435422 5790.61270623
0.26900001 128601.59003494 6770.87403575
0.27000001 126761.33518262 6183.41822282
0.27100001 124940.49314999 8156.11577880
0.27200001 123140.86065541 6051.14217897
0.27300001 121359.90759107 7481.83865706
0.27400001 119596.56204348 6413.36594309
0.27500001 117855.44329294 5855.05869989
0.27600001 116131.02002489 5790.29293247
0.27700001 114427.37106353 5725.94591901
0.27800001 112741.34608903 6605.51577998
0.27900001 111075.22525701 5131.67564975
0.28000001 109426.20209967 6457.24049151
0.28100001 107796.47896922 5927.72865907
0.28200001 106185.55229385 4958.33459904
0.28300001 104592.03130620 4901.18281898
0.28400001 103016.52414876 4844.35227738
0.28500001 101459.25564836 5223.12272799
0.28600001 99919.60605005  4301.53924405
0.28700001 98397.49592963  6376.15803804
0.28800001 96892.18603237  4620.30410965
0.28900001 95406.43136326  5395.23394897
0.29000001 93936.08998735  5740.43473085
0.29100001 92483.98426700  4050.79870264
0.29200001 91048.82907419  5202.07509540
0.29300001 89630.76413351  3952.71688539
0.29400001 88228.85338064  6637.01580973
0.29500001 86844.91972656  4241.50608023
0.29600001 85477.03142054  4188.80212305
0.29700001 84125.74794365  4888.54744442
0.29800001 82790.82312790  5569.75288959
0.29900001 81473.19340706  3666.29387688
0.30000001 80170.88979179  5791.54535273
0.30100001 78886.03282559  3573.53745617
0.30200001 77615.70237566  4585.92399197
0.30300001 76362.97357376  3830.36693579
0.30400001 75125.93959526  4124.41427904
0.30500001 73904.54709962  4070.66264696
0.30600001 72698.17127371  4017.30113478
0.30700001 71508.76649881  4294.81671925
0.30800001 70334.42140686  4564.00082117
0.30900001 69175.90193979  3538.34755174
0.31000001 68033.01007280  3173.74007016
0.31100001 66904.68516497  4696.70912095
0.31200001 65792.31154794  3397.84409077
0.31300001 64694.66712047  4265.96655190
0.31400001 63613.26545879  3606.87232229
0.31500001 62545.74253217  3557.60200367
0.31600002 61493.81750256  3216.43427676
0.31700002 60456.63947839  4902.42912742
0.31800002 59434.29099070  3412.71715027
0.31900002 58426.82042807  3926.28251867
0.32000002 57434.12407036  3318.54384592
0.32100002 56455.23239887  2999.46663938
0.32200002 55492.19951532  2688.59719382
0.32300002 54541.66723462  3711.01521436
0.32400002 53606.15874450  2874.63039879
0.32500002 52684.87135894  3091.54839773
0.32600002 51778.02862169  3301.62615140
0.32700002 50884.55024452  3254.57598775
0.32800002 50005.77566392  2961.34217505
0.32900002 49140.10090350  2432.43510991
0.33000002 48289.06990274  2397.55243420
0.33100002 47449.41771706  2835.57733705
0.33200002 46626.13549628  3260.56580966
0.33300002 45814.92047266  2295.32762438
0.33400002 45017.54260431  2714.55794759
0.33500002 44232.37004843  2898.10502282
0.33600002 43461.36788592  2636.36670081
0.33700002 42702.40810919  3247.51829050
0.33800002 41957.63470323  2346.90040827
0.33900002 41224.40481608  2522.93369422
0.34000002 40504.71790980  2486.17970304
0.34100002 39797.11243120  2654.06955373
0.34200002 39102.78429635  2213.02218206
0.34300002 38419.76292849  2973.68979150
0.34400002 37750.48465389  2148.94644070
0.34500002 37092.36385228  2695.13128515
0.34600002 36447.24089736  2845.61846783
0.34700002 35812.65072403  1869.42045633
0.34800002 35191.30891912  1842.26510917
0.34900002 34581.03799300  2360.15595480
0.35000002 33982.67807407  3220.53855361
0.35100002 33396.30035331  2292.32216482
0.35200002 32820.12978371  1911.60854979
0.35300002 32255.74087786  2397.89189043
0.35400002 31702.80568474  2363.44427574
0.35500002 31161.08102013  1830.40198582
0.35600002 30629.32488146  2624.32068014
0.35700002 30108.91462822  1940.21855054
0.35800002 29599.64943973  1912.72943739
0.35900002 29100.96257522  1728.59725884
0.36000002 28612.89832718  2324.08277671
0.36100002 28134.44836725  2749.86111367
0.36200002 27667.35915230  1657.13655492
0.36300002 27209.39623773  1782.75972594
0.36400002 26761.52381472  1758.23219791
0.36500002 26323.43319223  2167.73482606
0.36600002 25895.42155786  1568.09732671
0.36700002 25476.55004599  1546.93619207
0.36800002 25068.69010132  2220.08330054
0.36900002 24669.12334577  1642.96369265
0.37000002 24278.49051617  1891.53728572
0.37100002 23897.02557766  1600.14490848
0.37200002 23525.38666000  1579.49453517
0.37300002 23162.01511380  2208.96148604
0.37400002 22807.57970891  1411.21906134
0.37500002 22462.10689121  1646.92175528
0.37600002 22125.37350089  1501.42791690
0.37700002 21796.46804398  1235.85979664
0.37800002 21475.89258948  1465.08546186
0.37900002 21164.17897134  1326.99408437
0.38000002 20860.34320735  1192.16867078
0.38100002 20563.42836809  1531.76985170
0.38200002 20275.41025509  1514.26908664
0.38300002 19994.40068858  1382.01304107
0.38400002 19721.86432037  1480.61903399
0.38500002 19455.58556983  1239.12630365
0.38600002 19197.89711998  1225.88177867
0.38700002 18946.49458920  1433.49184853
0.38800002 18702.63787274  1636.94845736
0.38900002 18465.05035319  1620.30824526
0.39000002 18235.65497568  1497.32970099
0.39100002 18011.85376084  1165.00675644
0.39200002 17795.19904790  1049.02703357
0.39300002 17584.77791324  1247.11250869
0.39400002 17382.03948741  1235.86306611
0.39500002 17184.36893562  1326.97703208
0.39600002 16993.12230587  1315.52262564
0.39700002 16807.72798776  1103.76354925
0.39800002 16628.68696333  1094.74965810
0.39900002 16455.15041805  1184.77088623
0.40000002 16287.28219367  1273.58409148
0.40100002 16125.40286149  1069.59802248
0.40200002 15969.17500163  1254.93767696
0.40300002 15817.70720140  1150.26372219
0.40400002 15671.98577218  952.07318077
0.40500002 15531.67866503  945.87927552
0.40600002 15396.13751747  1409.90135996
0.40700002 15265.80970751  1121.12111804
0.40800002 15140.30373846  1393.28651755
0.40900002 15019.47982349  1108.43766349
0.41000002 14903.86013992  918.82302116
0.41100002 14792.28903971  1005.57985657
0.41200002 14685.13771749  1091.69318965
0.41300002 14583.09694407  1267.85450839
0.41400002 14484.68767834  901.67185070
0.41500002 14390.86943251  987.78932465
0.41600002 14300.50707440  1341.74513983
0.41700002 14214.61988175  1069.50805058
0.41800002 14133.47645398  977.11794095
0.41900002 14054.32885901  1239.59186410
0.42000002 13980.17701694  1500.84197477
0.42100002 13909.92408710  880.49823644
0.42200002 13843.13717814  1054.01651469
0.42300002 13779.26621992  1139.26978505
0.42400002 13718.84989262  1049.49206652
0.42500002 13662.04926341  1047.60598716
0.42600002 13607.65579540  1394.51263199
0.42700002 13557.66080121  1131.52242409
0.42800002 13509.89935753  1217.10689079
0.42900002 13466.18193086  1215.99628598
0.43000002 13424.66174068  1128.27574946
0.43100002 13385.19835328  1474.51352047
0.43200002 13349.55564579  1040.46441634
0.43300002 13316.33197666  866.89325276
0.43400002 13285.76171673  953.58559241
0.43500002 13257.53879223  1127.15600153
0.43600002 13232.13082012  867.36621636
0.43700002 13208.53807100  867.80099239
0.43800002 13187.13124127  1215.72168674
0.43900002 13168.84578866  1042.97263589
0.44000002 13152.13549652  1044.01656519
0.44100002 13137.88127456  958.14572676
0.44200002 13125.46954685  1482.71873763
0.44300002 13115.18398257  960.81842410
0.44400002 13107.06967619  1049.87633082
0.44500002 13099.62099802  1051.63762356
0.44600002 13094.44593304  1141.37743384
0.44700002 13092.01498988  1231.69682862
0.44800002 13089.66849111  1057.90705759
0.44900002 13090.72105977  1060.34845609
0.45000002 13092.52162478  1062.85095587
0.45100002 13095.60230644  1065.45825415
0.45200002 13100.42212762  1157.22584349
0.45300002 13106.17624773  1338.79596716
0.45400002 13113.80593417  1074.02075691
0.45500002 13122.59239520  987.34389861
0.45600002 13132.58505725  1260.33424768
0.45700002 13143.75636211  1173.86893633
0.45800002 13155.70829141  1358.65583819
0.45900002 13168.76984859  908.64516262
0.46000002 13183.72864661  1093.98585494
0.46100002 13198.45863457  1006.11854940
0.46200002 13215.10095155  1193.12544596
0.46300002 13232.62305994  1013.08966948
0.46400002 13250.19310749  1016.62111436
0.46500002 13269.24866071  1391.28078802
0.46600002 13288.67015749  1117.04566638
0.46700002 13308.60445880  1214.54330047
0.46800002 13330.29136727  1312.90045899
0.46900002 13351.53600734  1035.41166644
0.47000002 13373.71002687  1511.76425309
0.47100002 13396.48137580  1138.16511163
0.47200002 13420.03445191  1142.58178739
0.47300002 13444.13458633  1242.64141871
0.47400002 13468.00631321  1151.51459436
0.47500002 13492.68312686  1541.40419347
0.47600002 13518.25285917  1160.67724550
0.47700002 13543.36548889  971.05935158
