# SAXS profile: number of points = 501, q_min = 0, q_max = 0.5, delta_q = 0.001
#    q    intensity    error
0.00000000 1664650.74656090 274.66737318
0.00100000 1664564.53310736 749.05405769
0.00200000 1664305.87700845 823.83143521
0.00300000 1663874.97548553 1297.82252711
0.00400000 1663271.72172067 1621.68999030
0.00500000 1662496.75557699 1645.87185317
0.00600000 1661549.92877657 2616.94124436
0.00700000 1660431.96345776 2988.77765844
0.00800000 1659142.65933129 2463.82695313
0.00900000 1657683.45326108 2983.83034342
0.01000000 1656053.65065733 3005.73750573
0.01100000 1654254.86902301 3275.42478328
0.01200000 1652287.06426833 4510.74388322
0.01300000 1650151.45766007 4504.91367810
0.01400000 1647848.35176910 5190.72253818
0.01500000 1645379.12879332 4343.80109344
0.01600000 1642743.60023573 5445.69527822
0.01700000 1639943.84037587 5313.41828117
0.01800000 1636980.46370218 5131.93398463
0.01900000 1633854.30867977 5391.71946193
0.02000000 1630566.23978591 7704.42583150
0.02100000 1627118.92322427 8591.18830414
0.02200000 1623511.06019440 7281.44743579
0.02300000 1619745.65157839 7580.40999443
0.02400000 1615823.36227937 7877.13925029
0.02500000 1611746.55318569 6914.39302895
0.02600000 1607515.57148473 7161.48219852
0.02700000 1603132.47606887 9426.41939103
0.02800000 1598597.46368097 9040.06907169
0.02900000 1593914.17948229 8607.13696439
0.03000000 1589083.08427596 9606.00768599
0.03100000 1584105.75130968 8364.07875177
0.03200000 1578983.44621456 10942.35578625
0.03300000 1573720.38480292 9631.16919900
0.03400000 1568315.02875038 12350.48142127
0.03500000 1562771.21245556 13502.34389913
0.03600000 1557089.82838416 12098.58852567
0.03700000 1551273.85591472 14147.61822023
0.03800000 1545324.72364663 12656.21007239
0.03900000 1539244.95670588 14776.75226869
0.04000000 1533034.56154672 16970.69338273
0.04100000 1526697.86174420 9618.19697495
0.04200000 1520236.27203390 12747.18173238
0.04300000 1513651.43761214 12987.12993755
0.04400000 1506946.26257626 15257.83161719
0.04500000 1500123.28065238 16561.36178792
0.04600000 1493182.81897616 11579.63329946
0.04700000 1486128.88431423 13910.16700411
0.04800000 1478963.32818751 13044.45716155
0.04900000 1471688.55937632 16556.49706365
0.05000000 1464306.37210369 11201.94426822
0.05100000 1456820.81888076 12499.52320828
0.05200000 1449230.92430927 12673.52502369
0.05300000 1441542.35390978 14011.79233320
0.05400000 1433755.60826427 17742.72647968
0.05500000 1425874.86251019 13175.08434420
0.05600000 1417900.45854084 16972.26928073
0.05700000 1409837.59920425 15945.26399130
0.05800000 1401685.71744779 17366.88685008
0.05900000 1393448.36165138 15049.24300872
0.06000000 1385129.64270103 13941.33050511
0.06100000 1376730.63750362 19205.39329067
0.06200000 1368254.49369966 14223.00612684
0.06300000 1359704.00269401 14358.47493978
0.06400000 1351079.07881543 18442.23028831
0.06500000 1342385.54886564 13289.61755543
0.06600000 1333625.21759316 24125.28131505
0.06700000 1324798.63239635 14864.24135112
0.06800000 1315910.66691902 16343.61124816
0.06900000 1306964.43919246 19212.37815563
0.07000000 1297959.81932737 20734.90908474
0.07100000 1288900.75447693 18096.16744044
0.07200000 1279789.65339087 16816.43683335
0.07300000 1270629.82560980 22566.38676019
0.07400000 1261423.97272357 15610.12239401
0.07500000 1252172.62820098 18557.19921976
0.07600000 1242879.27879272 15790.78197734
0.07700000 1233547.83105664 21648.76545012
0.07800000 1224179.28094881 17407.83019145
0.07900000 1214775.67854222 21865.96323936
0.08000000 1205342.03604735 24896.34092247
0.08100000 1195879.19101310 16180.24621356
0.08200000 1186388.36749460 14770.53586842
0.08300000 1176873.32024430 17794.32543722
0.08400000 1167336.90746682 16371.90089570
0.08500000 1157780.90221380 26883.67381146
0.08600000 1148208.19755839 16482.52944983
0.08700000 1138620.52007310 16532.77072780
0.08800000 1129019.79519052 16579.65647102
0.08900000 1119409.45504979 16623.23118828
0.09000000 1109791.46903616 18178.38511675
0.09100000 1100167.95636711 24291.70961784
0.09200000 1090540.52120910 18255.64918281
0.09300000 1080913.69424098 16764.97218550
0.09400000 1071286.09792939 22898.74141942
0.09500000 1061661.75825665 18345.51604496
0.09600000 1052042.55697048 21430.10789287
0.09700000 1042433.37915698 16856.14853342
0.09800000 1032832.61417351 16871.32154577
0.09900000 1023244.53025470 16883.53554311
0.10000000 1013668.49459708 19964.20193995
0.10100000 1004108.57575615 18435.43431793
0.10200000 994566.47125283 21512.47378507
0.10300000 985043.67832079 18440.01852560
0.10400000 975542.70267681 21510.71760600
0.10500000 966066.62259332 21504.64403071
0.10600001 956612.39540802 16888.99263562
0.10700001 947187.51941525 21482.21395124
0.10800001 937789.62268628 16866.14715776
0.10900001 928423.06310062 19914.67564081
0.11000001 919088.84180306 19893.67891721
0.11100001 909787.28431306 22926.64064392
0.11200001 900521.98997028 19843.00298315
0.11300001 891292.50111129 16765.21273522
0.11400001 882101.92429642 18259.51069267
0.11500001 872951.35552247 24302.96688212
0.11600001 863842.18330722 18192.51723716
0.11700001 854775.90429840 18155.44106233
0.11800001 845752.88145257 21135.36550294
0.11900001 836774.83030415 25605.31101336
0.12000001 827843.03660919 16527.88700445
0.12100001 818960.62815228 19483.07426155
0.12200001 810126.87246038 17936.20980127
0.12300001 801343.78683655 20866.99319236
0.12400001 792611.53990742 17833.76048820
0.12500001 783930.93454596 14816.29536107
0.12600001 775306.08911209 17723.49803229
0.12700001 766734.68669505 23554.09068529
0.12800001 758218.75906300 14671.53367933
0.12900001 749759.58257466 20468.43756901
0.13000001 741358.13448097 17481.22563504
0.13100001 733013.90968167 20319.14653417
0.13200001 724728.80658909 21687.51055953
0.13300001 716504.73776866 20162.44427133
0.13400001 708340.33953381 14343.89255181
0.13500001 700238.01876256 14284.85625626
0.13600001 692196.77002332 15647.10872415
0.13700001 684219.22945978 16996.00646120
0.13800001 676303.65426856 15511.02504208
0.13900001 668452.74846752 19652.51173172
0.14000001 660666.15515968 18165.01679279
0.14100001 652943.96351015 16689.24849443
0.14200001 645286.97922699 16609.68762870
0.14300001 637696.72061951 19283.94974111
0.14400001 630170.18099974 16447.44249992
0.14500001 622711.84115754 16364.86795759
0.14600001 615319.77822975 13567.80175002
0.14700001 607996.54608043 13497.52395975
0.14800001 600737.46290993 13426.48292948
0.14900001 593547.31287213 13354.81516971
0.15000001 586424.49134661 15939.01842685
0.15100001 579369.75034273 18493.48330355
0.15200001 572383.00504554 18390.66681991
0.15300001 565465.68528027 15674.70953564
0.15400001 558613.61929128 16884.09743986
0.15500001 551831.89389988 16786.72700465
0.15600001 545115.67284537 16688.71711178
0.15700001 538471.19943010 15314.12163457
0.15800001 531891.04695425 15222.72248232
0.15900001 525381.31304869 16391.89774083
0.16000001 518937.03022278 13785.56285858
0.16100001 512563.63929475 16191.88612965
0.16200001 506256.32082661 16091.35791708
0.16300001 500016.53972792 17220.57044118
0.16400001 493844.17769873 12222.64397507
0.16500001 487738.44229715 14573.62534388
0.16600001 481700.43606233 13273.25614237
0.16700001 475727.52523533 20380.16814333
0.16800001 469820.44757530 16673.92847173
0.16900001 463981.37591854 11831.52564458
0.17000001 458206.48855888 11752.99698651
0.17100001 452496.54231021 15176.73474575
0.17200001 446852.39286278 13914.98417085
0.17300001 441272.56451243 11517.21447767
0.17400001 435756.92949684 14870.20592134
0.17500001 430304.98277619 13632.06249816
0.17600001 424914.83468155 13537.78727233
0.17700001 419589.46652076 13443.64714228
0.17800001 414325.02504839 13349.55293759
0.17900001 409123.13662931 12150.95773182
0.18000001 403982.80798294 20839.45413415
0.18100001 398904.83673716 13068.12306880
0.18200001 393884.61477156 14055.77314209
0.18300001 388925.54855056 15028.08390591
0.18400001 384025.31713959 12788.04366486
0.18500001 379185.56648635 13753.06114618
0.18600001 374402.49309489 15752.98564119
0.18700001 369677.06795471 12509.87257061
0.18800001 365008.79228831 12417.59970033
0.18900001 360398.93190731 11298.50704912
0.19000001 355841.39266876 12233.82765799
0.19100001 351343.65389528 16189.91633647
0.19200001 346897.63372303 13055.49306206
0.19300001 342508.15575832 14950.48170530
0.19400001 338170.30598203 13848.07468434
0.19500001 333886.71293730 12761.15077149
0.19600001 329655.32310706 14611.97288723
0.19700001 325475.24959531 13533.26151772
0.19800001 321347.11666262 11510.65426283
0.19900001 317269.65913272 13325.32631333
0.20000001 313241.14093866 11333.06501477
0.20100001 309263.50187573 13118.95836960
0.20200001 305333.05960732 12086.60973581
0.20300001 301452.40582428 10146.88845963
0.20400001 297618.57389153 11897.30305365
0.20500001 293831.34437033 14527.02235232
0.20600001 290090.67740151 12610.24234270
0.20700001 286396.10004886 13403.33811585
0.20800001 282745.39923092 15068.91676432
0.20900001 279141.72449234 16706.63300061
0.21000001 275579.79334675 8722.10087174
0.21100001 272061.96737485 11247.04226296
0.21200001 268586.39227194 9439.46920264
0.21300001 265152.38190070 9362.53104753
0.21400001 261760.85497657 9285.96676930
0.21500001 258410.97807806 12558.77412834
0.21600001 255100.25262682 10794.56770026
0.21700001 251829.84832115 11528.77100122
0.21800001 248598.77277963 12249.70510789
0.21900001 245405.27877500 12957.39933197
0.22000001 242249.78403123 12045.87108051
0.22100001 239133.45438066 7963.14440740
0.22200001 236054.06599148 10264.81154501
0.22300001 233009.73806330 9394.95308296
0.22400001 230000.92570433 8538.78477054
0.22500001 227030.09740236 7696.32066588
0.22600001 224091.73070654 11445.48568707
0.22700001 221189.90497272 9077.63412935
0.22800001 218320.78115055 8999.18302460
0.22900001 215484.15982251 9664.46502508
0.23000001 212681.74584342 8106.36512619
0.23100001 209912.29451357 8035.44301400
0.23200001 207173.15757429 10136.98307952
0.23300001 204466.00882621 7176.75724922
0.23400001 201790.78140090 11381.00060928
0.23500001 199144.13497077 7754.67298253
0.23600001 196529.42444192 6986.62136936
0.23700001 193943.63158767 11078.06076026
0.23800001 191387.33178523 10291.85425354
0.23900001 188859.57937136 7478.83969685
0.24000001 186359.99135254 10779.06240968
0.24100001 183889.95820075 7342.72637828
0.24200001 181446.62631939 8597.84879484
0.24300001 179030.83627501 7863.03470114
0.24400001 176641.50955653 7140.73336161
0.24500001 174278.79784364 9646.33191696
0.24600001 171942.56169290 7007.51943329
0.24700001 169632.16285907 6941.34843256
0.24800001 167347.25838793 6875.46243612
0.24900001 165086.59837037 8047.97205128
0.25000001 162851.91505458 7970.78735943
0.25100001 160640.41922210 6072.20813387
0.25200001 158454.86953481 8418.70761667
0.25300001 156292.94298445 5954.76140943
0.25400001 154154.02380607 6486.03085850
0.25500001 152038.22126228 7005.92156723
0.25600001 149946.04718288 9248.67262782
0.25700001 147875.90503558 7439.63713433
0.25800001 145828.92453835 7931.63558092
0.25900001 143804.09958428 6730.03217897
0.26000001 141801.28561087 5551.52059434
0.26100001 139819.41341593 5494.90320724
0.26200001 137860.16609032 7614.01733344
0.26300001 135921.26135693 8611.97152707
0.26400001 134003.70152286 5326.64738758
0.26500001 132107.46239785 7379.52319873
0.26600001 130230.80572501 8345.19042575
0.26700001 128375.66333500 6708.91248335
0.26800001 126541.01594051 6637.70930526
0.26900001 124724.86421811 5556.49296386
0.27000001 122929.69721571 5496.80167112
0.27100001 121153.61230819 5437.37437770
0.27200001 119398.38009062 5867.23667531
0.27300001 117661.55513969 5319.47915960
0.27400001 115942.01358177 6217.39077256
0.27500001 114244.28485139 5675.65634002
0.27600001 112563.03261431 5144.69364911
0.27700001 110902.08593927 6012.00236330
0.27800001 109258.50016057 5486.96213775
0.27900001 107634.60550689 4972.71900977
0.28000001 106027.38283913 6703.58159727
0.28100001 104439.06275297 4859.54981989
0.28200001 102869.27485946 5240.16110936
0.28300001 101316.54729032 4747.69363073
0.28400001 99781.51089245  5118.79175106
0.28500001 98264.35006163  5901.75714404
0.28600001 96764.54979645  4998.85687909
0.28700001 95281.93779752  5351.03387999
0.28800001 93815.84826054  4473.60893605
0.28900001 92368.79874022  5223.45581600
0.29000001 90937.01203603  5160.22099224
0.29100001 89523.10812806  4705.33478594
0.29200001 88125.82413718  4260.44316958
0.29300001 86745.23518226  3825.46505262
0.29400001 85380.48935212  5289.32156574
0.29500001 84033.45056118  5223.51953415
0.29600001 82702.14218769  4052.81866976
0.29700001 81387.10705128  4365.60462889
0.29800001 80088.16418719  5387.93150075
0.29900001 78806.06344324  3900.90032511
0.30000001 77539.07128852  4901.24492817
0.30100001 76289.21625217  3801.49182581
0.30200001 75053.45314342  5799.00533166
0.30300001 73835.05347336  3703.56645756
0.30400001 72632.09172725  3655.21018922
0.30500001 71444.49712731  3607.23283073
0.30600001 70271.45220638  3883.20063277
0.30700001 69115.13868536  3831.74347012
0.30800001 67973.57032756  3465.63264723
0.30900001 66847.52421828  4973.45603730
0.31000001 65736.76098036  5519.91608086
0.31100001 64640.29375399  3327.68248001
0.31200001 63559.50436638  4476.17830693
0.31300001 62492.97872007  3532.10332449
0.31400001 61442.59996160  3193.47928420
0.31500001 60405.71487345  4008.52342879
0.31600002 59384.15990947  3670.83201861
0.31700002 58377.02428066  3341.50102804
0.31800002 57384.38704809  3844.18027037
0.31900002 56406.31809788  3519.75441596
0.32000002 55442.80505163  2936.52830860
0.32100002 54492.81054241  2632.00287382
0.32200002 53558.26141056  2594.89788821
0.32300002 52636.09645543  3837.17161329
0.32400002 51728.55821411  3530.47426529
0.32500002 50834.86893612  3977.32033390
0.32600002 49955.49522975  2450.31715705
0.32700002 49089.12508758  2656.70357554
0.32800002 48237.17529973  3094.65612790
0.32900002 47398.07208923  3519.30701928
0.33000002 46573.37993206  2774.84210775
0.33100002 45759.56647449  2506.70917018
0.33200002 44962.09565099  3144.19949777
0.33300002 44176.31721544  2877.20367649
0.33400002 43404.08047033  2617.26617630
0.33500002 42643.79030728  2364.17184659
0.33600002 41897.43647239  2117.91551398
0.33700002 41162.85018193  2086.95660306
0.33800002 40441.98561887  2056.47506611
0.33900002 39732.69787500  2229.00445635
0.34000002 39036.41454261  3993.42539683
0.34100002 38352.16956094  2951.19958748
0.34200002 37680.80808304  2132.54543445
0.34300002 37020.54219377  2674.36409473
0.34400002 36373.63801515  2070.56944207
0.34500002 35737.84564138  2040.27370429
0.34600002 35114.76666631  2010.49606070
0.34700002 34501.83480111  2161.19503430
0.34800002 33901.99441685  1952.24644096
0.34900002 33312.93083915  2273.60763745
0.35000002 32735.45009132  2068.22583473
0.35100002 32169.88170692  2038.28380149
0.35200002 31614.08765694  2008.75922486
0.35300002 31069.88154214  1649.81078803
0.35400002 30536.99684603  1788.70467498
0.35500002 30014.91235291  2083.63531423
0.35600002 29502.62754044  2211.81209147
0.35700002 29001.54432578  1868.85960487
0.35800002 28511.35702419  1688.87031332
0.35900002 28031.38141183  1513.69466794
0.36000002 27561.80753912  1790.96633872
0.36100002 27101.69384093  1471.62204527
0.36200002 26652.67168026  2031.73325842
0.36300002 26212.54334961  1431.20493468
0.36400002 25782.28515693  2258.52828673
0.36500002 25361.57673277  1949.29088001
0.36600002 24950.73363209  1510.89174666
0.36700002 24548.82731092  1761.62393128
0.36800002 24157.66030845  1470.83921755
0.36900002 23774.58231787  1847.28513360
0.37000002 23400.21285890  1562.66628874
0.37100002 23034.81916367  1413.87726724
0.37200002 22679.03716892  1268.89218971
0.37300002 22331.38123131  1252.79054642
0.37400002 21992.31960073  1360.77483976
0.37500002 21662.15363802  1343.92007537
0.37600002 21340.36375578  1327.47739031
0.37700002 21026.28706064  1669.06674594
0.37800002 20720.30676160  2120.30909136
0.37900002 20422.94134390  1280.51848292
0.38000002 20133.29876515  1610.86531051
0.38100002 19850.41935871  1592.40071639
0.38200002 19576.24980485  1349.58672548
0.38300002 19308.81464958  1779.50044241
0.38400002 19049.72619049  1540.17043547
0.38500002 18796.62072181  1632.48658703
0.38600002 18551.88971537  1076.93724900
0.38700002 18313.48242103  1172.42920014
0.38800002 18082.16454634  1688.15096202
0.38900002 17857.13141983  1149.10646131
0.39000002 17639.94502774  1655.33251983
0.39100002 17428.24683640  1434.69334754
0.39200002 17223.52553333  1015.32687829
0.39300002 17024.89877865  1106.78872204
0.39400002 16833.69361914  1196.87567303
0.39500002 16647.40960778  1186.62741306
0.39600002 16467.32540322  1176.75512907
0.39700002 16292.99721157  1069.96117758
0.39800002 16124.80488862  965.06961831
0.39900002 15961.98966918  1149.26331063
0.40000002 15804.62473432  1045.71304509
0.40100002 15653.11802461  1132.65967393
0.40200002 15507.12372713  1124.88680846
0.40300002 15365.68687712  1024.27673576
0.40400002 15229.87200007  1017.73624462
0.40500002 15099.22351326  1103.45130663
0.40600002 14973.33157747  914.12193612
0.40700002 14852.29809306  1454.33709818
0.40800002 14736.13404419  1084.87423974
0.40900002 14624.38049673  899.39944316
0.41000002 14517.61622197  1074.01329899
0.41100002 14414.93076080  890.84276323
0.41200002 14316.38840215  1330.35045531
0.41300002 14222.81095927  1059.88392290
0.41400002 14132.75804391  1231.66992189
0.41500002 14047.20009006  1139.50892530
0.41600002 13964.90338666  1135.55617269
0.41700002 13886.89126972  1044.84974864
0.41800002 13813.59177512  1389.09485473
0.41900002 13742.06586121  952.32520931
0.42000002 13675.42132411  1036.32347705
0.42100002 13612.54018397  861.67383448
0.42200002 13553.01050668  945.93241314
0.42300002 13496.32124962  944.20267937
0.42400002 13442.80967004  1028.37498849
0.42500002 13392.94204573  941.38994100
0.42600002 13345.25148458  940.23973790
0.42700002 13301.93083851  853.98400030
0.42800002 13260.51280107  1109.30825094
0.42900002 13223.19626724  1449.92353941
0.43000002 13187.95896604  1108.38206382
0.43100002 13154.57595900  852.41656254
0.43200002 13124.93329021  1022.95734911
0.43300002 13097.61199747  852.65458144
0.43400002 13072.79991257  1194.20032860
0.43500002 13050.21497174  938.83250956
0.43600002 13030.33092887  939.55205615
0.43700002 13012.19900417  1282.35227263
0.43800002 12996.16456659  941.37722499
0.43900002 12983.04630797  1285.32164540
0.44000002 12971.42942143  1029.67211627
0.44100002 12962.16986166  1031.27028307
0.44200002 12954.70475416  1033.00820605
0.44300002 12949.18853249  948.65759685
0.44400002 12945.80908051  1296.19919561
0.44500002 12942.98758832  1125.65168390
0.44600002 12942.31401479  1041.33863498
0.44700002 12944.30745031  869.85750188
0.44800002 12946.24199856  1046.31532791
0.44900002 12951.48733901  1223.91561154
0.45000002 12957.40563674  964.22538615
0.45100002 12964.47471124  1142.68885520
0.45200002 12973.20137923  1234.14070569
0.45300002 12982.87556186  884.13386766
0.45400002 12994.24375887  1152.91433215
0.45500002 13006.72760987  1067.59225281
0.45600002 13020.26544073  1160.30100974
0.45700002 13034.91004941  1432.79738054
0.45800002 13050.28757449  1347.76851313
0.45900002 13066.75334949  991.76662623
0.46000002 13084.94531838  1085.78881398
0.46100002 13102.88298612  908.02983397
0.46200002 13122.62987914  911.36668830
0.46300002 13143.16245038  1189.19339487
0.46400002 13163.67613052  1101.79974434
0.46500002 13185.56684744  1198.17251621
0.46600002 13207.87271932  1295.29613897
0.46700002 13230.58138205  1021.66554274
0.46800002 13254.89555459  1118.97833575
0.46900002 13278.71019624  1591.45349245
0.47000002 13303.39750850  1033.87358637
0.47100002 13328.66159461  943.66928563
0.47200002 13354.61301267  1042.26082197
0.47300002 13380.98685093  1331.94349427
0.47400002 13407.10715280  1050.78207291
0.47500002 13433.99604983  1342.86230879
0.47600002 13461.69171942  1252.13931463
0.47700002 13488.85149186  1160.58083737
