# SAXS profile: number of points = 501, q_min = 0, q_max = 0.5, delta_q = 0.001
#    q    intensity    error
0.00000000 1664650.74656090 274.66737318
0.00100000 1664564.70385639 599.24330762
0.00200000 1664306.55984517 1422.98215373
0.00300000 1663876.51012259 1597.32150662
0.00400000 1663274.46018518 1496.94707105
0.00500000 1662501.01747855 2394.00155993
0.00600000 1661556.07788386 1919.09734809
0.00700000 1660440.32643988 2391.03416945
0.00800000 1659153.57238627 2687.82890075
0.00900000 1657697.26607088 2983.85520648
0.01000000 1656070.67944233 3005.76841298
0.01100000 1654275.48149450 3275.46559597
0.01200000 1652311.57070046 4510.81078578
0.01300000 1650180.19498284 4504.99213099
0.01400000 1647881.62310915 3707.73381636
0.01500000 1645417.35094511 5133.70236355
0.01600000 1642787.01199866 5026.92848144
0.01700000 1639992.78550617 5756.37493535
0.01800000 1637035.28119652 6531.77106589
0.01900000 1633915.29631670 6372.26994317
0.02000000 1630633.76142909 6677.44555511
0.02100000 1627193.30843839 8054.60724195
0.02200000 1623592.58700851 6161.53414763
0.02300000 1619834.62351605 6414.54540110
0.02400000 1615920.06914375 6059.70053560
0.02500000 1611851.37036192 7543.46475781
0.02600000 1607628.72734538 7161.98630790
0.02700000 1603254.30761838 7407.03524045
0.02800000 1598728.26167797 7649.91508295
0.02900000 1594054.25283243 12194.51559407
0.03000000 1589232.67165315 12562.88484687
0.03100000 1584265.14985000 13688.05152453
0.03200000 1579153.03935025 10161.85027625
0.03300000 1573900.41481772 8829.58173418
0.03400000 1568505.70103983 11528.51743457
0.03500000 1562972.83276858 9284.05905537
0.03600000 1557302.67760674 9507.33328616
0.03700000 1551498.22553156 10612.24835343
0.03800000 1545560.76477710 9945.68398162
0.03900000 1539493.06365808 13855.43821457
0.04000000 1533294.90564682 12258.69333870
0.04100000 1526970.67604247 9619.91570511
0.04200000 1520521.80611351 13730.31254619
0.04300000 1513949.93092025 11990.48400946
0.04400000 1507258.00760901 12208.79042863
0.04500000 1500448.44758916 11388.40424636
0.04600000 1493521.53400604 12635.19276506
0.04700000 1486481.51437317 10702.66740125
0.04800000 1479330.12662574 17396.92309856
0.04900000 1472069.62545565 14352.67951627
0.05000000 1464701.94527649 12325.46744345
0.05100000 1457231.04487327 17049.60401926
0.05200000 1449656.04104390 17287.14909505
0.05300000 1441982.48393003 12848.06453077
0.05400000 1434211.05365398 13015.46591887
0.05500000 1426345.70200482 16773.82623806
0.05600000 1418387.09445169 18190.81533520
0.05700000 1410339.90979594 12269.95778797
0.05800000 1402203.91467946 14891.40626921
0.05900000 1393982.66062946 15055.01343795
0.06000000 1385680.18275788 16482.66654396
0.06100000 1377297.54945231 15370.64137018
0.06200000 1368837.88057109 12935.51857605
0.06300000 1360304.16907340 22200.16507725
0.06400000 1351695.92795196 14496.93950526
0.06500000 1343019.25441766 14625.48036476
0.06600000 1334275.83755283 16091.36735378
0.06700000 1325466.39371773 21631.61255781
0.06800000 1316595.75961115 13626.76674983
0.06900000 1307666.78852846 21968.80307583
0.07000000 1298679.43996886 17980.21768835
0.07100000 1289637.88200523 15320.89875582
0.07200000 1280544.31436097 16826.35307896
0.07300000 1271402.16273709 15523.82113440
0.07400000 1262214.03428549 14199.90855118
0.07500000 1252980.49160346 14283.97827380
0.07600000 1243704.90343494 21547.18846216
0.07700000 1234391.29079801 15886.61665747
0.07800000 1225040.50299049 14516.73064122
0.07900000 1215654.94902853 24799.36212336
0.08000000 1206239.22935113 16121.38805655
0.08100000 1196794.26668894 17664.68420512
0.08200000 1187321.55351204 17738.58484186
0.08300000 1177824.41117857 20776.82358829
0.08400000 1168305.93840398 16385.49155523
0.08500000 1158767.93313290 20927.34985482
0.08600000 1149213.16182083 16496.95571249
0.08700000 1139643.36817248 18051.95179953
0.08800000 1130060.69096012 18103.57311939
0.08900000 1120468.30259634 22689.48419329
0.09000000 1110868.16200089 15163.35112362
0.09100000 1101262.58426249 19756.65168986
0.09200000 1091652.90051593 15228.55867774
0.09300000 1082043.69745885 22885.22527668
0.09400000 1072433.74434809 19866.83604774
0.09500000 1062827.17489798 27548.48166821
0.09600000 1053225.47122004 21454.20385727
0.09700000 1043633.67142472 15341.41569119
0.09800000 1034050.45383037 18426.77995364
0.09900000 1024479.78990499 19977.35684253
0.10000000 1014920.81044750 18451.26120165
0.10100000 1005378.12568837 24611.65767438
0.10200000 995852.98457786 20001.70813605
0.10300000 986346.97838465 20003.11766260
0.10400000 976863.08848838 16924.15380426
0.10500000 967403.68739093 16919.89128854
0.10600001 957965.86248444 21525.49394288
0.10700001 948557.41148601 16903.29386811
0.10800001 939175.93018161 16891.07989924
0.10900001 929825.55043934 21478.97122607
0.11000001 920507.29213098 18391.73656247
0.11100001 911221.54486331 21431.93174406
0.11200001 901971.82693060 16817.26550483
0.11300001 892758.10096173 21372.62994326
0.11400001 883582.68168880 25911.06336053
0.11500001 874447.57600790 16736.92739290
0.11600001 865353.45599396 19743.04002823
0.11700001 856301.83314863 19703.50610869
0.11800001 847293.52107196 19661.44708250
0.11900001 838329.95414140 21125.91583943
0.12000001 829412.56815845 19569.99046754
0.12100001 820544.37131186 30031.92540476
0.12200001 811724.39307071 16473.94733348
0.12300001 802955.05940380 17921.95777028
0.12400001 794236.42445607 16381.12702624
0.12500001 785569.07273259 16331.98179168
0.12600001 776957.10900827 16281.13698649
0.12700001 768398.76922535 14753.25706439
0.12800001 759895.42048973 22055.96561920
0.12900001 751448.58657569 16118.57294175
0.13000001 743059.33714011 17521.33999563
0.13100001 734727.01847070 16002.35521660
0.13200001 726453.71157020 14492.75222902
0.13300001 718241.11204929 23098.63525244
0.13400001 710088.06282210 17255.14074008
0.13500001 701996.56005013 22913.16880035
0.13600001 693966.14592105 17113.20596531
0.13700001 685999.00410460 15620.19806001
0.13800001 678093.61887261 16965.90314423
0.13900001 670252.73878580 14075.30817827
0.14000001 662475.93890012 15412.50344537
0.14100001 654763.20123454 20919.68526608
0.14200001 647115.34351721 13880.62477313
0.14300001 639533.94518549 15195.32725433
0.14400001 632016.36266707 16495.62784371
0.14500001 624566.35286925 17781.40490497
0.14600001 617182.44974306 20413.31048824
0.14700001 609866.90710734 18954.66436711
0.14800001 602615.46042673 18855.83864635
0.14900001 595432.65689083 24115.02374184
0.15000001 588316.71238474 15990.44899709
0.15100001 581268.84397261 14578.22329471
0.15200001 574288.51604891 18451.89089134
0.15300001 567377.28633592 17038.34071269
0.15400001 560531.27407781 14335.58801105
0.15500001 553755.12898614 16845.23181874
0.15600001 547044.33173485 15459.47354444
0.15700001 540404.91031759 19211.39546851
0.15800001 533829.52706915 15278.20178583
0.15900001 527324.16619206 15186.93670316
0.16000001 520884.14763953 15095.22331113
0.16100001 514514.75504610 13752.98005158
0.16200001 508211.04221949 14910.91268261
0.16300001 501974.75942477 13583.43763128
0.16400001 495805.38764796 15952.53910069
0.16500001 489702.37170390 14632.30755732
0.16600001 483666.84455275 15750.61153649
0.16700001 477696.18663045 20464.50560147
0.16800001 471791.06343331 13155.89442501
0.16900001 465953.74494030 15446.36737412
0.17000001 460180.11623827 14164.34464665
0.17100001 454471.22980906 17588.03742414
0.17200001 448827.90435601 15141.21006846
0.17300001 443248.49637070 12725.66493177
0.17400001 437733.21531595 13788.59693363
0.17500001 432281.07558348 15977.10930813
0.17600001 426890.63353341 14734.13091229
0.17700001 421564.74933893 11255.77933897
0.17800001 416299.27309872 17884.21761703
0.17900001 411096.45459634 15539.44671773
0.18000001 405954.47511742 13225.99742406
0.18100001 400874.84350553 14227.04886805
0.18200001 395852.61468652 11952.77026508
0.18300001 390891.37037241 12946.32279831
0.18400001 385988.62755457 11782.30341271
0.18500001 381146.18138069 13824.17265176
0.18600001 376359.97243087 11612.58749797
0.18700001 371631.33142999 11528.00444560
0.18800001 366959.40065041 13524.28934994
0.18900001 362345.90453164 16522.97402731
0.19000001 357784.10171556 13325.66949802
0.19100001 353282.13633447 11191.97860790
0.19200001 348831.61011290 10098.67558994
0.19300001 344437.22262679 13030.06074768
0.19400001 340094.35151938 12932.08832762
0.19500001 335805.43565395 10859.94830224
0.19600001 331568.48163757 15676.55855264
0.19700001 327382.66652643 9723.26565533
0.19800001 323248.42907291 12543.65588297
0.19900001 319164.84155812 10532.44026918
0.20000001 315129.85330453 11401.39863140
0.20100001 311145.41439960 11313.24780226
0.20200001 307208.13831266 9354.48825375
0.20300001 303320.18700751 10209.75797723
0.20400001 299479.16221209 10129.88314062
0.20500001 295684.37902618 10963.97729252
0.20600001 291935.81184973 16316.29329552
0.20700001 288233.28789678 9892.16690821
0.20800001 284574.32963112 13382.10848348
0.20900001 280962.44151687 12390.44425661
0.21000001 277391.85534571 9657.39790039
0.21100001 273865.16708200 12192.47781487
0.21200001 270380.70999745 12957.99613921
0.21300001 266937.40627505 11996.16760513
0.21400001 263536.41656851 9348.95481975
0.21500001 260177.14592683 9272.71391922
0.21600001 256856.70590146 9196.75478961
0.21700001 253576.50681168 8291.95216478
0.21800001 250335.21097469 10690.56569013
0.21900001 247131.58273763 9786.41113913
0.22000001 243965.78810150 12939.94601274
0.22100001 240838.87033847 12831.89561837
0.22200001 237748.71992998 10338.50357501
0.22300001 234693.57895079 10251.41601331
0.22400001 231674.01676891 7818.99843568
0.22500001 228691.86638466 9303.18556445
0.22600001 225742.18341531 9223.82605053
0.22700001 222829.01221607 8382.82783599
0.22800001 219948.32793060 12843.88321690
0.22900001 217100.03721278 9736.93712946
0.23000001 214285.93928573 13365.01466531
0.23100001 211504.52136350 8096.39346070
0.23200001 208753.29316104 8025.52073513
0.23300001 206034.01053873 7231.79411193
0.23400001 203346.55031856 8601.55948529
0.23500001 200687.50097581 11366.94059288
0.23600001 198060.43372299 8449.25850225
0.23700001 195462.10388205 6977.99743863
0.23800001 192893.06128619 6915.21657419
0.23900001 190352.66307257 8908.50505316
0.24000001 187840.26884881 6790.42604007
0.24100001 185357.21943813 9419.85433742
0.24200001 182901.05029985 9333.44103829
0.24300001 180472.03285742 9247.38740104
0.24400001 178069.60187043 9161.68144961
0.24500001 175693.78320434 7131.41099761
0.24600001 173344.13274210 7064.64046410
0.24700001 171020.48875715 7634.35497927
0.24800001 168722.33944796 8822.49154710
0.24900001 166448.19904876 7490.16931153
0.25000001 164199.97754732 6800.34239183
0.25100001 161974.87266332 7959.44561923
0.25200001 159775.90078001 6063.49572146
0.25300001 157600.35621506 6004.57385587
0.25400001 155447.75553844 7729.64000985
0.25500001 153318.30256535 10008.61926499
0.25600001 151212.35137204 6412.16006331
0.25700001 149128.57653832 6925.53142211
0.25800001 147067.75773463 6856.29918999
0.25900001 145029.21707900 6221.75370707
0.26000001 143012.72253001 12877.58120952
0.26100001 141016.96619250 6096.16373695
0.26200001 139043.99030265 8227.92851548
0.26300001 137091.18763586 7057.45467344
0.26400001 135159.98483095 8596.17544200
0.26500001 133249.97556921 6380.00913215
0.26600001 131359.51863251 6839.23366123
0.26700001 129490.52504756 6246.62322389
0.26800001 127642.12153660 5665.39583249
0.26900001 125812.25486610 7133.55518848
0.27000001 124003.40494091 6048.88637926
0.27100001 122213.61590032 5484.94734117
0.27200001 120444.79512225 5425.43605303
0.27300001 118694.24393289 7317.50048476
0.27400001 116961.13479668 5789.57644643
0.27500001 115249.86891831 5725.61375883
0.27600001 113554.93351672 4718.20771091
0.27700001 111880.64641438 7464.67708205
0.27800001 110223.63557716 5074.14530394
0.27900001 108586.17459647 5928.80541356
0.28000001 106965.60343900 4959.46043817
0.28100001 105364.03710251 4902.58887841
0.28200001 103780.91021184 4846.04983170
0.28300001 102215.00121797 6096.10296117
0.28400001 100666.83801291 4733.85828161
0.28500001 99136.55404340  5528.84588069
0.28600001 97623.75092845  4622.97294403
0.28700001 96128.14066496  4568.00946061
0.28800001 94649.16457847  4923.64977442
0.28900001 93189.32296352  6080.60361119
0.29000001 91744.75620905  4405.12467789
0.29100001 90318.18628213  5538.31144497
0.29200001 88908.21950863  4298.26807560
0.29300001 87515.22738804  4631.30605260
0.29400001 86138.04167525  4192.76937701
0.29500001 84778.63670286  3764.17164779
0.29600001 83434.98318845  3717.02867700
0.29700001 82107.77667749  4771.28312859
0.29800001 80796.73059451  4348.48024645
0.29900001 79502.65867924  4650.90575291
0.30000001 78223.74547529  4944.52318557
0.30100001 76961.95216932  3835.01425815
0.30200001 75714.50326349  5161.83650435
0.30300001 74484.45725465  5094.73711741
0.30400001 73269.87081638  4022.51609825
0.30500001 72070.87985863  3969.66425055
0.30600001 70886.50443774  5875.78263102
0.30700001 69718.96341138  4187.32114073
0.30800001 68566.20883362  3813.65271588
0.30900001 67429.08357726  3448.99778827
0.31000001 66307.43413837  3711.89033880
0.31100001 65200.10007444  3051.36482795
0.31200001 64108.61034902  3912.86921791
0.31300001 63031.62231749  3265.66850689
0.31400001 61970.62474649  3220.92337370
0.31500001 60923.33880025  4909.20287296
0.31600002 59891.46932276  3702.19135148
0.31700002 58874.13938677  3650.78555623
0.31800002 57871.54950696  3599.89990753
0.31900002 56883.58261501  4095.61814220
0.32000002 55910.16814874  2961.28219621
0.32100002 54950.37034713  2919.51331478
0.32200002 54006.35811746  2878.26899216
0.32300002 53074.58598859  2837.36750130
0.32400002 52157.77987155  2796.96107805
0.32500002 51254.92651890  4260.82224327
0.32600002 50366.36411037  3211.61135957
0.32700002 49490.96242999  2921.94656023
0.32800002 48630.19420951  4079.83033640
0.32900002 47782.28560126  2601.74557419
0.33000002 46948.88943777  2797.21496516
0.33100002 46126.67782353  2526.81953083
0.33200002 45320.65809752  3169.27377084
0.33300002 44526.68515712  2676.94443841
0.33400002 43746.23947834  2418.07350167
0.33500002 42977.96555104  3465.74330616
0.33600002 42223.60164254  2134.40316411
0.33700002 41481.25940359  2523.71994163
0.33800002 40752.84772682  2486.73888606
0.33900002 40035.82269274  2246.00975943
0.34000002 39332.25156399  2615.39819161
0.34100002 38640.56501358  2576.93940280
0.34200002 37962.09536708  2734.40985879
0.34300002 37294.79344272  1924.41143278
0.34400002 36641.01774902  2085.79003415
0.34500002 35998.30343395  1868.31203671
0.34600002 35368.44607390  2209.11324640
0.34700002 34748.97042589  2539.45487900
0.34800002 34142.65979675  2502.31565502
0.34900002 33547.20583532  2113.47406772
0.35000002 32963.58051451  2082.63911554
0.35100002 32391.78360606  2052.34350648
0.35200002 31830.10283774  2528.10603763
0.35300002 31280.03713939  2159.26106600
0.35400002 30741.34981707  1964.37234635
0.35500002 30213.69797695  1613.41154839
0.35600002 29695.93808042  2067.28282738
0.35700002 29189.44037384  2351.20953348
0.35800002 28693.82233670  1545.16240602
0.35900002 28208.70879680  1675.59738190
0.36000002 27734.16979371  1651.98590201
0.36100002 27269.04083464  2221.06348119
0.36200002 26815.24016925  2044.12585493
0.36300002 26370.37115035  2015.75126621
0.36400002 25935.53019973  1845.96144940
0.36500002 25510.29976124  2100.77328485
0.36600002 25095.10036237  1657.78240846
0.36700002 24688.96732619  1907.96348535
0.36800002 24293.57766283  1882.50942226
0.36900002 23906.49958082  1724.85402646
0.37000002 23528.17073923  1702.14559276
0.37100002 23159.02792762  1679.95596545
0.37200002 22799.41662194  1403.19016247
0.37300002 22448.05849158  1259.33614103
0.37400002 22105.55523680  1367.78129507
0.37500002 21771.92992773  1596.31797792
0.37600002 21446.83398877  1455.38222342
0.37700002 21129.48066146  1677.25825436
0.37800002 20820.43968231  1183.64205201
0.37900002 20520.08857575  1403.57412507
0.38000002 20227.50866435  1387.20260992
0.38100002 19941.81030406  1371.19894146
0.38200002 19664.79278256  1581.63935843
0.38300002 19394.80137963  1228.85467363
0.38400002 19133.13999641  1325.92666457
0.38500002 18877.66352016  1420.92180048
0.38600002 18630.65666148  1189.66063748
0.38700002 18389.85762595  1284.34771744
0.38800002 18156.47381365  1165.37332694
0.38900002 17929.26614887  1048.86211940
0.39000002 17710.10911774  1142.56774386
0.39100002 17496.57871738  1337.43854052
0.39200002 17290.00469778  1223.09499027
0.39300002 17089.59591141  1211.99419946
0.39400002 16896.76486254  1401.58671175
0.39500002 16708.91081660  1389.51308934
0.39600002 16527.41044287  1181.04880620
0.39700002 16351.67104992  976.19480793
0.39800002 16182.15858758  1355.90313229
0.39900002 16018.10735506  1153.30378421
0.40000002 15859.63307488  1335.53976451
0.40100002 15707.05551992  1041.84904200
0.40200002 15559.96809572  1316.84016233
0.40300002 15417.61210739  1494.89174076
0.40400002 15280.93374822  1021.14844611
0.40500002 15149.50100437  1291.64651683
0.40600002 15022.94886924  1559.15682227
0.40700002 14901.28508545  1185.54629757
0.40800002 14784.45593117  907.02641435
0.40900002 14672.20691532  1173.04299846
0.41000002 14565.10392164  1077.52643918
0.41100002 14461.93018193  983.12206035
0.41200002 14363.10576794  978.77388893
0.41300002 14269.36234411  1063.35293227
0.41400002 14179.09889555  1059.17873768
0.41500002 14093.35542507  879.42542019
0.41600002 14011.04226647  964.02980882
0.41700002 13933.06450300  960.96350431
0.41800002 13859.80255096  1393.74181057
0.41900002 13788.41885503  1042.40451483
0.42000002 13721.91341078  866.53887295
0.42100002 13659.21162632  864.62813692
0.42200002 13599.98279618  1035.50273917
0.42300002 13543.57546861  861.37144062
0.42400002 13490.50166744  1204.02733087
0.42500002 13441.04201107  944.77088773
0.42600002 13393.82291648  1029.44927814
0.42700002 13350.99050990  1199.98708389
0.42800002 13310.27431306  942.16781190
0.42900002 13273.50970455  856.14141651
0.43000002 13238.93469591  1283.84575297
0.43100002 13206.30897995  1026.92263494
0.43200002 13177.45411948  855.87568562
0.43300002 13150.89339113  1369.79712053
0.43400002 13126.90629835  856.53067656
0.43500002 13105.21067117  857.08081851
0.43600002 13086.28556234  1286.70908889
0.43700002 13069.02647116  1373.81612775
0.43800002 13054.02083765  1289.41096934
0.43900002 13041.93780449  1291.15190383
0.44000002 13031.38208825  1293.03894898
0.44100002 13023.24231664  1036.12920781
0.44200002 13016.82781984  1210.95554947
0.44300002 13012.49697912  1386.61174381
0.44400002 13010.33301670  1128.97170103
0.44500002 13008.66510449  1218.39163143
0.44600002 13009.23632425  872.26933688
0.44700002 13012.46265792  1224.21254487
0.44800002 13015.81773790  876.61536619
0.44900002 13022.31383374  879.00622543
0.45000002 13029.63058825  1057.74546128
0.45100002 13038.08106990  1237.57471381
0.45200002 13048.21743893  1152.61434209
0.45300002 13059.32159781  978.27382726
0.45400002 13072.08744655  1249.03801471
0.45500002 13086.03466830  1074.10177648
0.45600002 13101.08032869  898.07909910
0.45700002 13117.25936799  1531.96479419
0.45800002 13134.10341534  1175.56798190
0.45900002 13152.09994767  998.24443334
0.46000002 13171.81868716  1092.99756646
0.46100002 13191.27436060  1005.57089217
0.46200002 13212.61018114  1284.66214880
0.46300002 13234.69274115  1381.70198766
0.46400002 13256.82359428  1109.59618743
0.46500002 13280.34675284  1113.95553843
0.46600002 13304.19913389  1211.54695155
0.46700002 13328.54695507  1309.92965683
0.46800002 13354.44900376  1315.27974472
0.46900002 13379.91272154  943.28389158
0.47000002 13406.24504700  1041.86638321
0.47100002 13433.13167879  1046.17234473
0.47200002 13460.74227634  1050.54368075
0.47300002 13488.80512515  1150.86490783
0.47400002 13516.59194797  963.05722194
0.47500002 13545.13273676  1644.10828951
0.47600002 13574.49726560  1068.38085793
0.47700002 13603.31773141  1560.57268412
