# SAXS profile: number of points = 501, q_min = 0, q_max = 0.5, delta_q = 0.001
#    q    intensity    error
0.00000000 1646666.22097350 444.59987966
0.00100000 1646580.54311233 642.16642706
0.00200000 1646323.50173150 1037.18383893
0.00300000 1645895.28264928 1580.05952763
0.00400000 1645295.79167315 1974.35502503
0.00500000 1644525.65189989 2072.10240341
0.00600000 1643584.73292336 2416.06965576
0.00700000 1642473.73549211 2759.35599031
0.00800000 1641192.49630859 2215.60996356
0.00900000 1639742.39359385 3197.49780419
0.01000000 1638122.75565703 2973.19292990
0.01100000 1636335.22392441 2945.40353130
0.01200000 1634379.73750977 4461.85687903
0.01300000 1632257.48850035 4113.28905244
0.01400000 1629968.79295521 4034.17294140
0.01500000 1627515.05972618 5468.45084418
0.01600000 1624896.05035865 4557.83362501
0.01700000 1622113.85567992 6131.59064953
0.01800000 1619169.07902405 4614.63208287
0.01900000 1616062.55575338 6787.46304043
0.02000000 1612795.22593817 5588.33571067
0.02100000 1609369.62833394 5310.92001429
0.02200000 1605784.51056182 5539.95681313
0.02300000 1602042.84436932 8074.29630315
0.02400000 1598145.38798822 7191.65457387
0.02500000 1594094.37625568 6838.66518646
0.02600000 1589890.18921226 7082.96111690
0.02700000 1585534.93541923 7325.17173714
0.02800000 1581028.69917981 10316.21273525
0.02900000 1576375.21607237 8512.42655763
0.03000000 1571574.90757912 10961.73548422
0.03100000 1566629.35066319 9023.78547503
0.03200000 1561539.82423118 10048.50923174
0.03300000 1556310.43852187 11112.05704332
0.03400000 1550939.67527738 9770.92040508
0.03500000 1545431.57429778 10848.93015255
0.03600000 1539786.76767559 11964.14373775
0.03700000 1534008.37435708 8743.84813822
0.03800000 1528097.57822125 14302.99399409
0.03900000 1522057.21548355 12785.28120215
0.04000000 1515887.05935676 12119.51760116
0.04100000 1509591.62472951 13314.59874747
0.04200000 1503172.02501655 12604.09801450
0.04300000 1496630.20939167 12841.08779264
0.04400000 1489969.00020514 14080.20770585
0.04500000 1483190.66560554 12280.81928184
0.04600000 1476295.70243791 11448.67370462
0.04700000 1469288.31671599 14810.42692130
0.04800000 1462170.08783587 12896.34077475
0.04900000 1454943.54235589 12003.28478316
0.05000000 1447610.31212985 13289.06328417
0.05100000 1440174.53388317 12356.69807634
0.05200000 1432635.31490621 18223.12205483
0.05300000 1424998.07150532 16159.47888419
0.05400000 1417263.59254880 15200.15273893
0.05500000 1409435.86221696 23678.52358983
0.05600000 1401515.38815586 14379.54855349
0.05700000 1393506.94959562 16972.91543835
0.05800000 1385410.33210105 19617.41121853
0.05900000 1377228.99119978 14874.07379966
0.06000000 1368967.13122522 12526.04983591
0.06100000 1360625.60453830 12653.81871354
0.06200000 1352207.59686885 19167.54358157
0.06300000 1343716.11898364 15479.61041445
0.06400000 1335150.70902431 14319.49202396
0.06500000 1326517.49927611 15759.02862857
0.06600000 1317818.06255400 15892.88657801
0.06700000 1309053.04264133 13352.34165982
0.06800000 1300227.46390077 14803.09036943
0.06900000 1291343.96969987 14915.02354834
0.07000000 1282402.89850795 17754.86896128
0.07100000 1273408.01209422 13752.80717477
0.07200000 1264361.54085134 16613.71142509
0.07300000 1255267.02156609 19506.85042914
0.07400000 1246127.08536898 15420.82340412
0.07500000 1236942.24281799 19741.59912071
0.07600000 1227715.92757039 17016.14355385
0.07700000 1218452.08545025 18532.65708867
0.07800000 1209151.50451138 24358.35820070
0.07900000 1199816.50192376 15837.57856824
0.08000000 1190452.06010604 14463.99320881
0.08100000 1181058.73428193 18885.13004722
0.08200000 1171637.96487754 16045.58268194
0.08300000 1162193.49431105 17572.36645869
0.08400000 1152728.05697665 20576.19678285
0.08500000 1143243.51566180 17697.41045325
0.08600000 1133742.65494653 14795.34234172
0.08700000 1124227.23398058 16323.78020393
0.08800000 1114699.32697527 20833.73139960
0.08900000 1105162.24693795 16411.66013788
0.09000000 1095617.68264762 16450.70027773
0.09100000 1086068.05465712 16486.51384425
0.09200000 1076514.93132107 21024.33759657
0.09300000 1066962.56299923 15044.17284525
0.09400000 1057409.98477959 19588.52088865
0.09500000 1047860.96661329 15089.19862846
0.09600000 1038317.22607578 19639.77125445
0.09700000 1028783.95058814 16635.43726309
0.09800000 1019259.43452494 24217.60530297
0.09900000 1009747.96628577 16660.84222715
0.10000000 1000248.57417991 15153.76661146
0.10100000 990765.63101752 16674.58635426
0.10200000 981300.58565849 15161.09476155
0.10300000 971855.28134465 16677.03741237
0.10400000 962432.16271167 21221.63018617
0.10500000 953034.14716415 18183.89238343
0.10600001 943657.82856511 21203.99240558
0.10700001 934311.10662406 18163.00876748
0.10800001 924991.83649625 15123.61723846
0.10900001 915703.81492661 19641.84775463
0.11000001 906448.32686302 18110.83842319
0.11100001 897225.73654957 18088.07170031
0.11200001 888039.33105365 16557.49410697
0.11300001 878889.21768809 19537.70822906
0.11400001 869777.70522424 18004.39934587
0.11500001 860706.55619246 22464.44217443
0.11600001 851676.90800254 20925.70261504
0.11700001 842689.90065924 20881.85672177
0.11800001 833746.63778497 20835.32945956
0.11900001 824848.13066832 19301.44716677
0.12000001 815996.03392060 16291.36158463
0.12100001 807193.38897546 16248.80368553
0.12200001 798439.26617818 14731.20515499
0.12300001 789735.92531214 19095.81557374
0.12400001 781083.50182877 20503.44288908
0.12500001 772482.62049293 21899.88332291
0.12600001 763937.32992671 14553.00682089
0.12700001 755445.61661033 20306.37913145
0.12800001 747009.27648904 15900.09319943
0.12900001 738629.59837332 17283.93341656
0.13000001 730307.68158939 18655.71060554
0.13100001 722042.90255110 17155.74017329
0.13200001 713837.24080913 21361.58043821
0.13300001 705692.36558396 24113.50926879
0.13400001 697607.40169798 15539.20560543
0.13500001 689583.85454982 15474.26242568
0.13600001 681621.72054502 16808.79242119
0.13700001 673722.88320160 19524.49007583
0.13800001 665886.03848775 18048.84192432
0.13900001 658113.70058679 15202.42720047
0.14000001 650405.43594396 15131.68318086
0.14100001 642761.48654020 16428.98437081
0.14200001 635182.54978077 14987.13296895
0.14300001 627670.07155713 14913.44160363
0.14400001 620221.43158876 17536.76180538
0.14500001 612840.69176259 17447.57531752
0.14600001 605525.88749642 18692.58502882
0.14700001 598279.67933420 17266.35236015
0.14800001 591097.45210947 15853.23441351
0.14900001 583984.17443561 19709.46681711
0.15000001 576937.54379627 16987.92677862
0.15100001 569959.09938424 19492.60211870
0.15200001 563048.22819799 15506.34893627
0.15300001 556206.46636141 17987.71797095
0.15400001 549430.05444805 15329.09924250
0.15500001 542723.46947987 15239.67574220
0.15600001 536082.25715248 13887.21152694
0.15700001 529512.37565055 15059.33267425
0.15800001 523006.53260329 12473.70639133
0.15900001 516570.93358345 13637.47329030
0.16000001 510200.33428961 14785.60638563
0.16100001 503900.55941845 14693.74100625
0.16200001 497666.27700449 13384.73515188
0.16300001 491499.54321854 14509.06720075
0.16400001 485399.63632461 14416.36987943
0.16500001 479366.11355208 19097.94686555
0.16600001 473399.96826912 16602.13767104
0.16700001 467498.71423453 15315.25860143
0.16800001 461662.76776987 11703.15171555
0.16900001 455894.64407855 15112.90816481
0.17000001 450190.26747271 11547.38090594
0.17100001 444550.52915993 13763.28503271
0.17200001 438976.40344588 14808.86966956
0.17300001 433465.81996677 13576.15012249
0.17400001 428019.23014149 12359.05585400
0.17500001 422636.07047751 13389.11134506
0.17600001 417314.37267627 13295.63654141
0.17700001 412056.96724740 16502.88231770
0.17800001 406860.19800446 13109.03619887
0.17900001 401725.67504241 11931.25311232
0.18000001 396652.15941692 12922.92796422
0.18100001 391640.61776729 12830.14724411
0.18200001 386686.51467404 14860.36346090
0.18300001 381793.06401428 10537.48906458
0.18400001 376958.22288155 14644.82765078
0.18500001 372183.43457492 14537.48564128
0.18600001 367464.81501109 13399.60511242
0.18700001 362803.50111100 15346.58882204
0.18800001 358198.85405563 10154.93799226
0.18900001 353652.43035207 12094.91368949
0.19000001 349157.69604252 14004.71584997
0.19100001 344722.47610704 11913.60933718
0.19200001 340338.67303056 12808.64656473
0.19300001 336010.76166349 10755.70498908
0.19400001 331734.18034947 13584.51532723
0.19500001 327511.43140016 10591.72019199
0.19600001 323340.50288983 12421.12600549
0.19700001 319220.33650854 12325.09777505
0.19800001 315151.72741870 9407.27950802
0.19900001 311133.62768713 9334.00927174
0.20000001 307163.80863629 10187.08819488
0.20100001 303244.45326899 10107.13810514
0.20200001 299372.00085827 9115.87785698
0.20300001 295548.76231220 14470.06808673
0.20400001 291772.16381146 10766.39335352
0.20500001 288041.49170806 12460.67552027
0.20600001 284356.94338941 10595.14021150
0.20700001 280718.25659544 14889.29703363
0.20800001 277122.90516848 13031.70523156
0.20900001 273574.24489538 9479.34803373
0.21000001 270066.88170630 10257.14065208
0.21100001 266603.05275217 9325.77522613
0.21200001 263181.31414530 10090.37206135
0.21300001 259800.44370579 13343.35141954
0.21400001 256461.78343310 9925.07148808
0.21500001 253164.36250805 9022.77830636
0.21600001 249905.61924472 8947.87112010
0.21700001 246686.94871000 8066.66360421
0.21800001 243506.89000484 8799.12188635
0.21900001 240364.21397994 9518.42332365
0.22000001 237259.23621680 9438.17286296
0.22100001 234192.81244361 9358.34522774
0.22200001 231162.82091423 9278.87607024
0.22300001 228167.70660311 9199.72236525
0.22400001 225207.88753198 12161.22650179
0.22500001 222285.09161809 8289.01145840
0.22600001 219394.63175608 11952.62010329
0.22700001 216540.26165120 8886.81275841
0.22800001 213718.34211512 11011.83809823
0.22900001 210928.41914910 7277.03080478
0.23000001 208172.34140500 7934.48916789
0.23100001 205448.80165107 8579.54236270
0.23200001 202755.20686803 8503.55377821
0.23300001 200093.08989815 7023.26778759
0.23400001 197462.55778015 9048.72213824
0.23500001 194860.35770887 6898.05698915
0.23600001 192289.55391277 10253.84094737
0.23700001 189747.41129162 8806.17777456
0.23800001 187234.30540114 7383.58518273
0.23900001 184749.41580942 7981.17514047
0.24000001 182292.28431246 10543.78622336
0.24100001 179864.19178122 7181.97751754
0.24200001 177462.74822620 9055.92447035
0.24300001 175088.10604801 6408.22498448
0.24400001 172739.68758201 8252.63896461
0.24500001 170417.73174087 7546.09751845
0.24600001 168121.51595947 7474.68295315
0.24700001 165851.04962402 9871.45494060
0.24800001 163605.70123643 9166.00984538
0.24900001 161384.22778454 7867.48147669
0.25000001 159188.27338997 6592.78265434
0.25100001 157015.21817877 8309.24573912
0.25200001 154867.77771413 6464.95568653
0.25300001 152743.68678226 8729.30211259
0.25400001 150642.09023730 6914.47226902
0.25500001 148563.40121294 6275.31836413
0.25600001 146507.95109556 7342.24631654
0.25700001 144474.22389758 8386.72909406
0.25800001 142463.24143728 9962.45494507
0.25900001 140474.22713849 6574.19414114
0.26000001 138506.94168480 6507.05642824
0.26100001 136559.96924946 5903.48774998
0.26200001 134635.56258866 6373.64783453
0.26300001 132731.15347267 8409.84628196
0.26400001 130847.76744227 5721.31890214
0.26500001 128985.32414076 8234.42348279
0.26600001 127142.23109137 6110.45591540
0.26700001 125320.25716757 6549.23694949
0.26800001 123518.57988815 6977.56490807
0.26900001 121735.00415671 5916.32148199
0.27000001 119972.20812337 5364.55754010
0.27100001 118228.09830575 5788.44796698
0.27200001 116504.64559828 6202.12510193
0.27300001 114799.20411999 6605.54651767
0.27400001 113110.84472140 4665.82256557
0.27500001 111444.10354457 6459.30054713
0.27600001 109793.38876656 7755.25638255
0.27700001 108162.78887932 6314.54391362
0.27800001 106549.21163459 5796.81013333
0.27900001 104955.08806789 7052.98225196
0.28000001 103377.36584176 4357.35617646
0.28100001 101818.37456947 5168.30093776
0.28200001 100277.49718809 4682.45795282
0.28300001 98753.53165961  5048.28077738
0.28400001 97246.90105759  4988.76626038
0.28500001 95757.98936271  6162.02690715
0.28600001 94286.08694248  4464.91785849
0.28700001 92831.14185481  4411.33606974
0.28800001 91392.53643693  4754.23997048
0.28900001 89972.66319102  6653.47875791
0.29000001 88567.92679224  5412.38626246
0.29100001 87180.66581825  4964.06734666
0.29200001 85809.87943885  4902.74769381
0.29300001 84455.61840469  4096.94224274
0.29400001 83116.84266674  4413.50455452
0.29500001 81795.57951979  5084.41346363
0.29600001 80489.83473967  3585.82230740
0.29700001 79200.09491262  4602.31773324
0.29800001 77926.31238269  4193.99433097
0.29900001 76669.06811552  4830.15151993
0.30000001 75426.78838917  4767.72751978
0.30100001 74201.35832597  3697.45386042
0.30200001 72989.77597241  4976.07821249
0.30300001 71795.44615427  3601.25974959
0.30400001 70616.35619102  3876.83813842
0.30500001 69452.36465667  4463.00916413
0.30600001 68302.73884854  4718.01190933
0.30700001 67169.66683693  4034.21038122
0.30800001 66050.99090848  5204.48807503
0.30900001 64947.80319967  3322.08029094
0.31000001 63859.72371420  4170.67875323
0.31100001 62785.65774015  4407.55338204
0.31200001 61727.19444620  2898.09191646
0.31300001 60682.72201980  4001.41887944
0.31400001 59654.05042826  3382.38481943
0.31500001 58638.92699714  3335.38232552
0.31600002 57638.82389488  3562.94406776
0.31700002 56653.02285764  3783.28904556
0.31800002 55681.56880447  2930.79951279
0.31900002 54724.49184758  3414.80845298
0.32000002 53781.65461535  3107.50415081
0.32100002 52852.26115782  4084.42293567
0.32200002 51938.19409331  2516.40562297
0.32300002 51036.34556814  3720.54976809
0.32400002 50148.87582491  3178.18515590
0.32500002 49275.13920186  2891.46530528
0.32600002 48415.46082764  2612.25631265
0.32700002 47568.67048829  3744.60591815
0.32800002 46736.23885533  3229.00689542
0.32900002 45916.42384715  2500.14939687
0.33000002 45110.79925992  2687.70154718
0.33100002 44315.93726804  2427.62715850
0.33200002 43537.27560182  3696.96793280
0.33300002 42770.25626115  2785.62692220
0.33400002 42016.41286691  3800.38472378
0.33500002 41274.59372339  2288.26358439
0.33600002 40546.30264339  2254.57726525
0.33700002 39829.87656217  2221.31232107
0.33800002 39126.90641392  2387.52394244
0.33900002 38435.31570689  2548.26155205
0.34000002 37756.74292742  2510.63473986
0.34100002 37089.87816340  2473.52409186
0.34200002 36435.87226915  2624.47600384
0.34300002 35792.89380358  2216.29608928
0.34400002 35163.00546225  2365.59130451
0.34500002 34544.13698890  3047.82935088
0.34600002 33937.82672600  2296.40315417
0.34700002 33341.57665145  1914.47342200
0.34800002 32758.21771092  1886.38205623
0.34900002 32185.53385024  2703.58497147
0.35000002 31624.33642246  1665.02139150
0.35100002 31074.85319553  2297.05325701
0.35200002 30535.05462661  2748.61307240
0.35300002 30006.73570175  1912.02928948
0.35400002 29489.56905202  1570.31962640
0.35500002 28983.08028903  1547.69656074
0.35600002 28486.30212595  2440.70648175
0.35700002 28000.67411331  1653.99989821
0.35800002 27525.60789181  1630.47946070
0.35900002 27060.77274020  1899.66633634
0.36000002 26606.21578624  1872.94464899
0.36100002 26160.98157169  1704.64963995
0.36200002 25726.66591875  1400.81702563
0.36300002 25301.18410146  1934.02260432
0.36400002 24885.46509146  1498.72720612
0.36500002 24479.24449871  2015.86587996
0.36600002 24082.65084512  1590.89999019
0.36700002 23694.94353314  1831.14532298
0.36800002 23317.79901859  2323.15242627
0.36900002 22948.71345284  1655.74975405
0.37000002 22588.17402791  1382.73513862
0.37100002 22236.55495888  1737.11975567
0.37200002 21894.25684349  1837.47559263
0.37300002 21560.09391134  1451.42559087
0.37400002 21234.48733669  1552.77196005
0.37500002 20917.57094079  1651.65147973
0.37600002 20609.04635760  1281.98578940
0.37700002 20307.96925075  1266.60810217
0.37800002 20014.91236647  1365.41738632
0.37900002 19730.40017110  1124.63286303
0.38000002 19453.51175360  1334.12189926
0.38100002 19183.29117406  1319.04316362
0.38200002 18921.56398643  1087.04390252
0.38300002 18666.66972726  1397.76029539
0.38400002 18419.82195383  1170.11924505
0.38500002 18179.07940417  1263.08249684
0.38600002 17946.37453330  1458.50192742
0.38700002 17719.99704044  1340.69503959
0.38800002 17500.68327302  1429.63088430
0.38900002 17287.33911915  1516.96407957
0.39000002 17081.91182848  1202.22501145
0.39100002 16881.93669632  1191.18950973
0.39200002 16688.68521689  1377.31725620
0.39300002 16501.53181668  1170.28869188
0.39400002 16321.61953319  1547.28960505
0.39500002 16146.55419177  959.10536443
0.39600002 15977.67160600  1332.05854490
0.39700002 15814.36309821  1227.35277820
0.39800002 15657.18536780  937.08258866
0.39900002 15505.25073953  930.31508845
0.40000002 15358.60439584  1016.20210800
0.40100002 15217.82023287  1376.45190528
0.40200002 15082.29724833  1002.89740304
0.40300002 14951.33277020  1087.26097056
0.40400002 14825.88869273  1170.87461498
0.40500002 14705.62798863  895.57278694
0.40600002 14589.99721676  1157.93518397
0.40700002 14479.07526530  974.73139304
0.40800002 14372.82206485  969.94994300
0.40900002 14271.02684630  1053.20183116
0.41000002 14174.19411738  961.22301961
0.41100002 14081.20587612  870.21856438
0.41200002 13992.35718897  953.50922582
0.41300002 13908.46576512  1122.83049442
0.41400002 13827.80185456  946.85877686
0.41500002 13751.59565879  943.90957074
0.41600002 13678.71160222  1112.28448664
0.41700002 13609.93132270  1024.01128124
0.41800002 13545.85976242  936.49305905
0.41900002 13483.38844792  1189.23491746
0.42000002 13425.58041189  932.60798750
0.42100002 13371.67776902  846.42724289
0.42200002 13320.94945831  845.21428318
0.42300002 13272.96834407  844.16082668
0.42400002 13228.13466942  1096.28171268
0.42500002 13186.83554443  842.63883122
0.42600002 13147.58561773  1094.73376834
0.42700002 13112.71070392  1010.20328050
0.42800002 13079.61170305  925.84035827
0.42900002 13050.54554227  1094.28829557
0.43000002 13023.46247826  841.96688912
0.43100002 12998.17362723  926.50986005
0.43200002 12976.52740997  1095.67314378
0.43300002 12957.16129448  843.51124024
0.43400002 12940.09045967  1266.51141376
0.43500002 12925.32178114  1014.37930145
0.43600002 12913.12128464  1185.03719645
0.43700002 12902.52769944  1017.23533203
0.43800002 12894.07223248  1358.51951479
0.43900002 12888.38020991  850.63313417
0.44000002 12884.15141169  1022.74398753
0.44100002 12882.20213191  1110.31705437
0.44200002 12881.86156798  1112.79966429
0.44300002 12883.55620726  943.84937247
0.44400002 12887.21914649  1118.28849443
0.44500002 12891.31923715  1034.91515740
0.44600002 12897.65539265  951.26661857
0.44700002 12906.39686526  954.04090149
0.44800002 12915.20839973  1130.79112503
0.44900002 12927.13975373  959.84017220
0.45000002 12939.64330119  1400.58705730
0.45100002 12953.26564788  1405.17032408
0.45200002 12968.42851247  1057.44571102
0.45300002 12984.56071581  1149.52321465
0.45400002 13002.25829481  976.14458775
0.45500002 13020.98607207  1157.82613640
0.45600002 13040.70066923  1162.12209522
0.45700002 13061.46596367  1525.44868219
0.45800002 13082.87336568  1170.98263609
0.45900002 13105.32343279  1085.12083166
0.46000002 13129.38334058  1089.47628124
0.46100002 13153.19339623  1002.66798012
0.46200002 13178.60631282  1738.98307843
0.46300002 13204.85566218  1010.96379741
0.46400002 13230.98459117  1199.71958467
0.46500002 13258.46373672  926.76665912
0.46600002 13286.17393142  1396.04479201
0.46700002 13314.35929241  934.66806663
0.46800002 13343.96459428  1501.99672592
0.46900002 13373.04417048  942.79965870
0.47000002 13402.93142007  1136.30057965
0.47100002 13433.39100499  1236.40936670
0.47200002 13464.36524986  1146.35611171
0.47300002 13495.76487360  1343.36849919
0.47400002 13526.81215413  1060.16395283
0.47500002 13558.61166283  1161.70190233
0.47600002 13591.04346532  1264.17096785
0.47700002 13622.97145997  1269.79722997
0.47800002 13655.18043836  1471.68714150
