# SAXS profile: number of points = 501, q_min = 0, q_max = 0.5, delta_q = 0.001
#    q    intensity    error
0.00000000 1646666.22097350 370.49989972
0.00100000 1646580.86121358 592.76912411
0.00200000 1646324.74339561 963.10000538
0.00300000 1645898.09508488 1283.80055990
0.00400000 1645300.75581106 1233.97561375
0.00500000 1644533.42041219 1628.08815065
0.00600000 1643595.90191848 2588.66365091
0.00700000 1642488.93330531 3744.87492357
0.00800000 1641212.32803444 2658.76408367
0.00900000 1639767.45914589 3935.44207018
0.01000000 1638153.70110091 4054.43058529
0.01100000 1636372.65475528 3240.01799748
0.01200000 1634424.14518383 3187.12722284
0.01300000 1632309.61637300 3427.85034557
0.01400000 1630029.15217010 4401.07890596
0.01500000 1627584.22579574 5468.68324219
0.01600000 1624974.63792279 4558.05406313
0.01700000 1622202.48430922 6131.92566576
0.01800000 1619268.27152890 5999.38921597
0.01900000 1616172.91751314 5333.37086845
0.02000000 1612917.21764261 5588.75841194
0.02100000 1609503.84025358 5842.49920501
0.02200000 1605931.45868200 7756.64929784
0.02300000 1602203.18778510 6344.72491243
0.02400000 1598319.60989736 6593.06869145
0.02500000 1594282.90919345 6839.47399280
0.02600000 1590093.73269304 8371.84388554
0.02700000 1585753.80387705 10656.26605012
0.02800000 1581263.52840860 6878.49666402
0.02900000 1576626.41834546 8513.78304997
0.03000000 1571842.96812086 10232.69819282
0.03100000 1566914.80159424 12033.90622996
0.03200000 1561843.07528926 10050.46065239
0.03300000 1556631.81368448 10320.46940051
0.03400000 1551279.69512933 8144.21877521
0.03500000 1545790.72147876 11686.17839402
0.03600000 1540165.48826841 9402.71074041
0.03700000 1534406.95412239 9620.73204728
0.03800000 1528516.54822567 12518.55110932
0.03900000 1522496.92598003 11875.47657260
0.04000000 1516347.87607507 14920.86379200
0.04100000 1510073.87534339 10464.81244135
0.04200000 1503676.14394849 11638.45389410
0.04300000 1497156.37623920 11857.47905021
0.04400000 1490517.56435674 11067.09342933
0.04500000 1483762.00375046 10237.95830158
0.04600000 1476890.16923186 12494.49141253
0.04700000 1469906.20469215 13758.32271579
0.04800000 1462811.47614923 12901.99781994
0.04900000 1455608.77746301 12008.77297305
0.05000000 1448299.72812825 14403.34146694
0.05100000 1440888.33457277 12362.82248654
0.05200000 1433373.69513672 15953.44997032
0.05300000 1425761.21786528 15013.26632401
0.05400000 1418051.65777887 16378.49741114
0.05500000 1410249.02714260 13030.70161867
0.05600000 1402353.66883797 13189.13687088
0.05700000 1394370.83653208 13344.12952850
0.05800000 1386299.71918586 18403.12963148
0.05900000 1378144.22913218 13643.62850565
0.06000000 1369908.15156971 15041.59220696
0.06100000 1361592.47587433 15195.37274086
0.06200000 1353200.37079172 15345.29292207
0.06300000 1344734.72676115 19364.18097074
0.06400000 1336195.17533060 16936.27463937
0.06500000 1327588.38187012 14457.43815485
0.06600000 1318914.80685283 13255.09442906
0.06700000 1310176.07005401 14700.17619396
0.06800000 1301376.34333493 17510.01951920
0.06900000 1292519.11774978 17642.88678331
0.07000000 1283603.96488590 13670.38286620
0.07100000 1274635.11498811 19272.48384130
0.07200000 1265614.53674096 15244.32780919
0.07300000 1256545.63285438 22316.25148514
0.07400000 1247431.44175804 16840.32525294
0.07500000 1238272.04122612 15527.93212481
0.07600000 1229071.23647290 19874.08282548
0.07700000 1219832.58458646 17126.45029063
0.07800000 1210557.23823280 18648.63512953
0.07900000 1201247.10231864 15856.46249433
0.08000000 1191907.38903731 17378.01054738
0.08100000 1182538.56208922 18908.79249497
0.08200000 1173142.11647597 21908.43005325
0.08300000 1163721.67502609 21994.34069023
0.08400000 1154280.18133236 22075.60950418
0.08500000 1144819.35782303 20675.43857290
0.08600000 1135341.60362352 17779.45034752
0.08700000 1125849.31546817 16347.33282823
0.08800000 1116344.02886751 17883.83218235
0.08900000 1106829.17586376 14942.19457599
0.09000000 1097307.01091766 16476.06554290
0.09100000 1087778.90764969 15011.34963082
0.09200000 1078247.24815333 19554.01476404
0.09300000 1068715.92691423 19589.56386089
0.09400000 1059183.93058345 18112.04606420
0.09500000 1049655.21919413 19649.54662690
0.09600000 1040131.47183448 18160.69635192
0.09700000 1030617.57217461 27270.14224179
0.09800000 1021112.05257279 19712.56910176
0.09900000 1011619.02808431 19726.57197524
0.10000000 1002138.05858987 15182.39230162
0.10100000 992672.69450327 19744.26082228
0.10200000 983224.97334670 18228.99186327
0.10300000 973796.36741775 15191.22404632
0.10400000 964389.27388150 24302.61084513
0.10500000 955007.03390093 24295.38008552
0.10600001 945646.22933635 21248.67177301
0.10700001 936314.35266860 25786.09848593
0.10800001 927009.05107277 19703.57830784
0.10900001 917735.07997084 21199.68134510
0.11000001 908492.65406083 16639.04374232
0.11100001 899282.64041040 22661.92360512
0.11200001 890108.47321630 15087.33933128
0.11300001 880969.83579274 21090.41886183
0.11400001 871869.30903418 16543.72091788
0.11500001 862808.44766896 21018.01477491
0.11600001 853788.73106750 16482.39222944
0.11700001 844811.21645326 16448.47515898
0.11800001 835876.34132769 17904.47207451
0.11900001 826985.87839992 17862.89581481
0.12000001 818141.33422211 14849.26591560
0.12100001 809345.44890618 17773.22689524
0.12200001 800597.52343708 19202.33250429
0.12300001 791899.86455023 22094.00726190
0.12400001 783252.39045314 20560.37621815
0.12500001 774656.13392056 29282.00324198
0.12600001 766114.52561271 18972.82712086
0.12700001 757625.87860282 17455.70106563
0.12800001 749192.13653514 23194.98964029
0.12900001 740814.49413258 21668.82497467
0.13000001 732493.63539013 14393.50061385
0.13100001 724229.54574979 14339.74568179
0.13200001 716023.93586704 14284.67819393
0.13300001 707878.51843046 15651.19478034
0.13400001 699791.84569997 15587.86409787
0.13500001 691766.70733857 18345.65394358
0.13600001 683802.02367976 18267.77192394
0.13700001 675899.98452863 18188.46944131
0.13800001 668059.10992576 18107.74302842
0.13900001 660282.51251879 19412.30678350
0.14000001 652568.98891595 15182.01824312
0.14100001 644919.54207810 19231.50165178
0.14200001 637334.05402468 20506.22415543
0.14300001 629814.91198551 16324.80328867
0.14400001 622358.27383726 17597.18102281
0.14500001 614969.54593341 16161.40042950
0.14600001 607645.77251860 16078.30789933
0.14700001 600390.22857421 13328.66370315
0.14800001 593197.85313194 18561.16170019
0.14900001 586073.82546160 15823.99403405
0.15000001 579016.08891972 24917.95856236
0.15100001 572025.75551188 15650.62540928
0.15200001 565102.66057937 16859.83867395
0.15300001 558247.81730079 20632.84030108
0.15400001 551457.86609390 14103.53559091
0.15500001 544737.04587403 16570.90171752
0.15600001 538080.91414854 12671.80612624
0.15700001 531495.78470570 16375.38589965
0.15800001 524974.19119586 18780.95257647
0.15900001 518522.15669286 14933.43881762
0.16000001 512134.71141111 12368.05386438
0.16100001 505817.34748844 17207.90697384
0.16200001 499565.40738613 12214.37478718
0.16300001 493380.02572839 12137.14920589
0.16400001 487261.15356510 13265.68553208
0.16500001 481208.20112204 13180.29325099
0.16600001 475222.15529779 13094.74710747
0.16700001 469300.31506323 16556.91589716
0.16800001 463443.42850855 14097.94976088
0.16900001 457653.92438935 11670.17562297
0.17000001 451927.57557533 17387.91429131
0.17100001 446265.81485545 12665.02442366
0.17200001 440668.77760187 14865.96191441
0.17300001 435135.30607022 11357.03202476
0.17400001 429665.14670372 15790.19488707
0.17500001 424258.03152057 12320.45381722
0.17600001 418912.13153933 13346.54114119
0.17700001 413630.10043802 12148.31662364
0.17800001 408408.19533029 17545.21690009
0.17900001 403248.21213795 13065.24269039
0.18000001 398149.06741496 11890.72246001
0.18100001 393111.41305655 13951.52470840
0.18200001 388131.02346423 12785.03651685
0.18300001 383210.82593603 12691.94315456
0.18400001 378348.96107790 10499.18416590
0.18500001 373546.91786469 13548.54735101
0.18600001 368800.81963225 12413.83617529
0.18700001 364111.68460169 15401.92498631
0.18800001 359479.18310471 18344.22358053
0.18900001 354904.28310286 13149.20431023
0.19000001 350381.14327503 13049.94629787
0.19100001 345917.32712877 13947.38728885
0.19200001 341504.38375186 11863.86285212
0.19300001 337147.56857407 11773.19365092
0.19400001 332841.74009504 9735.62135783
0.19500001 328589.54193558 11592.63958730
0.19600001 324388.81504656 10544.25893137
0.19700001 320239.26058395 10462.21713770
0.19800001 316140.75757110 9436.80205947
0.19900001 312092.80411750 14044.17684901
0.20000001 308092.79867247 13004.59764658
0.20100001 304143.49221062 13823.32237429
0.20200001 300240.71165145 10056.56311207
0.20300001 296387.31784367 9976.39759015
0.20400001 292580.23007670 10796.21100012
0.20500001 288819.44028087 9816.97323916
0.20600001 285104.65217595 9737.74985535
0.20700001 281435.59493371 10536.94917239
0.20800001 277809.98254533 10451.21203739
0.20900001 274230.68164736 13821.22700837
0.21000001 270693.15336687 8567.43870906
0.21100001 267199.14279348 9346.62645676
0.21200001 263747.12239285 10954.73724647
0.21300001 260336.13167497 8356.79022184
0.21400001 256967.48340231 9944.64207782
0.21500001 253639.98567001 9861.52310908
0.21600001 250351.57303665 9778.73290514
0.21700001 247102.99831281 8888.29526955
0.21800001 243893.50420748 10415.47258963
0.21900001 240721.19510876 11915.69972128
0.22000001 237586.74951513 8663.60123071
0.22100001 234491.16099448 9370.26723640
0.22200001 231432.19904650 10837.97039382
0.22300001 228408.13817333 9976.86794717
0.22400001 225419.46286116 7607.90723131
0.22500001 222468.41760700 7541.67971350
0.22600001 219549.73668863 10465.93644286
0.22700001 216667.33958715 11115.03504644
0.22800001 213817.48867544 8813.55730000
0.22900001 210999.97212383 10191.29913554
0.23000001 208216.47094439 7214.70105942
0.23100001 205465.79236241 7865.23090360
0.23200001 202745.30960357 9211.73357749
0.23300001 200056.76798378 7724.19217717
0.23400001 197399.95714375 7654.18370026
0.23500001 194771.78469394 7584.41365470
0.23600001 192175.28242524 7515.01477468
0.23700001 189607.72225539 9476.59440655
0.23800001 187069.54100682 9389.02070722
0.23900001 184559.73629294 8637.39606705
0.24000001 182078.30842212 7240.34427688
0.24100001 179626.06595591 8476.55445341
0.24200001 177200.74909135 7104.86437089
0.24300001 174803.03534700 7037.57053597
0.24400001 172431.55900323 7604.23211175
0.24500001 170086.69183137 7531.43907056
0.24600001 167768.39183538 8080.56497500
0.24700001 165476.06859406 6155.71004290
0.24800001 163209.05447356 6095.85847296
0.24900001 160966.25897988 6639.85849703
0.25000001 158749.58341796 5976.92209844
0.25100001 156556.16301906 7693.17021471
0.25200001 154388.77480298 6444.95970906
0.25300001 152244.86340085 7540.68844100
0.25400001 150124.27276814 7464.92981657
0.25500001 148026.81989044 6821.07618327
0.25600001 145953.01885177 5626.48914294
0.25700001 143901.13185332 7796.56369269
0.25800001 141872.84793608 6614.11248372
0.25900001 139866.70551239 5454.80177308
0.26000001 137882.55505242 6477.72274286
0.26100001 135919.55702309 6944.13049688
0.26200001 133979.27469582 6871.12742790
0.26300001 132059.46210214 5752.51044136
0.26400001 130161.07850597 5691.29342698
0.26500001 128284.10218453 6142.24310324
0.26600001 126426.85472479 7088.75407986
0.26700001 124591.27741392 5509.42654795
0.26800001 122776.32409252 4954.02491156
0.26900001 120980.15585879 8819.45377946
0.27000001 119204.95580647 6299.38618769
0.27100001 117448.87326377 5750.29710711
0.27200001 115713.93823258 6633.88039281
0.27300001 113997.42885505 7027.94182150
0.27400001 112298.45116014 5558.77359549
0.27500001 110621.52449792 5037.70446405
0.27600001 108961.09412284 5432.80041008
0.27700001 107321.07185579 5817.87558064
0.27800001 105698.78978104 5308.19347403
0.27900001 104096.19694746 5246.44857446
0.28000001 102510.36102995 5184.97430629
0.28100001 100943.69457716 5550.89402752
0.28200001 99395.70747009  5907.08717453
0.28300001 97865.02849092  5419.76553435
0.28400001 96351.99804056  4942.85773343
0.28500001 94857.17428616  5697.12215728
0.28600001 93379.69839045  4823.99544718
0.28700001 91919.72884979  6353.49195882
0.28800001 90476.47888620  5098.80220897
0.28900001 89052.20556936  3873.77112563
0.29000001 87643.40631469  4208.19835339
0.29100001 86252.68400307  6800.16192869
0.29200001 84878.73213868  3730.42045408
0.29300001 83521.69228410  4788.29884531
0.29400001 82180.57566661  4727.43783900
0.29500001 80857.28441086  6462.11447601
0.29600001 79549.80009658  3543.94376206
0.29700001 78258.90157756  4547.62498595
0.29800001 76984.14488018  4143.28687359
0.29900001 75726.29069069  4089.21989088
0.30000001 74483.90282490  4035.53804609
0.30100001 73258.51998175  4314.19444596
0.30200001 72047.46103833  3602.01298513
0.30300001 70853.78771175  3554.02615987
0.30400001 69675.93814377  5100.27891358
0.30500001 68513.31415226  5031.61802955
0.30600001 67365.44109193  4032.83232189
0.30700001 66234.36249322  4284.03876888
0.30800001 65118.15069121  3018.22642743
0.30900001 64017.54546822  2976.81600521
0.31000001 62932.34478244  3229.37342540
0.31100001 61861.43590627  2895.11533748
0.31200001 60806.47696956  3425.83707466
0.31300001 59765.76422312  3377.96115382
0.31400001 58741.13583100  3053.07067937
0.31500001 57730.32350830  3283.70095663
0.31600002 56734.74896737  5125.70113815
0.31700002 55753.69303253  3989.17692536
0.31800002 54787.24662395  2883.72686259
0.31900002 53835.28159130  3876.14045811
0.32000002 52897.95332376  4329.96217434
0.32100002 51974.24062335  3012.42712917
0.32200002 51065.92866234  2721.55879693
0.32300002 50170.10928743  2438.26742682
0.32400002 49288.92023538  3604.25246288
0.32500002 48421.61935535  2367.81729860
0.32600002 47568.60974276  3733.18466939
0.32700002 46728.62421139  3218.66778809
0.32800002 45903.17005332  2265.32154940
0.32900002 45090.38894869  3124.76410211
0.33000002 44292.10138886  3958.38528857
0.33100002 43504.61139949  2599.83570035
0.33200002 42733.59077123  3842.17732819
0.33300002 41974.10086703  2523.48306363
0.33400002 41228.19179319  2278.88840929
0.33500002 40494.19164858  2040.90735574
0.33600002 39774.08244366  2613.75395156
0.33700002 39065.72954583  1980.63258177
0.33800002 38370.91214408  2146.27707242
0.33900002 37687.78039469  2498.69995850
0.34000002 37017.47172212  1893.44376826
0.34100002 36359.18819720  2238.27173142
0.34200002 35713.71532240  2572.45903650
0.34300002 35079.31292118  2534.12968544
0.34400002 34458.10287673  1783.20690832
0.34500002 33847.99713187  3689.09338212
0.34600002 33250.52631207  2249.89696946
0.34700002 32662.99974686  2046.01040104
0.34800002 32088.49071174  2183.78233881
0.34900002 31524.80852075  2317.07353602
0.35000002 30972.42864923  1956.83813474
0.35100002 30431.89249391  1606.80399978
0.35200002 29900.97122608  1899.90780169
0.35300002 29381.59474766  1560.16275500
0.35400002 28873.45675739  1845.01397418
0.35500002 28375.82142295  1666.79582933
0.35600002 27887.97403896  1642.74118857
0.35700002 27411.12466342  1766.37295697
0.35800002 26945.12713960  1596.09468171
0.35900002 26489.06697106  1859.53258945
0.36000002 26043.29752056  1410.24462754
0.36100002 25606.82048807  1529.49546020
0.36200002 25181.36113504  1919.57525025
0.36300002 24764.54317291  1487.35853342
0.36400002 24357.48190001  1733.64385635
0.36500002 23959.75479262  1973.08590063
0.36600002 23571.79479853  1686.91557466
0.36700002 23192.45408149  1280.22352594
0.36800002 22823.75435510  1389.62434973
0.36900002 22462.94333588  1496.03209704
0.37000002 22110.72444113  1476.55424812
0.37100002 21767.19168582  1214.60935360
0.37200002 21433.10326102  1678.85505796
0.37300002 21107.01734539  1894.56596667
0.37400002 20789.18257053  1520.20904748
0.37500002 20480.24877889  1270.59469443
0.37600002 20179.38709020  1141.14439401
0.37700002 19885.98078580  1465.79571316
0.37800002 19600.45085438  1448.57138901
0.37900002 19323.34367097  1431.85983385
0.38000002 19053.79582137  1197.81693105
0.38100002 18790.86513246  1399.73161003
0.38200002 18536.34532835  1277.89570747
0.38300002 18288.29713499  1474.76835083
0.38400002 18048.40498684  1146.52498110
0.38500002 17814.27508672  1134.59123402
0.38600002 17588.32393684  1327.30292877
0.38700002 17368.53699872  1111.93379134
0.38800002 17155.57078762  1301.33588375
0.38900002 16948.62596955  1288.94306605
0.39000002 16749.32489378  1080.58274672
0.39100002 16555.23232855  1265.48201915
0.39200002 16367.99309113  1350.85053381
0.39300002 16186.65292344  956.63123310
0.39400002 16012.41813686  948.73581956
0.39500002 15842.77087742  1223.37882512
0.39600002 15679.23260783  1120.43801524
0.39700002 15521.25539357  1482.59038544
0.39800002 15369.07698209  1103.80716115
0.39900002 15222.16462834  1004.66291307
0.40000002 15080.41248010  1088.50422439
0.40100002 14944.26848800  1081.36731903
0.40200002 14813.35773071  895.46751725
0.40300002 14686.83599151  1246.03122456
0.40400002 14565.75047888  1238.81713692
0.40500002 14449.57254145  1143.97271231
0.40600002 14337.97270901  1312.99991304
0.40700002 14230.85750531  1045.11422471
0.40800002 14128.57039462  953.46661826
0.40900002 14030.32240363  949.15135558
0.41000002 13936.84100845  1288.80943332
0.41100002 13847.35468879  1369.22649650
0.41200002 13761.63081215  852.53306921
0.41300002 13680.73693572  1104.44594515
0.41400002 13603.18607051  1354.87739682
0.41500002 13529.80924817  1013.11216451
0.41600002 13459.55193491  1178.65301879
0.41700002 13393.37089527  1259.64659239
0.41800002 13331.73307110  1005.47935587
0.41900002 13271.57233955  1170.55273581
0.42000002 13215.97787714  1084.96575523
0.42100002 13164.10911538  999.94577579
0.42200002 13115.40937369  1248.25914629
0.42300002 13069.22646953  914.32312713
0.42400002 13026.00782594  913.44884208
0.42500002 12986.30455642  1161.75486067
0.42600002 12948.53651537  995.22456373
0.42700002 12915.04200210  1077.88945657
0.42800002 12883.07801718  1077.73394260
0.42900002 12855.12307142  912.07102514
0.43000002 12829.00224138  1161.15304789
0.43100002 12804.59608718  1991.37087784
0.43200002 12783.74007118  996.36474836
0.43300002 12765.06590442  1246.50874464
0.43400002 12748.56398960  915.02822371
0.43500002 12734.26405699  1082.66718143
0.43600002 12722.34908307  1084.13502849
0.43700002 12712.02469310  1169.25208668
0.43800002 12703.79337324  1003.85379993
0.43900002 12698.13862152  921.88490761
0.44000002 12693.87808914  923.67008293
0.44100002 12691.81680600  1093.90774235
0.44200002 12691.27996919  843.33559392
0.44300002 12692.63354561  1098.92826446
0.44400002 12695.96010126  1186.43752769
0.44500002 12699.62144380  934.56518634
0.44600002 12705.30315651  1363.02498723
0.44700002 12713.45842546  1281.51667002
0.44800002 12721.49384840  1028.15118155
0.44900002 12732.56549779  859.44821183
0.45000002 12744.28733642  1034.58129500
0.45100002 12756.92230277  1037.90324774
0.45200002 12771.08764113  1128.13408024
0.45300002 12786.10594520  1131.95401298
0.45400002 12802.60599379  961.15569054
0.45500002 12820.17389338  1315.34990380
0.45600002 12838.50794226  880.07976115
0.45700002 12857.96513243  883.34224646
0.45800002 12877.92990300  975.31006743
0.45900002 12898.96703820  1157.03739816
0.46000002 12921.49420076  1161.57777623
0.46100002 12943.71136426  896.99924006
0.46200002 12967.58902006  1260.83874018
0.46300002 12992.12324801  994.67700301
0.46400002 13016.54507732  1089.48487461
0.46500002 13042.18076976  1367.47271852
0.46600002 13068.15639360  1556.22147789
0.46700002 13094.46716497  1195.00113011
0.46800002 13122.15159904  1015.45774962
0.46900002 13149.28341092  1112.42942929
0.47000002 13177.20321376  1396.45417677
0.47100002 13205.72405164  1121.95836860
0.47200002 13234.54876666  1126.78953540
0.47300002 13263.85124907  943.05986851
0.47400002 13292.80902561  1325.95776315
0.47500002 13322.41916766  1426.83116048
0.47600002 13352.73538539  1242.00474074
0.47700002 13382.39906768  1343.32528208
