# SAXS profile: number of points = 501, q_min = 0, q_max = 0.5, delta_q = 0.001
#    q    intensity    error
0.00000000 1628779.37420969 244.31690613
0.00100000 1628694.48616775 635.19086469
0.00200000 1628439.78897009 952.63730671
0.00300000 1628015.50181365 1172.17120306
0.00400000 1627421.47117137 1464.67937971
0.00500000 1626658.38796709 2488.78743210
0.00600000 1625726.06681756 2901.92114741
0.00700000 1624625.23640504 2144.50540118
0.00800000 1623355.72182955 2191.53031700
0.00900000 1621918.88630217 5595.62039694
0.01000000 1620314.08930642 3742.92570792
0.01100000 1618542.91692982 4078.72832825
0.01200000 1616605.27602087 3467.61846910
0.01300000 1614502.49345944 3729.50092438
0.01400000 1612234.75404618 3990.28119316
0.01500000 1609803.45979155 6181.64556086
0.01600000 1607208.45160550 4098.38173481
0.01700000 1604451.78633654 6931.23202790
0.01800000 1601533.97462209 8672.30686281
0.01900000 1598455.95668368 5274.90489507
0.02000000 1595218.55406560 6029.92640714
0.02100000 1591824.34510841 6303.62469243
0.02200000 1588272.07459722 7671.35446883
0.02300000 1584564.79152699 6274.87686007
0.02400000 1580703.09460522 5927.63687506
0.02500000 1576689.28153771 7993.81502248
0.02600000 1572523.73979962 9553.08215622
0.02700000 1568208.50917895 10538.36166435
0.02800000 1563743.67969828 8162.74238237
0.02900000 1559132.93507665 9822.53794198
0.03000000 1554376.81470531 7950.63777267
0.03100000 1549476.79914200 7437.48897810
0.03200000 1544434.12171510 9173.93910552
0.03300000 1539252.77914490 10205.24639620
0.03400000 1533931.40821046 8858.45429115
0.03500000 1528474.12101828 13206.01701543
0.03600000 1522881.37375351 10987.58961941
0.03700000 1517156.26253306 11242.12842529
0.03800000 1511299.99017580 14145.76856271
0.03900000 1505315.39149990 11741.46059745
0.04000000 1499202.24336316 9220.09422393
0.04100000 1492964.99763136 10346.24791331
0.04200000 1486604.75875017 15341.76182205
0.04300000 1480123.33965594 11722.57739421
0.04400000 1473523.81779245 11935.54347843
0.04500000 1466808.18246104 11133.07462218
0.04600000 1459977.14855483 13380.69118853
0.04700000 1453034.71122931 12554.22048889
0.04800000 1445982.44569511 13816.36291147
0.04900000 1438822.92120470 20503.22758154
0.05000000 1431557.85197152 17522.26892408
0.05100000 1424191.12631696 15552.16782386
0.05200000 1416722.00018632 16894.41063952
0.05300000 1409155.66899386 14838.40988624
0.05400000 1401493.20033732 16187.24721877
0.05500000 1393738.31602785 15219.62312101
0.05600000 1385891.46842605 11849.37260798
0.05700000 1377957.81241635 16783.52693866
0.05800000 1369936.62835628 19398.30356328
0.05900000 1361831.76673460 18384.72970959
0.06000000 1353647.08944182 14863.04573645
0.06100000 1345383.49559850 12512.06709377
0.06200000 1337044.13016753 17689.09466897
0.06300000 1328631.96542010 15305.84095727
0.06400000 1320146.54869743 21881.43006798
0.06500000 1311594.53217133 18178.70106625
0.06600000 1302976.41201220 19642.37033012
0.06700000 1294293.75626267 14521.97662488
0.06800000 1285550.83928910 13305.45180946
0.06900000 1276750.96452328 21449.41720823
0.07000000 1267893.88779169 17553.99169850
0.07100000 1258983.66088868 23114.94109657
0.07200000 1250022.25465108 16425.29319559
0.07300000 1241013.26547365 19285.34704909
0.07400000 1231959.43916500 15245.49877413
0.07500000 1222861.30012002 19516.86726472
0.07600000 1213721.99278332 15420.33864123
0.07700000 1204545.64836251 21139.77711997
0.07800000 1195332.95051332 15581.16574064
0.07900000 1186086.06666062 19926.24685451
0.08000000 1176810.32401544 18587.71993979
0.08100000 1167505.89701984 17232.38784853
0.08200000 1158174.36194612 14419.27148286
0.08300000 1148819.27157539 14475.12350120
0.08400000 1139443.71552719 21791.86208234
0.08500000 1130049.35371168 17493.16481668
0.08600000 1120638.50235538 17549.19977085
0.08700000 1111213.54864322 16134.82148395
0.08800000 1101776.23027045 23533.94138382
0.08900000 1092329.78332613 19170.38859780
0.09000000 1082876.36738220 17737.51573095
0.09100000 1073417.41258095 16294.47708851
0.09200000 1063955.49752445 16326.39787664
0.09300000 1054494.23561325 19328.88024710
0.09400000 1045032.82932173 19359.23407302
0.09500000 1035574.93667507 19385.96372575
0.09600000 1026122.47146747 20902.11572635
0.09700000 1016680.27784472 17934.24094432
0.09800000 1007246.85550150 16453.37815822
0.09900000 997826.25220899 14967.39448694
0.10000000 988417.99118510 14974.53327066
0.10100000 979025.84849550 25464.46351701
0.10200000 969651.53386363 16479.22859313
0.10300000 960296.76480313 17976.75628275
0.10400000 950963.94469659 17973.21940032
0.10500000 941656.11277841 20961.26605666
0.10600001 932369.99627829 22446.80871660
0.10700001 923113.00908550 20936.20403127
0.10800001 913883.07717348 17930.38681798
0.10900001 904684.68325016 19405.48736905
0.11000001 895518.14024641 14910.37773693
0.11100001 886384.22459919 19358.63237652
0.11200001 877286.32173028 16357.00423870
0.11300001 868224.29238009 19300.62692830
0.11400001 859200.47881460 17785.45074888
0.11500001 850216.66541715 23670.03307979
0.11600001 841274.11083117 14764.36134036
0.11700001 832373.80736515 19152.92220948
0.11800001 823516.66797344 16169.75053723
0.11900001 814703.93985557 14664.67160813
0.12000001 805937.21764256 17553.31342710
0.12100001 797219.52112740 16048.02971629
0.12200001 788549.77263280 18913.36718763
0.12300001 779930.41394536 14506.70638286
0.12400001 771361.51755130 18801.93787621
0.12500001 762843.77749253 25951.94653316
0.12600001 754380.87750062 20119.33895103
0.12700001 745970.92812364 24348.49224141
0.12800001 737616.17782024 21409.31057024
0.12900001 729317.36405729 17066.02712330
0.13000001 721075.59920067 19836.79066902
0.13100001 712890.67123747 15526.75955145
0.13200001 704764.21717185 16872.05615445
0.13300001 696697.92047906 16804.35463416
0.13400001 688690.77860302 15340.58781662
0.13500001 680744.63784348 20830.78690014
0.13600001 672859.34486816 15209.98620791
0.13700001 665036.50497472 22026.01008336
0.13800001 657275.13234483 16445.02458674
0.13900001 649577.64643724 19097.58370586
0.14000001 641943.43837359 17650.23567048
0.14100001 634373.18205837 14863.36435663
0.14200001 626866.97807434 17480.18650806
0.14300001 619426.84996297 16055.54470834
0.14400001 612049.55730050 14643.28634914
0.14500001 604739.77613661 14568.18189434
0.14600001 597495.04406759 15809.71961184
0.14700001 590318.29039163 13105.06666495
0.14800001 583204.80063565 16945.01628191
0.14900001 576159.61223965 15556.31026443
0.15000001 569180.40242119 19337.90508468
0.15100001 562268.69313123 17947.61753161
0.15200001 555423.89574034 16571.07271135
0.15300001 548647.20330096 15208.50119318
0.15400001 541935.49254218 12600.00079621
0.15500001 535292.72509443 16283.60546584
0.15600001 528714.55458366 17431.71968731
0.15700001 522207.01918996 13613.93763282
0.15800001 515762.96113775 18451.42080559
0.15900001 509388.39616600 15892.91871053
0.16000001 503078.11213959 13364.27067981
0.16100001 496837.83277294 15695.10787817
0.16200001 490662.54536849 14396.03976069
0.16300001 484553.97349719 16688.03963505
0.16400001 478511.51448543 16580.42475968
0.16500001 472534.70294519 14119.33759059
0.16600001 466624.67239410 14026.73831441
0.16700001 460778.63607989 15095.10883069
0.16800001 454997.25016426 13841.01700352
0.16900001 449283.09944137 11456.71957672
0.17000001 443631.88860039 12517.07432791
0.17100001 438044.87345628 12431.71409573
0.17200001 432522.53552050 13468.75239214
0.17300001 427063.12815970 13375.61780562
0.17400001 421667.02790431 16603.14000783
0.17500001 416333.75621773 15387.69635653
0.17600001 411061.33061179 10913.67884319
0.17700001 405852.33986717 11919.88378488
0.17800001 400703.49817614 16138.33415129
0.17900001 395616.07994439 12817.96159564
0.18000001 390589.19867751 11664.94696950
0.18100001 385623.57794159 15791.28626263
0.18200001 380714.85370729 14630.87251910
0.18300001 375865.93157610 13486.07026202
0.18400001 371075.18762848 13386.53802609
0.18500001 366343.90976407 11243.09512181
0.18600001 361668.00963186 15217.18222417
0.18700001 357048.97793617 12082.53798420
0.18800001 352486.06792501 10992.27854758
0.18900001 347980.62929166 14876.17260508
0.19000001 343526.55550246 17715.66530431
0.19100001 339131.27802673 12697.07564926
0.19200001 334786.67754333 13568.90468198
0.19300001 330497.69925603 12502.72855364
0.19400001 326259.46165872 12406.01661581
0.19500001 322074.44872975 11362.78708814
0.19600001 317940.58705867 10334.65927072
0.19700001 313857.33535719 12118.03229081
0.19800001 309824.95822882 11097.93052823
0.19900001 305842.52745395 10092.80388297
0.20000001 301907.95639350 12743.53544164
0.20100001 298023.39400900 9933.12019178
0.20200001 294185.15542208 16124.28913077
0.20300001 290395.87169096 12440.55973124
0.20400001 286652.60672984 9696.02488093
0.20500001 282954.90659473 13114.96054057
0.20600001 279302.87649176 10406.82566999
0.20700001 275696.31538095 9461.89799113
0.20800001 272132.71854877 8531.36112978
0.20900001 268615.21456371 10153.65559048
0.21000001 265138.82699875 9230.80869832
0.21100001 261705.61097294 11651.13435130
0.21200001 258313.93687945 10729.06987550
0.21300001 254962.88828597 9821.17092108
0.21400001 251653.74417791 9739.00036011
0.21500001 248385.31598188 10461.99000377
0.21600001 245155.49817293 10373.75539564
0.21700001 241965.22150394 9494.71574072
0.21800001 238813.39418908 10198.52648104
0.21900001 235698.49825314 11667.07621517
0.22000001 232621.01897424 7711.38714361
0.22100001 229581.90526901 9174.09336833
0.22200001 226578.92945805 9094.87865849
0.22300001 223610.43345078 8264.64201114
0.22400001 220677.13184154 10426.99497257
0.22500001 217780.64764027 8859.31716494
0.22600001 214916.08072287 9513.26076306
0.22700001 212087.45957578 8704.06975260
0.22800001 209291.14985314 10064.81187240
0.22900001 206526.54578449 7125.16616652
0.23000001 203795.51268859 8473.81781833
0.23100001 201096.85773837 7697.98807828
0.23200001 198428.07709021 7628.56778452
0.23300001 195790.53271736 8246.69762808
0.23400001 193184.37448716 8171.69942729
0.23500001 190606.59032870 10121.21042515
0.23600001 188059.80851559 8022.63181072
0.23700001 185541.61655217 7948.60322905
0.23800001 183052.39020097 7874.91419892
0.23900001 180591.10974736 11052.17643930
0.24000001 178157.64386680 8372.51886954
0.24100001 175752.96245955 10207.73254249
0.24200001 173374.90260053 8847.32169820
0.24300001 171023.73927550 8763.25681500
0.24400001 168698.45040513 10539.43618761
0.24500001 166399.48809990 6754.15554148
0.24600001 164126.36532172 7905.14675967
0.24700001 161878.99031906 7226.27846969
0.24800001 159656.42008008 6559.48432930
0.24900001 157457.73406603 9447.46449090
0.25000001 155284.57209466 9938.98950711
0.25100001 153134.35869555 8103.87064555
0.25200001 151009.61068974 6303.89649648
0.25300001 148908.06371299 6808.07699505
0.25400001 146829.22864439 5616.21826136
0.25500001 144773.20602822 7227.07878686
0.25600001 142740.31094450 8804.22279561
0.25700001 140729.09934696 7624.70296337
0.25800001 138740.79506415 7007.10418625
0.25900001 136774.32681361 6934.45869755
0.26000001 134829.54630521 7390.00778265
0.26100001 132905.22246517 7312.44568603
0.26200001 131003.52504081 6718.51609962
0.26300001 129121.66910346 9203.79300920
0.26400001 127260.84612268 5564.48076002
0.26500001 125421.01052191 5504.72841228
0.26600001 123600.57825079 5940.24407182
0.26700001 121801.30747600 7344.61918835
0.26800001 120022.34247710 4842.90174812
0.26900001 118261.58462214 6705.43216539
0.27000001 116521.60929488 5210.26400618
0.27100001 114800.21878383 5620.61897764
0.27200001 113099.52883877 5094.56851763
0.27300001 111417.01620705 6868.85937423
0.27400001 109751.56004194 5885.42768578
0.27500001 108107.76640572 4923.22791511
0.27600001 106480.14815485 4866.67540174
0.27700001 104872.45068467 5247.81768062
0.27800001 103282.07192796 4322.35491475
0.27900001 101711.13692841 4699.05474849
0.28000001 100156.56030039 5065.91905976
0.28100001 98620.71185321  4588.82193971
0.28200001 97103.21403103  5358.64111992
0.28300001 95602.58262248  5294.47127622
0.28400001 94119.25999310  5230.67812169
0.28500001 92653.82017464  5962.27361044
0.28600001 91205.41458461  4319.03261208
0.28700001 89773.97523128  4266.05950491
0.28800001 88358.96443550  3830.36128958
0.28900001 86962.66607335  5674.31422987
0.29000001 85581.54418934  4856.32495489
0.29100001 84217.94593589  4057.62082726
0.29200001 82870.94786214  4006.39616404
0.29300001 81540.46412761  5393.90195737
0.29400001 80225.49763635  3549.97843845
0.29500001 78928.08394666  3504.40709312
0.29600001 77646.12904650  4496.87577660
0.29700001 76380.45654756  4438.46854009
0.29800001 75130.61497278  4043.52988925
0.29900001 73897.30441501  3657.91674171
0.30000001 72679.07906604  3281.46057517
0.30100001 71477.72478501  3561.73519465
0.30200001 70290.12671529  5111.49825672
0.30300001 69119.83122885  3151.86445325
0.30400001 67965.00345955  4042.21877212
0.30500001 66825.10752263  4907.63612880
0.30600001 65699.54762436  3630.55717360
0.30700001 64590.61174409  4177.72096539
0.30800001 63496.14880738  4120.26529118
0.30900001 62417.07973126  3773.11264839
0.31000001 61353.08716433  3148.33381689
0.31100001 60303.15564059  3951.06294464
0.31200001 59268.90795252  3339.21043214
0.31300001 58248.51575269  4389.60835495
0.31400001 57243.94568602  2704.77656173
0.31500001 56252.96309200  3466.30774985
0.31600002 55277.05717334  2628.42419304
0.31700002 54315.33060947  4404.43036766
0.31800002 53367.86618939  3064.38302169
0.31900002 52434.76135100  3020.24239682
0.32000002 51515.87771095  2976.58755508
0.32100002 50610.49637108  2933.38450856
0.32200002 49720.21325669  3131.62778026
0.32300002 48842.28258359  3085.85555975
0.32400002 47978.64051925  2572.85471967
0.32500002 47128.66417114  2535.05096580
0.32600002 46292.66786987  2270.65546654
0.32700002 45469.55598433  2460.81248640
0.32800002 44660.79043534  2424.41112359
0.32900002 43864.44589061  3474.06427905
0.33000002 43082.27442770  2780.74553462
0.33100002 42310.69219326  2739.19434230
0.33200002 41555.46350674  2698.40415059
0.33300002 40811.56844254  3066.98951369
0.33400002 40080.89903359  2416.87832618
0.33500002 39362.11462355  2975.77600646
0.33600002 38656.83893867  3321.97561151
0.33700002 37963.29416854  2694.63474769
0.33800002 37282.96232154  2464.59034098
0.33900002 36614.16996345  2240.78730788
0.34000002 35958.03150957  2023.17873870
0.34100002 35313.64613182  2173.90815883
0.34200002 34681.92544634  1962.82366359
0.34300002 34061.23060226  2284.82745701
0.34400002 33453.39754490  2250.57742642
0.34500002 32856.54722534  2046.30585811
0.34600002 32272.13010069  1847.74089642
0.34700002 31697.54784118  2150.99569838
0.34800002 31135.72667061  2607.92858945
0.34900002 30584.63620807  1605.69347697
0.35000002 30044.64918969  1581.85085476
0.35100002 29516.34919957  2026.00230501
0.35200002 28997.55789612  1996.04699232
0.35300002 28490.15597301  1512.82735382
0.35400002 27993.77654291  1639.73553867
0.35500002 27507.73957118  2203.37004401
0.35600002 27031.40382322  1737.03809195
0.35700002 26566.04856622  2139.89531337
0.35800002 26111.17481362  2249.73892850
0.35900002 25666.21460419  2078.96348141
0.36000002 25231.40773585  1366.28079361
0.36100002 24805.78093951  1481.64936570
0.36200002 24390.92580364  1460.89457021
0.36300002 23984.75174905  1833.39451054
0.36400002 23588.11470792  1549.73920972
0.36500002 23200.76803558  1401.09444804
0.36600002 22822.98750306  2135.88938665
0.36700002 22453.79232238  1239.44939491
0.36800002 22095.01295895  1467.55083025
0.36900002 21744.06290209  2172.23198682
0.37000002 21401.61413018  1548.29984759
0.37100002 21067.78761144  1293.14086485
0.37200002 20743.17745080  1276.63891668
0.37300002 20426.52422447  1718.89209491
0.37400002 20118.05179558  1810.62474737
0.37500002 19818.32637685  1341.30439272
0.37600002 19526.62753383  1325.07700722
0.37700002 19242.23975697  1200.13855050
0.37800002 18965.69476940  1293.83975846
0.37900002 18697.46604213  1385.48229936
0.38000002 18436.67908499  1159.02188558
0.38100002 18182.40943962  1354.40774332
0.38200002 17936.43594945  1442.62761176
0.38300002 17696.99241977  1121.28149284
0.38400002 17465.46837494  1210.35701572
0.38500002 17239.83383065  1397.46099652
0.38600002 17022.05880916  1086.94361675
0.38700002 16810.49777725  1369.71942378
0.38800002 16605.64240200  1065.83320807
0.38900002 16406.71475318  1247.73071609
0.39000002 16215.37965219  1426.54809249
0.39100002 16029.31478506  1131.02850482
0.39200002 15849.89103793  934.35112095
0.39300002 15676.35387090  1667.65060379
0.39400002 15509.80839812  1010.85181024
0.39500002 15347.76161784  1367.48562494
0.39600002 15191.86182930  1266.54558071
0.39700002 15041.38125102  1167.36165420
0.39800002 14896.71552367  980.72531297
0.39900002 14757.24409492  885.43468765
0.40000002 14622.81527288  967.51861837
0.40100002 14494.04088828  1136.18791906
0.40200002 14370.28666277  955.55225691
0.40300002 14250.93369884  863.60662307
0.40400002 14137.00061861  858.82282827
0.40500002 14027.92827391  1025.16104683
0.40600002 13923.42470988  1275.03767822
0.40700002 13823.29355129  930.58416596
0.40800002 13727.85759312  926.42451357
0.40900002 13636.55237743  1174.10721533
0.41000002 13549.95543716  1169.49670919
0.41100002 13467.26026608  1248.41508582
0.41200002 13388.32298597  1161.16930759
0.41300002 13314.18471112  909.49200071
0.41400002 13243.23312201  1154.14782127
0.41500002 13176.47997822  1068.87610648
0.41600002 13112.85899489  1230.31405349
0.41700002 13053.20871316  1145.81071513
0.41800002 12998.15400786  898.62741991
0.41900002 12944.46330402  1141.70171751
0.42000002 12895.22409561  977.20012827
0.42100002 12849.82278921  1138.75134954
0.42200002 12807.43834031  893.89520132
0.42300002 12767.62629480  893.22317791
0.42400002 12730.69591232  892.74009315
0.42500002 12697.31288496  1217.03749769
0.42600002 12665.72519328  892.36371078
0.42700002 12638.49625422  973.66979756
0.42800002 12612.69260960  1217.44021183
0.42900002 12590.86370311  893.32182207
0.43000002 12570.89568640  975.25013357
0.43100002 12552.58793415  1138.77083135
0.43200002 12537.73402004  1221.48879479
0.43300002 12525.06859323  896.92020446
0.43400002 12514.49800784  1143.19944719
0.43500002 12506.18746086  1145.06657818
0.43600002 12500.23339193  901.32937144
0.43700002 12495.81537701  985.17013101
0.43800002 12493.44693292  904.96287147
0.43900002 12493.61925104  907.03680061
0.44000002 12495.15626540  1074.52101396
0.44100002 12498.88423220  994.41127664
0.44200002 12504.11970182  997.07855227
0.44300002 12511.21744458  1083.22125769
0.44400002 12520.21672540  1170.01430844
0.44500002 12529.50878234  1257.33626589
0.44600002 12540.92405944  1261.30349705
0.44700002 12554.65778511  843.67304314
0.44800002 12568.36074830  1015.77496382
0.44900002 12585.02424500  1189.28484752
0.45000002 12602.20560123  1108.30102412
0.45100002 12620.40299460  855.66336359
0.45200002 12640.00769749  944.77742012
0.45300002 12660.56249862  948.40278172
0.45400002 12682.53324623  1038.69952209
0.45500002 12705.47995543  869.05487014
0.45600002 12729.23739848  1308.88389753
0.45700002 12754.02011207  876.20122323
0.45800002 12779.30723051  967.84087897
0.45900002 12805.67459859  1237.02822485
0.46000002 12833.48211316  1153.66592924
0.46100002 12860.96553900  980.39144950
0.46200002 12890.02817807  1074.25499927
0.46300002 12919.80555388  1348.82776375
0.46400002 12949.36642054  1264.50569090
0.46500002 12980.18165773  1179.50916314
0.46600002 13011.23780819  1002.58097683
0.46700002 13042.71475679  915.59861932
0.46800002 13075.45265156  1563.75883398
0.46900002 13107.61272909  1016.49541532
0.47000002 13140.52430424  1114.05370332
0.47100002 13173.99688879  1119.26282872
0.47200002 13207.80693190  1593.05970860
0.47300002 13242.05920794  1035.66149974
0.47400002 13275.95531020  1229.68541889
0.47500002 13310.44503312  1140.43898449
0.47600002 13345.52123225  1241.33371625
0.47700002 13380.02155465  1247.15186822
0.47800002 13414.87295145  1060.24453397
