# SAXS profile: number of points = 501, q_min = 0, q_max = 0.5, delta_q = 0.001
#    q    intensity    error
0.00000000 1664650.74656091 349.57665678
0.00100000 1664564.96827744 599.24340281
0.00200000 1664307.59686284 898.72613076
0.00300000 1663878.85481847 1597.32375753
0.00400000 1663278.60108320 1372.20489803
0.00500000 1662507.51159353 1645.88250162
0.00600000 1661565.38952102 2965.89434104
0.00700000 1660453.00244964 2789.56116005
0.00800000 1659170.14414182 2239.87978916
0.00900000 1657718.17807035 2486.57737340
0.01000000 1656096.49631774 3005.81527061
0.01100000 1654306.72075593 3871.07789511
0.01200000 1652348.65755988 3866.49602821
0.01300000 1650223.69163730 4505.11087687
0.01400000 1647932.01919793 4078.63192832
0.01500000 1645475.06744499 4738.96840526
0.01600000 1642852.60712663 7121.76637026
0.01700000 1640066.75006833 5313.81650859
0.01800000 1637118.06162547 5132.36535414
0.01900000 1634007.39202841 4902.02239728
0.02000000 1630735.60210628 6164.18085480
0.02100000 1627305.30138852 8592.17238089
0.02200000 1623715.25565487 7842.54504112
0.02300000 1619968.43742419 9331.01862430
0.02400000 1616065.47392892 7878.31954464
0.02500000 1612008.75475665 7544.20131681
0.02600000 1607798.58824004 7162.74303822
0.02700000 1603436.99848394 8081.32284249
0.02800000 1598924.27119277 9737.44925812
0.02900000 1594263.90060307 8609.02545853
0.03000000 1589456.37341806 11086.45871418
0.03100000 1584503.40798513 10647.86339160
0.03200000 1579406.08049789 14854.31487124
0.03300000 1574168.58521784 8028.26015472
0.03400000 1568789.49059251 9883.37424676
0.03500000 1563272.61379720 10130.00700519
0.03600000 1557618.78426367 9509.26311739
0.03700000 1551830.91656028 13268.15495021
0.03800000 1545910.42263830 10852.29166916
0.03900000 1539859.99930055 12934.82459314
0.04000000 1533679.52282605 10375.34245270
0.04100000 1527373.14528604 12509.18663990
0.04200000 1520942.54039221 11772.09580878
0.04300000 1514389.15722156 13992.95646225
0.04400000 1507715.84961591 11194.79070331
0.04500000 1500925.24948366 15534.57705397
0.04600000 1494017.73278535 15799.23825866
0.04700000 1486997.14262539 12847.65590980
0.04800000 1479865.36643149 11964.71204429
0.04900000 1472624.81753949 12149.15531021
0.05000000 1465277.29918934 13451.24623293
0.05100000 1457826.75311976 20467.88856728
0.05200000 1450272.26266777 17294.49753826
0.05300000 1442619.48414831 19864.87122278
0.05400000 1434868.73733436 14205.20116205
0.05500000 1427024.47563670 15583.10800089
0.05600000 1419086.64412998 13346.51051085
0.05700000 1411060.89731551 12276.23037968
0.05800000 1402946.23896514 13657.68227404
0.05900000 1394746.46874571 13807.99068550
0.06000000 1386465.50944323 16492.00800531
0.06100000 1378104.54937889 14098.01019897
0.06200000 1369666.41979820 15532.01792653
0.06300000 1361154.35628706 16987.20716070
0.06400000 1352567.66050311 14506.28883731
0.06500000 1343912.99874990 21287.58289598
0.06600000 1335191.28148777 13418.67300679
0.06700000 1326403.74756684 14882.25074417
0.06800000 1317554.68032474 13636.69157968
0.06900000 1308647.62431541 13740.80069864
0.07000000 1299682.00637713 20762.42102415
0.07100000 1290662.06878443 15333.06609533
0.07200000 1281590.14574666 19646.77785468
0.07300000 1272469.35366318 22599.05677995
0.07400000 1263302.65379212 18475.80217756
0.07500000 1254090.57391514 18585.62317658
0.07600000 1244836.14462247 20129.00140221
0.07700000 1235543.64046564 17347.03352551
0.07800000 1226214.03275538 17436.76436350
0.07900000 1216849.01987118 16062.40781569
0.08000000 1207454.02706732 20538.79396391
0.08100000 1198029.54295444 14735.76406972
0.08200000 1188577.16730264 14797.78642731
0.08300000 1179100.05949220 14856.66144685
0.08400000 1169601.67949376 19386.14874757
0.08500000 1160083.40794326 17958.09199801
0.08600000 1150547.97266523 24023.44279719
0.08700000 1140997.53271642 18073.40176691
0.08800000 1131433.73067651 21146.49741946
0.08900000 1121859.97408286 15145.11036148
0.09000000 1112278.58827048 19737.38447603
0.09100000 1102690.88536836 22825.70239950
0.09200000 1093099.33355598 18298.48370351
0.09300000 1083507.69775218 16805.20518185
0.09400000 1073915.05254872 16833.61923984
0.09500000 1064325.37502358 19924.17195693
0.09600000 1054740.47621073 18415.76958032
0.09700000 1045164.93628186 21509.49539990
0.09800000 1035597.53524841 19992.21135796
0.09900000 1026042.32945823 20007.82636525
0.10000000 1016498.76999906 26179.92705249
0.10100000 1006970.72654410 20028.64869295
0.10200000 997460.41478657 16951.84054665
0.10300000 987968.46859821 16953.53971865
0.10400000 978497.97047652 26199.28439206
0.10500000 969051.87680066 21571.09579249
0.10600001 959626.88553793 21562.81713264
0.10700001 950231.15147713 15393.74537832
0.10800001 940861.45301760 15383.08548079
0.10900001 931522.75120019 16907.13873003
0.11000001 922215.58641361 19961.35730749
0.11100001 912940.56684147 18404.88269390
0.11200001 903701.19435136 19913.05675498
0.11300001 894497.10835374 22943.85190949
0.11400001 885331.11226420 18326.35488675
0.11500001 876204.64742130 24393.53853285
0.11600001 867119.00359617 21305.11492165
0.11700001 858075.44822960 21263.11060851
0.11800001 849074.35993261 15155.97803862
0.11900001 840117.74636069 25707.60424951
0.12000001 831206.79856801 21120.96574651
0.12100001 822344.46626752 18058.68532995
0.12200001 813529.94456469 18011.55382121
0.12300001 804765.44200402 20956.09309712
0.12400001 796051.10375796 19403.74656836
0.12500001 787387.95970793 14881.63313971
0.12600001 778779.27452209 16319.32046663
0.12700001 770223.64668344 17745.95365589
0.12800001 761722.81251419 22109.00567521
0.12900001 753277.90083119 22033.37963779
0.13000001 744889.87952711 19028.21286941
0.13100001 736558.40438753 16042.24280375
0.13200001 728285.47826467 17435.15517156
0.13300001 720072.63076996 17368.15267296
0.13400001 711918.56771059 21624.52751371
0.13500001 703826.09608439 15793.85834079
0.13600001 695793.75288763 17158.27475523
0.13700001 687824.54761554 15661.76568771
0.13800001 679916.11468495 14176.25165967
0.13900001 672071.92565509 16936.21332519
0.14000001 664291.15294930 18264.68611171
0.14100001 656574.19777794 15383.53417947
0.14200001 648921.35399720 20879.04554963
0.14300001 641334.86033033 13852.83363654
0.14400001 633810.96840633 16542.46705571
0.14500001 626354.73255732 17832.32007710
0.14600001 618963.79437502 20472.22846472
0.14700001 611641.10452323 21725.49305760
0.14800001 604381.52602767 18911.09884161
0.14900001 597190.36287434 18811.49731808
0.15000001 590065.48320565 13364.98382521
0.15100001 583008.27066691 14621.84811826
0.15200001 576018.25894526 14541.58163325
0.15300001 569096.79091672 13146.13649053
0.15400001 562240.04021884 14379.28970717
0.15500001 555452.55895137 12997.59049286
0.15600001 548729.94409335 14214.84987261
0.15700001 542078.45342630 15416.71194306
0.15800001 535490.44341796 16602.88198181
0.15900001 528972.22783019 15234.40088058
0.16000001 522518.66924505 17666.35704107
0.16100001 516135.45679958 17558.92906918
0.16200001 509817.55429169 13711.54376994
0.16300001 503566.32199986 13626.50531659
0.16400001 497381.95322529 17234.28549288
0.16500001 491263.35609494 15902.19558756
0.16600001 485212.03793905 17016.38697392
0.16700001 479224.93636749 16907.05655331
0.16800001 473303.07403749 15597.70354137
0.16900001 467448.76288356 13111.93841800
0.17000001 461657.69563576 15393.97658787
0.17100001 455931.24885107 11763.02677582
0.17200001 450269.69707809 12852.94911005
0.17300001 444672.07609569 20890.69512153
0.17400001 439137.90730923 16138.31885576
0.17500001 433666.78242392 13738.56431603
0.17600001 428257.07689703 11370.22592862
0.17700001 422911.50105810 12420.91137272
0.17800001 417626.08770375 14577.23927981
0.17900001 412402.85675453 11134.87765831
0.18000001 407240.44979638 13267.89448108
0.18100001 402140.08547832 16467.63727821
0.18200001 397096.89499907 14170.40336742
0.18300001 392114.38934554 12986.82918861
0.18400001 387190.20322566 15042.34010593
0.18500001 382326.08682294 11733.58815892
0.18600001 377518.01987347 11648.31905350
0.18700001 372767.20581729 12614.44284082
0.18800001 368073.17431804 13565.33748040
0.18900001 363437.08248781 11393.75307432
0.19000001 358852.75954789 11309.24525150
0.19100001 354328.02994398 10204.64774456
0.19200001 349854.31017867 16205.25241320
0.19300001 345437.12418384 15078.33118312
0.19400001 341070.89743648 9976.32422144
0.19500001 336758.68111777 12870.91740054
0.19600001 332498.20379312 10807.85462504
0.19700001 328289.07165479 11700.22306670
0.19800001 324131.26313727 9675.31866189
0.19900001 320023.95137945 9600.71899511
0.20000001 315965.10498038 10478.98320192
0.20100001 311956.94317139 10397.52540731
0.20200001 307995.71419140 12192.01092250
0.20300001 304083.91567581 9304.96825948
0.20400001 300218.89587749 10154.90463304
0.20500001 296400.18491190 13738.14922003
0.20600001 292627.86237964 10903.31466764
0.20700001 288901.39528969 10816.46875093
0.20800001 285218.61105188 8941.60387915
0.20900001 281582.53761639 12417.79049589
0.21000001 277988.25802055 14077.32605163
0.21100001 274437.86539953 11345.26189195
0.21200001 270929.51802164 11253.05806301
0.21300001 267462.57665623 9444.10402821
0.21400001 264038.08143619 11921.31994044
0.21500001 260655.11566676 13512.36183500
0.21600001 257311.37806764 10888.13147771
0.21700001 254007.80829788 11628.47801367
0.21800001 250743.46223825 9060.61543637
0.21900001 247516.63566323 8984.85429939
0.22000001 244327.78081533 8909.41294869
0.22100001 241178.09823605 8031.23105101
0.22200001 238065.24193979 8759.61099137
0.22300001 234987.57313104 9474.69939666
0.22400001 231945.39893391 7828.15758418
0.22500001 228941.21591780 9313.32910394
0.22600001 225969.60983048 10002.54525215
0.22700001 223034.66475927 9916.12166412
0.22800001 220132.20434957 9073.84989239
0.22900001 217262.47230183 13492.00016799
0.23000001 214427.03792644 8172.88693708
0.23100001 211624.66840076 10310.35433209
0.23200001 208852.60255353 9489.21844580
0.23300001 206112.81875788 7958.01630861
0.23400001 203405.02109493 8604.03279925
0.23500001 200725.99906186 7105.70070286
0.23600001 198078.89681571 7041.70511485
0.23700001 195461.06024207 7675.75619875
0.23800001 192872.75302840 8297.38622774
0.23900001 190313.11991059 7536.39990493
0.24000001 187782.00096380 7467.15162152
0.24100001 185280.50147839 9415.95553052
0.24200001 182805.89190369 7329.60258258
0.24300001 180359.23841358 11882.06718874
0.24400001 177939.14818557 10462.82240824
0.24500001 175545.82800097 7125.40549562
0.24600001 173179.26997481 6416.29225609
0.24700001 170838.90877992 7626.24924870
0.24800001 168524.14574804 8182.69028389
0.24900001 166233.95563854 6233.77363135
0.25000001 163969.88694411 9260.19980325
0.25100001 161729.35268607 9170.05473113
0.25200001 159515.20798567 9080.40364418
0.25300001 157324.66178027 5994.06989741
0.25400001 155157.74261685 7715.21911664
0.25500001 153014.12179850 8226.03957708
0.25600001 150894.30473531 8143.76601187
0.25700001 148796.88947162 8061.81585300
0.25800001 146723.10515417 7410.25077642
0.25900001 144671.63393438 7334.85218752
0.26000001 142642.46842091 5584.45290291
0.26100001 140634.75133348 7737.72438449
0.26200001 138649.84333038 8204.60486729
0.26300001 136685.65983981 7036.57810151
0.26400001 134743.32561106 7498.46642507
0.26500001 132822.57196119 8479.39339524
0.26600001 130921.57662158 5767.75033099
0.26700001 129042.58190670 7781.26805719
0.26800001 127184.36930572 7184.64536206
0.26900001 125345.24615992 5584.13098067
0.27000001 123527.19881350 5523.51895633
0.27100001 121728.67052094 6456.48898997
0.27200001 119951.43117447 6876.81587467
0.27300001 118192.85748321 6800.81734143
0.27400001 116451.93803094 4803.64267111
0.27500001 114733.33531833 6649.94442976
0.27600001 113031.49562803 6105.39652529
0.27700001 111350.36112973 5571.97233463
0.27800001 109687.07294053 4590.40421981
0.27900001 108043.63904690 4991.61636021
0.28000001 106417.36947047 4934.04156902
0.28100001 104810.31205253 4876.82405062
0.28200001 103222.19939521 7010.85211474
0.28300001 101651.58701851 4330.35781195
0.28400001 100098.97788760 4707.15465796
0.28500001 98564.65466211  4228.42388514
0.28600001 97047.99754272  5013.49979036
0.28700001 95548.91359489  4540.48458894
0.28800001 94066.83826431  4893.35715813
0.28900001 92604.01793904  4833.92996523
0.29000001 91156.88870084  4774.79805616
0.29100001 89728.06687514  4716.10741819
0.29200001 88316.10749217  4269.64241881
0.29300001 86921.34874419  3833.23166107
0.29400001 85542.75112623  4542.32029982
0.29500001 84182.22544198  4858.99828252
0.29600001 82837.59541582  3690.41505047
0.29700001 81509.89391432  4007.84167349
0.29800001 80198.41889515  4316.27910926
0.29900001 78904.22822731  3550.69043832
0.30000001 77625.63177282  4205.75692855
0.30100001 76364.17771939  3805.22715590
0.30200001 75117.49369527  4779.72635011
0.30300001 73888.16954381  3706.23075977
0.30400001 72674.92731220  4654.82931471
0.30500001 71477.14771185  3608.88135882
0.30600001 70294.40221165  4208.17458763
0.30700001 69128.60497721  4151.86421149
0.30800001 67977.90321560  3465.85355953
0.30900001 66842.99271180  4040.65910073
0.31000001 65723.65773594  3066.00877854
0.31100001 64618.94820546  3629.00030303
0.31200001 63530.30503372  3877.57235132
0.31300001 62456.17713661  4706.69773186
0.31400001 61398.47247198  4351.61694249
0.31500001 60354.58331060  3146.88812281
0.31600002 59326.22941323  3103.05857638
0.31700002 58312.54706663  3337.81035213
0.31800002 57313.70789185  2742.46105248
0.31900002 56329.61932458  3244.58622672
0.32000002 55360.46686842  3731.84924830
0.32100002 54404.96814213  2890.53609426
0.32200002 53465.23997822  3367.50829948
0.32300002 52538.03533885  3064.01836605
0.32400002 51625.85095433  3271.78845915
0.32500002 50727.65547236  2728.64071706
0.32600002 49843.98014011  3178.30154413
0.32700002 48973.65303542  3855.20614950
0.32800002 48117.86547256  3087.00180557
0.32900002 47275.12037080  3276.16599683
0.33000002 46447.02983130  3459.14271049
0.33100002 45630.05988113  2954.09021659
0.33200002 44829.58643395  2239.23794841
0.33300002 44040.92507860  3089.03063129
0.33400002 43266.15617818  2826.36178618
0.33500002 42503.33422408  3427.46903414
0.33600002 41754.76136120  2743.91427279
0.33700002 41018.07484856  2495.53979197
0.33800002 40295.36453184  3073.52907522
0.33900002 39584.12481430  2220.66950725
0.34000002 38886.29414472  2187.93744367
0.34100002 38200.51242140  2351.62365603
0.34200002 37527.93143011  2510.05581258
0.34300002 36866.44790634  2092.53968227
0.34400002 36218.54635037  2624.03380736
0.34500002 35581.74718517  2770.03914956
0.34600002 34957.89230079  1819.55838043
0.34700002 34344.18383293  2330.59642528
0.34800002 33743.80071946  1943.13685646
0.34900002 33154.40766574  2436.84907884
0.35000002 32576.48351574  1886.66713217
0.35100002 32010.55669370  2028.18896817
0.35200002 31454.61537728  2664.83514098
0.35300002 30910.37870876  1969.60942461
0.35400002 30377.56608557  1941.12656481
0.35500002 29855.57877978  2072.57437706
0.35600002 29343.50204170  1885.61353051
0.35700002 28842.56885934  1703.73062322
0.35800002 28352.75461822  1679.47549936
0.35900002 27873.08531127  2408.23468496
0.36000002 27404.00349542  1780.71223148
0.36100002 26944.30386636  1755.69092309
0.36200002 26495.91492090  1586.97289936
0.36300002 26056.24117918  1849.47208650
0.36400002 25626.68959676  1403.06132188
0.36500002 25206.63028427  1798.99728860
0.36600002 24796.61076666  1638.06418484
0.36700002 24395.33027925  1750.60898376
0.36800002 24004.97190083  1461.54278341
0.36900002 23622.61869178  1442.16093945
0.37000002 23249.17660687  1552.58008735
0.37100002 22884.61114296  1532.35363472
0.37200002 22529.72085748  1260.53794169
0.37300002 22182.85759970  1617.79588138
0.37400002 21844.65634798  2334.64775778
0.37500002 21515.37367551  1213.46713278
0.37600002 21194.49437088  1677.96819883
0.37700002 20881.25388191  1302.36386631
0.37800002 20576.23653979  1286.73501297
0.37900002 20279.76790664  1271.54150798
0.38000002 19990.96302846  1142.48359120
0.38100002 19708.96972768  1581.05362645
0.38200002 19435.66003506  1563.21021067
0.38300002 19169.03359300  1324.96366472
0.38400002 18910.83874119  1419.73128575
0.38500002 18658.47013545  1296.39056643
0.38600002 18414.65978812  1068.97105134
0.38700002 18176.94007618  1586.84694383
0.38800002 17946.45116266  1361.32811744
0.38900002 17722.07313212  1036.74132735
0.39000002 17505.71122029  1232.05201405
0.39100002 17294.54902129  1220.30343676
0.39200002 17090.52314445  1611.97821935
0.39300002 16892.52787444  1098.18328915
0.39400002 16701.94073259  1682.30305999
0.39500002 16516.16538105  1177.27232414
0.39600002 16336.62664866  1459.26924453
0.39700002 16162.84366138  1254.39835599
0.39800002 15995.00728427  1148.76147758
0.39900002 15832.66408549  1139.95186816
0.40000002 15675.69772969  1131.47191574
0.40100002 15524.54978776  1123.35647587
0.40200002 15378.82101637  1208.54470683
0.40300002 15237.59526983  923.39831710
0.40400002 15102.03668019  1100.93852615
0.40500002 14971.56385023  1367.65242252
0.40600002 14845.87263635  1450.14490783
0.40700002 14724.90644553  1531.97933918
0.40800002 14608.83593917  1165.12776553
0.40900002 14497.07659641  1069.88430351
0.41000002 14390.30449104  975.87854530
0.41100002 14287.52944273  1236.15710596
0.41200002 14188.90912634  1054.80355443
0.41300002 14095.12724743  1225.43042096
0.41400002 14004.96106374  871.80886753
0.41500002 13919.12645277  1389.68565089
0.41600002 13836.55627714  1038.57196337
0.41700002 13758.32667873  1035.17654836
0.41800002 13684.63749809  946.08745826
0.41900002 13612.73178502  1029.12257171
0.42000002 13545.67348696  1283.11398185
0.42100002 13482.27525637  1109.45648342
0.42200002 13422.33268196  1021.97645883
0.42300002 13365.03241768  1105.02093266
0.42400002 13310.94783552  1018.28755767
0.42500002 13260.39927490  932.07350920
0.42600002 13212.11621743  1015.48330059
0.42700002 13168.09387441  1099.00916684
0.42800002 13125.95231863  844.65507173
0.42900002 13087.82970149  1435.08059477
0.43000002 13051.76354477  928.17620847
0.43100002 13017.57299761  927.89264724
0.43200002 12987.10062087  1265.26833795
0.43300002 12958.87353926  1096.70951960
0.43400002 12933.13206456  1012.66428864
0.43500002 12909.59988845  928.71665999
0.43600002 12888.71560522  929.34088275
0.43700002 12869.51572677  930.07994565
0.43800002 12852.48289738  930.96964279
0.43900002 12838.32001633  847.32916123
0.44000002 12825.57786621  1357.45922569
0.44100002 12815.24540292  934.61589153
0.44200002 12806.59840796  1021.19820545
0.44300002 12799.88917537  1022.96719137
0.44400002 12795.39569205  1110.32051380
0.44500002 12791.31917436  1112.46108131
0.44600002 12789.38643657  1114.78692157
0.44700002 12790.13824153  1117.34652973
0.44800002 12790.84735718  1033.75633240
0.44900002 12794.70572237  1209.09974807
0.45000002 12799.37862440  952.46580547
0.45100002 12805.14896955  1041.82696954
0.45200002 12812.51201156  870.61023245
0.45300002 12820.80268237  1047.71604486
0.45400002 12830.80076327  963.27241296
0.45500002 12841.92049278  878.38740334
0.45600002 12854.02444813  1057.37210122
0.45700002 12867.31469112  1149.17992953
0.45800002 12881.22804662  886.87259304
0.45900002 12896.31524352  978.83037337
0.46000002 12913.08001785  1160.82138322
0.46100002 12929.50838290  896.01497340
0.46200002 12947.90824400  1169.00195121
0.46300002 12966.91430750  992.74700643
0.46400002 12985.99284508  1177.50495704
0.46500002 13006.43683182  1181.89497092
0.46600002 13027.29232418  1095.07424467
0.46700002 13048.53944875  1465.61202035
0.46800002 13071.39457562  1011.52991718
0.46900002 13093.71749348  1292.34997786
0.47000002 13116.96091435  1668.08399854
0.47100002 13140.79449441  1023.40512373
0.47200002 13165.20662479  1214.29289059
0.47300002 13190.13505929  1031.60051188
0.47400002 13214.82635944  1224.02334956
0.47500002 13240.21304943  1323.49175915
0.47600002 13266.50387529  1233.98391645
0.47700002 13292.15669324  953.04768008
