# SAXS profile: number of points = 501, q_min = 0, q_max = 0.5, delta_q = 0.001
#    q    intensity    error
0.00000000 1646666.22097351 296.39991978
0.00100000 1646580.80647802 493.97425367
0.00200000 1646324.53063057 963.09988092
0.00300000 1645897.60951006 1086.29246097
0.00400000 1645299.90233897 1727.56496310
0.00500000 1644532.09659677 2220.11841828
0.00600000 1643593.97743568 2416.08324519
0.00700000 1642486.32381295 2956.47550574
0.00800000 1641208.93468278 3545.01144859
0.00900000 1639763.15286379 3689.46725166
0.01000000 1638148.37967138 2973.23943749
0.01100000 1636366.21880291 3829.09711872
0.01200000 1634416.54952619 3824.53489357
0.01300000 1632300.66082117 3770.61469280
0.01400000 1630018.80278341 6601.57644393
0.01500000 1627572.33874355 4687.40854431
0.01600000 1624961.14835857 5386.74644761
0.01700000 1622187.26007209 6569.85869801
0.01800000 1619251.24485600 5076.35288105
0.01900000 1616153.94105973 7757.53926713
0.02000000 1612896.29254656 9145.12239242
0.02100000 1609480.77992165 9029.18758473
0.02200000 1605906.26937065 7756.52763346
0.02300000 1602175.63707268 7498.18232281
0.02400000 1598289.66861302 7791.66248977
0.02500000 1594250.56218606 6839.33522413
0.02600000 1590058.75522318 7083.71207852
0.02700000 1585716.22180670 7326.00928029
0.02800000 1581223.19633401 8253.98546339
0.02900000 1576583.23916557 7094.62490199
0.03000000 1571796.89783486 10232.39827524
0.03100000 1566865.75042815 9777.24273255
0.03200000 1561790.93039863 8503.95200770
0.03300000 1556576.53393225 10320.10289573
0.03400000 1551221.25864769 11401.47677713
0.03500000 1545728.98755078 11685.71168551
0.03600000 1540100.36974823 8547.55744712
0.03700000 1534338.41859727 9620.30232952
0.03800000 1528444.47757120 8941.40060760
0.03900000 1522421.22919847 10961.43335785
0.04000000 1516268.62393817 10257.55771627
0.04100000 1509990.87566026 10464.23725352
0.04200000 1503589.38812946 14547.22800504
0.04300000 1497065.89621885 10868.69891105
0.04400000 1490423.12101033 11066.39218745
0.04500000 1483663.63486164 12284.73546746
0.04600000 1476787.88626548 13534.76160681
0.04700000 1469799.77361115 12699.07063461
0.04800000 1462700.98086966 10750.85270961
0.04900000 1455494.17591226 12007.82751021
0.05000000 1448180.93736163 12186.44315537
0.05100000 1440765.32564957 12361.76706993
0.05200000 1433246.42123860 11394.30957984
0.05300000 1425629.73145771 15011.88177207
0.05400000 1417915.78259944 12867.58632716
0.05500000 1410108.89071342 14213.89828146
0.05600000 1402208.99545647 13187.77621766
0.05700000 1394221.80695938 12129.73028674
0.05800000 1386146.31918558 17174.35369662
0.05900000 1377986.28223656 18602.81567905
0.06000000 1369745.70174491 12533.17375650
0.06100000 1361425.61072727 15193.51052573
0.06200000 1353028.95817310 12786.12425240
0.06300000 1344558.86214305 15489.31881610
0.06400000 1336014.83291794 16933.98879918
0.06500000 1327403.38308287 17083.68233941
0.06600000 1318725.34803489 15903.82844142
0.06700000 1309982.01855975 17370.36237902
0.06800000 1301177.77077867 14813.90961374
0.06900000 1292315.94876074 14926.24990702
0.07000000 1283396.34829722 17768.62327425
0.07100000 1274422.83515919 19269.27417014
0.07200000 1265397.78598957 22169.77024912
0.07300000 1256324.34699391 22312.32144807
0.07400000 1247205.61071182 16837.27653367
0.07500000 1238041.94908757 18347.78254548
0.07600000 1228836.55644763 15612.36918158
0.07700000 1219593.50696860 15696.16917066
0.07800000 1210313.76755905 15776.44069999
0.07900000 1200999.10601351 20176.78592739
0.08000000 1191655.10158811 18822.19321255
0.08100000 1182282.00568021 21813.10402823
0.08200000 1172881.27659347 14602.37257881
0.08300000 1163456.49026581 20523.37345149
0.08400000 1154010.92916276 17656.36804496
0.08500000 1144545.90944496 16241.10721747
0.08600000 1135063.96936234 19256.36114435
0.08700000 1125567.68047353 14857.49407992
0.08800000 1116058.35113320 16389.31765610
0.08900000 1106539.54595025 17925.94148637
0.09000000 1097013.47485944 16471.65809878
0.09100000 1087481.45957687 22510.86727083
0.09200000 1077946.08585082 19548.55318543
0.09300000 1068411.04450126 16571.05607892
0.09400000 1058875.35347874 21124.56429470
0.09500000 1049342.96917160 16621.59341294
0.09600000 1039815.72537575 15129.31951541
0.09700000 1030298.36771969 16659.92538926
0.09800000 1020789.39717845 22738.08489124
0.09900000 1011293.04073060 15169.39632426
0.10000000 1001808.72418659 18212.88346221
0.10100000 992340.16605456 19737.64683112
0.10200000 982889.48475323 18222.77190446
0.10300000 973457.95811636 16704.53934707
0.10400000 964047.89817750 16702.13062168
0.10500000 954662.82128186 15179.13957255
0.10600001 945299.10025846 18206.46152766
0.10700001 935964.71945195 18195.15500237
0.10800001 926656.74514366 16665.92234574
0.10900001 917380.16727858 19677.80551427
0.11000001 908135.53159936 15120.45731284
0.11100001 898923.15228606 18122.29160316
0.11200001 889746.79442624 19605.57153816
0.11300001 880605.93137050 22587.54320309
0.11400001 871503.49032557 18040.12309915
0.11500001 862440.63332443 16507.11449912
0.11600001 853419.12676209 19470.75829398
0.11700001 844439.80283610 14946.58521411
0.11800001 835503.37040768 17896.48303703
0.11900001 826611.47256802 19342.70936917
0.12000001 817765.40033706 17810.93125832
0.12100001 808968.29558347 16284.53255723
0.12200001 800219.23187243 14764.04552360
0.12300001 791520.37854815 20611.19162848
0.12400001 782871.90715455 16146.73384586
0.12500001 774274.81335315 16097.17412812
0.12600001 765732.43015795 20422.08487467
0.12700001 757243.05242032 20354.69420830
0.12800001 748808.82834232 17387.34181356
0.12900001 740430.77015847 20213.76097804
0.13000001 732109.59557604 23017.52676984
0.13100001 723845.34168221 14332.13844089
0.13200001 715639.67433016 19987.81704627
0.13300001 707494.13850147 19908.88599600
0.13400001 699407.77301136 15579.30887832
0.13500001 691382.82202106 15514.63125764
0.13600001 683418.45373842 14044.24988652
0.13700001 675517.05509872 19576.48517986
0.13800001 667676.86903341 20881.59506371
0.13900001 659900.75284133 13857.91646318
0.14000001 652188.13915074 17931.91373163
0.14100001 644539.57933919 19220.17116237
0.14200001 636955.27312463 15028.96037822
0.14300001 629437.19585607 13595.84407177
0.14400001 621981.87780291 16233.72777640
0.14500001 614594.44724788 14805.58093261
0.14600001 607272.35121035 16068.42717104
0.14700001 600018.43531983 17316.53286026
0.14800001 592827.77606169 14574.67156209
0.14900001 585705.64114012 14496.21530216
0.15000001 578649.79932166 28834.12086068
0.15100001 571661.50915361 19550.82453556
0.15200001 564740.65229344 15552.95829806
0.15300001 557888.11433966 20619.54567901
0.15400001 551100.57520208 17938.32456936
0.15500001 544382.21692444 15286.25337264
0.15600001 537728.78562084 16462.56754873
0.15700001 531146.39560041 13846.98718684
0.15800001 524627.55796412 23773.49891122
0.15900001 518178.54879140 18654.42863699
0.16000001 511794.13592536 13595.81186261
0.16100001 505480.00210568 15968.11402028
0.16200001 499231.08638986 17088.68089381
0.16300001 493049.07479779 16980.61093765
0.16400001 486933.74459981 18077.41612170
0.16500001 480884.23257121 16763.62513887
0.16600001 474901.86005091 15465.17980272
0.16700001 468983.63803581 13000.22706015
0.16800001 463130.56966040 15262.46864380
0.16900001 457345.08772884 11662.30028776
0.17000001 451622.75089170 11584.12410737
0.17100001 445964.96132699 11505.89654556
0.17200001 440372.22806864 11427.65985803
0.17300001 434842.94472287 12484.34153256
0.17400001 429377.13832138 16906.72561984
0.17500001 423974.50698546 12312.22026433
0.17600001 418633.06318841 15560.59169363
0.17700001 413355.58877381 22073.18948305
0.17800001 408138.40362488 12054.36832041
0.17900001 402983.12126141 13056.65374558
0.18000001 397888.68370840 14043.48175483
0.18100001 392856.06667094 15014.95957742
0.18200001 387880.51649054 12776.78481675
0.18300001 382965.37166391 13740.79818441
0.18400001 378108.63610724 10492.51514765
0.18500001 373311.64475592 12498.47445688
0.18600001 368570.74733780 11372.25094637
0.18700001 363886.86275361 14366.25402024
0.18800001 359259.65141827 17314.51971815
0.18900001 354690.18238091 11119.53774301
0.19000001 350172.56140138 11035.68879399
0.19100001 345714.06986917 10952.22225095
0.19200001 341306.60079452 12845.07452785
0.19300001 336955.42705415 13727.56474685
0.19400001 332655.06775577 15568.25790663
0.19500001 328408.58359314 12551.77665807
0.19600001 324213.60707120 15328.82006671
0.19700001 320069.77462402 11407.28730668
0.19800001 315977.04702472 12261.48988926
0.19900001 311934.79938848 11229.65330870
0.20000001 307940.70627211 11141.29527948
0.20100001 303997.13292526 11053.33627557
0.20200001 300100.26152943 10051.85873501
0.20300001 296252.84624846 9971.87127604
0.20400001 292451.74859830 10791.47003334
0.20500001 288696.72544213 9812.80216160
0.20600001 284987.91357888 13273.31270234
0.20700001 281324.81240618 10532.80147436
0.20800001 277705.18719940 9576.66383326
0.20900001 274131.90828037 9498.67107093
0.21000001 270600.36680385 11133.85261847
0.21100001 267112.41373071 11042.42770564
0.21200001 263666.33701854 10108.96783919
0.21300001 260261.42834459 10025.27069378
0.21400001 256898.75747033 10770.48091613
0.21500001 253577.23551709 11502.26394685
0.21600001 250294.82458969 11405.93569581
0.21700001 247052.20482574 8886.46822773
0.21800001 243848.69983049 10413.55921862
0.21900001 240682.38016821 8736.77081319
0.22000001 237553.84929344 9449.89257171
0.22100001 234464.22401531 7807.65902888
0.22200001 231411.14142753 8514.77335144
0.22300001 228392.94754462 9976.20442048
0.22400001 225410.18746047 12172.15069844
0.22500001 222464.95838726 9804.03117973
0.22600001 219551.99810641 7475.74588904
0.22700001 216675.40036062 8892.35885131
0.22800001 213831.31938660 8814.12740194
0.22900001 211019.48872105 7280.17270516
0.23000001 208241.62980176 10101.80193942
0.23100001 205496.60203196 7866.41029781
0.23200001 202781.76949155 9213.39013258
0.23300001 200098.76145522 9832.85360295
0.23400001 197447.42534688 11136.03531625
0.23500001 194824.71590467 8276.15432306
0.23600001 192233.60004887 9567.46672694
0.23700001 189671.40326061 8125.52330000
0.23800001 187138.57323053 8050.70180117
0.23900001 184634.05042989 7976.19135584
0.24000001 182157.79689452 7902.00560305
0.24100001 179710.76197578 8480.55125878
0.24200001 177290.44566438 7754.68446017
0.24300001 174897.74043904 7681.50912344
0.24400001 172531.22932209 6974.57527527
0.24500001 170191.27962734 8792.08192145
0.24600001 167877.73489731 9329.80555827
0.24700001 165590.24224771 6775.95303332
0.24800001 163327.84577410 6100.29532825
0.24900001 161089.71014989 7853.12374132
0.25000001 158877.54329521 6579.91376686
0.25100001 156688.68208164 6515.11570918
0.25200001 154525.63785343 6450.67305737
0.25300001 152386.06947641 6386.50047390
0.25400001 150269.75259517 5747.81830870
0.25500001 148176.45696044 8534.96432473
0.25600001 146106.71653365 6195.65560774
0.25700001 144058.92021298 6690.09657122
0.25800001 142034.51218342 5518.04105941
0.25900001 140032.21144007 10376.38735867
0.26000001 138051.84082835 8647.56771865
0.26100001 136092.56643335 6952.96954807
0.26200001 134155.84506323 5821.69317198
0.26300001 132239.48877225 6284.02080380
0.26400001 130344.55683172 5699.31601715
0.26500001 128471.01354613 5638.59305135
0.26600001 126616.95762842 7099.41315017
0.26700001 124784.53724416 5016.33863459
0.26800001 122972.67993057 5458.14265700
0.26900001 121179.42655228 4907.76700761
0.27000001 119407.11635660 7280.84926439
0.27100001 117653.80966482 4800.27566149
0.27200001 115921.56228545 6171.08466030
0.27300001 114207.70776394 7979.69291910
0.27400001 112511.19274514 6497.52168853
0.27500001 110836.61485612 6424.09050108
0.27600001 109178.60933471 4990.00857580
0.27700001 107540.79970352 5381.34187184
0.27800001 105920.63347482 6649.16808107
0.27900001 104320.04943094 5257.73074016
0.28000001 102736.27596151 6062.46793142
0.28100001 101171.39874980 5991.37051753
0.28200001 99625.15795970  4229.08815555
0.28300001 98096.12929989  5014.67436716
0.28400001 96584.66099702  6193.49167958
0.28500001 95091.29844499  4079.41689637
0.28600001 93615.24429755  5239.17739509
0.28700001 92156.52019282  3981.16186077
0.28800001 90714.41105804  4325.71689605
0.28900001 89291.27324499  5437.83879801
0.29000001 87883.45099172  4219.72409910
0.29100001 86493.63252192  4924.94766892
0.29200001 85120.50391430  4489.25558894
0.29300001 83764.15382607  4432.79923031
0.29400001 82423.62693898  4376.69479764
0.29500001 81100.90201223  3960.96824178
0.29600001 79793.82063694  5332.22231648
0.29700001 78503.26634206  3860.00578876
0.29800001 77228.74504455  4502.82219298
0.29900001 75971.06562113  4102.43773775
0.30000001 74728.72050113  4386.20245746
0.30100001 73503.36882058  3662.67304172
0.30200001 72292.19258259  3942.81637011
0.30300001 71098.28202088  3242.08181364
0.30400001 69920.15608149  3198.84729217
0.30500001 68757.17287832  3155.95438452
0.30600001 67608.83919080  3736.06463056
0.30700001 66477.20593205  3378.37176541
0.30800001 65360.34256343  3635.34242549
0.30900001 64259.05391598  3585.65537827
0.31000001 63172.97164831  3241.72119361
0.31100001 62101.22774758  2906.33759619
0.31200001 61045.29791294  3725.89993452
0.31300001 60003.50399534  3956.63124078
0.31400001 58977.81820371  3344.04245048
0.31500001 57965.81335249  3571.85358790
0.31600002 56968.96088050  3521.53648356
0.31700002 55986.56047969  3471.72677973
0.31800002 55018.58415646  2632.63937654
0.31900002 54065.14688483  3633.17804269
0.32000002 53126.28217623  2558.03060791
0.32100002 52200.97261692  2773.43780646
0.32200002 51290.92767685  2733.55011997
0.32300002 50393.38589736  2449.11867058
0.32400002 49510.36775440  2654.99359655
0.32500002 48641.08159123  2854.25880293
0.32600002 47786.06758244  4219.03210663
0.32700002 46944.09452080  3233.50938371
0.32800002 46116.52445641  2275.85058969
0.32900002 45301.63043145  2915.16005631
0.33000002 44501.09109412  2430.42720520
0.33100002 43711.28059720  2612.18625219
0.33200002 42937.91858150  2788.17387512
0.33300002 42176.07019887  2324.32333873
0.33400002 41427.71847051  2706.26583724
0.33500002 40691.17984922  3281.33689843
0.33600002 39968.53319161  2020.40944852
0.33700002 39257.58655226  2786.50362544
0.33800002 38560.10926170  2549.01614346
0.33900002 37874.19978745  2511.05956483
0.34000002 37201.24111784  1902.84357329
0.34100002 36540.11449429  2061.95875856
0.34200002 35891.87105320  1846.63685314
0.34300002 35254.56406981  2728.70338823
0.34400002 34630.42804220  2867.39957769
0.34500002 34017.39575869  2295.15380054
0.34600002 33416.94370351  2782.96320343
0.34700002 32826.39174518  2056.24527630
0.34800002 32248.84101455  1857.04959778
0.34900002 31682.13209187  1829.64321496
0.35000002 31126.53571649  2130.45583802
0.35100002 30582.85361915  1937.72969709
0.35200002 30048.71020241  2545.72684892
0.35300002 29526.19021730  2038.19300724
0.35400002 29014.79741012  2008.54944585
0.35500002 28513.91914583  1674.90768996
0.35600002 28022.80406277  1650.68335150
0.35700002 27542.67192804  1922.75401837
0.35800002 27073.39965070  1749.48316829
0.35900002 26613.93646845  2155.72895605
0.36000002 26164.81707765  1841.87238542
0.36100002 25725.00168678  1815.92795508
0.36200002 25296.17447921  1515.11444220
0.36300002 24875.89478819  1629.86870372
0.36400002 24465.43511669  1607.37916330
0.36500002 24064.35158968  1453.24626134
0.36600002 23672.94489728  1433.51524616
0.36700002 23290.15837823  1414.17848371
0.36800002 22918.06888461  1649.06972471
0.36900002 22553.74142357  1627.25252079
0.37000002 22198.12665869  1482.39096849
0.37100002 21851.15037869  1341.22367378
0.37200002 21513.61650049  1444.42428027
0.37300002 21184.05183725  1544.95297368
0.37400002 20862.80367767  1290.88603871
0.37500002 20550.36427663  1390.84872013
0.37600002 20246.08568457  1373.89943964
0.37700002 19949.22715118  1470.45760297
0.37800002 19660.32778068  1117.68968728
0.37900002 19379.78842903  1656.97198918
0.38000002 19106.81979901  1201.15028357
0.38100002 18840.49018605  1079.56013880
0.38200002 18582.56207976  1387.83871467
0.38300002 18331.15255884  1161.46188115
0.38400002 18087.94505661  1462.41042711
0.38500002 17850.43726904  1136.89440352
0.38600002 17621.14288752  1125.19813239
0.38700002 17398.06243841  1316.33746645
0.38800002 17181.75815407  1403.57789010
0.38900002 16971.52701898  1092.11781541
0.39000002 16768.97913281  1278.55087455
0.39100002 16571.67876612  1559.06361218
0.39200002 16381.20298093  1158.80635377
0.39300002 16196.66047590  1148.66721537
0.39400002 16019.20225047  1328.79288963
0.39500002 15846.46076053  1129.53577653
0.39600002 15679.77449971  1027.10367727
0.39700002 15518.70299258  1111.75993506
0.39800002 15363.43663693  919.50172628
0.39900002 15213.49311658  1095.37155629
0.40000002 15068.68741395  997.01974998
0.40100002 14929.57461642  1080.30407043
0.40200002 14795.72754302  1162.72230406
0.40300002 14666.21093849  1066.52690998
0.40400002 14542.23884328  1236.81747222
0.40500002 14423.20242066  1493.23421736
0.40600002 14308.77174960  960.90561237
0.40700002 14198.85569024  1129.66101224
0.40800002 14093.78688319  1210.51541275
0.40900002 13992.80401123  1290.83623120
0.41000002 13896.63934360  1028.07342735
0.41100002 13804.44430939  1109.04910837
0.41200002 13716.16276890  1189.60285331
0.41300002 13632.64797509  846.58747937
0.41400002 13552.49497465  928.00713736
0.41500002 13476.60089792  1261.40990381
0.41600002 13403.89149654  1676.82690567
0.41700002 13335.24913566  1003.34419251
0.41800002 13271.21046128  1084.32430212
0.41900002 13208.64854494  998.57387731
0.42000002 13150.71347179  1328.74815215
0.42100002 13096.56802151  829.01279504
0.42200002 13045.59898626  1407.16360133
0.42300002 12997.21895022  909.28548084
0.42400002 12951.86091996  1073.38552461
0.42500002 12909.98853187  989.93796753
0.42600002 12870.15142558  989.19988544
0.42700002 12834.57645399  906.37783213
0.42800002 12800.58772814  906.08964527
0.42900002 12770.67702124  1070.82131897
0.43000002 12742.65809496  1318.10061580
0.43100002 12716.34167857  988.82277578
0.43200002 12693.63376763  906.89670750
0.43300002 12673.12774388  1485.03717940
0.43400002 12654.89335464  908.30501357
0.43500002 12638.84887514  991.89690673
0.43600002 12625.28245492  993.10476497
0.43700002 12613.34850540  994.43644329
0.43800002 12603.47444876  1078.92048132
0.43900002 12596.30283057  914.49162884
0.44000002 12590.47576199  916.14601224
0.44100002 12586.95956223  917.96700438
0.44200002 12585.01329146  1087.15642470
0.44300002 12584.96277950  921.97441692
0.44400002 12586.95080035  840.17900574
0.44500002 12589.30967508  1094.89231433
0.44600002 12593.73826467  928.85120973
0.44700002 12600.71289610  1608.85909882
0.44800002 12607.56699769  1018.94361304
0.44900002 12617.52210618  851.68278253
0.45000002 12628.08579687  1281.43506697
0.45100002 12639.70004545  1628.24623702
0.45200002 12652.81073115  859.75852993
0.45300002 12666.86409146  1121.39753116
0.45400002 12682.50324696  952.13897639
0.45500002 12699.13530381  1042.34507514
0.45600002 12716.64796422  1220.41676297
0.45700002 12735.26735507  962.40419963
0.45800002 12754.47987749  1317.21897178
0.45900002 12774.80147552  1322.19201538
0.46000002 12796.64880829  973.37713774
0.46100002 12818.20400470  888.30157963
0.46200002 12841.48387134  1159.39342627
0.46300002 12865.43151415  1164.06429857
0.46400002 12889.30259068  1078.83467797
0.46500002 12914.48012035  1263.81108448
0.46600002 12940.03478843  1087.73937587
0.46700002 12965.91680796  1274.29036428
0.46800002 12993.25258015  1279.70550727
0.46900002 13020.03711553  1193.28645820
0.47000002 13047.65079807  1198.36154435
0.47100002 13075.88469058  1110.92721597
0.47200002 13104.51720418  1115.71864765
0.47300002 13133.61831404  1400.70045958
0.47400002 13162.43955699  1125.38863546
0.47500002 13191.94815316  1036.09565706
0.47600002 13222.16355904  1040.65043224
0.47700002 13251.80769495  1045.17012244
0.47800002 13281.84003978  954.30025209
