# SAXS profile: number of points = 501, q_min = 0, q_max = 0.5, delta_q = 0.001
#    q    intensity    error
0.00000000 1646666.22097351 296.39991978
0.00100000 1646580.82482819 642.16653693
0.00200000 1646324.60080194 889.01531258
0.00300000 1645897.77423165 1086.29256969
0.00400000 1645300.19092074 2097.75782313
0.00500000 1644532.54427725 1776.09521812
0.00600000 1643594.62045479 2243.50674826
0.00700000 1642487.19765527 1970.98471910
0.00800000 1641210.07233482 2658.76042944
0.00900000 1639764.58248069 3443.50577041
0.01000000 1638150.15973054 2973.24266829
0.01100000 1636368.38620599 2945.46322341
0.01200000 1634419.08584281 3505.82909284
0.01300000 1632303.65758137 3427.83783210
0.01400000 1630022.26278551 5134.57035539
0.01500000 1627576.34514609 4296.80174252
0.01600000 1624965.66602732 6629.86021377
0.01700000 1622192.36271054 4817.91153338
0.01800000 1619256.98204871 6460.83564910
0.01900000 1616160.34231881 5818.17749488
0.02000000 1612903.36067633 6604.83956074
0.02100000 1609488.54404286 7435.83741061
0.02200000 1605914.78562514 7202.52814076
0.02300000 1602184.97559645 6921.43940963
0.02400000 1598299.79859126 8391.07432522
0.02500000 1594261.51909608 7461.14425012
0.02600000 1590070.65279086 6439.78643835
0.02700000 1585728.97345862 6660.06199356
0.02800000 1581236.95900106 8941.89541322
0.02900000 1576597.99203383 10642.03693485
0.03000000 1571812.61298746 10232.50058089
0.03100000 1566882.51714029 9025.24371401
0.03200000 1561808.76900557 9277.14451518
0.03300000 1556595.48538369 11907.95601215
0.03400000 1551241.42322656 8958.41963248
0.03500000 1545750.25728663 14189.98801716
0.03600000 1540122.81069791 11966.75479215
0.03700000 1534362.05090193 13118.79614192
0.03800000 1528469.44321938 9835.70132231
0.03900000 1522447.48392346 10048.15385922
0.04000000 1516296.18508044 12122.78856148
0.04100000 1510019.77233279 13318.37500950
0.04200000 1503619.70941291 16487.19087860
0.04300000 1497097.59329182 11857.01348925
0.04400000 1490456.16169372 11066.63751453
0.04500000 1483698.22899270 15356.27738360
0.04600000 1476823.96581156 12493.93133157
0.04700000 1469837.40353738 13757.67873695
0.04800000 1462740.16127705 12901.36882274
0.04900000 1455534.80849047 13099.81388618
0.05000000 1448223.25258316 13294.69007780
0.05100000 1440809.31442319 15733.63844644
0.05200000 1433291.94359029 14813.07292731
0.05300000 1425677.06002253 20786.37250414
0.05400000 1417964.77666313 16377.49393420
0.05500000 1410159.54249660 14214.40885146
0.05600000 1402261.37027011 16785.06938539
0.05700000 1394275.97232960 13343.22167804
0.05800000 1386202.27448052 15948.25791256
0.05900000 1378044.12932644 13642.63751752
0.06000000 1369805.32053171 12533.71926843
0.06100000 1361487.05594153 16460.37927555
0.06200000 1353092.27928734 14065.39490066
0.06300000 1344624.08877165 16780.90941247
0.06400000 1336081.93922893 19540.19927505
0.06500000 1327472.44399947 21027.16449656
0.06600000 1318796.46429359 15904.68610354
0.06700000 1310055.13425036 18707.58819259
0.06800000 1301252.65907019 14814.76221698
0.06900000 1292392.91685058 16284.15151472
0.07000000 1283475.33036686 15035.91419936
0.07100000 1274503.95426417 22023.42936121
0.07200000 1265480.98669607 19399.82443487
0.07300000 1256409.66993953 19524.60718570
0.07400000 1247293.00094536 15435.25161006
0.07500000 1238131.36673397 16937.63789083
0.07600000 1228928.08070048 18452.35599678
0.07700000 1219687.13317765 14270.34012729
0.07800000 1210409.62896821 14343.35477592
0.07900000 1201097.08994048 17295.79890638
0.08000000 1191755.27162342 17375.79267539
0.08100000 1182384.28181449 17451.99281840
0.08200000 1172985.95500094 18984.77857255
0.08300000 1163563.29503684 21991.34730829
0.08400000 1154119.98437361 19129.53963891
0.08500000 1144657.21246553 17719.29448080
0.08600000 1135177.55959217 25183.91534197
0.08700000 1125683.50964880 14859.02302511
0.08800000 1116176.35160483 17881.14599248
0.08900000 1106659.85903698 16433.89967859
0.09000000 1097136.02181354 19468.67962163
0.09100000 1087606.28944914 21012.55449935
0.09200000 1078073.20393969 22558.68285240
0.09300000 1068540.51232916 18079.70631821
0.09400000 1059007.07193206 16599.93663269
0.09500000 1049476.99191755 18134.96327273
0.09600000 1039952.17898055 21183.82688164
0.09700000 1030437.08233056 19691.65356910
0.09800000 1020930.56301610 15160.81957362
0.09900000 1011436.29171350 16688.69959802
0.10000000 1001954.49291621 16697.57240969
0.10100000 992488.23628865 19740.59194822
0.10200000 983039.91879211 16706.76420570
0.10300000 973610.72679299 15188.32805244
0.10400000 964203.06319301 19742.05864764
0.10500000 954820.15571653 16699.80530920
0.10600001 945458.79594636 15174.61438896
0.10700001 936126.86845700 19714.83277744
0.10800001 926821.10176367 16668.87829969
0.10900001 917546.91999289 21195.33484941
0.11000001 908304.56011290 15123.27163773
0.11100001 899094.48378392 19636.22445018
0.11200001 889920.49205356 19609.39896555
0.11300001 880781.88179203 19579.78215407
0.11400001 871681.91645959 16540.16514360
0.11500001 862621.27046290 16510.57189411
0.11600001 853602.13012925 23969.14894277
0.11700001 844625.19391510 22424.79995454
0.11800001 835690.91648930 20883.91698666
0.11900001 826801.36703426 17858.91036912
0.12000001 817957.49620536 19299.70803208
0.12100001 809162.68518822 17769.21340381
0.12200001 800415.97798250 19197.97813635
0.12300001 791719.31299960 17671.17589872
0.12400001 783073.02891036 22023.92997582
0.12500001 774478.24981316 16101.40357232
0.12600001 765938.14254270 16050.23453332
0.12700001 757451.05326577 14543.06090806
0.12800001 749019.08666999 14493.52001013
0.12900001 740643.13200924 18775.30428135
0.13000001 732324.20808594 17268.20564060
0.13100001 724062.06762965 14336.42961485
0.13200001 715858.52376057 24278.34297783
0.13300001 707715.23873958 22760.12315085
0.13400001 699630.87830588 15584.27854899
0.13500001 691608.17430848 16930.56890532
0.13600001 683645.82090448 15453.81451020
0.13700001 675746.67212949 13987.95677266
0.13800001 667908.52036057 16711.07196744
0.13900001 660134.43497514 13862.82378822
0.14000001 652423.92342298 20698.14994673
0.14100001 644777.40313014 20600.63900160
0.14200001 637195.08983227 20501.75298232
0.14300001 629679.05136825 21761.70904173
0.14400001 622225.68316548 13533.40924722
0.14500001 614840.17268052 17504.50054194
0.14600001 607520.11068641 16074.98288709
0.14700001 600268.16675583 21321.52628904
0.14800001 593079.40010225 15906.39026118
0.14900001 585958.95185170 14502.48474257
0.15000001 578905.15337970 18357.08327981
0.15100001 571918.77839653 16951.67339154
0.15200001 564999.71737741 12966.74412567
0.15300001 558149.10759030 14182.56949313
0.15400001 551363.30089312 14101.11708579
0.15500001 544646.69238793 15293.67984401
0.15600001 537994.99978667 16470.71769580
0.15700001 531414.40222330 15113.42631254
0.15800001 524897.24508680 20030.07981791
0.15900001 518449.84283652 18664.19522308
0.16000001 512067.21998979 13603.06634113
0.16100001 505754.79788233 14747.81060241
0.16200001 499507.54191146 17098.14396677
0.16300001 493327.03603529 13349.43022531
0.16400001 487213.23368315 14470.23372352
0.16500001 481165.39400042 13179.12076388
0.16600001 475184.54800714 14284.04818749
0.16700001 469267.75684636 13008.10283396
0.16800001 463416.30074355 15271.88491209
0.16900001 457632.20290290 12836.58389754
0.17000001 451911.28339909 12750.67746319
0.17100001 446255.00754667 16118.73163373
0.17200001 440663.47851611 13722.26136900
0.17300001 435135.76902777 12492.74851875
0.17400001 429671.29090603 12406.75911083
0.17500001 424269.89210363 13440.87081662
0.17600001 418929.81921624 17796.13956080
0.17700001 413653.71730192 12149.01025096
0.17800001 408437.47698770 12063.20145260
0.17900001 403283.54201649 13066.38737851
0.18000001 398190.26715283 11891.95289024
0.18100001 393158.84292522 10733.23691886
0.18200001 388184.39826084 11721.22845917
0.18300001 383270.39023788 13751.74225136
0.18400001 378414.75031894 14701.41374440
0.18500001 373618.80833270 12508.75829392
0.18600001 368878.89487410 10347.05349005
0.18700001 364196.11957190 16432.52969144
0.18800001 359569.90332987 10193.80724102
0.18900001 355001.22332181 15176.30301405
0.19000001 350484.58740261 11045.52229388
0.19100001 346027.04114547 14948.36888380
0.19200001 341620.34061097 15823.85492480
0.19300001 337270.10789177 12758.92878444
0.19400001 332970.48697547 10713.32592468
0.19500001 328724.93046390 11597.41609480
0.19600001 324530.60608383 12466.84382185
0.19700001 320387.54419595 10467.06156353
0.19800001 316295.56517642 11329.70768005
0.19900001 312253.83929502 10304.37718372
0.20000001 308260.40720770 9294.05171656
0.20100001 304317.55827164 11064.98694171
0.20200001 300421.20685192 13721.73927150
0.20300001 296574.22326936 13612.75749147
0.20400001 292773.55959564 10803.34485971
0.20500001 289019.19655509 10716.83231481
0.20600001 285310.94712484 12402.46745776
0.20700001 281648.20686360 8787.42446952
0.20800001 278029.14223000 9587.83542302
0.20900001 274456.15885857 8645.36941272
0.21000001 270924.94897233 8574.77504032
0.21100001 267437.44443661 9354.96224863
0.21200001 263991.57766677 9277.98443571
0.21300001 260586.98219227 10037.81102859
0.21400001 257224.50782660 10784.13800047
0.21500001 253903.31764388 13984.99539700
0.21600001 250621.05354490 11420.80195000
0.21700001 247378.70787695 8089.28413003
0.21800001 244175.29035156 8823.27453402
0.21900001 241009.00291663 11134.61646121
0.22000001 237880.61904435 8674.31718360
0.22100001 234790.98660452 14073.37240251
0.22200001 231738.10635954 8526.80402668
0.22300001 228719.77652230 8453.48333999
0.22400001 225737.00657833 9904.21163196
0.22500001 222791.71757727 9063.16749962
0.22600001 219878.80039518 8235.56085825
0.22700001 217002.06918594 13358.64801081
0.22800001 214157.83857390 8827.58652347
0.22900001 211345.81493716 9478.86024820
0.23000001 208567.88015023 10117.62834457
0.23100001 205822.59961720 7878.88948596
0.23200001 203107.46883227 9938.04891997
0.23300001 200424.24790719 7034.89143425
0.23400001 197772.71076494 8365.78606102
0.23500001 195149.61975585 7599.12655270
0.23600001 192558.14116313 12321.79603581
0.23700001 189995.66451071 8139.41465262
0.23800001 187462.37914389 9408.73725425
0.23900001 184957.45079272 8656.00910652
0.24000001 182480.78535968 9895.02105417
0.24100001 180033.35028766 10456.33747930
0.24200001 177612.38336586 7121.36884791
0.24300001 175219.35796060 7054.33168518
0.24400001 172852.31461708 8258.01972146
0.24500001 170511.71858696 9437.82407024
0.24600001 168197.87004485 6231.73137995
0.24700001 165909.64370348 7406.20684528
0.24800001 163646.60505862 7334.64118571
0.24900001 161407.83427422 8473.91170028
0.25000001 159194.95118496 5993.69019566
0.25100001 157005.27317362 7121.75952808
0.25200001 154841.71518030 8814.36505364
0.25300001 152701.32996453 7563.29723097
0.25400001 150584.31300666 6335.83526951
0.25500001 148490.27208850 7982.83740516
0.25600001 146419.72661529 6773.37687369
0.25700001 144370.97745975 7822.01992886
0.25800001 142345.88944776 7189.17948671
0.25900001 140342.59911837 8757.37859934
0.26000001 138361.27697602 5958.52867490
0.26100001 136401.14528844 9649.01747426
0.26200001 134463.49873066 8487.33644147
0.26300001 132546.29416677 5248.83349737
0.26400001 130650.43042137 6751.36131149
0.26500001 128775.85852461 7707.23549740
0.26600001 126920.76776205 6099.81238728
0.26700001 125087.39607021 6034.21627197
0.26800001 123274.37968459 5471.53360122
0.26900001 121480.19922949 6887.92762226
0.27000001 119706.75024003 5839.29555304
0.27100001 117952.42939876 6256.19715137
0.27200001 116219.05826362 8090.59012390
0.27300001 114503.94889945 5647.33502698
0.27400001 112806.34505635 5118.58814917
0.27500001 111130.59542081 6901.21030223
0.27600001 109471.32315270 5458.24043071
0.27700001 107832.39786791 7194.57792624
0.27800001 106211.00462003 6667.39613057
0.27900001 104609.24440038 5272.30616731
0.28000001 103024.18042981 4776.71635170
0.28100001 101457.98852652 4291.67311779
0.28200001 99910.44670683  6361.79799516
0.28300001 98380.10186277  6286.48880657
0.28400001 96867.42261080  7453.94852270
0.28500001 95372.63994237  4909.78373662
0.28600001 93895.27745618  4446.41107439
0.28700001 92435.19292316  4392.52057562
0.28800001 90991.81279861  3944.49527153
0.28900001 89567.16718600  7792.34391402
0.29000001 88157.98922672  5772.14461784
0.29100001 86766.79120673  4180.42419822
0.29200001 85392.20154605  3752.98743560
0.29300001 84034.39532275  4447.10041099
0.29400001 82692.45753571  6220.54041258
0.29500001 81368.22710713  5057.84923640
0.29600001 80059.67320430  4993.32205412
0.29700001 78767.67063815  4929.28106188
0.29800001 77491.66573802  4170.60164745
0.29900001 76232.45460781  3773.50668172
0.30000001 74988.65800517  5078.60710382
0.30100001 73761.65890699  4009.68396800
0.30200001 72548.99474810  3627.08716414
0.30300001 71353.49798054  3579.09162814
0.30400001 70173.77396651  4173.58540424
0.30500001 69009.27285856  5068.04123866
0.30600001 67859.36312712  3749.90858394
0.30700001 66726.11584421  4624.12004692
0.30800001 65607.65332017  3040.91487536
0.30900001 64504.74628956  3299.41792892
0.31000001 63416.97173606  3550.08224586
0.31100001 62343.59702558  3209.44852683
0.31200001 61286.01689623  4891.54367017
0.31300001 60242.57045744  3121.16772318
0.31400001 59215.35520537  2797.92566593
0.31500001 58201.58849781  3586.38205304
0.31600002 57203.10722066  2992.00866484
0.31700002 56218.99046434  3754.30436097
0.31800002 55249.36313244  3701.15501149
0.31900002 54294.12254122  3387.95340699
0.32000002 53353.65434872  3596.57000994
0.32100002 52426.57159800  2532.20352808
0.32200002 51514.84376182  3244.66258797
0.32300002 50615.50446583  3443.87908693
0.32400002 49730.82149089  2666.81542873
0.32500002 48859.77641795  3106.01613396
0.32600002 48003.05731856  2354.55007297
0.32700002 47159.36953404  3480.36163642
0.32800002 46329.95500966  2972.29840439
0.32900002 45513.27288739  2928.77924899
0.33000002 44711.05586128  2885.87523722
0.33100002 43919.50008557  2187.19120783
0.33200002 43144.34145559  2801.57794509
0.33300002 42380.69105178  3397.23635559
0.33400002 41630.59460674  2301.13122586
0.33500002 40892.19376120  2473.15999580
0.33600002 40167.82928930  2233.53225340
0.33700002 39455.08221416  2200.41003929
0.33800002 38755.81305793  3153.17309972
0.33900002 38068.05993162  2329.76537815
0.34000002 37393.22447200  2103.92987456
0.34100002 36730.36649065  2261.12146825
0.34200002 36080.32765590  2041.96624039
0.34300002 35441.16047833  2560.26955421
0.34400002 34815.24898362  1981.85814225
0.34500002 34200.35357405  2484.99780838
0.34600002 33598.09426138  2098.53706695
0.34700002 33005.65171837  2412.05314182
0.34800002 32426.35697014  1867.27185456
0.34900002 31857.79225435  2676.05467611
0.35000002 31300.35870006  1977.55675633
0.35100002 30754.84496001  2760.55501436
0.35200002 30218.86193369  2560.14210428
0.35300002 29694.45225052  1734.45303810
0.35400002 29181.31698030  1553.90520280
0.35500002 28678.60167625  1837.72488246
0.35600002 28185.62987652  1811.20866165
0.35700002 27703.63734045  1636.45393521
0.35800002 27232.53651430  1613.11937683
0.35900002 26771.22870722  2023.90498613
0.36000002 26320.24746028  1710.28976098
0.36100002 25878.54338566  1826.76646412
0.36200002 25447.94629729  2078.46111228
0.36300002 25025.75805300  2459.53161795
0.36400002 24613.46391639  1482.34593458
0.36500002 24210.43480925  1462.06822739
0.36600002 23817.25647951  1311.14003130
0.36700002 23432.62731562  1681.52541582
0.36800002 23058.68303215  2042.07706606
0.36900002 22692.47922051  1637.26245332
0.37000002 22335.01422686  1615.82668078
0.37100002 21986.23167192  1349.51496395
0.37200002 21646.90312469  2058.94528824
0.37300002 21315.45523798  1913.27535279
0.37400002 20992.36563977  1416.98474781
0.37500002 20678.08132126  1632.74137847
0.37600002 20371.88146522  1152.02995143
0.37700002 20073.22277800  1479.59732106
0.37800002 19782.53598944  1124.63722428
0.37900002 19500.15838216  1444.96180457
0.38000002 19225.28213872  1428.34240416
0.38100002 18957.10813757  1194.86658252
0.38200002 18697.39974476  1074.16566622
0.38300002 18444.10542756  1274.85662755
0.38400002 18199.13851595  1366.30038881
0.38500002 17959.73750214  1247.84262076
0.38600002 17728.66327101  1955.38300811
0.38700002 17503.72082651  1120.58826040
0.38800002 17285.54934544  1210.33422251
0.38900002 17073.55072368  1098.68304112
0.39000002 16869.19039931  1286.19148293
0.39100002 16669.97756729  1078.21420013
0.39200002 16477.69256472  971.36002271
0.39300002 16291.32185914  1444.22575124
0.39400002 16112.09538397  1431.96254509
0.39500002 15937.55513164  1041.35990164
0.39600002 15769.01766986  1126.85405608
0.39700002 15606.13891138  1211.19249830
0.39800002 15449.01504398  1202.01067245
0.39900002 15297.29309817  1193.18891819
0.40000002 15150.68568439  1184.70792322
0.40100002 15009.75548229  905.08829846
0.40200002 14874.14895447  1348.71352035
0.40300002 14742.84392227  893.41638402
0.40400002 14617.09069686  976.78713210
0.40500002 14496.18940212  971.09977406
0.40600002 14380.02608799  965.69069769
0.40700002 14268.28758447  1047.86308985
0.40800002 14161.49344855  1129.44996350
0.40900002 14058.72329945  1210.45613344
0.41000002 13960.74733233  1291.02017073
0.41100002 13866.77037513  856.96644979
0.41200002 13776.71415228  853.46748217
0.41300002 13691.36220691  1020.28036000
0.41400002 13609.52456464  1440.22800530
0.41500002 13531.87143916  1182.14434494
0.41600002 13457.38080781  1010.11105130
0.41700002 13386.97589142  1091.17245661
0.41800002 13321.16313604  1088.40568560
0.41900002 13256.87501160  918.70148184
0.42000002 13197.29711006  1000.09122239
0.42100002 13141.26038442  1164.57855045
0.42200002 13088.60708914  1079.61380691
0.42300002 13038.49408614  912.17308949
0.42400002 12991.35451466  993.83866747
0.42500002 12947.77770930  1241.04455224
0.42600002 12906.21461421  991.97170225
0.42700002 12868.89115158  908.80113619
0.42800002 12833.14610682  990.97558933
0.42900002 12801.51047575  1155.97645074
0.43000002 12771.79443722  908.26620444
0.43100002 12743.75973578  1073.53437101
0.43200002 12719.37374995  908.73570063
0.43300002 12697.09483846  909.23900447
0.43400002 12677.21845815  992.62625231
0.43500002 12659.43381543  1159.09781507
0.43600002 12644.14961792  911.70645140
0.43700002 12630.53658242  995.79155135
0.43800002 12618.97105758  1080.24706858
0.43900002 12610.13288129  1081.94945249
0.44000002 12602.60108358  1083.76073154
0.44100002 12597.42967106  918.73058945
0.44200002 12593.84018388  836.86071988
0.44300002 12592.08102747  1174.08569064
0.44400002 12592.46777707  1176.76616954
0.44500002 12593.16169635  1095.22732464
0.44600002 12595.90892057  929.01130646
0.44700002 12601.26216579  1016.16582921
0.44800002 12606.40873571  1103.75416916
0.44900002 12614.63398434  936.63661773
0.45000002 12623.65407357  939.38926240
0.45100002 12633.60369317  856.55837099
0.45200002 12645.05918931  1117.00135643
0.45300002 12657.51641020  1206.76767174
0.45400002 12671.46677593  1037.79317813
0.45500002 12686.48907512  1388.40943018
0.45600002 12702.37035283  1219.04654054
0.45700002 12719.36804546  1310.73093921
0.45800002 12736.94492789  1052.32643982
0.45900002 12755.70624984  1144.18690484
0.46000002 12775.94389948  1236.83918753
0.46100002 12795.85108031  1152.77827846
0.46200002 12817.60622231  979.20107376
0.46300002 12839.89098615  983.02210049
0.46400002 12862.18276014  897.13729004
0.46500002 12885.76859665  990.78679436
0.46600002 12909.77585753  904.32984168
0.46700002 12934.10118857  1361.96091971
0.46800002 12959.85493299  1094.07100530
0.46900002 12985.08172283  1190.08279630
0.47000002 13011.09305493  1562.69740543
0.47100002 13037.77475183  1015.38194580
0.47200002 13064.86948708  1019.64778745
0.47300002 13092.43194175  1396.30793277
0.47400002 13119.69881987  1495.64573636
0.47500002 13147.63775016  1314.23793180
0.47600002 13176.38522797  1225.60153007
0.47700002 13204.45645247  1041.43552977
0.47800002 13232.99798350  1045.87004520
