# SAXS profile: number of points = 501, q_min = 0, q_max = 0.5, delta_q = 0.001
#    q    intensity    error
0.00000000 1664650.74656090 324.60689558
0.00100000 1664564.85969263 749.05420465
0.00200000 1664307.16252007 1048.51354559
0.00300000 1663877.87953247 1397.65746860
0.00400000 1663276.86238940 1621.69500245
0.00500000 1662504.80191571 1645.87981904
0.00600000 1661561.48430707 1919.10359251
0.00700000 1660447.68781722 1992.53730819
0.00800000 1659163.20792990 2463.85746780
0.00900000 1657709.38685619 3232.53344255
0.01000000 1656085.65289454 3552.30387885
0.01100000 1654293.61118885 3275.50149277
0.01200000 1652333.06430664 3866.45954000
0.01300000 1650205.42387881 4158.51785159
0.01400000 1647910.83525246 5190.91936116
0.01500000 1645450.73747609 5133.80652953
0.01600000 1642824.96098380 5445.96498911
0.01700000 1640035.57839399 6642.14439045
0.01800000 1637083.14492603 5132.25589028
0.01900000 1633968.51228320 6372.47748545
0.02000000 1630692.54795498 5136.68175842
0.02100000 1627257.86600474 6980.93656167
0.02200000 1623663.23210756 6721.96608632
0.02300000 1619911.61501086 8747.52311923
0.02400000 1616003.74310811 7878.01860687
0.02500000 1611941.73370762 8801.20226800
0.02600000 1607726.28396667 9115.80844703
0.02700000 1603359.04161390 8754.34076817
0.02800000 1598840.57209712 8345.94816909
0.02900000 1594174.23483485 10043.29814059
0.03000000 1589360.54595239 8868.63225406
0.03100000 1584401.23032100 8365.63888102
0.03200000 1579297.34711192 7817.52222826
0.03300000 1574053.00813554 11238.73899620
0.03400000 1568666.99911553 9882.60255041
0.03500000 1563143.01499841 9285.06993786
0.03600000 1557481.89439688 11237.23238739
0.03700000 1551686.50870002 9729.07485949
0.03800000 1545758.40417095 9042.68708289
0.03900000 1539700.11841490 9238.20113831
0.04000000 1533511.60596157 11317.31617643
0.04100000 1527197.07583905 12507.74463106
0.04200000 1520758.07724688 9808.89005330
0.04300000 1514196.23056777 9993.69558563
0.04400000 1507514.13132169 16281.15337440
0.04500000 1500714.70470939 13461.41152673
0.04600000 1493798.11815653 12637.53266708
0.04700000 1486768.45898276 12845.68008304
0.04800000 1479627.21478457 18487.94290894
0.04900000 1472377.18913412 11042.82943252
0.05000000 1465019.96143650 14569.62419494
0.05100000 1457559.67048275 14779.65574719
0.05200000 1449995.24847273 12680.20903881
0.05300000 1442332.35022821 21029.20664666
0.05400000 1434571.29105740 16569.29918440
0.05500000 1426716.63286819 16778.18838522
0.05600000 1418768.21990704 13343.51573089
0.05700000 1410731.82707532 15955.37770900
0.05800000 1402606.36872798 22343.52049711
0.05900000 1394395.67617734 20079.29867477
0.06000000 1386103.68642668 12682.84932333
0.06100000 1377731.49811410 16656.77459059
0.06200000 1369282.04754289 19409.57393119
0.06300000 1360758.44842860 18288.59440197
0.06400000 1352160.26725815 14501.91954455
0.06500000 1343494.00919550 15960.70957585
0.06600000 1334760.50887257 14755.77811599
0.06700000 1325961.04767862 14877.28365120
0.06800000 1317099.93231945 17721.58041889
0.06900000 1308180.76485100 20603.84801105
0.07000000 1299203.06691471 17987.46730376
0.07100000 1290170.89348380 18114.00019293
0.07200000 1281086.63113086 19639.05897526
0.07300000 1271953.26423776 14118.68189458
0.07400000 1262774.10864076 19888.69314316
0.07500000 1253549.14448815 15719.50700869
0.07600000 1244282.21304749 15808.60625789
0.07700000 1234976.86227392 17339.07595933
0.07800000 1225634.40622929 17428.52207391
0.07900000 1216256.47555804 21892.61758689
0.08000000 1206848.42812755 19062.17181650
0.08100000 1197410.90525484 16200.97030822
0.08200000 1187945.29149531 14789.91957314
0.08300000 1178455.08568114 20787.94868704
0.08400000 1168943.49263968 19375.23929995
0.08500000 1159412.00086983 16452.05706469
0.08600000 1149863.09296421 18006.85688127
0.08700000 1140299.42951742 19567.53912937
0.08800000 1130722.11238142 19623.68318198
0.08900000 1121134.87849335 19675.91804173
0.09000000 1111539.98348205 18207.02578472
0.09100000 1101938.74872363 19768.78208086
0.09200000 1092333.66034036 15238.05527773
0.09300000 1082728.49420647 16793.11973429
0.09400000 1073122.17412259 19879.58920991
0.09500000 1063518.87849183 18377.60708414
0.09600000 1053920.33529166 18401.44991920
0.09700000 1044331.23514805 16886.83686624
0.09800000 1034750.07739878 21512.45512059
0.09900000 1025181.26446687 23066.57953515
0.10000000 1015624.17964288 18464.04845422
0.10100000 1006082.34200812 16932.36661236
0.10200000 996558.28781429 16936.50889803
0.10300000 987052.84876756 26176.64278068
0.10400000 977568.45911098 21555.38553747
0.10500000 968108.88634889 15392.93201717
0.10600001 958670.45052813 18463.99374597
0.10700001 949261.10940385 16915.83376560
0.10800001 939877.71581317 18440.40165209
0.10900001 930525.48815175 19959.77266027
0.11000001 921204.93391354 16871.86915878
0.11100001 911916.38882085 16852.21565870
0.11200001 902663.72605693 26010.25649082
0.11300001 893446.16613095 19861.30920818
0.11400001 884267.00345591 24405.77044451
0.11500001 875127.00352442 21318.09480968
0.11600001 866028.26619302 15198.79678742
0.11700001 856971.66827197 19718.91901560
0.11800001 847957.46417430 16649.64559323
0.11900001 838987.78654591 21142.49321680
0.12000001 830063.77980937 16572.22414453
0.12100001 821188.49195094 21038.85015488
0.12200001 812361.12162563 25479.70778017
0.12300001 803583.89279972 20925.32555439
0.12400001 794856.81963674 17884.27928449
0.12500001 786181.07241648 16344.70526571
0.12600001 777559.95962105 14812.51792880
0.12700001 768991.83433000 19194.03708942
0.12800001 760478.61046043 16186.78798652
0.12900001 752021.57957545 23463.07438862
0.13000001 743621.27850533 17534.59057365
0.13100001 735277.79891701 24749.45187818
0.13200001 726992.82039023 17404.20894058
0.13300001 718768.10014491 17336.68739280
0.13400001 710602.19057671 20145.57305263
0.13500001 702498.14649039 15764.05915049
0.13600001 694454.28485305 14271.03622662
0.13700001 686473.60078993 15631.00462704
0.13800001 678553.81671947 24051.34116778
0.13900001 670698.57447779 15493.13780107
0.14000001 662906.57842436 18226.61723336
0.14100001 655178.66648270 16746.36750511
0.14200001 647515.01885627 15278.11759051
0.14300001 639917.90404835 19351.11833117
0.14400001 632383.14451033 19256.06765865
0.14500001 624916.67668169 17791.37862438
0.14600001 617515.43644392 20424.32402389
0.14700001 610182.63518360 17609.87168217
0.14800001 602912.99192571 16170.12720633
0.14900001 595711.98715216 13403.52034331
0.15000001 588577.47113635 23996.30463044
0.15100001 581510.56383028 17235.97392521
0.15200001 574511.28715272 17140.54506101
0.15300001 567580.51389051 14422.22153853
0.15400001 560714.63118686 16947.60052740
0.15500001 553918.16824325 14257.85432345
0.15600001 547186.66267402 14174.87116555
0.15700001 540526.58007176 19215.72082847
0.15800001 533930.08717956 16554.50313435
0.15900001 527403.48636354 15189.22112421
0.16000001 520941.86365577 16354.97058147
0.16100001 514550.54440648 13753.93670123
0.16200001 508224.87609588 16153.92844927
0.16300001 501965.95759781 13583.19945383
0.16400001 495774.08178449 13497.45001379
0.16500001 489648.29473074 12192.24311441
0.16600001 483589.87633825 13325.31967163
0.16700001 477595.70215816 14442.49471516
0.16800001 471667.09972254 21522.17077654
0.16900001 465806.08973250 17817.08377356
0.17000001 460008.57801631 14159.06469993
0.17100001 454275.93594048 12892.35167078
0.17200001 448608.38626702 12805.52699071
0.17300001 443004.87067478 13874.91320477
0.17400001 437464.94111436 12631.80077123
0.17500001 431988.36171195 14825.84127414
0.17600001 426573.29172068 12458.07357309
0.17700001 421222.67635141 13495.97518772
0.17800001 415932.35522036 13401.34111817
0.17900001 410704.37052161 11089.01852786
0.18000001 405537.55855342 14313.44880524
0.18100001 400432.78246359 15304.54166869
0.18200001 395385.45562268 15194.66377734
0.18300001 390398.95253221 15085.01623845
0.18400001 385470.91848934 10696.81849340
0.18500001 380603.04723063 12742.59062327
0.18600001 375791.73187137 12649.15029238
0.18700001 371037.70926859 14648.56945399
0.18800001 366340.83217886 13501.49200785
0.18900001 361701.74505933 16493.60035399
0.19000001 357114.90947829 13300.74543196
0.19100001 352587.74338958 11169.98023836
0.19200001 348111.82495479 11085.62158950
0.19300001 343692.69849837 12001.74959868
0.19400001 339324.60030376 12902.81853626
0.19500001 335010.82001386 10834.25043122
0.19600001 330748.87640711 10750.99273567
0.19700001 326538.58731001 16486.93405241
0.19800001 322379.70788828 10585.33820876
0.19900001 318271.60526576 11457.77833106
0.20000001 314212.00520261 15157.58784734
0.20100001 310203.56499547 9399.16846359
0.20200001 306242.04592215 13055.09903469
0.20300001 302330.37161710 10176.44078962
0.20400001 298465.27981624 11013.36934577
0.20500001 294646.98900873 10015.05162979
0.20600001 290875.26601627 10838.01292406
0.20700001 287149.57970041 11646.78750318
0.20800001 283467.77741299 12441.40133876
0.20900001 279832.58156128 11459.14475662
0.21000001 276239.73165213 12240.18308813
0.21100001 272690.95281749 10405.88725144
0.21200001 269184.28862518 9460.48227097
0.21300001 265719.24674165 9382.54704601
0.21400001 262296.97461625 10150.89339755
0.21500001 258916.22149227 10066.66316755
0.21600001 255575.01474715 11646.55397266
0.21700001 252273.99052081 9899.23185607
0.21800001 249012.66839236 11452.09316083
0.21900001 245788.75112203 9733.23500463
0.22000001 242603.06234408 8846.52108666
0.22100001 239456.85241402 9568.69627491
0.22200001 236347.63861807 9486.99466272
0.22300001 233273.68632162 10189.39510034
0.22400001 230235.39049134 9324.53375582
0.22500001 227235.42056681 8473.60923363
0.22600001 224268.20774753 7636.33283491
0.22700001 221337.67389901 8326.72368584
0.22800001 218439.81763625 7503.40809064
0.22900001 215574.89471445 9668.53448518
0.23000001 212744.46131970 8845.91512001
0.23100001 209947.19904694 9498.01173407
0.23200001 207180.50952500 9413.24689545
0.23300001 204446.32460267 9328.88623282
0.23400001 201744.16578613 9956.07505242
0.23500001 199070.92328263 8456.53322101
0.23600001 196429.88343186 8379.69922354
0.23700001 193818.17183868 11762.82540525
0.23800001 191236.24191361 8226.98351625
0.23900001 188683.00488724 8151.10619667
0.24000001 186158.55363465 6729.63203221
0.24100001 183663.83999392 7333.69747785
0.24200001 181196.04192358 7925.51524863
0.24300001 178756.61313782 13084.98470064
0.24400001 176343.76320408 7128.69696474
0.24500001 173957.71487830 7702.84797919
0.24600001 171598.90634019 8900.83569292
0.24700001 169266.15848091 6926.37153270
0.24800001 166959.09016976 6859.51454413
0.24900001 164676.77128902 8027.99298012
0.25000001 162420.83865835 8561.20281070
0.25100001 160188.54962501 9082.69119343
0.25200001 157982.64406127 5995.44162577
0.25300001 155800.55554641 7123.20173658
0.25400001 153642.29688590 6464.49994732
0.25500001 151507.38144353 6981.46046722
0.25600001 149396.48025666 6911.08150365
0.25700001 147307.87312616 6840.97795165
0.25800001 145243.22501669 5642.69955888
0.25900001 143201.06817429 6701.81030765
0.26000001 141181.08754701 8843.58374238
0.26100001 139182.92146410 6563.86688682
0.26200001 137207.46641376 6495.40176737
0.26300001 135252.98416869 8569.62948242
0.26400001 133320.31561609 5299.48279650
0.26500001 131409.34591767 5767.55646524
0.26600001 129518.27464752 5705.92785960
0.26700001 127649.30052468 7697.25318587
0.26800001 125801.28957219 7614.12341166
0.26900001 123972.41237910 5020.88293895
0.27000001 122164.63611337 6455.79050091
0.27100001 120376.45952805 6875.90369363
0.27200001 118609.73467808 4857.06886492
0.27300001 116861.58748791 6724.21606227
0.27400001 115131.37983844 5224.08660740
0.27500001 113423.45324942 5634.87742410
0.27600001 111732.47280422 6035.22980414
0.27700001 110062.05528424 7343.34067610
0.27800001 108409.68185633 6351.72356057
0.27900001 106777.30695467 8072.36478782
0.28000001 105162.10951700 6205.61637630
0.28100001 103566.15278125 4380.84846999
0.28200001 101989.14553913 6494.15914957
0.28300001 100429.89086906 5133.97626422
0.28400001 98888.49489966  4227.48335705
0.28500001 97365.50734220  5847.77264776
0.28600001 95860.15888738  4952.13604252
0.28700001 94372.65520759  4892.27867753
0.28800001 92902.06305066  6443.68739819
0.28900001 91450.74151869  4375.91818880
0.29000001 90015.05880295  3929.15750273
0.29100001 88597.80011540  5044.75897736
0.29200001 87197.52903053  4982.03105699
0.29300001 85814.34404290  4162.85402657
0.29400001 84447.45704598  4110.48016629
0.29500001 83098.56224826  3689.57633848
0.29600001 81765.77083690  5463.99789483
0.29700001 80449.66924089  4315.32046236
0.29800001 79150.03224525  3549.87911425
0.29900001 77867.57469303  3504.04102706
0.30000001 76600.80606987  3458.52655778
0.30100001 75351.19429572  3413.40926319
0.30200001 74116.28653040  3705.44392051
0.30300001 72898.76074137  5983.53056492
0.30400001 71697.34600827  4920.23060275
0.30500001 70511.41154274  3560.12133734
0.30600001 69340.50285429  3512.44333837
0.30700001 68186.47219260  4410.30123022
0.30800001 67047.56239444  3418.42013052
0.30900001 65924.51760229  3985.13727773
0.31000001 64816.93253840  3326.08105068
0.31100001 63724.00173572  3280.51176467
0.31200001 62647.11079806  3529.53838947
0.31300001 61584.69929534  2900.63947414
0.31400001 60538.68349071  2860.45293037
0.31500001 59506.51167879  3102.66966583
0.31600002 58489.87588748  3337.43247616
0.31700002 57487.87043445  3839.04016938
0.31800002 56500.65094156  3514.62315823
0.31900002 55528.01144458  2931.87914310
0.32000002 54570.50167664  3153.08373617
0.32100002 53626.56777281  3367.21234989
0.32200002 52698.26370228  3829.84649591
0.32300002 51782.62623857  2768.29932980
0.32400002 50881.63396140  3224.62370499
0.32500002 49994.81134371  2444.74639047
0.32600002 49122.50091301  3132.29641904
0.32700002 48263.38144184  2849.47017526
0.32800002 47418.83807983  3042.15570107
0.32900002 46587.26062104  2306.06950994
0.33000002 45770.35310343  2726.99776704
0.33100002 44964.34867637  2239.22467012
0.33200002 44174.88012757  2427.18890355
0.33300002 43397.20380486  3043.88001902
0.33400002 42633.34187720  2142.32553078
0.33500002 41881.31071198  2532.98179181
0.33600002 41143.55223100  2079.80666377
0.33700002 40417.50034840  2254.08410118
0.33800002 39705.27883367  2624.71758160
0.33900002 39004.69201966  2784.93514209
0.34000002 38317.25936560  2939.89186405
0.34100002 37642.01318711  2124.13890474
0.34200002 36979.73463887  2473.38966846
0.34300002 36328.42957911  2249.45646607
0.34400002 35690.68297536  2216.39151774
0.34500002 35064.04535448  2001.80644409
0.34600002 34450.27892789  2331.07823406
0.34700002 33846.50422819  2473.50264614
0.34800002 33255.93063263  1915.04285618
0.34900002 32676.34126171  2916.36359573
0.35000002 32108.08752158  1690.49088808
0.35100002 31551.82089721  1665.93622228
0.35200002 31005.34073634  2298.42601764
0.35300002 30470.52964841  1779.78372106
0.35400002 29947.09221151  1913.61928295
0.35500002 29434.33406942  1886.15221650
0.35600002 28931.35688169  1549.27423439
0.35700002 28439.49775988  2290.80165306
0.35800002 27958.78252851  1806.69661257
0.35900002 27487.92668718  1632.78292256
0.36000002 27027.54081517  1609.89554491
0.36100002 26576.56541145  1731.72908424
0.36200002 26136.79093181  1565.46316701
0.36300002 25705.62943349  1684.23292026
0.36400002 25284.46855042  1522.75719058
0.36500002 24872.65139996  1638.61035185
0.36600002 24470.79354148  1616.54069792
0.36700002 24077.55102021  1461.98896720
0.36800002 23695.21851510  1836.14256971
0.36900002 23320.75123555  1682.59228135
0.37000002 22955.07229680  1277.44983383
0.37100002 22598.08782789  1513.16803263
0.37200002 22250.81856140  1493.92002898
0.37300002 21911.46844859  1598.00346965
0.37400002 21580.56979414  1699.46995179
0.37500002 21258.56278067  1318.88129739
0.37600002 20944.83157891  1421.31633827
0.37700002 20638.66396892  1404.25476297
0.37800002 20340.46640264  1271.99112675
0.37900002 20050.80144749  1257.18531031
0.38000002 19768.72483430  1355.73921336
0.38100002 19493.40181805  1228.66917480
0.38200002 19226.63239058  1215.02709148
0.38300002 18966.31978068  1420.19809246
0.38400002 18714.43197804  1080.75849793
0.38500002 18468.15959062  1176.23714005
0.38600002 18230.40315023  1164.10244831
0.38700002 17998.70433534  1257.02957033
0.38800002 17773.97167485  1140.82242600
0.38900002 17555.44007003  1129.69262203
0.39000002 17344.62893165  1017.26253504
0.39100002 17138.98102435  1209.32655837
0.39200002 16940.36368018  1298.22483214
0.39300002 16747.71893106  1088.76925929
0.39400002 16562.27638209  1373.84089098
0.39500002 16381.60418066  1264.98753476
0.39600002 16206.93549216  1061.63535971
0.39700002 16038.02497152  1819.19325871
0.39800002 15875.02216292  1235.15615791
0.39900002 15717.29778432  1508.86065878
0.40000002 15564.83249791  1123.46966293
0.40100002 15418.03529255  1022.67832941
0.40200002 15276.74038928  1015.82690031
0.40300002 15139.69967343  1100.95901242
0.40400002 15008.28898395  1002.92895887
0.40500002 14881.83346686  1178.19481139
0.40600002 14760.00545813  901.09837591
0.40700002 14642.80037307  985.75336782
0.40800002 14530.53733342  1069.73820917
0.40900002 14422.35126156  1241.76450246
0.41000002 14319.00843586  1147.59698547
0.41100002 14219.65575999  878.77476761
0.41200002 14124.31602755  962.50156130
0.41300002 14033.68357608  958.64097051
0.41400002 13946.60301842  1128.62890274
0.41500002 13863.82650759  1211.14394109
0.41600002 13784.12268235  1034.63629756
0.41700002 13708.61876559  945.48348106
0.41800002 13637.72084057  1285.69619317
0.41900002 13568.34981790  1196.72851064
0.42000002 13503.76491641  852.76279488
0.42100002 13442.81620377  936.02333662
0.42200002 13385.18274070  934.21887366
0.42300002 13330.13928506  932.57658857
0.42400002 13278.19601269  931.13353951
0.42500002 13229.69166696  845.37733758
0.42600002 13183.32949070  928.83152328
0.42700002 13141.20418235  1096.76495303
0.42800002 13100.72961295  1095.94158770
0.42900002 13064.35560648  926.91607420
0.43000002 13029.90387134  842.38332520
0.43100002 12997.19356842  1094.88363809
0.43200002 12968.15199420  926.50966313
0.43300002 12941.29061320  1095.22147650
0.43400002 12916.82309618  842.82274697
0.43500002 12894.45497492  927.62713485
0.43600002 12874.62880606  843.93195823
0.43700002 12856.52918148  1351.47841160
0.43800002 12840.41416202  1014.64957517
0.43900002 12827.11817936  846.58983996
0.44000002 12815.19269294  1271.58755522
0.44100002 12805.55899342  1273.51290225
0.44200002 12797.58511400  935.43952824
0.44300002 12791.45566040  1277.86648103
0.44400002 12787.45264790  1024.27500564
0.44500002 12783.86403030  855.24054416
0.44600002 12782.27556133  857.05161700
0.44700002 12783.37065598  1116.75531343
0.44800002 12784.22515302  1291.52640729
0.44900002 12788.26610863  1035.84960389
0.45000002 12793.05486113  865.45020237
0.45100002 12798.80670009  1128.08687601
0.45200002 12806.16829253  870.17917672
0.45300002 12814.40220070  1047.19299747
0.45400002 12824.25912745  1225.35801770
0.45500002 12835.18851624  1053.51232334
0.45600002 12846.98845321  1409.05776033
0.45700002 12859.93253725  1060.17288862
0.45800002 12873.53803173  974.97744904
0.45900002 12888.21761978  889.28705791
0.46000002 12904.53051146  892.34832716
0.46100002 12920.47473268  1253.54451798
0.46200002 12938.28615856  988.42041793
0.46300002 12956.66742405  1082.14091454
0.46400002 12975.09576385  905.01297242
0.46500002 12994.77956412  1180.83567496
0.46600002 13014.96374612  911.69825363
0.46700002 13035.38874449  1281.11806653
0.46800002 13057.37432661  1561.59675661
0.46900002 13078.83449003  1567.49838792
0.47000002 13101.11529635  1295.83137538
0.47100002 13124.05606310  1393.77481996
0.47200002 13147.46237961  1305.93750006
0.47300002 13171.34511428  936.48268201
0.47400002 13194.90805075  1128.16469181
0.47500002 13219.25046415  1038.23998066
0.47600002 13244.40783732  1137.16491081
0.47700002 13268.88725737  1236.79303988
0.47800002 13293.87178063  1050.68120598
