# SAXS profile: number of points = 501, q_min = 0, q_max = 0.5, delta_q = 0.001
#    q    intensity    error
0.00000000 1646666.22097351 296.39991978
0.00100000 1646580.88754021 543.37170579
0.00200000 1646324.84969416 1037.18468815
0.00300000 1645898.33671649 1185.04684465
0.00400000 1645301.18971060 1357.37353309
0.00500000 1644534.10207151 2220.12112567
0.00600000 1643596.86538687 1898.35445681
0.00700000 1642490.25373073 2365.18606367
0.00800000 1641214.05538363 3545.02250930
0.00900000 1639769.60981588 3197.55087583
0.01000000 1638156.35528728 4324.73296470
0.01100000 1636375.91102422 3829.11979851
0.01200000 1634428.01345618 3505.84824257
0.01300000 1632314.13614764 3770.64582080
0.01400000 1630034.38376361 4767.85078387
0.01500000 1627590.26603570 5078.08185615
0.01600000 1624981.46752905 4972.44351292
0.01700000 1622210.17531036 7445.94503869
0.01800000 1619276.93599494 4614.93947525
0.01900000 1616182.49278915 5333.40246686
0.02000000 1612927.86392402 6604.93990155
0.02100000 1609515.55221537 5311.40156312
0.02200000 1605944.33733178 6094.55903706
0.02300000 1602217.20119288 7498.37684290
0.02400000 1598334.85373963 7192.50716979
0.02500000 1594299.41638854 8083.09841025
0.02600000 1590111.59222130 7083.94746735
0.02700000 1585772.96898695 9324.34548471
0.02800000 1581284.15359184 6878.58638357
0.02900000 1576648.48310174 7804.41034969
0.03000000 1571866.50104181 16080.19504479
0.03100000 1566939.88469469 8273.44297188
0.03200000 1561869.76811776 10823.75799158
0.03300000 1556660.12052674 8732.86367874
0.03400000 1551309.77320659 9773.25202214
0.03500000 1545822.47531170 9182.18592737
0.03600000 1540198.98670141 9402.91524836
0.03700000 1534442.21249611 8746.32101572
0.03800000 1528553.70803794 10730.44752703
0.03900000 1522535.91704691 10962.25911040
0.04000000 1516388.85054970 10258.37104933
0.04100000 1510116.75862272 9513.73602044
0.04200000 1503721.06194787 10668.90142948
0.04300000 1497203.41423363 13834.16018967
0.04400000 1490566.50663296 15091.98658056
0.04500000 1483813.12605446 11262.14215005
0.04600000 1476943.44086855 10412.45174217
0.04700000 1469961.71319316 15875.58724083
0.04800000 1462869.12630403 11827.29743647
0.04900000 1455668.66810949 14192.77017471
0.05000000 1448361.89927436 11079.96904540
0.05100000 1440952.85812326 13487.31938033
0.05200000 1433440.50781219 12535.43782498
0.05300000 1425830.51351282 19633.68708635
0.05400000 1418123.27620218 11699.51757426
0.05500000 1410323.08793491 13031.38594042
0.05600000 1402430.12706267 13189.85596052
0.05700000 1394449.76804063 14558.05625789
0.05800000 1386381.20390128 14723.36907290
0.05900000 1378228.19698159 13644.45978739
0.06000000 1369994.64294757 12535.45156861
0.06100000 1361681.53065319 15196.36659224
0.06200000 1353291.99989687 17904.05399553
0.06300000 1344829.00796150 14201.39498806
0.06400000 1336292.06152949 16937.50267200
0.06500000 1327687.94264365 15772.93349643
0.06600000 1319017.09164532 17232.95910865
0.06700000 1310280.99025748 13364.86672609
0.06800000 1301483.87994248 14817.39466673
0.06900000 1292629.33506488 14929.86951900
0.07000000 1283716.88767504 15038.74404335
0.07100000 1274750.83598173 22027.69547749
0.07200000 1265733.08239322 15245.75569164
0.07300000 1256666.96802019 16738.80479834
0.07400000 1247555.53194494 18245.50050975
0.07500000 1238398.94233004 21176.62290644
0.07600000 1229200.81787572 19876.17815686
0.07700000 1219964.91731536 17128.30824223
0.07800000 1210692.47839725 15781.37719600
0.07900000 1201385.02891264 15858.28312546
0.08000000 1192048.10801380 15931.72371098
0.08100000 1182682.05382778 18911.08692798
0.08200000 1173288.57679699 17528.93215990
0.08300000 1163870.79307612 23463.63628961
0.08400000 1154432.25331510 19134.71549686
0.08500000 1144974.20228818 20678.23506407
0.08600000 1135499.26597018 19263.74595165
0.08700000 1126009.78220127 16349.66280531
0.08800000 1116507.26061777 16395.90989219
0.08900000 1106995.27109837 19427.76792029
0.09000000 1097475.92617946 29961.09419214
0.09100000 1087950.48990185 16515.08921261
0.09200000 1078421.71643930 16548.38201632
0.09300000 1068893.15736182 16578.53364974
0.09400000 1059363.84318228 21134.30966475
0.09500000 1049837.89770637 19652.96636881
0.09600000 1040317.08011530 19677.59849538
0.09700000 1030805.83979353 19698.70052455
0.09800000 1021303.11843264 18199.62242617
0.09900000 1011812.73811294 18212.63014244
0.10000000 1002334.51179495 19740.97913816
0.10100000 992871.76679439 18229.12649569
0.10200000 983426.77264114 22790.91652796
0.10300000 974000.87636851 18233.29726333
0.10400000 964596.45491136 21269.35283141
0.10500000 955216.83104264 16706.74316098
0.10600001 945858.52068121 18217.23596551
0.10700001 936529.44977900 16688.95558041
0.10800001 927226.62072158 19708.20275094
0.10900001 917955.13826074 18175.51259301
0.11000001 908715.31160247 16643.12171538
0.11100001 899507.63545245 15111.72898696
0.11200001 890336.07772814 16600.31695074
0.11300001 881199.90686097 22602.77867514
0.11400001 872101.87450777 21061.26126102
0.11500001 863043.34064914 18020.34580130
0.11600001 854026.15477255 17985.79166649
0.11700001 845050.91511848 16453.14209222
0.11800001 836118.42288705 16417.18600661
0.11900001 827230.31214443 19357.19021594
0.12000001 818387.91070050 17824.48953468
0.12100001 809594.39935173 19260.25166789
0.12200001 800848.82213719 17730.79375744
0.12300001 792153.23207747 17680.86097299
0.12400001 783507.94531214 17628.92960015
0.12500001 774913.84192877 20504.22122360
0.12600001 766374.36811885 17519.31888077
0.12700001 757887.86763130 23282.31639084
0.12800001 749456.29522458 20302.77199449
0.12900001 741080.58722214 15896.17934513
0.13000001 732761.72315586 18718.39910031
0.13100001 724499.57287325 15779.60144099
0.13200001 716295.93652849 18577.13598960
0.13300001 708152.37267585 21350.79504272
0.13400001 700067.64696130 18429.28167512
0.13500001 692044.25237854 14117.70341415
0.13600001 684081.33334081 15463.65926929
0.13700001 676181.25087924 18196.03831916
0.13800001 668342.14571247 18115.41471378
0.13900001 660567.09767400 15259.10067586
0.14000001 652855.28900144 16569.46801628
0.14100001 645207.38546343 15117.20975438
0.14200001 637623.49884188 13677.02469524
0.14300001 630105.93678037 16332.34665170
0.14400001 622650.80668956 14896.92125273
0.14500001 615263.45334988 17516.55134316
0.14600001 607941.30410171 18767.14894295
0.14700001 600687.27865750 20002.88732296
0.14800001 593496.20982955 19896.96137325
0.14900001 586373.37961687 17151.42216301
0.15000001 579317.10330736 15745.83961083
0.15100001 572327.96406086 19573.61729446
0.15200001 565406.17226224 14273.67949229
0.15300001 558552.60637954 14192.82239785
0.15400001 551763.76076392 14111.35884747
0.15500001 545043.99998970 15304.83624199
0.15600001 538389.01938171 13946.96820531
0.15700001 531804.96860477 12603.77835079
0.15800001 525284.34225703 16286.44180038
0.15900001 518833.17924259 17432.79564539
0.16000001 512446.84329911 12375.59184983
0.16100001 506130.52407001 15988.66401010
0.16200001 499879.27638280 15888.66354987
0.16300001 493694.72863405 15788.35816705
0.16400001 487576.59826513 16894.52992747
0.16500001 481524.49591182 16785.94471997
0.16600001 475539.18001705 16677.15983058
0.16700001 469617.84570246 13017.80729750
0.16800001 463761.78380554 17634.54266185
0.16900001 457972.88815134 14013.97103914
0.17000001 452247.06456465 18560.22040614
0.17100001 446585.83814540 12674.10668505
0.17200001 440989.32874810 16021.14306998
0.17300001 435456.40179007 14775.03641048
0.17400001 429986.67144180 12415.86572423
0.17500001 424579.96974117 12329.80290359
0.17600001 419234.45184947 16696.01283344
0.17700001 413952.83201669 15473.55759161
0.17800001 408731.07514139 13169.31586307
0.17900001 403571.40740078 13075.71421740
0.18000001 398472.48355219 14064.08697129
0.18100001 393435.25146209 12888.93944673
0.18200001 388454.88293503 10663.08704027
0.18300001 383534.89389274 12702.67628579
0.18400001 378673.15227727 13660.63461374
0.18500001 373871.18051313 14603.40900074
0.18600001 369124.97689246 11389.35170009
0.18700001 364436.00582297 12332.51501970
0.18800001 359803.52737739 11220.47353139
0.18900001 355228.50981666 14173.61821135
0.19000001 350705.40325376 10047.71027796
0.19100001 346241.41772472 11966.10396197
0.19200001 341828.26658302 12864.70742073
0.19300001 337471.43425159 11784.50304091
0.19400001 333165.24640099 12668.60909304
0.19500001 328912.96986145 9670.04177089
0.19600001 324712.00160347 12473.81213106
0.19700001 320562.16939104 13328.97563317
0.19800001 316463.43077090 11335.72062593
0.19900001 312414.99480147 10309.69531568
0.20000001 308414.75835282 9298.70540380
0.20100001 304465.05384271 11992.87903768
0.20200001 300561.88780567 10067.32090787
0.20300001 296708.04460607 11803.04657230
0.20400001 292900.45888015 10808.02744353
0.20500001 289139.17649758 11614.72126890
0.20600001 285424.01989599 12407.38273135
0.20700001 281754.36592221 9669.81029553
0.20800001 278128.32586255 9591.25577075
0.20900001 274548.36953409 10377.92885897
0.21000001 271010.25788402 10292.97008101
0.21100001 267515.75127883 10208.40155139
0.21200001 264063.06487633 12655.22298247
0.21300001 260651.40619627 10040.29264134
0.21400001 257282.07774346 11616.28635930
0.21500001 253953.91287560 10696.53931603
0.21600001 250664.83796122 12238.71129209
0.21700001 247415.58869131 12135.73519908
0.21800001 244205.32693526 11231.00351676
0.21900001 241032.23193650 11135.68964198
0.22000001 237896.97269090 7886.28501759
0.22100001 234800.55795338 8600.74484451
0.22200001 231740.91653461 7751.73402462
0.22300001 228715.90124849 9990.31103893
0.22400001 225726.45981799 8380.09521701
0.22500001 222774.51012504 8307.26187539
0.22600001 219854.99842559 8983.27566047
0.22700001 216971.68577400 8162.47520481
0.22800001 214120.96936154 9561.57233901
0.22900001 211302.45451511 10934.90253828
0.23000001 208518.16429831 9392.70115502
0.23100001 205766.44895674 8592.80731481
0.23200001 203045.00277333 8515.70781905
0.23300001 200355.52554416 7032.47927920
0.23400001 197697.83660262 11150.15851174
0.23500001 195068.55202711 9667.59789570
0.23600001 192471.11402315 8895.05295529
0.23700001 189902.59371353 6779.52291623
0.23800001 187363.34559028 6716.97625712
0.23900001 184852.52437503 7985.62943072
0.24000001 182370.05331656 7911.21328708
0.24100001 179916.83141861 6530.98128942
0.24200001 177490.30777584 10351.23523912
0.24300001 175091.71375872 8330.86413471
0.24400001 172719.14176176 6347.42876000
0.24500001 170373.10735475 6915.44475466
0.24600001 168053.95176838 7471.67904907
0.24700001 165760.50501337 9866.06572512
0.24800001 163492.29892051 6717.08141891
0.24900001 161248.42797983 6651.49796883
0.25000001 159030.56158252 10777.50166831
0.25100001 156836.00837655 8892.60209565
0.25200001 154667.64720172 8217.49248459
0.25300001 152522.51686147 6973.32980082
0.25400001 150400.88384092 6903.40089491
0.25500001 148302.32125928 6833.77128695
0.25600001 146227.34458855 9583.00948101
0.25700001 144174.29854130 6137.50017929
0.25800001 142144.93445659 6626.79715791
0.25900001 140137.62651026 5465.36769249
0.26000001 138152.24849326 6490.39294131
0.26100001 136188.19294590 5352.19623602
0.26200001 134246.72354586 6355.24019337
0.26300001 132325.77753478 7860.15155749
0.26400001 130426.33082479 5184.44689560
0.26500001 128548.16495780 7693.60803678
0.26600001 126689.72315103 6088.70838275
0.26700001 124853.05182682 5019.09292094
0.26800001 123036.82836556 5460.98988542
0.26900001 121239.54790719 4910.20192260
0.27000001 119463.17409659 5341.79608251
0.27100001 117705.98913358 5282.64504230
0.27200001 115969.91524720 8548.14285740
0.27300001 114252.10709731 6574.06655349
0.27400001 112552.02121488 5107.04820431
0.27500001 110873.82106738 6426.24697319
0.27600001 109212.27026448 5445.32405309
0.27700001 107571.14250101 6728.57528188
0.27800001 105947.64291921 4877.29997261
0.27900001 104343.95523261 5258.93559262
0.28000001 102757.00384435 4331.20791703
0.28100001 101189.09297939 5564.38848629
0.28200001 99639.91232415  4229.71447835
0.28300001 98108.05286775  5015.28389997
0.28400001 96593.95514916  4542.33095588
0.28500001 95097.85362112  6119.54717017
0.28600001 93619.31767692  4433.34299843
0.28700001 92158.14803308  6369.97149355
0.28800001 90713.84799204  5505.42369523
0.28900001 89288.29948389  4272.44533253
0.29000001 87878.35503106  4603.06845441
0.29100001 86486.53845235  4924.54373258
0.29200001 85111.37698636  3740.64519562
0.29300001 83753.20289528  4062.86806477
0.29400001 82410.94742149  4740.68997483
0.29500001 81086.47649913  5760.38356318
0.29600001 79777.85717547  3909.51407595
0.29700001 78485.83713731  4911.64392056
0.29800001 77209.95552254  3809.15333602
0.29900001 75950.95189542  5126.68949563
0.30000001 74707.46563197  3710.34645626
0.30100001 73480.90434171  4660.15917396
0.30200001 72268.72209890  4926.92036234
0.30300001 71073.84170313  3240.96733509
0.30400001 69894.83559223  3837.22665567
0.30500001 68731.19067875  3470.23798166
0.30600001 67582.16901268  3423.37493341
0.30700001 66449.93261870  3376.98573556
0.30800001 65332.57923698  3330.98171010
0.30900001 64230.85644112  3285.40846251
0.31000001 63144.43282526  3829.39430999
0.31100001 62072.41048014  3776.48563241
0.31200001 61016.30629922  3437.65885966
0.31300001 59974.45808151  4237.19566407
0.31400001 58948.84916788  3063.86658056
0.31500001 57936.83690446  4668.55053880
0.31600002 56940.12914501  2978.25359594
0.31700002 55957.94268246  4003.79098850
0.31800002 54990.36042782  3420.67553238
0.31900002 54037.16388930  3890.67598425
0.32000002 53098.85596171  3835.06505342
0.32100002 52173.99409625  2520.00403417
0.32200002 51264.57731423  2732.14577733
0.32300002 50367.58026978  3182.22387213
0.32400002 49485.29628903  2894.88996999
0.32500002 48616.84354767  2615.10013826
0.32600002 47762.68690385  2342.75990357
0.32700002 46921.69216244  3231.96630919
0.32800002 46094.98156225  2502.26619260
0.32900002 45281.10735391  2689.69790419
0.33000002 44481.75671330  3312.77898810
0.33100002 43693.09770364  2175.91636868
0.33200002 42920.89312700  3001.45819850
0.33300002 42160.30952058  2534.67792841
0.33400002 41413.30039293  3121.52766494
0.33500002 40678.03642373  2050.17313284
0.33600002 39956.91699118  3029.73337433
0.33700002 39247.37088652  2188.82597800
0.33800002 38551.38859850  2352.40584368
0.33900002 37867.06704563  2124.34256186
0.34000002 37195.56809433  2092.80873794
0.34100002 36536.18904238  1874.30658664
0.34200002 35889.62904615  2031.17365206
0.34300002 35253.97746170  2182.92638781
0.34400002 34631.63271602  2329.84320131
0.34500002 34020.31593276  2471.91627275
0.34600002 33421.72990542  2087.52134876
0.34700002 32832.96504354  2570.82128467
0.34800002 32257.37634944  1857.54110506
0.34900002 31692.50713075  3327.71340634
0.35000002 31138.88257979  2623.13959276
0.35100002 30597.15571238  1615.52989813
0.35200002 30065.02065422  3024.69154618
0.35300002 29544.45324840  2666.97792105
0.35400002 29035.20314907  2783.02435365
0.35500002 28536.36772854  1676.22631977
0.35600002 28047.28263472  1652.12526185
0.35700002 27569.20058187  1480.46614137
0.35800002 27102.09246513  1459.44774837
0.35900002 26644.72311752  2589.86720969
0.36000002 26197.70504771  1986.04811374
0.36100002 25759.97069354  2238.02635986
0.36200002 25333.34769803  1379.40084750
0.36300002 24915.19326113  1768.48050144
0.36400002 24506.89435765  1475.92778260
0.36500002 24107.88575466  1720.57988781
0.36600002 23718.70277716  1305.71464973
0.36700002 23338.09236299  1932.39413919
0.36800002 22968.12724205  1525.54308368
0.36900002 22605.96776786  1756.48377877
0.37000002 22252.51299431  1486.02288815
0.37100002 21907.73513141  1466.94201389
0.37200002 21572.37588456  1327.67193671
0.37300002 21244.94252580  1191.84133216
0.37400002 20925.82609832  1765.61666068
0.37500002 20615.52320646  1162.71556392
0.37600002 20313.27035815  1493.33014112
0.37700002 20018.58125439  1362.06433307
0.37800002 19731.78736506  1233.92738133
0.37900002 19453.33101791  1219.72391260
0.38000002 19182.37698795  1534.78205551
0.38100002 18918.06376028  1192.40561530
0.38200002 18662.19840588  1393.78635397
0.38300002 18412.75098991  1484.80431017
0.38400002 18171.56649770  1364.23041944
0.38500002 17935.98789951  1350.04187315
0.38600002 17708.68342110  1336.38585768
0.38700002 17487.51042628  1119.55047053
0.38800002 17273.01696470  1310.24476393
0.38900002 17064.77089189  1098.11805892
0.39000002 16864.03660289  1186.89095234
0.39100002 16668.41887587  1372.14430687
0.39200002 16479.75990149  1457.22283833
0.39300002 16296.91457695  1252.09200627
0.39400002 16121.26791423  1050.70368609
0.39500002 15950.18604865  1136.92931541
0.39600002 15785.14288473  1316.00742465
0.39700002 15625.70165146  932.85443279
0.39800002 15471.97092638  1388.99625572
0.39900002 15323.62785367  1195.24302922
0.40000002 15180.32973027  1278.33562715
0.40100002 15042.65967214  997.77966333
0.40200002 14910.27448712  1171.72397609
0.40300002 14782.19979380  1164.54175493
0.40400002 14659.61605838  1068.68606129
0.40500002 14541.82416473  974.15684695
0.40600002 14428.75040349  1145.13783003
0.40700002 14319.99726274  1051.66064880
0.40800002 14216.19635209  1133.81279378
0.40900002 14116.37042977  1128.60386934
0.41000002 14021.27818417  950.85302511
0.41100002 13930.20711678  1205.24157685
0.41200002 13842.90516347  943.32481706
0.41300002 13760.30929046  939.96677217
0.41400002 13681.19608139  936.81994606
0.41500002 13606.20710721  1103.73557284
0.41600002 13534.35679541  1100.54627497
0.41700002 13466.50108514  1097.65455546
0.41800002 13403.24312067  926.63325706
0.41900002 13341.37392217  924.55725662
0.42000002 13284.24971444  1174.46057291
0.42100002 13230.58036703  921.24535461
0.42200002 13180.22448127  1087.17086785
0.42300002 13132.42362166  1252.83327287
0.42400002 13087.47798450  834.32676105
0.42500002 13046.08104709  1417.19585130
0.42600002 13006.63969363  833.07531185
0.42700002 12971.40639617  1082.59362912
0.42800002 12937.66299933  915.79251880
0.42900002 12908.00451013  999.07959643
0.43000002 12880.18290586  1082.51502362
0.43100002 12854.04063819  916.23606011
0.43200002 12831.47831858  1083.42592317
0.43300002 12810.96532371  833.99388209
0.43400002 12792.79160164  1001.67562988
0.43500002 12776.67239125  1002.71329678
0.43600002 12763.00503770  1087.59952583
0.43700002 12750.91145779  1089.05539922
0.43800002 12740.91349878  1006.78703238
0.43900002 12733.47939607  1176.57355195
0.44000002 12727.41832310  926.11063817
0.44100002 12723.55751858  1012.28628415
0.44200002 12721.31538232  929.86459194
0.44300002 12720.75416284  1186.08317435
0.44400002 12722.37259628  849.21841105
0.44500002 12724.24402093  1106.62755494
0.44600002 12728.03669640  1365.46384150
0.44700002 12734.47414600  1026.90804380
0.44800002 12740.62651786  858.08123664
0.44900002 12749.79097954  1118.79421148
0.45000002 12759.74908752  949.51677335
0.45100002 12770.54286421  952.42713195
0.45200002 12782.84424050  1042.31316877
0.45300002 12796.05265526  871.41122712
0.45400002 12810.66588532  1049.19358573
0.45500002 12826.38165991  1052.78945654
0.45600002 12842.86974624  968.41663911
0.45700002 12860.43751848  971.86330933
0.45800002 12878.55850880  1152.69543396
0.45900002 12897.77744073  889.94668559
0.46000002 12918.44272808  893.31035698
0.46100002 12938.72020171  896.65335248
0.46200002 12960.83490965  900.13002714
0.46300002 12983.42290377  1445.83404309
0.46400002 13005.95565572  1088.59853998
0.46500002 13029.72850922  1639.40051873
0.46600002 13053.88031336  1280.19410301
0.46700002 13078.33789359  1009.90930001
0.46800002 13104.15961756  1014.06544007
0.46900002 13129.41170353  1110.74828276
0.47000002 13155.42799688  1022.37413523
0.47100002 13182.07824203  1026.62030215
0.47200002 13209.04651104  1030.90008382
0.47300002 13236.47648601  941.11352276
0.47400002 13263.54590202  1039.53045934
0.47500002 13291.29909575  1043.89868046
0.47600002 13319.79612750  1048.33460390
0.47700002 13347.52948287  1148.42149114
0.47800002 13375.75278487  961.04788315
