# SAXS profile: number of points = 501, q_min = 0, q_max = 0.5, delta_q = 0.001
#    q    intensity    error
0.00000000 1628779.37420969 317.61197797
0.00100000 1628694.51269090 635.19087503
0.00200000 1628439.89413890 952.63736824
0.00300000 1628015.74213670 1269.85232410
0.00400000 1627421.90173902 1586.73641449
0.00500000 1626659.06814469 1756.79186313
0.00600000 1625727.02424255 2048.41613394
0.00700000 1624626.55048260 2144.50713576
0.00800000 1623357.43677903 3068.14568505
0.00900000 1621921.02824596 2432.88164637
0.01000000 1620316.72650973 3208.22725702
0.01100000 1618546.15408308 2913.38320420
0.01200000 1616609.12250919 4098.10430524
0.01300000 1614506.98689728 3390.46482202
0.01400000 1612239.95264904 4353.04806513
0.01500000 1609809.46178280 4249.89716835
0.01600000 1607215.24533947 4508.23896471
0.01700000 1604459.42447288 6064.85689657
0.01800000 1601542.59015315 4564.39658732
0.01900000 1598465.48007055 6713.55531923
0.02000000 1595229.12868192 6532.46357745
0.02100000 1591835.97949777 7354.28255871
0.02200000 1588284.87014148 8219.37457641
0.02300000 1584578.71751882 6845.38037127
0.02400000 1580718.23281403 9484.30982935
0.02500000 1576705.69436869 7993.89823554
0.02600000 1572541.49024932 6368.79332681
0.02700000 1568227.55901465 8562.52286439
0.02800000 1563764.16942306 9523.32422852
0.02900000 1559154.87237227 9822.67614695
0.03000000 1554400.18864751 7227.96120945
0.03100000 1549501.72792950 11900.17381806
0.03200000 1544460.63938505 9174.09662049
0.03300000 1539280.91802064 8635.36634819
0.03400000 1533961.28748831 10469.28627016
0.03500000 1528505.67828427 8253.93104389
0.03600000 1522914.64929382 11833.04737186
0.03700000 1517191.28526941 9512.78979858
0.03800000 1511336.90338986 11493.71768220
0.03900000 1505354.14161980 11741.76284840
0.04000000 1499242.94449530 10142.37898950
0.04100000 1493007.60205528 10346.54316198
0.04200000 1486649.39250397 15342.22244241
0.04300000 1480170.05816491 9769.12283735
0.04400000 1473572.45397149 9946.61452625
0.04500000 1466858.97032521 13157.72557519
0.04600000 1460030.07429431 10293.21250227
0.04700000 1453089.85586188 13600.92168342
0.04800000 1446039.71518347 11691.23164123
0.04900000 1438882.42815877 14029.10432757
0.05000000 1431619.61736090 16427.83587420
0.05100000 1424255.22360362 14441.94864010
0.05200000 1416788.35657024 15768.85514348
0.05300000 1409224.52466542 14839.13493650
0.05400000 1401564.34695388 17344.35960239
0.05500000 1393811.88500582 16391.22853231
0.05600000 1385967.38515148 16590.03037442
0.05700000 1378036.21257569 13187.80716994
0.05800000 1370017.55463329 16974.51829449
0.05900000 1361915.16496189 13482.96076286
0.06000000 1353732.99409151 17341.32046448
0.06100000 1345471.93708562 12512.88959964
0.06200000 1337135.11830542 15163.11295036
0.06300000 1328725.59174246 16582.49616027
0.06400000 1320242.76245740 14159.60428955
0.06500000 1311693.38975384 14284.34168261
0.06600000 1303077.97303968 14405.52766597
0.06700000 1294397.92663530 17163.71731043
0.06800000 1285657.61533515 13306.55694159
0.06900000 1276860.41586051 17429.14549251
0.07000000 1268006.00485270 14854.69104247
0.07100000 1259098.53100935 19037.57068054
0.07200000 1250139.91851390 15057.93602392
0.07300000 1241133.71184939 19287.21878585
0.07400000 1232082.62431791 15247.02319047
0.07500000 1222987.29496586 16730.46697933
0.07600000 1213850.65666405 14019.97574173
0.07700000 1204677.01472731 16913.66607983
0.07800000 1195467.19997421 21249.43047606
0.07900000 1186222.99497264 15658.14426806
0.08000000 1176950.02241770 17159.93213184
0.08100000 1167648.34502584 17234.49038119
0.08200000 1158319.70929424 21631.62158614
0.08300000 1148967.28409067 14476.98845898
0.08400000 1139594.66499075 17435.79919277
0.08500000 1130203.01313476 14579.61955388
0.08600000 1120794.97016987 17551.65005694
0.08700000 1111372.83044906 16137.13425588
0.08800000 1101938.22927533 17653.05126204
0.08900000 1092494.57678238 17698.41297516
0.09000000 1083043.97591162 16261.90606222
0.09100000 1073587.69717028 14815.51091700
0.09200000 1064128.57349312 25235.81030614
0.09300000 1054670.07388982 19332.10336286
0.09400000 1045211.33262262 16383.68840885
0.09500000 1035756.23895920 16406.37959626
0.09600000 1026306.59716249 17919.31402880
0.09700000 1016867.02720968 19432.32980354
0.09800000 1007436.38359761 17952.51719979
0.09900000 998018.45213565 16467.30523457
0.10000000 988612.87762246 20968.48012046
0.10100000 979223.34923394 17978.54153750
0.10200000 969851.66362520 17981.05068937
0.10300000 960499.57262686 22475.69105674
0.10400000 951169.38695674 19475.19411415
0.10500000 941864.19685532 16473.20557805
0.10600001 932580.51087260 19458.29327494
0.10700001 923326.29186591 17949.46395853
0.10800001 914098.80244998 14945.51612342
0.10900001 904902.84228325 16423.98736045
0.11000001 895738.88939190 17896.86385245
0.11100001 886607.29969844 16384.50366970
0.11200001 877511.97394066 16361.21152436
0.11300001 868452.40033912 19305.69776847
0.11400001 859430.96644952 22237.77730393
0.11500001 850449.51691113 16277.60452016
0.11600001 841509.43288889 17722.18949120
0.11700001 832611.39770232 19158.38916339
0.11800001 823756.60315031 16174.46166465
0.11900001 814946.13196604 14669.03106632
0.12000001 806181.58079501 20485.07493295
0.12100001 797466.22513813 17512.35912901
0.12200001 788798.75672753 14553.33774725
0.12300001 780181.43982967 15962.51301098
0.12400001 771614.70679156 21701.66465104
0.12500001 763099.17279405 18749.34755903
0.12600001 754638.27878687 18688.61785483
0.12700001 746230.45082540 17193.15039727
0.12800001 737877.75765305 17133.52234019
0.12900001 729580.90529327 19917.55965326
0.13000001 721341.10743820 25513.83617268
0.13100001 713158.02453895 24004.90023751
0.13200001 705033.61067966 18285.04755494
0.13300001 696969.10565869 15409.98765259
0.13400001 688963.85183200 19532.12612029
0.13500001 681019.45702133 15282.07733608
0.13600001 673135.91328529 15216.23803727
0.13700001 665314.98508811 13772.02084072
0.13800001 657555.30299496 15081.03158535
0.13900001 649859.31687599 13647.04629797
0.14000001 642226.80109342 19016.33647720
0.14100001 634658.07990969 24332.79193134
0.14200001 627153.48432380 17488.17573520
0.14300001 619714.86134094 18740.17829088
0.14400001 612339.02682377 17313.88680014
0.14500001 605030.61176626 14575.18812499
0.14600001 597787.42159676 15817.45592163
0.14700001 590612.19125141 18356.22777008
0.14800001 583499.93758954 16953.59148651
0.14900001 576455.88318601 18158.36117709
0.15000001 569478.10259434 16768.28352207
0.15100001 562567.53034999 14109.19432692
0.15200001 555723.99540217 15304.63955556
0.15300001 548948.56420589 13948.78367470
0.15400001 542237.92597344 13867.73561120
0.15500001 535596.16947608 12532.95095721
0.15600001 529019.06875068 13704.23962276
0.15700001 522512.60644392 17336.96910006
0.15800001 516069.46257765 14769.90871609
0.15900001 509695.77182833 15902.50883165
0.16000001 503386.55691111 21882.21466182
0.16100001 497147.23392658 16912.94969655
0.16200001 490972.68260773 16805.99571901
0.16300001 484864.87308847 15505.97937337
0.16400001 478823.12315228 13035.96014324
0.16500001 472847.13162031 16483.45178649
0.16600001 466937.78718117 12866.47133324
0.16700001 461092.24612177 16267.33521123
0.16800001 455311.56517542 12696.36359439
0.16900001 449598.07117488 16050.65189882
0.17000001 443947.25205832 12525.97230830
0.17100001 438360.81323098 13571.65141850
0.17200001 432838.93359989 12355.38794307
0.17300001 427380.04256963 12270.08160162
0.17400001 421984.30068869 16615.63262431
0.17500001 416651.40826054 15399.43677659
0.17600001 411379.32041693 10922.12147291
0.17700001 406170.74778537 11929.23542588
0.17800001 401021.97326008 11844.18453966
0.17900001 395934.88542477 10690.24241141
0.18000001 390908.17177571 12735.78883803
0.18100001 385942.89370408 14750.73809414
0.18200001 381034.16292362 11505.32709297
0.18300001 376185.37532566 14535.80358924
0.18400001 371394.78989708 10306.20590652
0.18500001 366663.48960227 11252.90302750
0.18600001 361987.54907503 13199.87660063
0.18700001 357368.59300680 15116.69219837
0.18800001 352805.64793094 10002.04059140
0.18900001 348300.06710838 11911.86285791
0.19000001 343845.93712988 10836.30522065
0.19100001 339450.52321813 14664.26329591
0.19200001 335105.68989981 14551.96527150
0.19300001 330816.60698554 12514.79283362
0.19400001 326577.97548720 10507.64685783
0.19500001 322392.86735859 9478.35074824
0.19600001 318258.72605664 10345.00037934
0.19700001 314175.13331860 12130.30247068
0.19800001 310142.41533089 11109.30184216
0.19900001 306159.62162521 11021.74689939
0.20000001 302224.66987834 12756.90391847
0.20100001 298339.74995605 10847.63382109
0.20200001 294501.02933563 12554.57947395
0.20300001 290711.29915772 12454.07264455
0.20400001 286967.44002857 11471.52395735
0.20500001 283269.31130910 10503.62655982
0.20600001 279616.86313518 10418.52481288
0.20700001 276009.65337390 10333.80191079
0.20800001 272445.56114901 9395.28562034
0.20900001 268927.38583090 14401.06219200
0.21000001 265450.35064321 8401.50399502
0.21100001 262016.52854365 9998.55120189
0.21200001 258624.20074111 9089.34796474
0.21300001 255272.48683672 11471.94610078
0.21400001 251962.65408795 8125.79597850
0.21500001 248693.44128917 11280.73503020
0.21600001 245462.95990844 8788.80169504
0.21700001 242271.99464270 10298.98297919
0.21800001 239119.37954256 9426.08638724
0.21900001 236003.63660841 9345.74445157
0.22000001 232925.35835211 9265.77119336
0.22100001 229885.36777916 9951.73804171
0.22200001 226881.62518826 9107.02886568
0.22300001 223912.15797639 12037.51818201
0.22400001 220978.08862632 8203.81192818
0.22500001 218080.67542427 9610.81582042
0.22600001 215215.19392192 10259.30877940
0.22700001 212385.70891019 9442.66906468
0.22800001 209588.48708081 8639.23784602
0.22900001 206822.85744667 12843.70005483
0.23000001 204090.96126982 9900.45299941
0.23100001 201391.25483601 8410.09919969
0.23200001 198721.45307086 6945.31511330
0.23300001 196082.96489002 16518.02974355
0.23400001 193475.92627404 8184.03206846
0.23500001 190896.96889296 8785.07892395
0.23600001 188349.22281226 8034.97822520
0.23700001 185830.04038702 8624.37258228
0.23800001 183339.70617655 9859.09316597
0.23900001 180877.36811693 7162.74411622
0.24000001 178442.84497360 8385.92189619
0.24100001 176037.08019240 6390.14631325
0.24200001 173657.84099168 9494.74290534
0.24300001 171305.77534254 8777.70834376
0.24400001 168979.33777217 8072.98824395
0.24500001 166679.19678817 9225.69397864
0.24600001 164405.12823960 6091.21028942
0.24700001 162156.61486719 10858.00744516
0.24800001 159932.86979502 7168.19156332
0.24900001 157733.04110777 6506.48825350
0.25000001 155558.72677243 6442.46497406
0.25100001 153407.30589558 7538.43536834
0.25200001 151281.61326965 6315.25124471
0.25300001 149178.81749586 5683.71321549
0.25400001 147098.92878285 5626.53429214
0.25500001 145041.71457898 6126.56231368
0.25600001 143007.65769675 6064.24001155
0.25700001 140995.19176574 5456.51417950
0.25800001 139005.79979421 5400.37557752
0.25900001 137038.18502190 5878.93841560
0.26000001 135092.16714808 5817.74445350
0.26100001 133166.79216594 5756.80069772
0.26200001 131263.83650898 6731.86617389
0.26300001 129380.81606515 5635.82861447
0.26400001 127518.87634977 9123.97603456
0.26500001 125677.85726724 5516.00141647
0.26600001 123856.17675846 6448.57214807
0.26700001 122055.78058726 6869.29965651
0.26800001 120275.55889620 4853.11903112
0.26900001 118513.68644422 5279.78498094
0.27000001 116772.49503144 7120.20322149
0.27100001 115049.99412479 6571.65597540
0.27200001 113348.15453026 4641.60714767
0.27300001 111664.31467591 7343.04568059
0.27400001 109997.73582539 5898.62886279
0.27500001 108352.67514317 4485.80096322
0.27600001 106723.82061928 5764.68744357
0.27700001 105115.06212502 4821.62812787
0.27800001 103523.51155579 5198.95099638
0.27900001 101951.42119345 7707.52780701
0.28000001 100395.68943438 5078.01421193
0.28100001 98858.63940006  5854.40890236
0.28200001 97339.89349664  4958.49440940
0.28300001 95838.05856257  6532.32238080
0.28400001 94353.62163620  5243.70277062
0.28500001 92886.94587588  6375.76026669
0.28600001 91437.39339872  5117.29396377
0.28700001 90004.78750071  4277.02770448
0.28800001 88588.70930767  4224.35280329
0.28900001 87191.13215702  4930.65875687
0.29000001 85808.79947643  5243.77598421
0.29100001 84444.14679299  6657.57684829
0.29200001 83095.90413575  4382.47819157
0.29300001 81764.29294929  5769.28878360
0.29400001 80448.12385453  4627.77854379
0.29500001 79149.56540092  3865.66495717
0.29600001 77866.44804537  3815.84546710
0.29700001 76599.63765342  4108.80475823
0.29800001 75348.67145038  4055.26568943
0.29900001 74114.18621850  3335.13853772
0.30000001 72894.88729951  3949.44518085
0.30100001 71692.30460087  3247.66155216
0.30200001 70503.58635898  4165.70459723
0.30300001 69332.11107991  3793.85329790
0.30400001 68176.10428149  3430.96261039
0.30500001 67035.14914777  3076.91349155
0.30600001 65908.42970756  3945.60833124
0.30700001 64798.34309592  4490.52538914
0.30800001 63702.78129716  2952.62405291
0.30900001 62622.54349748  2911.94841050
0.31000001 61557.42477682  4020.31560251
0.31100001 60506.29582445  3964.37269011
0.31200001 59470.89593778  2792.15869648
0.31300001 58449.37389428  3303.55876892
0.31400001 57443.82449333  2985.64291940
0.31500001 56451.67429410  2943.39043706
0.31600002 55474.57431126  5275.63226679
0.31700002 54511.70091467  3640.29155944
0.31800002 53563.11391904  2562.99512238
0.31900002 52628.82908373  3536.65748188
0.32000002 51708.90981644  2489.78412555
0.32100002 50802.39064771  3435.25781826
0.32200002 49911.00867395  2418.18848475
0.32300002 49031.83064521  2382.94708219
0.32400002 48167.16993071  2348.14964531
0.32500002 47316.05515812  2313.75520679
0.32600002 46478.93493193  2963.72942627
0.32700002 45654.77115444  2470.83633188
0.32800002 44844.78552021  2655.70832426
0.32900002 44047.33022113  2834.44583395
0.33000002 43264.09278762  2577.67477035
0.33100002 42491.33298625  2327.67533121
0.33200002 41734.97594080  3126.99322044
0.33300002 40989.92546161  3285.75258060
0.33400002 40258.19008039  2832.16380627
0.33500002 39538.15501711  2989.08466084
0.33600002 38831.84556802  2551.83485235
0.33700002 38137.14434113  3480.39595739
0.33800002 37455.65210655  2095.08199980
0.33900002 36785.70319057  2438.89223704
0.34000002 36128.40867301  2956.74910583
0.34100002 35482.92728189  2366.35653250
0.34200002 34850.08638568  2330.94813830
0.34300002 34228.17562386  2472.64352417
0.34400002 33619.18777630  2087.75165978
0.34500002 33021.17691474  2227.93891195
0.34600002 32435.65443074  2025.93107169
0.34700002 31859.83960049  1829.39207650
0.34800002 31296.96124842  1966.07519874
0.34900002 30744.67005159  1936.91430499
0.35000002 30203.46942571  1749.23401464
0.35100002 29674.03344671  1880.14684823
0.35200002 29153.98804570  1852.44448816
0.35300002 28645.43350245  2281.60888653
0.35400002 28147.95527122  1648.76655810
0.35500002 27660.72545548  2067.91593300
0.35600002 27183.17813706  1746.79110982
0.35700002 26716.56869902  1434.67980709
0.35800002 26260.61582194  1979.78792059
0.35900002 25814.37966139  2090.96485161
0.36000002 25378.34864299  2198.78023058
0.36100002 24951.49342266  1490.35277273
0.36200002 24535.51632923  1469.55482015
0.36300002 24128.00209958  1449.12787474
0.36400002 23730.14726757  1948.83843666
0.36500002 23341.57024988  1794.03317439
0.36600002 22962.56365944  1390.49810826
0.36700002 22592.13289748  1745.92011302
0.36800002 22232.09986899  1476.65614325
0.36900002 21879.83600454  1335.76405135
0.37000002 21536.17313555  1917.58094682
0.37100002 21201.11533476  1183.02229172
0.37200002 20875.23159486  1401.56311567
0.37300002 20557.30126377  1268.59112108
0.37400002 20247.55159979  1138.92483144
0.37500002 19946.52004081  1124.98378359
0.37600002 19653.47199171  1444.82506191
0.37700002 19367.82978260  1427.60280090
0.37800002 19089.99947644  1193.79317381
0.37900002 18820.39413011  1394.59127111
0.38000002 18558.30197723  1590.91051236
0.38100002 18302.69436830  1153.61888068
0.38200002 18055.41078126  1141.01173838
0.38300002 17814.57957886  1231.34379882
0.38400002 17581.76876791  1116.88191389
0.38500002 17354.71438795  1105.32181173
0.38600002 17135.59795515  994.72150842
0.38700002 16922.71349092  984.90197183
0.38800002 16716.42514832  1170.48414434
0.38900002 16516.17220714  1062.81573188
0.39000002 16323.46419866  1053.10834267
0.39100002 16135.87755133  948.78964497
0.39200002 15955.07931816  1034.60716740
0.39300002 15780.06312121  1212.38230704
0.39400002 15612.14300716  1202.52537210
0.39500002 15448.72017529  1284.71563064
0.39600002 15291.36734787  910.60096871
0.39700002 15139.47916343  1084.59233865
0.39800002 14993.25691602  987.08111583
0.39900002 14852.39705283  980.25825193
0.40000002 14716.48670248  973.71638880
0.40100002 14586.22489081  1407.27904414
0.40200002 14461.01319704  1136.41877593
0.40300002 14340.15608739  1303.52025010
0.40400002 14224.77720182  1036.98630715
0.40500002 14114.11710816  1203.36968166
0.40600002 14008.17943628  1282.79909266
0.40700002 13906.44479522  1106.39680033
0.40800002 13809.53586456  1609.70862432
0.40900002 13716.67264817  1096.64803018
0.41000002 13628.50508887  1008.23685425
0.41100002 13544.27694135  1004.44362556
0.41200002 13463.79375543  834.08206267
0.41300002 13388.05965220  914.53839818
0.41400002 13315.54456160  828.89268824
0.41500002 13247.22552304  1074.61498535
0.41600002 13182.06652503  989.44596025
0.41700002 13120.79952979  904.94158645
0.41800002 13064.14520433  1231.62234750
0.41900002 13008.82261270  1065.42262246
0.42000002 12958.05758050  900.13151248
0.42100002 12910.94068022  1062.44135892
0.42200002 12866.96914871  1224.61384676
0.42300002 12825.56137164  1060.41746446
0.42400002 12786.95958417  815.16871212
0.42500002 12751.91707656  814.84753980
0.42600002 12718.74082684  977.56246627
0.42700002 12689.79684521  1547.90149253
0.42800002 12662.25350131  977.77926170
0.42900002 12638.80996022  896.72360917
0.43000002 12617.15158410  897.26877742
0.43100002 12597.14431673  1061.18348753
0.43200002 12580.63811887  1389.09122372
0.43300002 12566.21940093  1308.89747483
0.43400002 12554.02517733  901.06519980
0.43500002 12543.97068564  1394.63872692
0.43600002 12536.29015826  821.75385882
0.43700002 12530.11288640  823.22845565
0.43800002 12526.07834479  824.84229809
0.43900002 12524.50982009  909.27945603
0.44000002 12524.31397037  1077.02843092
0.44100002 12526.29158403  830.49317138
0.44200002 12529.82007476  915.86724177
0.44300002 12535.09955307  1085.28897074
0.44400002 12542.44334826  1423.25382639
0.44500002 12550.01678948  1091.47501191
0.44600002 12559.58780994  1178.96856359
0.44700002 12571.64286180  1182.74021649
0.44800002 12583.51642577  1101.74983287
0.44900002 12598.34593733  1190.54374750
0.45000002 12613.83800980  938.65879998
0.45100002 12630.26926174  941.96552618
0.45200002 12648.03607536  1031.32091046
0.45300002 12666.80735027  1293.91443215
0.45400002 12686.98173894  1125.65250814
0.45500002 12708.11303760  956.15847026
0.45600002 12730.07969223  1134.44110554
0.45700002 12753.06218345  963.74895488
0.45800002 12776.54803943  967.63191163
0.45900002 12801.16434399  1236.59253424
0.46000002 12827.12350268  886.99563225
0.46100002 12852.78062925  1336.04660973
0.46200002 12880.08317574  1073.42618274
0.46300002 12908.00891674  898.39746318
0.46400002 12935.75645433  992.49596100
0.46500002 12964.75615560  1178.10744770
0.46600002 12994.04845681  1274.32639256
0.46700002 13023.72396631  1097.11855892
0.46800002 13054.64026640  1193.91218215
0.46900002 13084.98912705  1752.73437664
0.47000002 13116.10190765  1575.30949428
0.47100002 13147.79673156  1210.12326853
0.47200002 13179.77150015  1028.61531548
0.47300002 13212.19949094  1315.14239966
0.47400002 13244.25422151  1132.38378961
0.47500002 13276.95547668  1611.55693214
0.47600002 13310.28196640  1238.05593579
0.47700002 13342.93845606  1339.36422570
0.47800002 13375.97854864  1345.48974598
