# SAXS profile: number of points = 501, q_min = 0, q_max = 0.5, delta_q = 0.001
#    q    intensity    error
0.00000000 1646666.22097351 271.69992646
0.00100000 1646580.99521161 493.97431029
0.00200000 1646325.27925931 814.93103904
0.00300000 1645899.30196822 1086.29357800
0.00400000 1645302.90974220 1727.56812087
0.00500000 1644536.78430247 1776.09979735
0.00600000 1643600.73116575 2070.93700558
0.00700000 1642495.51486475 2562.29310968
0.00800000 1641220.92036203 2437.21316964
0.00900000 1639778.31433581 2705.63433431
0.01000000 1638167.08850086 3243.57097529
0.01100000 1636388.88476873 3829.15015708
0.01200000 1634443.44633785 3187.16486010
0.01300000 1632332.21474723 3770.68758237
0.01400000 1630055.34673108 5501.43703910
0.01500000 1627614.34348128 3906.27459830
0.01600000 1625008.82916159 4972.52723952
0.01700000 1622241.02719271 4380.05096990
0.01800000 1619311.48938714 5538.04554290
0.01900000 1616220.97476068 4848.66314307
0.02000000 1612970.47006565 6097.02865265
0.02100000 1609562.49905572 5842.71213647
0.02200000 1605995.82376264 7756.96018119
0.02300000 1602273.44337594 7498.64005633
0.02400000 1598395.93372277 5993.98502477
0.02500000 1594365.74034469 6218.02667133
0.02600000 1590183.14234596 6440.24202107
0.02700000 1585850.11736559 8658.74203740
0.02800000 1581366.98888678 8942.63073226
0.02900000 1576737.22226257 9933.44495634
0.03000000 1571961.33186849 12426.35489960
0.03100000 1567040.99220922 10530.51595219
0.03200000 1561977.36484338 8504.96714330
0.03300000 1556774.49694412 10321.41539056
0.03400000 1551430.99593893 8959.51441494
0.03500000 1545950.71677865 10852.57453294
0.03600000 1540334.43522924 12823.28476590
0.03700000 1534585.10473264 12245.98970211
0.03800000 1528704.13164250 10731.50350078
0.03900000 1522694.12872523 9136.16519545
0.04000000 1516554.99836405 13990.22050820
0.04100000 1510290.97032798 13320.76697593
0.04200000 1503903.57808541 11640.21423440
0.04300000 1497394.31199576 11859.36350149
0.04400000 1490766.09899207 13081.47312618
0.04500000 1484021.45098516 11263.72333635
0.04600000 1477160.72229079 12496.78029152
0.04700000 1470187.97537318 16936.56626398
0.04800000 1463104.76700631 11829.20259164
0.04900000 1455913.66163858 16379.02945584
0.05000000 1448616.52002366 14406.49196249
0.05100000 1441217.11588117 12365.64343030
0.05200000 1433714.59817448 11398.03158665
0.05300000 1426114.59633137 13861.83452255
0.05400000 1418417.56108472 11701.94542466
0.05500000 1410627.63260592 13034.19993331
0.05600000 1402745.14658276 13192.81871924
0.05700000 1394775.31269675 14561.45494426
0.05800000 1386717.43278092 14726.93982377
0.05900000 1378575.22981518 13647.89541261
0.06000000 1370352.60357392 15046.47229019
0.06100000 1362050.57141746 17733.89926858
0.06200000 1353672.24496084 16629.86430668
0.06300000 1345220.63680535 16788.35433228
0.06400000 1336695.06531127 14336.05524591
0.06500000 1328102.42202857 15777.85751175
0.06600000 1319443.19549927 19890.60710280
0.06700000 1310718.87333848 14706.26644710
0.06800000 1301933.66154973 14822.51543057
0.06900000 1293091.12252742 14935.20316444
0.07000000 1284190.62110985 16411.95690633
0.07100000 1275236.63731089 15149.81196084
0.07200000 1266231.08419541 16638.27722578
0.07300000 1257177.38910999 18141.07057487
0.07400000 1248078.26296730 15444.96922804
0.07500000 1238934.41550704 16948.62359856
0.07600000 1229748.64159218 14203.59747626
0.07700000 1220525.44986979 21420.22264958
0.07800000 1211265.68196808 15788.84890489
0.07900000 1201971.01357449 20193.11397518
0.08000000 1192646.98570050 17388.79386724
0.08100000 1183293.77388169 16009.96551178
0.08200000 1173913.42275094 17538.26735889
0.08300000 1164508.56494489 14672.80860693
0.08400000 1155083.07637686 17672.77189810
0.08500000 1145638.07518979 22168.09779561
0.08600000 1136176.44572852 14827.10331291
0.08700000 1126700.02773383 16359.68517091
0.08800000 1117210.84257981 19389.19508356
0.08900000 1107712.14270558 17944.93755470
0.09000000 1098206.15734297 16489.56622711
0.09100000 1088694.08542220 16526.37699314
0.09200000 1079178.67340918 19570.90616185
0.09300000 1069663.46434050 21115.15777833
0.09400000 1060147.65912349 19639.23630826
0.09500000 1050635.18663022 16642.06213844
0.09600000 1041127.80529195 21207.77439073
0.09700000 1031629.94118857 16681.45693326
0.09800000 1022140.77433970 18214.54945514
0.09900000 1012663.83810891 18227.94994308
0.10000000 1003198.93555247 15198.46458836
0.10100000 993749.84180841 21286.12261266
0.10200000 984318.38855930 22811.57972783
0.10300000 974905.80340776 21291.94374801
0.10400000 965515.07970532 18248.23586492
0.10500000 956148.75052811 21283.87218815
0.10600001 946803.69475384 16715.82001742
0.10700001 937488.00739283 19743.49836478
0.10800001 928198.68272633 15176.04917679
0.10900001 918940.53504483 18195.02345025
0.11000001 909713.94833638 16661.41174803
0.11100001 900519.58419356 21180.22161726
0.11200001 891361.10609150 18130.28575142
0.11300001 882238.23093643 21120.78424300
0.11400001 873153.19007403 16568.08256175
0.11500001 864107.96125106 21049.67092726
0.11600001 855103.69017105 16507.77751613
0.11700001 846141.28776977 19469.71194851
0.11800001 837221.71685527 23911.05335956
0.11900001 828346.43946522 17892.28393520
0.12000001 819516.91194024 19336.50244807
0.12100001 810736.19710282 16320.12041649
0.12200001 802003.21804359 16276.65607701
0.12300001 793320.12646594 22133.63257121
0.12400001 784687.40943203 14712.88962008
0.12500001 776105.73164910 16135.23892128
0.12600001 767578.43163528 19009.08075522
0.12700001 759104.27621749 16032.28306926
0.12800001 750684.85111294 17430.90306435
0.12900001 742321.08835294 17370.31428616
0.13000001 734014.23541711 21635.07060869
0.13100001 725763.90243811 17244.15113478
0.13200001 717572.12309273 15747.12098359
0.13300001 709440.20771892 21389.62327110
0.13400001 701367.17061836 14202.68587462
0.13500001 693355.11438675 14144.44500037
0.13600001 685403.53661972 14085.04334166
0.13700001 677514.69772178 19634.37686580
0.13800001 669686.72395731 15359.26573824
0.13900001 661922.53331346 15290.41124061
0.14000001 654221.76304808 15220.47003512
0.14100001 646584.54574993 22035.60235842
0.14200001 639011.32650842 20560.19040014
0.14300001 631504.17929372 19096.68728259
0.14400001 624059.65941922 17645.28770240
0.14500001 616682.37771365 21608.55153441
0.14600001 609370.28361595 18811.26154263
0.14700001 602126.12570500 17377.36080765
0.14800001 594944.94401341 14626.72213864
0.14900001 587831.74969758 15871.45799066
0.15000001 580784.86531398 13154.77782004
0.15100001 573805.23060684 14391.03586266
0.15200001 566892.51230696 18214.25727990
0.15300001 560048.04107458 15524.53243117
0.15400001 553268.13758564 16722.53024768
0.15500001 546557.13321290 17905.21252905
0.15600001 539910.80521461 21615.33010690
0.15700001 533335.15365560 20224.06998113
0.15800001 526822.75903916 12564.72339612
0.15900001 520379.76713508 14986.93800088
0.16000001 514001.32791023 13654.44592046
0.16100001 507692.87849035 16038.01878857
0.16200001 501449.24969566 13486.47820721
0.16300001 495272.16377414 13402.06538441
0.16400001 489161.33687711 13317.41802519
0.16500001 483116.17483718 12029.59332138
0.16600001 477137.82563192 15537.99402530
0.16700001 471223.29357964 17812.24133831
0.16800001 465373.77710499 11797.22580663
0.16900001 459591.38782567 12891.53903722
0.17000001 453871.78798878 17462.71786745
0.17100001 448216.58252506 19658.78023786
0.17200001 442625.88304410 18377.82753185
0.17300001 437098.61790470 15971.58425249
0.17400001 431634.45786345 13596.48606481
0.17500001 426232.95471494 13503.06064309
0.17600001 420892.60148278 12292.16900685
0.17700001 415615.90409325 12206.63967975
0.17800001 410398.80131728 15426.89167016
0.17900001 405243.78020156 12035.74084048
0.18000001 400149.00808823 15209.66451586
0.18100001 395115.97024845 14022.66644650
0.18200001 390139.54793894 14993.06353553
0.18300001 385223.38019239 12758.59895468
0.18400001 380365.30252200 13721.67893670
0.18500001 375566.79112166 10478.31396731
0.18600001 370823.72641924 11441.76661921
0.18700001 366137.74880936 11357.59350465
0.18800001 361507.93914703 13323.37572674
0.18900001 356935.73062611 12207.20256417
0.19000001 352414.94961960 11106.35766202
0.19100001 347953.20465016 16033.68442787
0.19200001 343542.07461008 11934.65223588
0.19300001 339186.99260048 10857.37614618
0.19400001 334882.45226766 12733.90584920
0.19500001 330631.59021276 9720.56921160
0.19600001 326431.91653411 11575.27630730
0.19700001 322283.06546827 10528.98824642
0.19800001 318185.20342751 12347.17740252
0.19900001 314137.35745050 15078.59387024
0.20000001 310137.67877100 13090.91203962
0.20100001 306188.09653560 11132.99971621
0.20200001 302285.04652257 11045.49612198
0.20300001 298430.94530687 10045.18609381
0.20400001 294623.21049146 11777.56339607
0.20500001 290861.34898608 13481.42416273
0.20600001 287145.40424998 11590.62479042
0.20700001 283474.81839935 9728.85622734
0.20800001 279847.58035665 12282.51088245
0.20900001 276266.63298203 10442.87922037
0.21000001 272726.91937337 8631.80740621
0.21100001 269230.63171095 12842.30173971
0.21200001 265776.12054492 13586.47592455
0.21300001 262362.34356339 11790.56427714
0.21400001 258990.69651197 9187.69539312
0.21500001 255660.10879566 13253.42066656
0.21600001 252368.35251917 9857.50831545
0.21700001 249116.41866402 9775.32873055
0.21800001 245902.99491051 9693.49651769
0.21900001 242726.81912056 12014.97811455
0.22000001 239588.25947072 8736.58629469
0.22100001 236488.24952450 10237.57680598
0.22200001 233424.81449319 11712.09062100
0.22300001 230395.88388298 10837.82289033
0.22400001 227402.51389172 9209.80224811
0.22500001 224446.15597694 9130.47005690
0.22600001 221522.06561178 8297.10935984
0.22700001 218634.27396002 11215.93878454
0.22800001 215778.74558365 9635.60033971
0.22900001 212955.32679964 9551.04685864
0.23000001 210165.86336540 8010.47226100
0.23100001 207408.87942241 8661.39521430
0.23200001 204681.93177555 7868.99723926
0.23300001 201986.77690243 9216.65706595
0.23400001 199323.33257930 8431.37736687
0.23500001 196688.10276097 9747.86283387
0.23600001 194084.52181112 7589.67558439
0.23700001 191509.73592828 7520.58768561
0.23800001 188963.97587065 8806.66651200
0.23900001 186446.66180860 9396.91219962
0.24000001 183957.40151154 7980.07245503
0.24100001 181497.25071815 10541.36082033
0.24200001 179063.81213746 7179.56388726
0.24300001 176657.88267275 7112.24669283
0.24400001 174277.98781790 8966.60289738
0.24500001 171924.55177665 7612.81951279
0.24600001 169597.59033351 6283.59101910
0.24700001 167296.36696603 6845.76766010
0.24800001 165020.38450208 6163.51165273
0.24900001 162768.53132968 8545.34829907
0.25000001 160542.45613390 7857.75088721
0.25100001 158339.51888795 7780.80432626
0.25200001 156162.85630747 8296.93294814
0.25300001 154009.19186331 6454.52553636
0.25400001 151878.82261739 5809.36523996
0.25500001 149771.46002775 5751.22433717
0.25600001 147687.47808457 7401.35831439
0.25700001 145625.52995954 6199.27910369
0.25800001 143586.89103989 5578.35098083
0.25900001 141570.25679433 6625.48833146
0.26000001 139575.60379819 6557.26217670
0.26100001 137601.99042101 5407.75847942
0.26200001 135651.00158359 6421.71871882
0.26300001 133720.25440326 5824.85455742
0.26400001 131811.04879127 6287.38732485
0.26500001 129923.03184444 6739.10798066
0.26600001 128054.59072071 5641.44526115
0.26700001 126207.77107670 6595.61842857
0.26800001 124381.34613838 6524.42382043
0.26900001 122573.83170751 4964.24041907
0.27000001 120787.08596012 5400.99480429
0.27100001 119019.49802636 5827.19489913
0.27200001 117272.91226496 6723.25637832
0.27300001 115544.55983830 6173.54612432
0.27400001 113833.76400195 7043.46448095
0.27500001 112144.81654826 4642.79562482
0.27600001 110472.33839983 6426.17622884
0.27700001 108820.47105343 4991.59524346
0.27800001 107186.02453437 5831.45594078
0.27900001 105571.22052302 6207.58806055
0.28000001 103973.22988187 4820.71903163
0.28100001 102394.20817205 5197.53025281
0.28200001 100833.81014296 5564.51407611
0.28300001 99290.63133579  5498.71542363
0.28400001 97765.25799914  5015.35797274
0.28500001 96257.81483619  4129.46045193
0.28600001 94767.94734962  4079.76032650
0.28700001 93295.22356522  4433.38923366
0.28800001 91839.39113642  4777.48535305
0.28900001 90402.38611385  4325.75438030
0.29000001 88980.92325912  4272.41923252
0.29100001 87577.54968869  4986.66591532
0.29200001 86190.71795659  3788.08223350
0.29300001 84820.92553386  4114.66329242
0.29400001 83466.95891435  4432.09572815
0.29500001 82130.85991194  5105.25449379
0.29600001 80810.45159316  3960.11636778
0.29700001 79506.73481932  3909.34633613
0.29800001 78219.12159203  5613.00443116
0.29900001 76948.39893193  3808.94592744
0.30000001 75693.10072976  3417.54365973
0.30100001 74454.69673917  3710.07771415
0.30200001 73230.73858422  4992.50583933
0.30300001 72024.12890677  3612.73047699
0.30400001 70833.24548178  4536.86958789
0.30500001 69657.83512946  4476.21269733
0.30600001 68496.98295855  4731.42932186
0.30700001 67353.02277085  3111.70979933
0.30800001 66223.91982504  3069.47882921
0.30900001 65110.36491002  3027.63211166
0.31000001 64012.24946859  3284.78873700
0.31100001 62928.48411047  3534.06383497
0.31200001 61860.67050233  3775.66620287
0.31300001 60807.17706752  4009.62544567
0.31400001 59769.86616857  3388.95157221
0.31500001 58746.18036391  3063.02598920
0.31600002 57737.85491469  3843.60918366
0.31700002 56744.00605229  3248.02706022
0.31800002 55764.89414706  4536.19552918
0.31900002 54800.28358363  2893.45511022
0.32000002 53850.43245858  3111.47813478
0.32100002 52914.01481346  3833.62055476
0.32200002 51993.29022526  2519.07503069
0.32300002 51084.77482360  3227.53622618
0.32400002 50191.33256829  2936.19309428
0.32500002 49311.64795045  3858.14351833
0.32600002 48446.19184409  3802.05731596
0.32700002 47593.97320042  3044.11067005
0.32800002 46756.17603784  2538.15913640
0.32900002 45931.21739677  2500.95490568
0.33000002 45120.79183685  2464.27216286
0.33100002 44321.22855707  3752.23538733
0.33200002 43538.06985099  3044.61736886
0.33300002 42766.59609760  2571.12787914
0.33400002 42008.78795008  2322.03586390
0.33500002 41262.86143178  2703.54280904
0.33600002 40530.99486459  2048.84188743
0.33700002 39810.93143166  3027.62147876
0.33800002 39104.55589941  2783.85346632
0.33900002 38409.65881956  2154.78196182
0.34000002 37727.87460988  2315.73705322
0.34100002 37058.12401657  2281.29822250
0.34200002 36401.35075950  2434.70446085
0.34300002 35755.63378882  2029.48986997
0.34400002 35123.26560693  1999.39198937
0.34500002 34501.87499167  2327.84161594
0.34600002 33893.34903472  2469.80846113
0.34700002 33294.78145935  2085.58520939
0.34800002 32709.46556526  2910.97902585
0.34900002 32134.90115257  1855.79062945
0.35000002 31571.78314032  1828.47990717
0.35100002 31020.50892058  2456.82442287
0.35200002 30479.06299677  1936.63975454
0.35300002 29949.21105515  1908.36381882
0.35400002 29430.69865317  1880.62173301
0.35500002 28922.78552311  1853.37218410
0.35600002 28424.72401549  1522.14404312
0.35700002 27937.72610479  1650.28155917
0.35800002 27461.66191372  2218.21584615
0.35900002 26995.60197995  1749.31509116
0.36000002 26540.05722837  2155.71625048
0.36100002 26093.76210507  1841.95875424
0.36200002 25658.68217084  1955.96143453
0.36300002 25232.18268345  1928.74813568
0.36400002 24815.67451016  1630.38989254
0.36500002 24408.55092044  1876.04131261
0.36600002 24011.35080044  1718.37240143
0.36700002 23622.88984285  1303.98358109
0.36800002 23245.01745215  1415.27295461
0.36900002 22875.17960949  1523.48703416
0.37000002 22514.13097779  1628.78488274
0.37100002 22161.92104644  1360.29877827
0.37200002 21819.11615308  1953.24737055
0.37300002 21484.35822461  1446.32706419
0.37400002 21158.10139628  1666.20056389
0.37500002 20840.71773781  1528.04149692
0.37600002 20531.48783249  1393.26683031
0.37700002 20229.91511877  1376.44348989
0.37800002 19936.46965956  1360.06602460
0.37900002 19651.36231226  1232.14047535
0.38000002 19373.91053637  1771.55046337
0.38100002 19103.14665252  1204.07139055
0.38200002 18840.92042437  1190.65202262
0.38300002 18585.32765231  1498.72089288
0.38400002 18338.02177785  1059.02080784
0.38500002 18096.54500931  1362.12700738
0.38600002 17863.40985194  1555.45648655
0.38700002 17636.39677132  1334.36984293
0.38800002 17416.35647717  1016.24444859
0.38900002 17202.49391048  1308.24972387
0.39000002 16996.36952356  1196.20454374
0.39100002 16795.46707137  987.57351058
0.39200002 16601.60380242  1761.59626293
0.39300002 16413.62636867  1164.05443722
0.39400002 16233.01012579  1250.34766418
0.39500002 16057.07390126  1144.54828191
0.39600002 15887.33566813  1229.91814902
0.39700002 15723.24028936  1032.54523872
0.39800002 15564.93146816  931.56119251
0.39900002 15412.13514240  1109.67378283
0.40000002 15264.59620823  1193.61515705
0.40100002 15122.76870416  1003.09329567
0.40200002 14986.20748641  1358.87442821
0.40300002 14854.13614763  990.17676252
0.40400002 14727.67281827  1073.64739932
0.40500002 14606.04004676  1067.40945719
0.40600002 14489.36712631  1061.49108597
0.40700002 14377.06500481  1055.85170398
0.40800002 14269.68951726  1138.07914137
0.40900002 14166.51885493  1219.73733120
0.41000002 14068.24140766  1040.76854865
0.41100002 13973.94491914  949.94882061
0.41200002 13883.61691546  860.09010867
0.41300002 13798.14158381  1199.61048614
0.41400002 13716.15492694  1366.12909545
0.41500002 13638.38423347  1276.55282474
0.41600002 13563.88205183  1018.10503505
0.41700002 13493.51884105  1184.46113999
0.41800002 13427.72364458  843.93247105
0.41900002 13363.55733709  1010.28498256
0.42000002 13304.17377545  1008.19033648
0.42100002 13248.32833145  1174.06691237
0.42200002 13195.88605622  921.00691094
0.42300002 13146.06420944  1170.52561267
0.42400002 13099.26802943  1169.10972703
0.42500002 13056.07407956  1084.56812518
0.42600002 13014.96360794  1000.33015031
0.42700002 12978.07827810  1166.46973091
0.42800002 12942.90636381  1249.31409597
0.42900002 12911.75213277  832.80805203
0.43000002 12882.59116045  832.85955799
0.43100002 12855.20751211  1416.12972664
0.43200002 12831.47340728  1000.08508476
0.43300002 12809.86254320  917.31430019
0.43400002 12790.67353076  918.05063618
0.43500002 12773.61760633  835.39463104
0.43600002 12759.16475481  919.99961824
0.43700002 12746.24255749  921.17099328
0.43800002 12735.57920784  1006.36551669
0.43900002 12727.53584675  1008.02088683
0.44000002 12720.92624364  841.48931089
0.44100002 12716.60359988  843.11085863
0.44200002 12713.94383208  1520.71489382
0.44300002 12713.08710856  1270.03746233
0.44400002 12714.47051748  848.69094726
0.44500002 12716.14771263  1020.85238675
0.44600002 12719.84032039  938.15186729
0.44700002 12726.20794594  1111.76157884
0.44800002 12732.46739104  943.28489137
0.44900002 12741.70123183  1118.08433608
0.45000002 12751.82575723  948.92715870
0.45100002 12762.89790570  951.85697092
0.45200002 12775.47390089  1041.71219125
0.45300002 12788.98748445  1132.20911566
0.45400002 12804.04406809  961.26365397
0.45500002 12820.19394506  1139.97169962
0.45600002 12837.26562860  1055.99352066
0.45700002 12855.43765446  883.16860872
0.45800002 12874.14041250  886.38460941
0.45900002 12894.03623966  1245.56395978
0.46000002 12915.40998218  1161.03083537
0.46100002 12936.47302775  896.49762331
0.46200002 12959.42502692  1080.03853293
0.46300002 12982.90724603  1174.69350330
0.46400002 13006.39012754  1360.79363159
0.46500002 13031.15188698  1001.96531608
0.46600002 13056.28997860  1006.05247198
0.46700002 13081.81047590  1285.68039451
0.46800002 13108.75239556  1014.42085221
0.46900002 13135.15232526  1389.04242423
0.47000002 13162.41367151  929.92456997
0.47100002 13190.20296653  1027.25305572
0.47200002 13218.48959832  1031.63706960
0.47300002 13247.22395811  1036.06543487
0.47400002 13275.66718102  1040.48046463
0.47500002 13304.74616592  1044.95481340
0.47600002 13334.67988279  1240.32530809
0.47700002 13363.83515829  1245.64313415
