# SAXS profile: number of points = 501, q_min = 0, q_max = 0.5, delta_q = 0.001
#    q    intensity    error
0.00000000 1646666.22097350 271.69992646
0.00100000 1646580.69469808 592.76906417
0.00200000 1646324.08953533 889.01503650
0.00300000 1645896.61098880 1185.04560213
0.00400000 1645298.13153157 1357.37101009
0.00500000 1644529.31278071 2072.10701612
0.00600000 1643590.00043563 2761.23131315
0.00700000 1642480.90466948 2168.07488427
0.00800000 1641201.84554971 2215.62258504
0.00900000 1639754.22453010 3689.44716291
0.01000000 1638137.35370642 2702.92675033
0.01100000 1636352.88607418 3829.06592013
0.01200000 1634400.66683273 5736.74659210
0.01300000 1632282.07516664 3770.57175994
0.01400000 1629997.24262957 5867.99033360
0.01500000 1627547.69414590 4687.33756786
0.01600000 1624933.10855188 4557.93757324
0.01700000 1622155.70136798 4379.82059017
0.01800000 1619215.88116465 6460.67165656
0.01900000 1616114.61844637 6787.68170375
0.02000000 1612852.80053879 6096.58386182
0.02100000 1609432.96294617 7435.58062593
0.02200000 1605853.88892088 7756.27463587
0.02300000 1602118.53672292 6921.15239368
0.02400000 1598227.64328811 7192.02472274
0.02500000 1594183.48273656 8082.51062661
0.02600000 1589986.35425918 9015.22304099
0.02700000 1585638.41259185 10655.49062065
0.02800000 1581139.76190926 10316.93741959
0.02900000 1576493.93111684 7094.22301575
0.03000000 1571701.69487797 7308.41321712
0.03100000 1566764.39968814 8272.51641100
0.03200000 1561683.30217926 8503.36597202
0.03300000 1556462.55852973 8731.75535589
0.03400000 1551100.57330133 8143.27838557
0.03500000 1545601.66625074 9180.87432148
0.03600000 1539966.16794248 11965.53767789
0.03700000 1534197.24889521 11368.40214007
0.03800000 1528296.19136990 11622.69307326
0.03900000 1522265.65745163 14613.75098830
0.04000000 1516105.62278221 11188.86001461
0.04100000 1509820.41739272 13316.61669885
0.04200000 1503411.26725230 14545.50468547
0.04300000 1496879.92357564 14819.11193127
0.04400000 1490229.56394841 14082.67003334
0.04500000 1483462.00562278 11259.47714585
0.04600000 1476578.18968359 10409.87672119
0.04700000 1469581.90590084 14813.38630042
0.04800000 1462475.06289200 13973.94987611
0.04900000 1455260.02001381 14188.78585559
0.05000000 1447938.47383115 14399.74879279
0.05100000 1440514.26242680 12359.61294738
0.05200000 1432986.95493742 14809.92086944
0.05300000 1425361.51605149 16163.60034554
0.05400000 1417639.29599944 12865.07721114
0.05500000 1409823.68451249 11842.51950235
0.05600000 1401915.29183358 13185.01393496
0.05700000 1393919.33695557 14552.51855711
0.05800000 1385835.01905916 14717.56858961
0.05900000 1377666.25935180 12398.99691327
0.06000000 1369416.97148912 17542.23222433
0.06100000 1361088.05416535 13923.93144480
0.06200000 1352682.70609311 12782.85217010
0.06300000 1344203.85578900 14194.79338081
0.06400000 1335651.17007556 18231.63932417
0.06500000 1327030.75769746 17078.88665048
0.06600000 1318344.01111176 14574.29372475
0.06700000 1309592.03586388 20036.75908642
0.06800000 1300779.17194561 20194.59758975
0.06900000 1291908.71538700 25773.58007866
0.07000000 1282980.38374361 16396.49007207
0.07100000 1273998.39195193 19262.85658854
0.07200000 1264964.75179948 15236.50114921
0.07300000 1255882.95631139 15334.33161506
0.07400000 1246755.80041069 18233.80443552
0.07500000 1237583.86899747 16930.14812144
0.07600000 1228370.28688384 21281.51621795
0.07700000 1219119.24353510 15690.06539998
0.07800000 1209831.36330668 21504.75349127
0.07900000 1200508.75090816 17287.32682392
0.08000000 1191156.96816533 15919.81362634
0.08100000 1181776.07440116 17443.01567656
0.08200000 1172367.60270363 16055.57507244
0.08300000 1162935.49762849 17583.58554938
0.08400000 1153482.31603377 19118.97028568
0.08500000 1144010.07281515 17709.27675854
0.08600000 1134521.06546536 22208.25089920
0.08700000 1125017.60148068 22275.34955532
0.08800000 1115501.55762173 16381.14114300
0.08900000 1105976.10668137 16423.74595564
0.09000000 1096443.41359173 23946.32527773
0.09100000 1086904.99550491 16499.21860692
0.09200000 1077363.35693834 16532.14148901
0.09300000 1067822.16712630 16561.92259041
0.09400000 1058280.58767408 19604.64880803
0.09500000 1048742.49476685 18122.27116137
0.09600000 1039209.62211223 19656.65092627
0.09700000 1029686.94120187 16650.03862200
0.09800000 1020172.94738203 22724.35347138
0.09900000 1010671.63138957 15160.07518371
0.10000000 1001182.30045134 22751.86884771
0.10100000 991709.42500531 15173.15491620
0.10200000 982254.20245725 18210.99377014
0.10300000 972818.33379648 18211.16006534
0.10400000 963404.53465921 18208.34656167
0.10500000 954015.70396678 21236.39056946
0.10600001 944648.66032058 19710.09522502
0.10700001 935310.59189967 15152.03230179
0.10800001 925999.82610506 22710.14680400
0.10900001 916720.42551811 16638.47650625
0.11000001 907473.08957247 19642.25594835
0.11100001 898258.53986259 21127.04185209
0.11200001 889079.88023135 16576.89514731
0.11300001 879937.23823841 16551.62023053
0.11400001 870833.13165167 18026.24667394
0.11500001 861769.12868788 17993.74025429
0.11600001 852746.31901482 19455.40818451
0.11700001 843765.95572123 17921.58974353
0.11800001 834829.03208897 17882.03870956
0.11900001 825936.66591018 23786.97709862
0.12000001 817090.56350285 20762.27219661
0.12100001 808293.73191254 17750.13118897
0.12200001 799544.99031100 16226.76634283
0.12300001 790846.85579930 16180.72743200
0.12400001 782199.50605583 21999.36214437
0.12500001 773603.42922085 17545.32660147
0.12600001 765062.59345574 20404.22032898
0.12700001 756574.98855092 14526.24046475
0.12800001 748142.70285655 15924.21818080
0.12900001 739766.80522581 20195.63473453
0.13000001 731448.36175887 14372.96098603
0.13100001 723186.90431441 15751.01151843
0.13200001 714984.32834762 17116.72562753
0.13300001 706842.22304335 15628.28228825
0.13400001 698759.58010396 15564.87038063
0.13500001 690738.42257723 16909.27738193
0.13600001 682778.48474208 18240.42807993
0.13700001 674881.08784568 19558.05484799
0.13800001 667045.72709480 15298.69447234
0.13900001 659274.82395482 22151.63512951
0.14000001 651567.47627436 19292.91388235
0.14100001 643924.43926626 20573.38680486
0.14200001 636345.87835308 20474.42960169
0.14300001 628833.91086160 14941.09442681
0.14400001 621385.18497313 16218.15409281
0.14500001 614004.33811497 13446.69563903
0.14600001 606688.97238855 13377.49247224
0.14700001 599442.03785483 13307.61386818
0.14800001 592258.94005334 14560.68672817
0.14900001 585144.59077565 14482.32930499
0.15000001 578096.56165851 15712.66528725
0.15100001 571116.57667246 14323.60441880
0.15200001 564203.89669406 14243.32804414
0.15300001 557359.87373672 14162.51505997
0.15400001 550581.31193283 16641.32093849
0.15500001 543872.13990149 12726.60867430
0.15600001 537228.22422825 12651.72527767
0.15700001 530655.41909113 20122.45444165
0.15800001 524146.46163902 20001.42992019
0.15900001 517707.43671357 13667.47697435
0.16000001 511333.37094560 13583.57164035
0.16100001 505029.66746621 14726.66579848
0.16200001 498791.71811690 12195.45808366
0.16300001 492620.77509442 12118.47163941
0.16400001 486516.72435735 14449.54739557
0.16500001 480478.61084318 14356.70156979
0.16600001 474507.80373887 16640.98946279
0.16700001 468601.58728267 14170.51266848
0.16800001 462760.53745928 11730.98017849
0.16900001 456987.24107636 11653.17519769
0.17000001 451277.46257253 13890.32095388
0.17100001 445632.23112032 12647.04331640
0.17200001 440052.34682014 15987.10251493
0.17300001 434535.84413245 12475.52467419
0.17400001 429083.35975866 15768.81421583
0.17500001 423694.00083074 11185.52215020
0.17600001 418366.12515692 12218.38326227
0.17700001 413102.17488513 15441.76002653
0.17800001 407898.85716939 10952.08483229
0.17900001 402757.69440799 15224.24156772
0.18000001 397677.32372504 12956.32781895
0.18100001 392658.83991404 12863.50420321
0.18200001 387697.80158965 11706.53567199
0.18300001 382797.14631234 14791.28243224
0.18400001 377955.18724842 12585.90832994
0.18500001 373173.06964427 11452.68204843
0.18600001 368446.98140530 11368.43214834
0.18700001 363778.12277882 10258.54354703
0.18800001 359165.97198012 13237.06252273
0.18900001 354611.87552806 12127.72671606
0.19000001 350109.44000346 12036.76311604
0.19100001 345666.43704548 20905.90710032
0.19200001 341274.75973711 14819.85714184
0.19300001 336938.87449321 12746.39822438
0.19400001 332654.45855620 13622.20072158
0.19500001 328423.50061745 11586.78164932
0.19600001 324244.33265034 16288.41482042
0.19700001 320116.37770041 9507.45686700
0.19800001 316039.59585836 11320.53885864
0.19900001 312013.32413153 16848.72029937
0.20000001 308035.24743054 10215.98946385
0.20100001 304107.68821683 15664.58776039
0.20200001 300227.00056802 12798.67763912
0.20300001 296395.57097530 9069.70490052
0.20400001 292610.70517379 12596.89145313
0.20500001 288871.88779332 9818.75593020
0.20600001 285179.09353317 9740.29240003
0.20700001 281532.23548188 9662.18677846
0.20800001 277928.66555791 9584.37048482
0.20900001 274371.85588302 9506.98525575
0.21000001 270856.32216540 10287.12360214
0.21100001 267384.33814845 10203.38682609
0.21200001 263954.49360894 10120.01576338
0.21300001 260565.49467012 9200.56805176
0.21400001 257218.83992878 10783.90037384
0.21500001 253913.41998230 13162.87231419
0.21600001 250646.87915448 8158.55630220
0.21700001 247420.29667243 12135.96612557
0.21800001 244232.40183918 11232.24869165
0.21900001 241082.00809970 8751.27730779
0.22000001 237969.28905399 11044.15522719
0.22100001 234895.25675018 10168.61614552
0.22200001 231857.70416706 9306.76868533
0.22300001 228855.07501606 7689.53088414
0.22400001 225887.80318548 8386.08508981
0.22500001 222957.77745805 12093.23042118
0.22600001 220060.01421304 7493.04383829
0.22700001 217198.54655710 8913.82877223
0.22800001 214369.49400123 8836.31096060
0.22900001 211572.64315831 11678.81045464
0.23000001 208809.60726697 10129.35452756
0.23100001 206079.29554313 10040.18375369
0.23200001 203379.04297330 11372.95662093
0.23300001 200710.30416431 8453.91841122
0.23400001 198073.29613140 10473.12602828
0.23500001 195464.79030763 10379.18085623
0.23600001 192887.70767795 8914.30583196
0.23700001 190339.37826703 7474.62773808
0.23800001 187820.23108215 10100.03340416
0.23900001 185329.29814319 8006.22605848
0.24000001 182866.44189191 9915.93328062
0.24100001 180432.61553775 7859.64510460
0.24200001 178025.65192127 9084.64944726
0.24300001 175645.56713710 9642.94209196
0.24400001 173291.82558663 7005.32238072
0.24500001 170964.54991222 7570.31062822
0.24600001 168663.21411465 9373.45856783
0.24700001 166387.86584442 7427.55468266
0.24800001 164137.65708274 7356.65013847
0.24900001 161911.42284586 8500.35010154
0.25000001 159710.86227027 7817.04852363
0.25100001 157533.38767927 8932.14350398
0.25200001 155381.61963797 7076.07929308
0.25300001 153253.19233412 7006.73628501
0.25400001 151147.57108066 7515.81332757
0.25500001 149064.93228403 6868.91240463
0.25600001 147005.50707533 7367.18133564
0.25700001 144968.04978605 8415.39568824
0.25800001 142953.53011300 7219.86837996
0.25900001 140961.00103767 7696.47102081
0.26000001 138990.34235914 9794.64988949
0.26100001 137040.11933435 5924.24463914
0.26200001 135112.75475005 6396.23811252
0.26300001 133205.21639993 5802.41950094
0.26400001 131318.91478493 8351.88337552
0.26500001 129453.76132849 5165.20532142
0.26600001 127608.01303835 5621.77128042
0.26700001 125783.53213635 7584.74734673
0.26800001 123979.42053436 7503.85478293
0.26900001 122193.57614064 4948.84006788
0.27000001 120428.62707037 5874.50870649
0.27100001 118682.34936440 5810.68809986
0.27200001 116956.91185933 4789.38576729
0.27300001 115249.61139415 6157.78702820
0.27400001 113559.47063577 4684.32838541
0.27500001 111891.04473985 6948.43420718
0.27600001 110238.78595977 5496.50612808
0.27700001 108606.67829465 6340.45817891
0.27800001 106991.76695450 5820.88735665
0.27900001 105396.34332933 4869.31129227
0.28000001 103817.42482354 4375.90466342
0.28100001 102257.23958993 4325.48143938
0.28200001 100715.33421480 4702.90275375
0.28300001 99190.46789609  4225.51413237
0.28400001 97682.86984131  4175.94288337
0.28500001 96193.25853253  6190.03647955
0.28600001 94720.60874354  4485.49463936
0.28700001 93264.98493357  6446.47606374
0.28800001 91825.75862625  5970.97023730
0.28900001 90405.43313948  4719.16383326
0.29000001 89000.10223749  5827.28196983
0.29100001 87612.43373242  5372.39469077
0.29200001 86241.28752704  5685.45714934
0.29300001 84886.75229529  5615.25893014
0.29400001 83547.78207949  4436.38743842
0.29500001 82226.27050239  4381.01589975
0.29600001 80920.28501820  4325.99864185
0.29700001 79630.45679300  4983.27422200
0.29800001 78356.60643247  3514.29396486
0.29900001 77099.30893892  3816.41597314
0.30000001 75856.97413805  4452.42530781
0.30100001 74631.52848342  4733.13176049
0.30200001 73419.93693966  5005.40443782
0.30300001 72225.67591817  4281.53827112
0.30400001 71046.60619596  4225.49710355
0.30500001 69882.65393316  3207.61396739
0.30600001 68733.09649224  3798.19109198
0.30700001 67600.05047310  3747.74697566
0.30800001 66481.50796734  4005.84345222
0.30900001 65378.36341772  3344.10344714
0.31000001 64290.36638891  3299.06030744
0.31100001 63216.29947628  3254.37525112
0.31200001 62157.90380277  3501.97646605
0.31300001 61113.55537097  4029.82803196
0.31400001 60084.76954694  3122.90604506
0.31500001 59069.70714899  5039.82765257
0.31600002 58069.66628906  2761.21276278
0.31700002 57083.78236851  2722.89654790
0.31800002 56112.21573473  3221.96358004
0.31900002 55155.07376529  3971.16549913
0.32000002 54212.05539547  3393.40376816
0.32100002 53282.45264667  3088.25110163
0.32200002 52368.14110567  2537.23655671
0.32300002 51465.96273231  2751.37049795
0.32400002 50578.26221956  2712.25943995
0.32500002 49704.24387879  2430.53764076
0.32600002 48844.10627159  2635.38387867
0.32700002 47996.81535712  2833.73211287
0.32800002 47163.94448984  2560.29484787
0.32900002 46343.50288298  2982.20455174
0.33000002 45537.15953495  2260.92007797
0.33100002 44741.64945859  2450.94767340
0.33200002 43962.22981388  2195.91348319
0.33300002 43194.28940309  3462.45440252
0.33400002 42439.48700425  2345.84275525
0.33500002 41696.76080700  2521.82021303
0.33600002 40967.41207539  2899.26388987
0.33700002 40249.80754214  2244.73187293
0.33800002 39545.61675859  2614.16311963
0.33900002 38852.77394810  3170.38650431
0.34000002 38172.75193809  2538.29726033
0.34100002 37504.49599888  2693.57303020
0.34200002 36848.88983695  2275.05056628
0.34300002 36204.29819319  2054.95606277
0.34400002 35572.74769515  2209.06773649
0.34500002 34952.01078072  1814.00944543
0.34600002 34343.78921654  1787.59431338
0.34700002 33745.55253772  1761.51792590
0.34800002 33160.05941051  1909.52211159
0.34900002 32585.26406220  1881.79908872
0.35000002 32021.79050232  2023.13681976
0.35100002 31469.88853290  2326.25427053
0.35200002 30927.68192132  1801.38291883
0.35300002 30396.80559137  1775.47749868
0.35400002 29876.96916768  1590.94868353
0.35500002 29367.72675322  1881.88401948
0.35600002 28868.06681820  2318.82757700
0.35700002 28379.48957464  1828.77439481
0.35800002 27901.34801484  1953.23396029
0.35900002 27433.38018996  1777.68312051
0.36000002 26975.64642961  1752.87758802
0.36100002 26527.03229352  1728.50150612
0.36200002 26089.29744247  1988.78723824
0.36300002 25660.30010780  1401.05245225
0.36400002 25240.94947776  1796.52466418
0.36500002 24830.88630826  1499.53729519
0.36600002 24430.58902557  1344.90398956
0.36700002 24038.94393599  1326.94976812
0.36800002 23657.71538636  1309.45460866
0.36900002 23284.54215815  1421.52136609
0.37000002 22919.82842047  1275.48851202
0.37100002 22563.89292834  1510.87834205
0.37200002 22217.24833330  1740.27714438
0.37300002 21878.59764080  1718.34514011
0.37400002 21548.34997182  1696.93264067
0.37500002 21226.81684008  1436.63103179
0.37600002 20913.52017744  1537.45750868
0.37700002 20607.62108100  1752.67825597
0.37800002 20309.68396133  1270.06614669
0.37900002 20020.17608557  1255.26510003
0.38000002 19738.19897658  1466.44956243
0.38100002 19462.84356447  1338.26518689
0.38200002 19195.89653139  1213.08473877
0.38300002 18935.62426247  1636.03801378
0.38400002 18683.38299847  1294.75850313
0.38500002 18437.20657638  1387.76860475
0.38600002 18199.04745097  1267.74570549
0.38700002 17967.01711320  1254.81653463
0.38800002 17742.01655014  1552.87007212
0.38900002 17522.99312046  1537.64271917
0.39000002 17311.74871776  1726.06798768
0.39100002 17105.90186318  1508.74061581
0.39200002 16906.82171624  996.65718739
0.39300002 16713.70024210  1185.33567733
0.39400002 16527.77159575  1077.19756479
0.39500002 16346.58609649  1068.08598615
0.39600002 16171.57255122  1348.22406747
0.39700002 16002.14339469  1146.39360711
0.39800002 15838.69156582  1137.53488215
0.39900002 15680.54992953  1034.91634438
0.40000002 15527.67321182  1214.18646433
0.40100002 15380.53849899  927.44651543
0.40200002 15238.58931522  1289.64187485
0.40300002 15101.28233805  1006.65152835
0.40400002 14969.40881468  1091.26995429
0.40500002 14842.67646528  1446.27046330
0.40600002 14720.52182556  1258.16306004
0.40700002 14603.14989824  1340.56922418
0.40800002 14490.39100631  1244.57974250
0.40900002 14382.07139335  1061.39691912
0.41000002 14278.64341561  1232.38977159
0.41100002 14179.17248575  1489.66393194
0.41200002 14083.69076706  1134.23008967
0.41300002 13993.20947458  1216.56968936
0.41400002 13906.04922814  1038.78192656
0.41500002 13823.20139827  862.56780812
0.41600002 13743.72901378  1031.60434866
0.41700002 13668.45592106  942.71344954
0.41800002 13597.77017975  1196.46785481
0.41900002 13528.75065733  937.54246498
0.42000002 13464.37040885  1190.38504425
0.42100002 13403.96883653  848.47126756
0.42200002 13346.72844232  1016.21995175
0.42300002 13292.24957504  929.92582433
0.42400002 13240.89957435  844.10738786
0.42500002 13193.21036646  1095.96003707
0.42600002 13147.53419183  926.30956538
0.42700002 13106.29198248  1430.42077475
0.42800002 13066.86776729  1177.19417294
0.42900002 13031.41181794  1176.73654292
0.43000002 12998.08297890  1092.42393573
0.43100002 12966.57360125  1176.32761285
0.43200002 12938.68615752  1260.55155863
0.43300002 12913.14763855  1008.77514133
0.43400002 12889.97187933  1009.28484598
0.43500002 12869.14903901  1178.29934185
0.43600002 12850.92454182  1095.09158673
0.43700002 12834.35854924  1180.50435530
0.43800002 12819.98954170  928.61598646
0.43900002 12808.41186506  1098.96179010
0.44000002 12798.38768450  931.27472400
0.44100002 12790.71456302  1102.43174043
0.44200002 12784.71607333  1189.36219267
0.44300002 12780.77387024  851.19958010
0.44400002 12778.89380668  1535.38416364
0.44500002 12777.48158290  854.81355841
0.44600002 12778.39096595  942.47027036
0.44700002 12781.75997952  858.93431133
0.44800002 12785.34415700  1205.53015770
0.44900002 12792.01727523  1208.84568980
0.45000002 12799.39562957  952.46707091
0.45100002 12807.96528544  1215.73212251
0.45200002 12818.18155334  1045.19457339
0.45300002 12829.39014991  1223.15411486
0.45400002 12842.28661251  1051.78332341
0.45500002 12856.27391169  1055.24301268
0.45600002 12871.30912389  1058.79393871
0.45700002 12887.50417827  1239.52021061
0.45800002 12904.38418723  888.46689340
0.45900002 12922.42963321  1159.14199304
0.46000002 12942.16415268  1431.92110972
0.46100002 12961.75965801  1077.89998425
0.46200002 12983.02726186  991.83841468
0.46300002 13005.22348861  905.16359771
0.46400002 13027.35261863  908.65788822
0.46500002 13050.96208467  1003.48852225
0.46600002 13074.85317523  1648.60831500
0.46700002 13099.31702628  1011.52930871
0.46800002 13125.28376058  1108.03650758
0.46900002 13150.84982404  1112.56194784
0.47000002 13177.28910123  1117.17062295
0.47100002 13204.36407232  1121.84282476
0.47200002 13232.05687492  1220.45882370
0.47300002 13260.29064458  1602.77140618
0.47400002 13288.31265344  1041.47155358
0.47500002 13317.09283878  1045.92452113
0.47600002 13346.60152375  1432.42407643
0.47700002 13375.70585619  1054.94197088
