# SAXS profile: number of points = 501, q_min = 0, q_max = 0.5, delta_q = 0.001
#    q    intensity    error
0.00000000 1664650.74656090 274.66737318
0.00100000 1664564.69322569 549.30636181
0.00200000 1664306.50620604 748.93795151
0.00300000 1663876.39041179 1297.82363075
0.00400000 1663274.22722219 1871.18357673
0.00500000 1662500.67594599 1945.12586785
0.00600000 1661555.55671220 1744.63340558
0.00700000 1660439.62675777 2191.78039841
0.00800000 1659152.67816840 4031.74117817
0.00900000 1657696.09995555 2735.19868185
0.01000000 1656069.23007099 3005.76578237
0.01100000 1654273.75440370 3871.00075385
0.01200000 1652309.48567564 4510.80509367
0.01300000 1650177.76129942 3811.91079673
0.01400000 1647878.78496013 4820.04565969
0.01500000 1645414.04412388 4343.89326992
0.01600000 1642783.25939250 5864.73649821
0.01700000 1639988.58680791 6199.15713622
0.01800000 1637030.54217858 5598.64470618
0.01900000 1633909.95612396 5391.90309851
0.02000000 1630627.86746343 7704.71702229
0.02100000 1627186.68602166 8054.57446099
0.02200000 1623585.32924954 7281.78053251
0.02300000 1619826.57808682 5831.37594655
0.02400000 1615911.36454991 7877.56826138
0.02500000 1611841.87393443 8172.03867407
0.02600000 1607618.44601165 7813.02600497
0.02700000 1603243.15603199 6733.62156374
0.02800000 1598716.24866256 6954.41600061
0.02900000 1594041.15441163 7890.50407662
0.03000000 1589218.65737156 9606.82722539
0.03100000 1584250.15774487 8364.84121779
0.03200000 1579136.86894150 10943.41900580
0.03300000 1573882.99849390 8829.48402859
0.03400000 1568487.06023674 9058.01319081
0.03500000 1562953.08719782 10127.93647273
0.03600000 1557281.65589214 12964.37038443
0.03700000 1551475.83719077 12380.77775336
0.03800000 1545537.04397122 10849.67055080
0.03900000 1539467.78082515 17549.93351414
0.04000000 1533268.21930334 10372.55998424
0.04100000 1526942.43109353 9619.73776192
0.04200000 1520491.97113378 15691.47787007
0.04300000 1513918.46825577 14987.79353143
0.04400000 1507224.75121160 10173.76754317
0.04500000 1500413.27936461 17599.84858472
0.04600000 1493484.67969293 11581.97422943
0.04700000 1486442.62615877 17123.81984974
0.04800000 1479289.18718379 13047.33123803
0.04900000 1472026.75273773 13248.24139131
0.05000000 1464656.97533899 19047.86485127
0.05100000 1457183.76510779 14775.84406651
0.05200000 1449606.58084862 17286.55928220
0.05300000 1441930.66925668 15183.53065510
0.05400000 1434156.89055488 14198.15387861
0.05500000 1426289.16714422 11980.82956291
0.05600000 1418327.64607405 20615.39329769
0.05700000 1410278.02900533 17177.18719509
0.05800000 1402139.28182215 12408.93322353
0.05900000 1393915.25686370 16308.80926702
0.06000000 1385609.97184134 15213.99820160
0.06100000 1377224.44367280 23054.73826446
0.06200000 1368761.67724834 15521.75814554
0.06300000 1360224.77838366 16975.60602793
0.06400000 1351613.36377209 22402.99255224
0.06500000 1342933.43970705 14624.54584251
0.06600000 1334186.62371013 14749.43381522
0.06700000 1325373.80416525 14870.69477867
0.06800000 1316499.53871823 16350.92503625
0.06900000 1307566.97676916 15102.39928876
0.07000000 1298575.98349559 13829.83487186
0.07100000 1289530.56014233 15319.62377203
0.07200000 1280433.14247461 16824.89228031
0.07300000 1271286.78628156 14111.28398892
0.07400000 1262094.57911103 15618.42114844
0.07500000 1252856.97311558 15710.82717927
0.07600000 1243577.19301001 21544.97587894
0.07700000 1234259.27749525 18773.08449094
0.07800000 1224904.21963546 14515.11568338
0.07900000 1215513.67650776 17503.39776269
0.08000000 1206093.47714609 21981.05465214
0.08100000 1196643.78620195 19134.33503912
0.08200000 1187165.94646353 14780.21672704
0.08300000 1177663.96502365 17806.27998684
0.08400000 1168140.64115264 20851.31142331
0.08500000 1158597.56480797 16440.50021643
0.08600000 1149037.34122291 16494.43180769
0.08700000 1139462.33713161 19553.17462335
0.08800000 1129874.14975145 19608.96678985
0.08900000 1120276.13799133 24197.96571718
0.09000000 1110670.62515575 16676.72022011
0.09100000 1101058.96377546 16714.07585536
0.09200000 1091443.68318729 19793.33212463
0.09300000 1081828.56508278 19829.91852982
0.09400000 1072212.47640134 18334.83420815
0.09500000 1062599.73146043 19891.86790791
0.09600000 1052991.89261620 22981.54913666
0.09700000 1043393.88272584 15337.89079715
0.09800000 1033804.13836555 19957.58982951
0.09900000 1024226.90957255 18436.08523922
0.10000000 1014661.28572252 21520.96688225
0.10100000 1005111.84382849 19991.67551399
0.10200000 995580.05910796 16919.88390039
0.10300000 986067.22669324 16920.91440603
0.10400000 976575.96055209 16919.17931253
0.10500000 967109.68921674 16914.74926023
0.10600001 957664.83588372 16907.57347309
0.10700001 948249.16772829 18433.96468810
0.10800001 938860.15143206 16885.40061816
0.10900001 929502.39088263 19937.82722282
0.11000001 920176.69364962 19917.22547154
0.11100001 910883.48537273 18363.41192954
0.11200001 901626.17026522 16810.82073600
0.11300001 892404.51694704 19838.15334573
0.11400001 883221.47637820 21329.79965884
0.11500001 874078.24021816 18250.75451515
0.11600001 864976.23637675 24288.53386124
0.11700001 855916.61994491 18179.66986380
0.11800001 846900.17255321 16628.88567127
0.11900001 837928.41070173 16590.98331336
0.12000001 829002.77111151 22569.60150665
0.12100001 820126.29099988 24013.29893170
0.12200001 811297.95805851 16465.29283450
0.12300001 802520.12987251 16419.56263079
0.12400001 793792.97146726 16371.98080792
0.12500001 785117.29974828 19290.33296379
0.12600001 776496.69582693 22188.39412885
0.12700001 767929.43757805 14744.24589634
0.12800001 759417.39631445 16164.20004236
0.12900001 750962.03718582 17572.51249838
0.13000001 742563.92854623 18968.79644881
0.13100001 734222.89488064 21806.42100586
0.13200001 725940.80305680 18827.27561480
0.13300001 717719.25568256 18754.00503511
0.13400001 709557.11886531 17242.23880132
0.13500001 701456.85206909 14309.72045689
0.13600001 693417.52007287 14249.73070938
0.13700001 685441.38271875 15607.50102045
0.13800001 677526.95872213 21189.65663325
0.13900001 669677.14626342 16875.86488167
0.14000001 661891.14305770 20998.49750381
0.14100001 654169.50201447 13933.81105007
0.14200001 646512.56943787 15254.46479537
0.14300001 638922.32120632 17940.93962570
0.14400001 631395.34918832 15106.13444189
0.14500001 623936.53217252 16397.05283898
0.14600001 616543.52969941 14954.26401832
0.14700001 609219.16252178 16229.59925524
0.14800001 601958.63565532 16144.53136995
0.14900001 594767.02895024 14720.48466104
0.15000001 587642.09238184 18634.13162864
0.15100001 580585.24167465 17208.54737522
0.15200001 573596.17965624 19746.04941642
0.15300001 566676.03044930 18326.30368953
0.15400001 559821.34174868 13015.84680989
0.15500001 553036.28238817 16823.36450419
0.15600001 546316.78949756 18012.06539981
0.15700001 539668.80981923 23022.27251347
0.15800001 533084.81377795 13985.48074956
0.15900001 526570.99513969 13901.47492785
0.16000001 520122.48838145 13817.05455605
0.16100001 513744.64093163 13732.39490033
0.16200001 507432.79398905 14888.07887845
0.16300001 501188.10830873 14795.07365572
0.16400001 495010.84788945 14701.82287638
0.16500001 488899.73563288 14608.32479039
0.16600001 482856.25534609 13305.10474424
0.16700001 476877.55767880 18025.97253135
0.16800001 470964.49067753 13132.84544263
0.16900001 465119.57461474 14232.65965525
0.17000001 459338.34021266 12960.23188108
0.17100001 453621.98604253 14044.13735106
0.17200001 447971.35589059 12787.34295775
0.17300001 442384.71331465 11546.24156278
0.17400001 436862.20836986 13761.16021354
0.17500001 431403.18576398 12527.94910625
0.17600001 426005.94231169 13572.54996307
0.17700001 420673.19131403 16847.96210787
0.17800001 415401.18111937 18960.98780776
0.17900001 410191.78578741 15505.25023513
0.18000001 405043.60659418 17595.09510156
0.18100001 399957.76443346 15286.38647872
0.18200001 394929.58177439 14093.06279135
0.18300001 389962.36185817 10762.96169572
0.18400001 385054.04604868 11753.77531089
0.18500001 380205.94582417 12729.29566755
0.18600001 375414.49283452 13689.49012795
0.18700001 370680.43962113 12543.82666941
0.18800001 366003.68840144 14526.68707898
0.18900001 361385.15174178 13389.32050464
0.19000001 356818.83097180 13289.71798747
0.19100001 352312.29711384 17249.21088172
0.19200001 347857.46782338 13091.61642013
0.19300001 343458.96063243 11993.58747201
0.19400001 339112.12743549 11902.83623544
0.19500001 334819.32299218 12796.79512948
0.19600001 330578.68354635 15629.76089668
0.19700001 326389.84801382 10663.15683853
0.19800001 322252.33132970 11543.07905374
0.19900001 318165.95235118 14317.46853245
0.20000001 314128.00073905 10418.05563688
0.20100001 310141.07847794 9397.27512202
0.20200001 306201.38646808 13053.36572208
0.20300001 302311.52843276 11100.87984873
0.20400001 298468.45406205 13766.85809431
0.20500001 294671.96082339 11836.97322577
0.20600001 290922.05687841 9936.44332236
0.20700001 287218.29287345 11649.57450961
0.20800001 283558.36175116 10667.46607333
0.20900001 279945.39727754 12345.59260353
0.21000001 276374.37537649 11371.42421242
0.21100001 272847.31273097 10411.85394602
0.21200001 269362.75316528 9466.75440753
0.21300001 265919.50200568 10243.21970151
0.21400001 262519.00471823 14392.60511411
0.21500001 259160.13729551 8396.78884535
0.21600001 255840.67628069 8327.61440665
0.21700001 252561.37523593 13214.01177710
0.21800001 249321.48274176 13104.33775249
0.21900001 246119.28980782 12182.90542151
0.22000001 242955.16924212 11275.54993766
0.22100001 239830.29116241 11180.88870266
0.22200001 236742.27938797 8710.93258197
0.22300001 233689.56128778 8637.16659361
0.22400001 230672.52615445 7785.19812585
0.22500001 227693.41398264 8490.68780891
0.22600001 224746.91223797 9948.42254066
0.22700001 221837.10727921 12138.92708436
0.22800001 218959.99072878 13538.29686699
0.22900001 216115.55184726 9692.78295873
0.23000001 213305.35858910 10347.44343451
0.23100001 210528.32372092 8059.02461317
0.23200001 207781.65211240 7261.96908477
0.23300001 205067.14523483 9357.21427961
0.23400001 202384.58741506 7847.46274817
0.23500001 199730.80573237 8484.56502880
0.23600001 197109.08533201 8408.67397797
0.23700001 194516.39528634 8333.08276820
0.23800001 191953.30624208 6881.52635427
0.23900001 189418.77765126 8182.89158158
0.24000001 186912.78645733 6756.89755004
0.24100001 184436.26090568 7364.54024632
0.24200001 181986.70609822 6633.41575105
0.24300001 179564.79330039 9858.10761851
0.24400001 177169.44468975 8464.27062044
0.24500001 174800.89647368 10320.24541600
0.24600001 172458.78237397 8945.43746490
0.24700001 170142.99801215 9493.97973820
0.24800001 167852.65637605 7523.15641467
0.24900001 165586.61089108 8693.29748304
0.25000001 163346.74712685 7380.00638433
0.25100001 161130.29644278 8527.01569116
0.25200001 158939.87707300 7841.29920637
0.25300001 156773.12532288 7764.97326461
0.25400001 154629.70048000 5914.58632319
0.25500001 152509.46883673 7613.27304453
0.25600001 150412.88526355 6958.10040150
0.25700001 148338.53521790 8611.05237682
0.25800001 146287.59835439 7388.25550446
0.25900001 144258.90080289 5626.09739751
0.26000001 142252.34533610 6126.09754176
0.26100001 140266.88365123 7166.23542482
0.26200001 138304.18610753 7092.93052014
0.26300001 136361.83482810 7019.90758912
0.26400001 134441.09686399 5878.43723853
0.26500001 132541.90952520 5817.26468433
0.26600001 130662.29099891 6802.93250277
0.26700001 128804.34633704 5695.72846455
0.26800001 126967.02707857 6147.74374206
0.26900001 125148.40486661 5068.51063695
0.27000001 123350.83843631 10529.84482141
0.27100001 121572.31473430 5456.16574348
0.27200001 119815.07577785 6378.35586088
0.27300001 118076.13424798 4852.92934725
0.27400001 116354.68266735 5279.59397589
0.27500001 114655.13041279 6645.41167322
0.27600001 112972.22518874 4693.99617874
0.27700001 111309.70044039 6498.26061925
0.27800001 109664.76696158 8261.04728619
0.27900001 108039.40582395 6352.71736311
0.28000001 106430.98818847 6280.49291025
0.28100001 104841.50858620 5321.75522771
0.28200001 103270.58406139 7014.13840143
0.28300001 101717.07151126 5199.77694176
0.28400001 100181.05868536 4711.01450766
0.28500001 98663.23197236  7195.50984832
0.28600001 97162.70937463  5019.42580387
0.28700001 95679.54666802  4960.02793404
0.28800001 94212.97590300  4900.95923845
0.28900001 92765.53999562  5245.89153506
0.29000001 91333.24423128  4385.36592934
0.29100001 89919.11976958  3938.45763233
0.29200001 88521.58398038  5057.68094013
0.29300001 87140.95228885  3842.91617785
0.29400001 85776.16887194  4175.15521748
0.29500001 84429.10365925  4873.24809390
0.29600001 83097.73481892  4072.20468757
0.29700001 81782.79511258  4021.26022604
0.29800001 80484.07086374  4331.65289894
0.29900001 79202.16246316  4633.32672343
0.30000001 77935.49836524  4574.42429310
0.30100001 76685.82187898  4516.02826424
0.30200001 75450.41472693  3772.14366285
0.30300001 74232.28985376  3384.99257758
0.30400001 73029.73025293  3675.22134897
0.30500001 71842.47685954  3627.32682836
0.30600001 70669.93887000  5206.96134245
0.30700001 69513.97966060  4817.31901855
0.30800001 68372.83859533  3802.89746272
0.30900001 67247.25212616  3752.39684629
0.31000001 66136.96212025  3393.81837188
0.31100001 65040.88199727  3043.91342159
0.31200001 63960.63824536  3603.54252936
0.31300001 62894.70574235  3851.04301494
0.31400001 61844.61810148  3214.37417801
0.31500001 60808.30311203  3747.00781517
0.31600002 59787.09335096  2842.87642344
0.31700002 58780.37797309  3364.58899449
0.31800002 57788.16005143  2765.16358939
0.31900002 56810.51831852  3817.66701177
0.32000002 55847.31980519  3764.66800632
0.32100002 54897.60809934  3712.17643545
0.32200002 53963.37910859  3137.43100993
0.32300002 53041.39427617  2835.59307227
0.32400002 52134.13917628  3049.84728623
0.32500002 51240.69234177  3257.37096641
0.32600002 50361.35754609  2717.24717507
0.32700002 49495.05527607  2922.18820187
0.32800002 48643.18728711  3360.75796881
0.32900002 47804.09381003  3786.08440904
0.33000002 46979.21616845  2565.77001254
0.33100002 46165.35536591  3218.64872853
0.33200002 45367.65908764  2492.72614661
0.33300002 44581.59202656  2680.24543956
0.33400002 43809.00266849  2861.82323484
0.33500002 43048.36626607  3037.49286758
0.33600002 42301.54581050  2993.68053878
0.33700002 41566.42991057  2528.90171552
0.33800002 40844.92161785  2284.66079889
0.33900002 40134.87602528  2456.25452907
0.34000002 39437.88931629  2420.69776087
0.34100002 38752.76643465  2982.02551837
0.34200002 38080.51349655  1959.24251219
0.34300002 37419.19672280  2703.16289928
0.34400002 36771.25393635  2093.20372946
0.34500002 36134.18576124  2625.51006176
0.34600002 35509.83786675  1848.28714850
0.34700002 34895.50618337  2185.85461085
0.34800002 34294.20740542  2692.95276405
0.34900002 33703.66815630  2123.33119441
0.35000002 33124.52605342  1918.40701724
0.35100002 32557.16053391  1719.01815761
0.35200002 31999.50049691  2372.12308419
0.35300002 31453.42625433  2505.26551981
0.35400002 30918.49880721  1975.69216736
0.35500002 30394.25856662  2109.96952963
0.35600002 29879.80223856  1920.07618279
0.35700002 29376.31397519  2366.26220278
0.35800002 28883.71901773  2022.00484561
0.35900002 28401.17594389  1993.76264570
0.36000002 27929.09108427  1663.59638923
0.36100002 27466.16857444  1640.55432666
0.36200002 27014.41995378  1618.02875977
0.36300002 26571.25825675  1595.86984649
0.36400002 26138.02982029  1574.16292049
0.36500002 25714.17855254  2117.56270411
0.36600002 25300.18564446  1810.60787141
0.36700002 24894.89968551  1511.61838051
0.36800002 24500.30598245  1491.70120040
0.36900002 24113.68805595  1739.80267565
0.37000002 23735.73558093  1585.07249718
0.37100002 23366.63024127  1825.40124092
0.37200002 23007.01981474  1802.13994746
0.37300002 22655.44569817  1525.16467665
0.37400002 22312.33334379  1882.60321506
0.37500002 21978.06489870  1611.43179471
0.37600002 21652.12517929  2081.52715272
0.37700002 21333.74942786  1451.54837983
0.37800002 21023.41028631  1195.18093140
0.37900002 20721.58687830  1771.69576202
0.38000002 20427.35823170  1400.90829389
0.38100002 20139.92995804  1500.22345364
0.38200002 19860.99949783  1255.11592272
0.38300002 19588.74043702  1353.97380315
0.38400002 19324.77753235  1339.20714644
0.38500002 19066.70730181  1214.35864558
0.38600002 18816.97231041  1201.55782380
0.38700002 18573.46022695  1513.36561099
0.38800002 18336.97998393  1497.94796585
0.38900002 18106.65663328  1482.93524852
0.39000002 17884.15432009  1258.68684068
0.39100002 17667.06830459  1142.70603208
0.39200002 17456.94235172  1440.72152054
0.39300002 17252.77594340  1121.60301722
0.39400002 17055.97778012  1616.90677016
0.39500002 16864.06178073  1402.41544413
0.39600002 16678.23479191  1390.46450048
0.39700002 16498.21977994  1280.42689779
0.39800002 16324.17142469  1367.80238848
0.39900002 16155.55283896  1066.26653789
0.40000002 15992.32027363  1058.13192104
0.40100002 15834.81360752  1050.32323635
0.40200002 15682.79724482  1137.63016604
0.40300002 15535.31450857  1318.01614535
0.40400002 15393.43472189  1309.21168513
0.40500002 15256.70568757  1300.78678855
0.40600002 15124.65730682  923.36037233
0.40700002 14997.49067108  917.84647256
0.40800002 14875.09929017  1277.62233857
0.40900002 14757.09009325  1361.34162560
0.41000002 14644.08185920  1444.49230303
0.41100002 14535.12736252  1077.92509628
0.41200002 14430.29396756  983.35242901
0.41300002 14330.48928208  1334.88513988
0.41400002 14234.13245426  886.07478726
0.41500002 14142.14706196  970.71702033
0.41600002 14053.57601059  1054.86146534
0.41700002 13969.33686543  875.87746296
0.41800002 13889.69254222  1309.45082646
0.41900002 13811.80863976  1131.18718120
0.42000002 13738.69526311  1214.63810577
0.42100002 13669.60623228  951.81472706
0.42200002 13603.75603291  949.47419731
0.42300002 13540.73501411  1033.42894525
0.42400002 13480.99587758  1031.29623350
0.42500002 13424.81334155  1029.41473581
0.42600002 13370.89982172  856.40617416
0.42700002 13321.31159340  1026.27389379
0.42800002 13273.72063948  1110.41315271
0.42900002 13230.19160403  938.68213879
0.43000002 13188.81314362  1364.25089622
0.43100002 13149.29813456  852.07455950
0.43200002 13113.55781544  936.89818252
0.43300002 13080.20495309  936.67352108
0.43400002 13049.36081373  1021.76500013
0.43500002 13020.82005889  936.71783943
0.43600002 12994.99607221  1022.18643948
0.43700002 12970.89460501  1107.84416071
0.43800002 12949.06827537  1108.50504224
0.43900002 12930.10844702  1365.41951671
0.44000002 12912.75771171  1110.43265204
0.44100002 12897.83666566  1282.68991719
0.44200002 12884.64999734  856.18503290
0.44300002 12873.55592134  1028.85463799
0.44400002 12864.66075662  1030.45937544
0.44500002 12856.31967289  946.09660956
0.44600002 12850.21910594  947.76795507
0.44700002 12846.85580617  863.30875109
0.44800002 12843.53443144  1124.51571044
0.44900002 12843.51845147  1387.10005850
0.45000002 12844.26499489  868.91456808
0.45100002 12846.23227376  958.07204838
0.45200002 12849.98530377  1047.78785133
0.45300002 12854.69965258  1050.48610539
0.45400002 12861.23689508  1667.78097341
0.45500002 12868.89231587  1056.27873135
0.45600002 12877.64771039  1412.42046782
0.45700002 12887.72212218  1151.00251728
0.45800002 12898.47097742  976.86574577
0.45900002 12910.47792782  979.90532116
0.46000002 12924.21523427  1519.30619387
0.46100002 12937.84917835  1255.23018677
0.46200002 12953.28901711  1079.52715785
0.46300002 12969.67397897  992.95828689
0.46400002 12986.09199865  996.35795582
0.46500002 13004.03449415  1545.26949218
0.46600002 13022.35971416  1824.43268242
0.46700002 13041.21064274  1098.59163661
0.46800002 13061.74370281  1378.34056957
0.46900002 13081.89617777  1106.72846909
0.47000002 13102.99790769  1018.29953066
0.47100002 13124.79854800  1300.93009374
0.47200002 13147.25560723  932.79782954
0.47300002 13170.29054916  1310.97078340
0.47400002 13193.19459063  1034.01667505
0.47500002 13216.92967667  1132.42658837
0.47600002 13241.56794351  1326.40792377
0.47700002 13265.75514501  1141.38562678
