# SAXS profile: number of points = 501, q_min = 0, q_max = 0.5, delta_q = 0.001
#    q    intensity    error
0.00000000 1646666.22097350 271.69992646
0.00100000 1646580.74067746 493.97423393
0.00200000 1646324.26683599 1037.18432095
0.00300000 1645897.01925963 987.53824673
0.00400000 1645298.85156725 1357.37160412
0.00500000 1644530.44610736 1924.10069810
0.00600000 1643591.61115166 1725.77126197
0.00700000 1642483.10935705 1970.97981314
0.00800000 1641204.71603492 2880.31439825
0.00900000 1639757.81744298 2705.60051444
0.01000000 1638141.80024175 3513.81431324
0.01100000 1636358.32082760 3534.53412688
0.01200000 1634407.08803218 3187.09396140
0.01300000 1632289.61732903 4456.15085185
0.01400000 1630005.95047988 4401.01626140
0.01500000 1627557.75846023 5468.59431194
0.01600000 1624944.49793384 5386.69125145
0.01700000 1622168.52545395 4817.84073672
0.01800000 1619230.32529890 4614.80663476
0.01900000 1616130.63474815 6787.74897222
0.02000000 1612870.58262753 5588.59682161
0.02100000 1609452.49419009 7435.67086028
0.02200000 1605875.33405039 5540.27015418
0.02300000 1602141.95336518 5767.71129465
0.02400000 1598253.07545056 6592.79423685
0.02500000 1594211.04444230 8704.39270019
0.02600000 1590016.18130821 7083.52241172
0.02700000 1585670.42700129 7325.79770828
0.02800000 1581174.23349185 9629.35152356
0.02900000 1576530.85804044 9222.70594299
0.03000000 1571741.04068647 10232.03464519
0.03100000 1566806.38453364 8272.73809099
0.03200000 1561727.95629491 8503.60911369
0.03300000 1556509.96604686 7938.20119279
0.03400000 1551150.91227808 13844.02253085
0.03500000 1545654.81536716 10015.84366609
0.03600000 1540022.26209649 9401.83634459
0.03700000 1534256.31116339 8745.26137808
0.03800000 1528358.47095763 10729.07696266
0.03900000 1522331.08185023 10047.38560551
0.04000000 1516174.29428009 10256.91957610
0.04100000 1509892.35489712 12366.01895998
0.04200000 1503486.69959110 10667.23862848
0.04300000 1496958.86033720 13831.90051156
0.04400000 1490311.73795825 12071.52563809
0.04500000 1483547.92758707 13307.42552878
0.04600000 1476667.75176610 12492.60976068
0.04700000 1469675.30729608 11639.82897513
0.04800000 1462572.14446682 18274.83979541
0.04900000 1455360.81604173 13098.24795407
0.05000000 1448043.23990522 12185.28443122
0.05100000 1440623.04451192 13484.23232478
0.05200000 1433099.58490721 22786.28446189
0.05300000 1425478.47865869 12701.01383694
0.05400000 1417760.20942907 17544.78340987
0.05500000 1409948.72481915 11843.56984097
0.05600000 1402044.42116159 13186.22839635
0.05700000 1394052.71617006 13341.08511649
0.05800000 1385972.79062625 12265.85976976
0.05900000 1377808.43127905 13640.30410674
0.06000000 1369563.49129356 17544.10914311
0.06100000 1361238.96844141 12659.52299810
0.06200000 1352838.02234715 12784.31990876
0.06300000 1344363.75104779 16777.66039752
0.06400000 1335815.54111500 14326.62234847
0.06500000 1327199.84842286 17081.06284822
0.06600000 1318517.82216327 19876.65709911
0.06700000 1309770.49575293 13359.65968190
0.06800000 1300962.06616625 14811.45381661
0.06900000 1292096.40017529 16280.41540444
0.07000000 1283172.76842748 15032.36968607
0.07100000 1274195.66535359 16513.57659644
0.07200000 1265166.92683189 13853.57849780
0.07300000 1256090.10485494 19519.64114405
0.07400000 1246967.72465704 19639.74258375
0.07500000 1237800.76077488 16933.11520110
0.07600000 1228591.91574783 14190.23729213
0.07700000 1219345.73001794 21399.51856521
0.07800000 1210063.00029799 14339.24722599
0.07900000 1200745.26234016 15849.83820631
0.08000000 1191398.38714505 15923.04019116
0.08100000 1182022.44795371 15992.76447117
0.08200000 1172619.28631858 17518.93295968
0.08300000 1163191.99776298 20518.70780352
0.08400000 1153744.10580097 14710.23803944
0.08500000 1144276.79615196 17713.40563599
0.08600000 1134792.95900520 19251.76345342
0.08700000 1125294.55504111 22280.83323607
0.08800000 1115783.46414507 14895.70994590
0.08900000 1106263.15261864 19414.91924037
0.09000000 1096735.61048258 19461.57432223
0.09100000 1087202.14676470 16503.72936325
0.09200000 1077665.64797726 18040.12379479
0.09300000 1068129.55460679 27109.12936984
0.09400000 1058592.89430533 16593.44439809
0.09500000 1049059.99037097 16617.11102852
0.09600000 1039532.39462503 19662.75616864
0.09700000 1030014.69747739 16655.33844122
0.09800000 1020505.86843931 21216.31800240
0.09900000 1011009.41982355 18198.17041255
0.10000000 1001525.27539421 16690.41949935
0.10100000 992057.37402590 21249.86995105
0.10200000 982607.21839688 18217.53868596
0.10300000 973176.44574024 19736.01924801
0.10400000 963767.68390700 18215.21008278
0.10500000 954383.69503645 18209.64175805
0.10600001 945021.38324892 15167.59391483
0.10700001 935688.66778377 16673.97284454
0.10800001 926382.59299673 18175.62732997
0.10900001 917108.08753668 16645.51257222
0.11000001 907865.58616310 19650.75153745
0.11100001 898655.78872909 21136.38514587
0.11200001 889482.02054745 21107.40934127
0.11300001 880344.20730398 21075.44131511
0.11400001 871244.94989510 15028.97609332
0.11500001 862185.53129352 16502.23184601
0.11600001 853167.59425430 16470.40118269
0.11700001 844191.96798055 16436.41839065
0.11800001 835259.53977109 16400.32183583
0.11900001 826371.78835663 17849.63146925
0.12000001 817530.16830951 23741.07720603
0.12100001 808738.00060099 17759.88732983
0.12200001 799993.94851237 28043.78918628
0.12300001 791300.03320569 19133.63570438
0.12400001 782657.07142949 14674.82078074
0.12500001 774065.61459530 16092.82488574
0.12600001 765529.01294580 14583.32838383
0.12700001 757045.91459432 14535.28224521
0.12800001 748617.96076670 18831.48569060
0.12900001 740246.25147172 15878.28284245
0.13000001 731931.91092521 18697.20154587
0.13100001 723674.53681887 15761.63215488
0.13200001 715476.09147845 14273.74869786
0.13300001 707338.09228116 17060.99559013
0.13400001 699259.37048005 18408.00379574
0.13500001 691242.23130965 18331.74483864
0.13600001 683286.13057986 22466.44903278
0.13700001 675393.00043181 18174.82649862
0.13800001 667561.34799441 19486.11666684
0.13900001 659793.99566809 19397.94438741
0.14000001 652090.48409302 13791.71438899
0.14100001 644451.04576097 13726.80792211
0.14200001 636876.26100204 15027.09608710
0.14300001 629367.72483833 16313.21219726
0.14400001 621922.49248342 16232.17781949
0.14500001 614544.94711486 18841.94896736
0.14600001 607233.11744457 16067.38904555
0.14700001 599989.77035595 13319.77353028
0.14800001 592809.85834044 19873.95143849
0.14900001 585698.35003506 22402.96294583
0.15000001 578653.77185644 17038.46111624
0.15100001 571676.84507946 14337.65595111
0.15200001 564767.30261479 18145.97428927
0.15300001 557926.55814709 19332.15615206
0.15400001 551150.79032757 15377.10777580
0.15500001 544444.45429762 16562.00108134
0.15600001 537803.35027887 13931.79644648
0.15700001 531233.33509952 15108.27676329
0.15800001 524727.09349370 13766.21594755
0.15900001 518290.60411547 18658.46262885
0.16000001 511919.35018178 17307.99404663
0.16100001 505618.45436124 13515.18192305
0.16200001 499382.81890673 18314.86574798
0.16300001 493214.22203229 12133.07043477
0.16400001 487112.44286058 12056.03352996
0.16500001 481076.79785833 14374.57539865
0.16600001 475108.19028616 15471.89894714
0.16700001 469203.98811509 11823.94105876
0.16800001 463365.21326161 16444.83219512
0.16900001 457594.04305211 15169.24324344
0.17000001 451886.01642018 13909.05224219
0.17100001 446242.95120543 13815.68242171
0.17200001 440664.77759011 13722.30182216
0.17300001 435150.45275553 14764.65555925
0.17400001 429699.61221416 13535.53842398
0.17500001 424311.92622383 15682.56953388
0.17600001 418985.80637909 12236.48105322
0.17700001 413723.64022786 12151.06388739
0.17800001 408521.37953777 13162.55947040
0.17900001 403381.81276972 10891.30945922
0.18000001 398302.79481652 16220.88208510
0.18100001 393285.93343425 16105.05973488
0.18200001 388326.02076236 14923.36968285
0.18300001 383426.70218051 11640.83522811
0.18400001 378585.94470196 16809.21673885
0.18500001 373804.88041213 12514.98798743
0.18600001 369079.81488922 11387.95822641
0.18700001 364412.11299942 11304.06427930
0.18800001 359800.89430775 10200.35583555
0.18900001 355247.59470233 17211.74677654
0.19000001 350746.06989577 16078.20060370
0.19100001 346303.80541432 13962.97009406
0.19200001 341912.64042777 14847.55711214
0.19300001 337577.61628553 11788.21091771
0.19400001 333293.50199135 13648.36955148
0.19500001 329063.43507873 11609.35853818
0.19600001 324884.66653013 11520.41081957
0.19700001 320757.24096892 9526.49050698
0.19800001 316680.75808313 10398.21318307
0.19900001 312654.74567056 10317.60709474
0.20000001 308676.98171957 13029.25601416
0.20100001 304749.75675928 14774.26890596
0.20200001 300869.11157340 10077.61136845
0.20300001 297037.74748008 12725.09770349
0.20400001 293252.78158853 12624.53284409
0.20500001 289514.10835068 10735.18364506
0.20600001 285821.42690737 9762.23129746
0.20700001 282174.34293884 18488.06382327
0.20800001 278570.79978300 8733.19498602
0.20900001 275013.64343989 11261.80923122
0.21000001 271497.81149767 10311.48736813
0.21100001 268025.68770251 9375.53899905
0.21200001 264595.43497790 10989.97191135
0.21300001 261206.04891187 10900.12893640
0.21400001 257858.93322786 12473.92648462
0.21500001 254553.02283576 11546.52566172
0.21600001 251285.99073495 9815.23126216
0.21700001 248058.99289748 8922.68239638
0.21800001 244870.42989083 8848.39340246
0.21900001 241719.21703836 9572.08144730
0.22000001 238605.81750792 9491.73986926
0.22100001 235530.97842435 7843.18195238
0.22200001 232492.79545829 8554.57281339
0.22300001 229489.07383854 10024.08321926
0.22400001 226521.08394283 10703.12172241
0.22500001 223590.02578556 8337.67245581
0.22600001 220691.31854383 9768.90167730
0.22700001 217828.91293038 11174.62376177
0.22800001 214998.81643857 11077.81454087
0.22900001 212200.78558237 9517.20568345
0.23000001 209436.72248526 9434.07761050
0.23100001 206705.11010980 7912.67198921
0.23200001 204003.52144888 9981.89277657
0.23300001 201333.63749795 7773.49211144
0.23400001 198695.46441106 9805.62163245
0.23500001 196085.49379301 8329.71217029
0.23600001 193507.11901836 7567.09624711
0.23700001 190957.45369978 10907.49027123
0.23800001 188436.71421694 8106.54782904
0.23900001 185944.35151413 9371.59575958
0.24000001 183479.97911270 7296.08171452
0.24100001 181044.64548314 7229.11303609
0.24200001 178635.88982057 9115.78988874
0.24300001 176254.60483214 7096.01072620
0.24400001 173899.12038842 7668.95157190
0.24500001 171570.06737248 6964.02936408
0.24600001 169267.34018900 7525.62630080
0.24700001 166990.22418308 6833.24029682
0.24800001 164738.16403795 6768.26778968
0.24900001 162510.14834922 6703.54393653
0.25000001 160307.66349040 8449.81734232
0.25100001 158128.23843435 5977.24769560
0.25200001 155974.94358235 7103.09926679
0.25300001 153844.40436292 6447.61929189
0.25400001 151737.05183782 6384.33675813
0.25500001 149652.45287812 5746.65446240
0.25600001 147591.03834527 6258.59827714
0.25700001 145551.47130327 6196.12642654
0.25800001 143535.05507793 7249.23829970
0.25900001 141540.47276055 6072.08656873
0.26000001 139567.55315761 5464.06996466
0.26100001 137615.48299019 7030.77535864
0.26200001 135685.85668965 6423.36875962
0.26300001 133776.28545463 5297.54115467
0.26400001 131887.91215359 5766.79923179
0.26500001 130020.57564842 7781.73182078
0.26600001 128172.53266150 9239.95831680
0.26700001 126345.85372635 5587.01391616
0.26800001 124539.36442686 5025.16359242
0.26900001 122751.47025361 6462.86521469
0.27000001 120984.14827816 6885.20820433
0.27100001 119235.71072841 6324.26239632
0.27200001 117508.01908862 5774.34433128
0.27300001 115798.14276818 5711.16467160
0.27400001 114105.71653538 6118.91933879
0.27500001 112434.80480658 7913.16193678
0.27600001 110780.10700029 6444.07912918
0.27700001 109145.74811544 6827.06686772
0.27800001 107528.52581405 6750.10352744
0.27900001 105930.56722946 5338.90084104
0.28000001 104349.25090305 7477.14592734
0.28100001 102786.54552858 6521.80662246
0.28200001 101242.11477842 5157.27357090
0.28300001 99714.69924581  5946.98494449
0.28400001 98204.69986147  4618.07622956
0.28500001 96712.42155213  4563.85938906
0.28600001 95237.30668372  4509.96287147
0.28700001 93779.12853178  6482.01367093
0.28800001 92337.52797881  6404.53124376
0.28900001 90914.45013539  3954.77876808
0.29000001 89506.48760349  4297.65420571
0.29100001 88116.34258125  4245.44558652
0.29200001 86742.47108164  4193.56496295
0.29300001 85385.37560278  4142.04476656
0.29400001 84043.76183272  4090.83030085
0.29500001 82719.60502356  4774.57582797
0.29600001 81410.86240164  3989.53950085
0.29700001 80118.53687363  5013.81827490
0.29800001 78842.00592486  3889.67054643
0.29900001 77581.97084598  4538.54550934
0.30000001 76337.10406221  3791.28245273
0.30100001 75108.74639974  5443.88219677
0.30200001 73894.57054456  4701.91174634
0.30300001 72697.41965770  5635.50423866
0.30400001 71515.64925488  3599.02521914
0.30500001 70349.08875568  5166.43732281
0.30600001 69196.76629494  3823.81348649
0.30700001 68060.92469256  4716.62230449
0.30800001 66939.70101440  3723.18634669
0.30900001 65833.69994696  3673.52063096
0.31000001 64742.78715207  3322.27628000
0.31100001 63665.97587662  3277.52459330
0.31200001 62604.77513276  3527.15319798
0.31300001 61557.58454446  2899.36236932
0.31400001 60526.23976464  3145.85146071
0.31500001 59508.25145329  3384.82950292
0.31600002 58505.35215856  3060.12258954
0.31700002 57516.57826552  3292.24909580
0.31800002 56542.26541272  3787.76653934
0.31900002 55582.08132895  3468.32203915
0.32000002 54636.37406125  3683.03814986
0.32100002 53703.86080234  3631.45523940
0.32200002 52786.75515173  3069.02208984
0.32300002 51881.50717847  3530.01791557
0.32400002 50991.09068356  2982.97894624
0.32500002 50114.14154417  2695.63980130
0.32600002 49251.10348650  3623.65011061
0.32700002 48401.00924482  2619.46274437
0.32800002 47565.12451860  2582.07290676
0.32900002 46741.77294907  2776.46144465
0.33000002 45932.64428508  3648.88943480
0.33100002 45134.15756368  2247.68115311
0.33200002 44351.82989553  3101.52361147
0.33300002 43580.86774694  2183.40157752
0.33400002 42823.26741949  2367.05621871
0.33500002 42077.38560247  3817.26060263
0.33600002 41345.27019883  2299.00385828
0.33700002 40624.68690087  2265.63889576
0.33800002 39917.50824148  2435.76646825
0.33900002 39221.61426883  2600.39314917
0.34000002 38538.65100760  2759.75292935
0.34100002 37867.42017100  2136.85862145
0.34200002 37208.91080281  2871.59782720
0.34300002 36561.25603509  2075.21699083
0.34400002 35926.75505729  2231.05159472
0.34500002 35302.93125646  2381.88888468
0.34600002 34691.80430192  2347.42104926
0.34700002 34090.40386801  2669.27874928
0.34800002 33502.05192883  1753.83250154
0.34900002 32924.22653767  1901.37417260
0.35000002 32357.66985679  2044.35767838
0.35100002 31802.74293213  1679.18490635
0.35200002 31257.41612512  2151.60434088
0.35300002 30723.52726811  2283.98712529
0.35400002 30200.80197617  1929.83133768
0.35500002 29688.45702709  1743.90004837
0.35600002 29185.82605057  1875.48127084
0.35700002 28694.01562036  2157.21619651
0.35800002 28213.01296524  1823.12498417
0.35900002 27741.83060238  1498.05892348
0.36000002 27281.00696544  2363.62655544
0.36100002 26829.25696350  1893.87733876
0.36200002 26388.63237043  1580.54721069
0.36300002 25956.37543888  1417.21816609
0.36400002 25533.95342109  2096.97602404
0.36500002 25120.71741634  1517.04019663
0.36600002 24717.34691702  1768.89701591
0.36700002 24322.58734824  1476.86757374
0.36800002 23938.31028745  1324.98553717
0.36900002 23561.84833784  1307.68264469
0.37000002 23194.07752074  1419.82552269
0.37100002 22835.07008854  1656.45606269
0.37200002 22485.34089566  1635.47134752
0.37300002 22143.52614451  1366.47706311
0.37400002 21810.08519511  1594.86255544
0.37500002 21485.44783797  1332.95724701
0.37600002 21168.85691418  1556.22858977
0.37700002 20859.84282743  1301.02845878
0.37800002 20558.82688027  1519.40017256
0.37900002 20266.07434701  1386.19955100
0.38000002 19980.90028823  1370.29020668
0.38100002 19702.35739457  1354.73415863
0.38200002 19432.25092279  1339.65944208
0.38300002 19168.71593733  1545.76532642
0.38400002 18913.40834382  1638.37407540
0.38500002 18663.83768398  1404.82712903
0.38600002 18422.57365504  1176.37349647
0.38700002 18187.37734008  1587.75811701
0.38800002 17959.06934222  1257.49409492
0.38900002 17736.93196376  1452.65479665
0.39000002 17522.43049266  1335.99777621
0.39100002 17313.18055275  1221.61807768
0.39200002 17110.90765954  1916.50730320
0.39300002 16914.47927654  1399.50408164
0.39400002 16725.36712650  990.97804919
0.39500002 16540.95189765  982.53258927
0.39600002 16362.60842753  1364.15072923
0.39700002 16189.95014276  1063.19407625
0.39800002 16023.07918592  1150.77760166
0.39900002 15861.71583939  951.70299545
0.40000002 15705.60153802  1039.16117500
0.40100002 15555.10170387  1219.36448034
0.40200002 15409.95542976  1117.83821984
0.40300002 15269.27249795  925.31795722
0.40400002 15134.22029093  1103.28471148
0.40500002 15004.02196100  1370.61747108
0.40600002 14878.70617962  1090.01406636
0.40700002 14757.86186356  1264.45366438
0.40800002 14641.90753660  1077.93728392
0.40900002 14530.14569675  1251.04560377
0.41000002 14423.34595642  1067.03918441
0.41100002 14320.53691776  885.00922345
0.41200002 14221.74290061  1321.55552166
0.41300002 14127.80678463  1052.80421148
0.41400002 14037.41198063  961.21183092
0.41500002 13951.21064960  957.61114436
0.41600002 13868.37881012  1040.96056281
0.41700002 13789.71111801  1469.84537772
0.41800002 13715.63707249  1379.24452936
0.41900002 13643.23028083  945.47590326
0.42000002 13575.60251296  1285.94900897
0.42100002 13511.63965930  855.28683096
0.42200002 13451.10927262  1194.86209331
0.42300002 13393.29408171  1192.53896154
0.42400002 13338.50085865  1275.49420505
0.42500002 13287.38445519  1018.87668830
0.42600002 13238.39594645  847.91930055
0.42700002 13193.68101209  931.73779723
0.42800002 13150.70933540  930.87300442
0.42900002 13111.93062714  1268.57934829
0.43000002 13075.16926896  845.30973330
0.43100002 13040.22156609  929.50703728
0.43200002 13008.96467692  844.93229581
0.43300002 12979.93785651  844.99399450
0.43400002 12953.45817963  1098.77714216
0.43500002 12929.07829900  1099.23028907
0.43600002 12907.44586272  1015.29973968
0.43700002 12887.41232689  1016.04363600
0.43800002 12869.67693287  1440.69605252
0.43900002 12854.67001643  1272.61239194
0.44000002 12841.17052425  1104.27651156
0.44100002 12830.08413251  1190.88846562
0.44200002 12820.68898970  851.93482374
0.44300002 12813.20330809  938.69531884
0.44400002 12808.02316235  940.42914526
0.44500002 12803.21144014  942.18837453
0.44600002 12800.55236998  858.27707708
0.44700002 12800.59543844  1204.28007592
0.44800002 12800.65509011  1034.54899341
0.44900002 12803.73889117  950.67765772
0.45000002 12807.83872320  1039.74039683
0.45100002 12812.96267312  1042.46269249
0.45200002 12819.66362128  1045.31542122
0.45300002 12827.47978852  873.55141500
0.45400002 12836.86312600  1138.95073483
0.45500002 12847.44147996  878.76503888
0.45600002 12858.98769367  881.48364818
0.45700002 12871.76281199  1503.29325006
0.45800002 12885.16200265  1153.28647971
0.45900002 12899.85155842  979.09877969
0.46000002 12916.11767083  982.46453720
0.46100002 12932.18587604  985.82057605
0.46200002 12950.17462978  989.32863773
0.46300002 12968.82499740  1083.15631512
0.46400002 12987.56080059  996.47064965
0.46500002 13007.70890678  1000.16278525
0.46600002 13028.23032522  1095.15309304
0.46700002 13049.32924138  1099.27554739
0.46800002 13071.87449052  919.60641399
0.46900002 13094.00394123  1107.75278593
0.47000002 13117.05286017  1112.06379419
0.47100002 13140.73929820  1581.61945689
0.47200002 13165.03555907  1214.27711234
0.47300002 13189.88826920  1125.36132047
0.47400002 13214.47413044  1035.68445906
0.47500002 13239.84439567  945.32493466
0.47600002 13266.12467300  1139.02951841
0.47700002 13291.77895332  1238.92677496
0.47800002 13317.97328222  1435.34463852
