# SAXS profile: number of points = 501, q_min = 0, q_max = 0.5, delta_q = 0.001
#    q    intensity    error
0.00000000 1646666.22097350 321.09991309
0.00100000 1646580.61039716 592.76903382
0.00200000 1646323.74329142 814.93027873
0.00300000 1645895.84464577 1086.29129616
0.00400000 1645296.75820349 1604.16440020
0.00500000 1644527.16384513 1480.07450604
0.00600000 1643586.90616995 1725.76632174
0.00700000 1642476.69858624 2562.26375628
0.00800000 1641196.34097163 2437.17666924
0.00900000 1639747.25154697 2705.58308071
0.01000000 1638128.78432982 3784.07765520
0.01100000 1636342.53217620 3829.04169201
0.01200000 1634388.32411304 3505.76310893
0.01300000 1632267.61237302 4456.09077831
0.01400000 1629980.48377823 4034.20187619
0.01500000 1627528.44322549 3906.06843767
0.01600000 1624911.24801474 5386.58102797
0.01700000 1622131.05907134 6131.65567835
0.01800000 1619188.31661641 4614.68691001
0.01900000 1616083.94501088 4848.25205380
0.02000000 1612818.83257569 5588.41750767
0.02100000 1609395.57089891 6373.20674971
0.02200000 1605812.83912407 5540.05454668
0.02300000 1602073.81795602 8074.45241003
0.02400000 1598179.00183704 7791.12298921
0.02500000 1594130.73461362 9947.37623829
0.02600000 1589929.47133990 9014.90051482
0.02700000 1585577.04481559 7325.36628256
0.02800000 1581073.96355762 7565.43926257
0.02900000 1576423.53469901 9222.07810141
0.03000000 1571626.45743077 8038.86969927
0.03100000 1566684.24551085 11280.12708671
0.03200000 1561598.06146112 8502.90183628
0.03300000 1556372.05175284 8731.24761285
0.03400000 1551004.72414982 10585.60773075
0.03500000 1545500.23320334 9180.27180916
0.03600000 1539859.11863062 9400.84035369
0.03700000 1534084.37916638 8744.28136565
0.03800000 1528177.49452317 11621.79038370
0.03900000 1522140.92423512 11872.69975886
0.04000000 1515974.71732696 11187.89393231
0.04100000 1509683.26850350 9511.00503256
0.04200000 1503267.76252941 15513.72402903
0.04300000 1496729.94013908 11854.10167614
0.04400000 1490072.75922374 10057.99159187
0.04500000 1483298.62344864 11258.23707509
0.04600000 1476407.95375887 12490.41186944
0.04700000 1469404.84730300 15869.57308893
0.04800000 1462290.85564016 13972.18977574
0.04900000 1455068.54731528 12004.31607412
0.05000000 1447739.75312322 12182.73058983
0.05100000 1440308.32134631 12357.84597283
0.05200000 1432773.50799572 11390.54991938
0.05300000 1425140.68024389 16161.09606736
0.05400000 1417410.65707501 16371.09385266
0.05500000 1409587.29961741 18944.85419062
0.05600000 1401671.03786068 16778.00310612
0.05700000 1393667.23718977 19399.84884724
0.05800000 1385574.96329802 13488.57289752
0.05900000 1377398.22218794 14875.90149442
0.06000000 1369140.86864177 13780.40348668
0.06100000 1360803.72284420 13921.02273524
0.06200000 1352390.10685524 15336.10452860
0.06300000 1343902.91231340 12901.46856142
0.06400000 1335341.77492901 14321.54120589
0.06500000 1326713.04904205 15761.35175990
0.06600000 1318017.81397534 26492.15930043
0.06700000 1309257.38139017 17360.75368970
0.06800000 1300435.73154834 18843.31463217
0.06900000 1291556.71241027 16273.61533828
0.07000000 1282619.72200194 16391.88081479
0.07100000 1273629.19625155 16506.23515654
0.07200000 1264586.75599867 16616.67075226
0.07300000 1255496.18068579 19510.41156203
0.07400000 1246360.22349512 18228.01912286
0.07500000 1237179.32645682 15514.22948096
0.07600000 1227956.88395248 17019.48320946
0.07700000 1218696.82286949 21388.13024422
0.07800000 1209400.19576317 15764.53229107
0.07900000 1200068.73544775 18721.07315107
0.08000000 1190707.90486861 20253.94241195
0.08100000 1181318.06157824 20342.29797480
0.08200000 1171900.86218004 18967.21634442
0.08300000 1162459.60224096 16111.69084321
0.08400000 1152997.52800681 16170.79108933
0.08500000 1143516.41657579 16226.49871297
0.08600000 1134018.50054356 19238.62476500
0.08700000 1124506.13408323 17812.17800030
0.08800000 1114981.08016717 25304.49680279
0.08900000 1105446.75839007 16415.88513314
0.09000000 1095905.15798927 14959.10610926
0.09100000 1086357.95444084 17990.08857074
0.09200000 1076807.45268226 22532.19700609
0.09300000 1067257.52630255 15048.33182802
0.09400000 1057706.98820455 19594.02287736
0.09500000 1048160.24631936 18112.20990772
0.09600000 1038618.84374389 16623.09537554
0.09700000 1029087.41274565 16640.34424641
0.09800000 1019564.71114339 16654.59033959
0.09900000 1010054.70734735 16665.90345490
0.10000000 1000557.17863426 18190.13036300
0.10100000 991075.58844332 16679.80293798
0.10200000 981611.88741580 15165.90437392
0.10300000 972167.76720296 15165.81788178
0.10400000 962745.54396064 25777.51315225
0.10500000 953348.33836519 18189.88715183
0.10600001 943973.05649113 21211.07557741
0.10700001 934627.15168153 21197.34479763
0.10800001 925308.16116285 16641.66806170
0.10900001 916020.87657441 16625.77969233
0.11000001 906765.44184864 16607.40984916
0.11100001 897542.95987821 19602.33916649
0.11200001 888356.71304468 22586.47049247
0.11300001 879206.16834399 15034.42618652
0.11400001 870094.58433577 16510.04551514
0.11500001 861022.83343495 17978.15760868
0.11600001 851992.67683741 17942.96661916
0.11700001 843005.12873067 17905.42977749
0.11800001 834060.78060961 17865.58276210
0.11900001 825161.18251102 14852.90198479
0.12000001 816307.92947151 16297.58857960
0.12100001 807503.94668778 17732.78750462
0.12200001 798748.39534918 16210.59944731
0.12300001 790043.41105891 16164.28895184
0.12400001 781389.12314744 19046.36077414
0.12500001 772786.75469511 16066.23738716
0.12600001 764239.31553655 16014.63561173
0.12700001 755745.29809589 14510.31040726
0.12800001 747306.72798120 18798.50162833
0.12900001 738924.71757765 18731.74247346
0.13000001 730600.09203420 15791.92173367
0.13100001 722332.61134185 17162.62365449
0.13200001 714124.02795722 15671.45253228
0.13300001 705976.30986876 19866.17429626
0.13400001 697887.80529887 16958.67446829
0.13500001 689861.27375376 19702.43890734
0.13600001 681895.73054108 16815.54950801
0.13700001 673993.29432111 15346.82803534
0.13800001 666152.62559510 20833.92434793
0.13900001 658376.62501490 17973.68271051
0.14000001 650664.22200388 22018.47831102
0.14100001 643016.42068590 17805.12552853
0.14200001 635433.18951632 17719.05532539
0.14300001 627916.56592080 14919.29830999
0.14400001 620463.18252533 17543.59731343
0.14500001 613077.88726226 13426.40636440
0.14600001 605758.45937894 16028.36959129
0.14700001 598507.44986249 13286.86601378
0.14800001 591320.24040257 19824.01199477
0.14900001 584201.81919101 17087.90401756
0.15000001 577150.17988421 19608.67828676
0.15100001 570166.45151764 12999.79570800
0.15200001 563250.47745331 20682.55850803
0.15300001 556403.13364198 14138.20429301
0.15400001 549621.25340984 17890.17264275
0.15500001 542908.89614260 15244.88252314
0.15600001 536261.84033823 12628.96693599
0.15700001 529686.19259816 17574.98869989
0.15800001 523174.45984740 12477.71145629
0.15900001 516732.82081717 13641.74711347
0.16000001 510356.29518719 16022.63664371
0.16100001 504050.27905063 18372.63353866
0.16200001 497809.89761312 12171.45257121
0.16300001 491636.71786165 15722.54297944
0.16400001 485530.44997121 14420.25504492
0.16500001 479490.66387284 11939.31809410
0.16600001 473517.99530060 11861.62634230
0.16700001 467609.98316823 18854.03541153
0.16800001 461767.38620883 12876.38417241
0.16900001 455992.63971078 20930.06315100
0.17000001 450281.40051081 12704.69031532
0.17100001 444635.14349865 12618.74596837
0.17200001 439054.01724079 13672.14274252
0.17300001 433536.77547782 16972.96556150
0.17400001 428083.26966585 11237.18635942
0.17500001 422693.18527289 15622.74086551
0.17600001 417364.67584567 12189.13593375
0.17700001 412100.32330087 11003.07915182
0.17800001 406896.38499180 10925.16845305
0.17900001 401754.82288554 13016.85687632
0.18000001 396674.37885769 11846.68088416
0.18100001 391655.80580841 10692.20400363
0.18200001 386694.81036611 12737.72765516
0.18300001 381794.25455876 14752.53069305
0.18400001 376952.35537473 13598.55686255
0.18500001 372170.58989018 20767.11989695
0.18600001 367444.97595656 12368.19847501
0.18700001 362776.75425561 11253.33544867
0.18800001 358165.25198467 15230.97806025
0.18900001 353611.66113944 10077.93281863
0.19000001 349110.09048527 11002.20502148
0.19100001 344667.94088659 10919.08088321
0.19200001 340277.07662544 14776.53275067
0.19300001 335942.53145185 10753.52093991
0.19400001 331659.11171224 17461.85305679
0.19500001 327429.58376033 14439.64532618
0.19600001 323251.68893749 10507.29664545
0.19700001 319125.18378885 13269.22576901
0.19800001 315049.88568910 10344.66348548
0.19900001 311025.20714531 12129.98365193
0.20000001 307048.82282233 11109.02693474
0.20100001 303123.15125608 11940.02149229
0.20200001 299244.05833391 10934.37840832
0.20300001 295414.52296467 9039.68482998
0.20400001 291631.53832791 8967.67022745
0.20500001 287894.85640117 15123.11752158
0.20600001 284204.36433663 10589.45511573
0.20700001 280559.58289144 10504.15127998
0.20800001 276958.31525970 9550.90795320
0.20900001 273403.50190047 12918.31607546
0.21000001 269890.50902894 11104.64551894
0.21100001 266421.07660581 8472.19063657
0.21200001 262993.61446938 8402.64637953
0.21300001 259607.32476842 10833.41417474
0.21400001 256263.31897235 10743.84015585
0.21500001 252960.46352490 9015.51134626
0.21600001 249696.75629094 10565.91874199
0.21700001 246472.84637544 10477.56119479
0.21800001 243287.89935770 10389.61023330
0.21900001 240140.27182449 8717.09227939
0.22000001 237030.44985396 9429.07174102
0.22100001 233959.25013450 7790.84339786
0.22200001 230924.95726220 11586.66027850
0.22300001 227925.22700965 10721.60318551
0.22400001 224960.93274837 12147.89094284
0.22500001 222034.17618588 10537.74250008
0.22600001 219139.66279369 9700.21763227
0.22700001 216281.35940554 8876.18740975
0.22800001 213455.52280548 8798.63706613
0.22900001 210661.87985997 9448.18575853
0.23000001 207902.11785996 8644.57046943
0.23100001 205175.05240939 9996.12902613
0.23200001 202478.15074059 11322.57872490
0.23300001 199812.92781051 9117.46432720
0.23400001 197179.27242739 9730.79755451
0.23500001 194574.17799440 8954.30409481
0.23600001 192000.57536442 8873.30701015
0.23700001 189455.68722187 11498.06620133
0.23800001 186939.99484851 8042.15895877
0.23900001 184452.54895433 8632.37969937
0.24000001 181993.27285928 9210.67997508
0.24100001 179562.96482504 9777.20389720
0.24200001 177159.24090944 7103.20010026
0.24300001 174783.04524453 7676.47171026
0.24400001 172432.84006666 6336.90717221
0.24500001 170109.05682352 8787.83429121
0.24600001 167811.56812548 8704.38645043
0.24700001 165539.84401328 6158.08248861
0.24800001 163293.07997645 7318.79619077
0.24900001 161070.38452682 7852.18161715
0.25000001 158873.41577153 7177.90126413
0.25100001 156699.64219375 7107.89610618
0.25200001 154551.43817025 8211.31829846
0.25300001 152426.62730490 7549.69120759
0.25400001 150324.71224185 6899.90461834
0.25500001 148245.71554220 9108.21719384
0.25600001 146190.00553677 7326.31247410
0.25700001 144155.98550003 5578.83690280
0.25800001 142145.21682400 6074.57612839
0.25900001 140156.23207317 7652.53063327
0.26000001 138189.03589303 6492.12121343
0.26100001 136242.69630145 9102.37497059
0.26200001 134318.73850261 7418.42427852
0.26300001 132414.90013725 5243.63029355
0.26400001 130532.23419243 6226.38786560
0.26500001 128670.58174223 6674.14339078
0.26600001 126828.40815500 5587.42578566
0.26700001 125007.55626488 6532.89519954
0.26800001 123206.94637350 5965.68062571
0.26900001 121424.66531952 6393.00893160
0.27000001 119663.25806904 6323.60517191
0.27100001 117920.52418169 7697.85218287
0.27200001 116198.59500019 6661.66576661
0.27300001 114494.79955192 7529.17837485
0.27400001 112808.12773750 7910.67033196
0.27500001 111143.11444469 5061.45767135
0.27600001 109494.38038041 5004.44089213
0.27700001 107865.71585001 6297.20078935
0.27800001 106254.27396422 5336.08989103
0.27900001 104662.34907442 5714.56452992
0.28000001 103086.75840048 6517.66060834
0.28100001 101529.92717614 5153.65934738
0.28200001 99991.43871450  5942.49148406
0.28300001 98469.96418944  5033.78480761
0.28400001 96965.80436267  4559.81716597
0.28500001 95479.45581390  4915.28261795
0.28600001 94010.21276225  4451.85383607
0.28700001 92557.96864771  5198.05576529
0.28800001 91122.15022288  5135.18901887
0.28900001 89704.98928576  4292.38394050
0.29000001 88303.04206504  3854.42796859
0.29100001 86918.69690596  4949.15083609
0.29200001 85550.79867082  4887.94511343
0.29300001 84199.49785131  4455.83763721
0.29400001 82863.78154362  5866.75601100
0.29500001 81545.48587559  5068.86764197
0.29600001 80242.71865338  4289.77594228
0.29700001 78956.21070873  3529.34278575
0.29800001 77685.56046569  3484.19755182
0.29900001 76431.37905150  3439.41222014
0.30000001 75192.35637977  4752.90907177
0.30100001 73970.14256600  4691.18666362
0.30200001 72761.76588368  3307.02241597
0.30300001 71570.49505967  4569.06062091
0.30400001 70394.74829289  3864.67186424
0.30500001 69234.00743193  4131.19341904
0.30600001 68087.56917612  4703.14906350
0.30700001 66957.66041762  3712.13286930
0.30800001 65842.36752908  4577.69081918
0.30900001 64742.31212039  5117.88001542
0.31000001 63657.37864569  2969.61685442
0.31100001 62586.40275233  3807.75692373
0.31200001 61531.20661027  3177.77931584
0.31300001 60489.89049865  2849.07397738
0.31400001 59464.41491760  4495.50998062
0.31500001 58452.50348202  2770.64879623
0.31600002 57455.52608222  3005.21143402
0.31700002 56472.82430786  2693.75384703
0.31800002 55504.35014210  3718.23659207
0.31900002 54550.23322052  3142.09358228
0.32000002 53610.47201301  3097.61321958
0.32100002 52684.08947374  2799.10580628
0.32200002 51772.81037274  2759.23205947
0.32300002 50873.88879867  2719.71822396
0.32400002 49989.28728664  3899.16459299
0.32500002 49118.31789398  3122.45161637
0.32600002 48261.41785780  3077.38945542
0.32700002 47417.35513354  2332.93398304
0.32800002 46587.58627396  2529.00724064
0.32900002 45770.34785130  3398.44848889
0.33000002 44967.32482343  2679.15333985
0.33100002 44174.90947854  2859.88377507
0.33200002 43398.79991472  2384.54717423
0.33300002 42634.03666148  3417.54454062
0.33400002 41882.58039357  2946.43967022
0.33500002 41142.96345901  2695.68709349
0.33600002 40417.05296290  2860.31497364
0.33700002 39702.62371326  2214.21542935
0.33800002 39001.63050902  2181.55630583
0.33900002 38312.11563382  4298.61957769
0.34000002 37635.34278671  2117.55266218
0.34100002 36970.49872805  2086.24534203
0.34200002 36318.27711379  1868.57544600
0.34300002 35676.94381174  2577.30254302
0.34400002 35048.73104898  2357.90349299
0.34500002 34431.39866284  2144.38761028
0.34600002 33826.73322976  2112.81785760
0.34700002 33231.76653932  1908.16812506
0.34800002 32649.86249232  2051.06445891
0.34900002 32078.52197007  2357.77147647
0.35000002 31518.42193048  1825.38949256
0.35100002 30970.16371371  1635.22472153
0.35200002 30431.34014006  1772.47349041
0.35300002 29903.97996941  1746.69155274
0.35400002 29387.85531820  2034.37438076
0.35500002 28882.07895583  1542.30308929
0.35600002 28386.08910143  1672.08265772
0.35700002 27900.99132976  1498.28330537
0.35800002 27426.70279121  2363.08482442
0.35900002 26962.29535030  1892.75322324
0.36000002 26508.17649855  1578.95960792
0.36100002 26063.28227002  1698.28355316
0.36200002 25629.32802167  1953.72376763
0.36300002 25204.00715110  1651.36662676
0.36400002 24788.36593632  1628.59571916
0.36500002 24382.12370653  2007.86798234
0.36600002 23985.61865434  1980.61255420
0.36700002 23597.67818857  1563.11027725
0.36800002 23220.38786485  1285.24852920
0.36900002 22851.01584745  2029.17030337
0.37000002 22490.21123349  1877.37047165
0.37100002 22138.10605510  1358.83701403
0.37200002 21795.51496931  1829.18868045
0.37300002 21460.82369336  2046.71885259
0.37400002 21134.45108164  1664.33810152
0.37500002 20816.96726330  1291.48471019
0.37600002 20507.59495146  1391.64545933
0.37700002 20205.78296253  1260.23474307
0.37800002 19911.81866397  1471.58302807
0.37900002 19626.36511555  1454.31372396
0.38000002 19348.39531910  1326.91301384
0.38100002 19077.20134612  1093.12368892
0.38200002 18814.40262999  1188.97623053
0.38300002 18558.22915445  1175.84945493
0.38400002 18310.16497133  1374.63570035
0.38500002 18067.99367858  1255.36426026
0.38600002 17833.94810196  1345.83895727
0.38700002 17606.25782578  1332.08953021
0.38800002 17385.33975972  1217.32154765
0.38900002 17170.64912602  1305.82792790
0.39000002 16963.56432054  1392.87833235
0.39100002 16761.84064885  985.59627685
0.39200002 16567.03248730  1367.27725595
0.39300002 16378.13678892  1935.89586017
0.39400002 16196.52527224  1151.57300141
0.39500002 16019.59764273  1522.50263210
0.39600002 15848.76860412  1038.17363660
0.39700002 15683.64357478  1123.57627893
0.39800002 15524.41305454  929.13616534
0.39900002 15370.59597901  922.23580244
0.40000002 15221.93008084  1281.83879284
0.40100002 15079.06897794  1363.90185368
0.40200002 14941.51147216  993.53585241
0.40300002 14808.48376957  1256.35182254
0.40400002 14680.98376541  1248.61772841
0.40500002 14558.38199610  1063.92660668
0.40600002 14440.59427630  969.75815457
0.40700002 14327.39228220  964.52009414
0.40800002 14219.10985416  959.57667397
0.40900002 14114.94108225  954.87580946
0.41000002 14015.70353626  1036.88179674
0.41100002 13920.59878837  1548.52748259
0.41200002 13829.32858279  942.39964093
0.41300002 13743.03727890  1024.13118655
0.41400002 13660.14104399  850.34382028
0.41500002 13581.57074026  1016.98806522
0.41600002 13506.28409124  1267.22716491
0.41700002 13435.11719256  926.62007668
0.41800002 13368.68220341  1260.33257445
0.41900002 13303.78770562  1005.76639820
0.42000002 13243.65304590  1170.87142127
0.42100002 13187.28720991  1419.08404390
0.42200002 13134.24597792  1000.04153615
0.42300002 13083.87522050  998.56140415
0.42400002 13036.57915470  914.19015654
0.42500002 12992.89085237  1162.34407073
0.42600002 12951.25247094  829.52776007
0.42700002 12913.99796425  1077.80232117
0.42800002 12878.35815302  994.46686370
0.42900002 12846.96906954  911.49249868
0.43000002 12817.47890698  1160.11007085
0.43100002 12789.78926822  1243.16757578
0.43200002 12765.77521045  1160.79199489
0.43300002 12744.07109520  995.56688113
0.43400002 12724.71600016  1245.43163753
0.43500002 12707.56860644  997.29003149
0.43600002 12692.99741312  1164.83642780
0.43700002 12680.14458688  916.39409272
0.43800002 12669.44065780  1167.99578959
0.43900002 12661.44641326  919.22105316
0.44000002 12654.94715113  1088.26223183
0.44100002 12650.76696079  1174.24424495
0.44200002 12648.28988774  1176.67046402
0.44300002 12647.71273966  1263.50656257
0.44400002 12649.28147892  1266.50936810
0.44500002 12651.22324320  1100.27693760
0.44600002 12655.35085199  848.54131484
0.44700002 12662.06392069  935.97980937
0.44800002 12668.65290026  853.23381327
0.44900002 12678.45688534  1112.53464441
0.45000002 12688.98030527  1115.93242583
0.45100002 12700.56440380  947.20813813
0.45200002 12713.72515976  950.28743210
0.45300002 12727.86059177  1040.12081685
0.45400002 12743.57308956  1217.64846642
0.45500002 12760.40982727  1047.37448826
0.45600002 12778.11888680  1401.50414593
0.45700002 12797.02439619  1142.90230299
0.45800002 12816.50941688  970.65838669
0.45900002 12837.19922114  1062.92014589
0.46000002 12859.43842816  978.15323040
0.46100002 12881.44188975  1160.48915485
0.46200002 12905.16280524  896.26359930
0.46300002 12929.64996848  1169.87478459
0.46400002 12954.05627826  1355.31820235
0.46500002 12979.81025629  1723.84868184
0.46600002 13005.90768630  1002.17026427
0.46700002 13032.44205551  1189.34071836
0.46800002 13060.44730375  1102.56301364
0.46900002 13087.95527482  1014.97097967
0.47000002 13116.23781399  1111.99469457
0.47100002 13145.17820256  1023.74652694
0.47200002 13174.59051555  1308.63213793
0.47300002 13204.44247145  1220.48667548
0.47400002 13234.02949836  1320.09450503
0.47500002 13264.32759125  947.07303490
0.47600002 13295.39218706  1141.54242729
0.47700002 13325.83962962  1337.64784542
0.47800002 13356.72621109  1535.48931801
