# SAXS profile: number of points = 501, q_min = 0, q_max = 0.5, delta_q = 0.001
#    q    intensity    error
0.00000000 1664650.74656090 399.51617917
0.00100000 1664564.58816197 749.05408246
0.00200000 1664306.08161139 748.93776044
0.00300000 1663875.44160146 1098.15783058
0.00400000 1663272.53747739 1995.92712081
0.00500000 1662498.03229246 1496.24828829
0.00600000 1661551.75112559 1919.09235068
0.00700000 1660434.45368018 2590.27785539
0.00800000 1659145.92419944 2239.84709224
0.00900000 1657687.54623750 2486.53142565
0.01000000 1656058.69867358 3278.99636496
0.01100000 1654261.02040914 3275.43696302
0.01200000 1652294.34900249 4510.76377055
0.01300000 1650159.99884078 4504.93699552
0.01400000 1647858.21168248 4449.21736878
0.01500000 1645390.39450189 6318.29939623
0.01600000 1642756.41651965 5864.64066915
0.01700000 1639958.31529022 5313.46517990
0.01800000 1636996.63782223 5598.52875327
0.01900000 1633872.23556625 4901.61692787
0.02000000 1630586.09995876 5649.98109194
0.02100000 1627140.73033080 5906.52111889
0.02200000 1623534.88146347 7281.55427418
0.02300000 1619771.57362045 6997.41351655
0.02400000 1615851.56331510 9695.10982196
0.02500000 1611777.03462397 7543.11686654
0.02600000 1607548.43427857 9114.80003925
0.02700000 1603167.71272187 8079.96564219
0.02800000 1598635.28588219 6954.06381250
0.02900000 1593954.47584136 11476.47275299
0.03000000 1589126.06758341 9606.26752010
0.03100000 1584151.50315767 8364.32032154
0.03200000 1579031.95367770 8597.82938378
0.03300000 1573771.58470392 8828.85899720
0.03400000 1568368.99433491 9057.33136019
0.03500000 1562828.20188334 10127.12721586
0.03600000 1557149.86415193 10370.61857452
0.03700000 1551336.87707695 13263.93091243
0.03800000 1545390.79462704 9040.53656696
0.03900000 1539314.09654075 11083.06200835
0.04000000 1533106.93208980 9428.60806926
0.04100000 1526773.40066238 14428.00930524
0.04200000 1520315.01020211 12747.84195195
0.04300000 1513733.52974607 9990.64176007
0.04400000 1507031.52571404 11189.70959810
0.04500000 1500211.72974237 13456.89984106
0.04600000 1493274.64931144 13685.86279715
0.04700000 1486224.04892594 25681.95275985
0.04800000 1479061.75755596 14132.43575100
0.04900000 1471790.42387550 13246.11443145
0.05000000 1464411.56326411 13443.29877677
0.05100000 1456929.28619892 11364.04896173
0.05200000 1449342.91548654 13826.73205808
0.05300000 1441657.60866472 15180.65532693
0.05400000 1433874.22027474 13012.40915581
0.05500000 1425996.93429056 16769.72472955
0.05600000 1418025.59830802 14548.94331755
0.05700000 1409966.18731489 15946.71832290
0.05800000 1401817.50375560 13646.69403626
0.05900000 1393583.44411486 15050.70189940
0.06000000 1385268.05943634 13942.72366961
0.06100000 1376872.30470753 16646.38694182
0.06200000 1368399.21244521 18103.92242689
0.06300000 1359851.83949207 15665.49392339
0.06400000 1351229.86533938 13174.49180319
0.06500000 1342539.44991094 14620.25529343
0.06600000 1333781.96626277 20106.76408218
0.06700000 1324958.47331843 16217.49247238
0.06800000 1316073.39355478 16345.63231307
0.06900000 1307130.01146381 19214.81206813
0.07000000 1298128.11765329 15207.57161046
0.07100000 1289071.81945031 18098.56919278
0.07200000 1279963.31217062 15417.15881734
0.07300000 1270805.80246068 22569.51210921
0.07400000 1261602.53893314 21289.54384221
0.07500000 1252353.69631670 15704.51608792
0.07600000 1243062.71835154 20100.32509806
0.07700000 1233733.48921229 20208.55550085
0.07800000 1224367.22255866 17410.50272127
0.07900000 1214965.39046479 18953.46098024
0.08000000 1205533.82591438 21970.85500797
0.08100000 1196072.78671075 22067.54395018
0.08200000 1186583.63868867 16250.26369439
0.08300000 1177070.18477643 25212.84454120
0.08400000 1167535.43764974 20840.50854027
0.08500000 1157980.94417266 14937.95488109
0.08600000 1148409.34346993 17984.09116312
0.08700000 1138822.94101171 16535.70987997
0.08800000 1129223.29565315 15075.13170495
0.08900000 1119613.93076606 18137.74653033
0.09000000 1109996.94861139 18181.75087235
0.09100000 1100373.99895243 24296.25903834
0.09200000 1090747.27652187 18259.11026691
0.09300000 1081120.84139336 21341.32641198
0.09400000 1071493.33301844 21376.29299835
0.09500000 1061869.34081186 16820.01114905
0.09600000 1052250.29899355 15310.24257006
0.09700000 1042641.03101778 15326.82387652
0.09800000 1033039.88038671 18408.77153403
0.09900000 1023451.59491325 24562.83943292
0.10000000 1013875.02855621 21504.29036696
0.10100000 1004314.27690180 16902.61007522
0.10200000 994771.48218103 19979.98615939
0.10300000 985247.77328727 16906.85258492
0.10400000 975745.44792409 23051.98729169
0.10500000 966268.38675827 16900.03487954
0.10600001 956812.72631538 15356.84497996
0.10700001 947386.40879040 18417.19265356
0.10800001 937986.68155819 15336.08296522
0.10900001 928618.38790528 19918.86535806
0.11000001 919282.08839612 19897.86173992
0.11100001 909978.34010878 19873.92788351
0.11200001 900710.78254697 19847.16302777
0.11300001 891478.73681757 16768.71582902
0.11400001 882285.57726508 16741.36961686
0.11500001 873132.08025058 15192.49891174
0.11600001 864020.13156554 19712.62022996
0.11700001 854950.67543379 16645.89043463
0.11800001 845924.30835110 18119.69953829
0.11900001 836942.88259482 21090.96163481
0.12000001 828007.53218637 16531.17115880
0.12100001 819121.25193789 16488.91157827
0.12200001 810283.56606468 19434.65224765
0.12300001 801496.43015720 14907.83430330
0.12400001 792759.91936687 19323.52394504
0.12500001 784075.27817579 17782.82814696
0.12600001 775445.68672218 19203.91333663
0.12700001 766869.40352360 25030.61851061
0.12800001 758348.63249487 17608.85607642
0.12900001 749884.66082015 19009.57704775
0.13000001 741477.94029568 16027.04643492
0.13100001 733128.55769641 20322.32457729
0.13200001 724838.06248179 14460.52002819
0.13300001 716608.35624944 18724.97723155
0.13400001 708438.12147158 21518.80895422
0.13500001 700330.03377822 17144.08003520
0.13600001 692282.76662285 21339.61728733
0.13700001 684299.02197666 15581.48946513
0.13800001 676377.00592054 16922.95348615
0.13900001 668519.86069086 15442.80951021
0.14000001 660726.54685005 25153.86082485
0.14100001 652997.83254148 16690.62538694
0.14200001 645333.86241610 16610.89440205
0.14300001 637736.74046188 17907.64851683
0.14400001 630202.90754097 19189.67943980
0.14500001 622737.53691977 15001.74797206
0.14600001 615338.14937035 18995.48956716
0.14700001 608007.47384320 18896.87317854
0.14800001 600740.76437028 20139.83507568
0.14900001 593543.13592485 16025.66542607
0.15000001 586412.36606562 14610.46478989
0.15100001 579349.69842790 15851.00849692
0.15200001 572355.19882125 21016.88389244
0.15300001 565429.54531293 22204.41929224
0.15400001 558569.60990951 15584.09285190
0.15500001 551779.35710524 15493.96507872
0.15600001 545054.82809473 15403.25016891
0.15700001 538402.00850338 12760.12820377
0.15800001 531813.26409910 15220.49633690
0.15900001 525294.94531635 20171.32685225
0.16000001 518842.03596829 16289.04648811
0.16100001 512459.92469422 13698.05443368
0.16200001 506143.81229916 17325.30351286
0.16300001 499895.16370884 14756.90592933
0.16400001 493714.00833969 13441.36451161
0.16500001 487599.22981314 19425.95423288
0.16600001 481552.14866300 12062.88189353
0.16700001 475570.15702614 16778.11593206
0.16800001 469653.73125081 11905.72264935
0.16900001 463805.58637994 13009.74731225
0.17000001 458021.49661913 14097.90233164
0.17100001 452302.28546745 11669.39951610
0.17200001 446648.97049015 13908.64959787
0.17300001 441059.83664134 18418.65964795
0.17400001 435534.83730406 13719.34802299
0.17500001 430073.59218583 12489.33770692
0.17600001 424674.17754671 12402.60994102
0.17700001 419339.47993362 13435.63757165
0.17800001 414065.69993580 14452.96393890
0.17900001 408854.45705575 12142.97794811
0.18000001 403704.76883928 15344.81898839
0.18100001 398617.43444415 11970.48212180
0.18200001 393587.97155903 15125.58646151
0.18300001 388619.55519673 13943.67029915
0.18400001 383710.12711208 13842.34348949
0.18500001 378861.12429551 13741.29362737
0.18600001 374068.93432483 12591.16092422
0.18700001 369334.25108659 11456.74900998
0.18800001 364656.99159180 13439.43406008
0.18900001 360038.00718089 18469.95064104
0.19000001 355471.37762224 11202.68099508
0.19100001 350964.71410313 15161.67636565
0.19200001 346509.68677159 17053.47504026
0.19300001 342111.52008024 14933.16855713
0.19400001 337764.79965249 11855.54502802
0.19500001 333472.28799226 11764.90287632
0.19600001 329232.14776485 10701.69146882
0.19700001 325043.78604422 12549.94117225
0.19800001 320906.95724467 9579.07312645
0.19900001 316821.42428051 14256.96476641
0.20000001 312784.26188038 13202.62431794
0.20100001 308798.44026837 12163.57113705
0.20200001 304859.75051094 9282.97984180
0.20300001 300971.09075396 12893.60213731
0.20400001 297129.34744189 10050.40065226
0.20500001 293334.20045693 11783.23538931
0.20600001 289585.91295411 12588.30023114
0.20700001 285883.69534216 9811.52888793
0.20800001 282225.49230975 8847.76960215
0.20900001 278614.10423708 10531.61363800
0.21000001 275045.11331644 13057.76737197
0.21100001 271520.11404276 10361.20804168
0.21200001 268037.51379710 11132.93866187
0.21300001 264596.61638356 11041.61732368
0.21400001 261198.37390006 11793.10713913
0.21500001 257841.82024291 14201.92813041
0.21600001 254524.76028036 9113.25947270
0.21700001 251247.78445299 9858.96352806
0.21800001 248010.65024489 13850.15541777
0.21900001 244811.02148256 9694.51690908
0.22000001 241649.68833530 11214.96256591
0.22100001 238527.52845313 9531.56048767
0.22200001 235442.48601052 9450.66183533
0.22300001 232392.76591625 8589.23703441
0.22400001 229378.57344392 10838.13810772
0.22500001 226402.63117927 8442.55451590
0.22600001 223459.34542780 11413.18660743
0.22700001 220552.64743218 9051.48107865
0.22800001 217678.86703221 11215.90415424
0.22900001 214837.69363435 7411.90078090
0.23000001 212030.88292605 8081.55748492
0.23100001 209257.26130526 8738.58364538
0.23200001 206514.10695908 12270.03624527
0.23300001 203803.20595602 8584.19144085
0.23400001 201124.27800368 9216.52047542
0.23500001 198474.20279062 8431.18453331
0.23600001 195856.16431815 9747.76175915
0.23700001 193267.15381862 7589.60148943
0.23800001 190707.85371300 10255.31531848
0.23900001 188177.16965677 8129.25411368
0.24000001 185675.13090861 7383.37192982
0.24100001 183202.56970765 7980.30431394
0.24200001 180756.86034373 7906.30544542
0.24300001 178339.04565318 7179.93031763
0.24400001 175947.74995099 9052.51216319
0.24500001 173583.23427272 9607.83247149
0.24600001 171245.32818224 8248.03162207
0.24700001 168933.73384779 7541.20223571
0.24800001 166647.45864841 7469.13944996
0.24900001 164385.60578706 9246.69076296
0.25000001 162150.01265347 6715.44309174
0.25100001 159937.90206802 6045.65298418
0.25200001 157751.67714195 11374.68521845
0.25300001 155589.29826514 5927.95254436
0.25400001 153450.19048737 7630.31108298
0.25500001 151334.32006447 8135.73343158
0.25600001 149242.22957918 6903.94586698
0.25700001 147172.18104574 6265.12004354
0.25800001 145125.79563867 7329.57865552
0.25900001 143101.49887534 8371.43808030
0.26000001 141099.36097674 5524.04024361
0.26100001 139118.47059156 8201.03422941
0.26200001 137160.12718062 5410.96727331
0.26300001 135222.39739755 7496.73006645
0.26400001 133306.20124537 6888.59827531
0.26500001 131411.51700029 7864.97966463
0.26600001 129536.45873137 7263.10958476
0.26700001 127683.10918936 6159.43347876
0.26800001 125850.36523838 8124.89996427
0.26900001 124036.33379476 5525.81893205
0.27000001 122243.37643401 6459.95153335
0.27100001 120469.50085194 5406.67145409
0.27200001 118716.75833792 6806.03207760
0.27300001 116982.49231207 4807.98066156
0.27400001 115265.60289282 6656.58888208
0.27500001 113570.73504612 5172.01151877
0.27600001 111892.57723745 5114.05048467
0.27700001 110234.57289948 5056.46009820
0.27800001 108594.27092039 4999.13749842
0.27900001 106973.67574860 5840.76297230
0.28000001 105369.85211265 6217.87526745
0.28100001 103784.99787731 4829.11617979
0.28200001 102218.88165836 6074.86842448
0.28300001 100669.98555383 5146.24990509
0.28400001 99138.68803168  4238.17911395
0.28500001 97625.51718554  6282.20232823
0.28600001 96129.67232421  5379.89736627
0.28700001 94651.25399026  4497.82780251
0.28800001 93189.43815225  4039.76233511
0.28900001 91746.58978978  5188.26989819
0.29000001 90319.07340039  5125.15606270
0.29100001 88909.61490814  5841.36197596
0.29200001 87516.81495687  5000.27345925
0.29300001 86140.84979686  4938.45515262
0.29400001 84780.81774798  6002.48218069
0.29500001 83438.48653539  4075.13587529
0.29600001 82111.85737084  4389.70010284
0.29700001 80801.66270070  3973.01794307
0.29800001 79507.54941215  4992.27926392
0.29900001 78230.35717823  4224.43948761
0.30000001 76968.42683249  3822.63709960
0.30100001 75723.57988694  4116.33399752
0.30200001 74492.87225967  5755.69204762
0.30300001 73279.43713246  3341.54249143
0.30400001 72081.78199176  4287.06418692
0.30500001 70899.19119840  4230.55493909
0.30600001 69731.44798437  4816.69999756
0.30700001 68580.22697898  3168.40663643
0.30800001 67443.84630230  4376.43139375
0.30900001 66323.06978090  4317.63204715
0.31000001 65217.53300300  4259.35728208
0.31100001 64126.25687734  3901.44165313
0.31200001 63050.77841594  3848.30444282
0.31300001 61989.54080835  3211.67826134
0.31400001 60944.31937319  3167.58114940
0.31500001 59912.87312850  3123.85735283
0.31600002 58896.46940111  3640.68542841
0.31700002 57894.67485151  3313.89134541
0.31800002 56907.22712382  3267.61313617
0.31900002 55934.34650498  2953.33363530
0.32000002 54976.05401137  2911.80683858
0.32100002 54031.28549201  3914.56681925
0.32200002 53101.81875161  2830.06156437
0.32300002 52184.91010278  3297.04277641
0.32400002 51282.43179109  2750.02053501
0.32500002 50393.72359141  3449.95448043
0.32600002 49519.41678585  2914.71301003
0.32700002 48658.04087869  3112.16844197
0.32800002 47811.11291865  3067.32209454
0.32900002 46976.95031109  3022.96689567
0.33000002 46157.16456785  2750.04399518
0.33100002 45348.17990714  2484.17341295
0.33200002 44555.58368791  3338.32726590
0.33300002 43774.50858934  3070.34417785
0.33400002 43006.99600558  2377.21181678
0.33500002 42251.38113306  2342.41668094
0.33600002 41509.65873854  3147.47002290
0.33700002 40779.53588656  2067.52256736
0.33800002 40063.13476189  2240.93154903
0.33900002 39358.22858950  2207.99672844
0.34000002 38666.33274116  2768.89621872
0.34100002 37986.39264540  2338.44244200
0.34200002 37319.28641800  2496.10059028
0.34300002 36663.11509930  2648.54356021
0.34400002 36020.31631012  2423.26689453
0.34500002 35388.57515137  2755.00070601
0.34600002 34769.55051311  1990.73070891
0.34700002 34160.44080313  2318.12762269
0.34800002 33564.42286758  1932.80738237
0.34900002 32979.16860949  2077.68772080
0.35000002 32405.25996479  1876.75071975
0.35100002 31843.32236806  2353.85850093
0.35200002 31290.98910150  2153.91533682
0.35300002 30750.24974631  1959.40600664
0.35400002 30220.76583048  1931.10702803
0.35500002 29701.96209846  1586.08485118
0.35600002 29192.90344953  2344.92008065
0.35700002 28694.88191955  2619.55589451
0.35800002 28207.89718446  2126.59346946
0.35900002 27730.81256908  1497.46394966
0.36000002 27264.11727909  2362.16323295
0.36100002 26806.85190587  1892.29576567
0.36200002 26360.63358733  1578.87022350
0.36300002 25923.04836686  1981.55791102
0.36400002 25495.40527117  1535.46085519
0.36500002 25077.23062176  1789.76203425
0.36600002 24668.84573440  1901.22803081
0.36700002 24269.17101252  1473.62413368
0.36800002 23880.34877847  1453.95510425
0.36900002 23499.41153724  1565.06088252
0.37000002 23127.22313259  1287.03002829
0.37100002 22763.71947786  1397.23716774
0.37200002 22409.91699577  1504.60189837
0.37300002 22064.14944769  1609.13849545
0.37400002 21726.86034073  1222.13595206
0.37500002 21398.42974557  1568.93294327
0.37600002 21078.35404517  1549.57527104
0.37700002 20765.82091360  1766.13315237
0.37800002 20461.26763647  1279.54543226
0.37900002 20165.35080935  1264.36755564
0.38000002 19877.06211661  1590.36381529
0.38100002 19595.58614909  1347.39256744
0.38200002 19322.60928956  1221.09235190
0.38300002 19056.25453679  1097.64031332
0.38400002 18798.28518069  1194.16112268
0.38500002 18546.11623138  1181.20219874
0.38600002 18302.34172190  1381.18628348
0.38700002 18064.93962422  1051.37953594
0.38800002 17834.37248754  1352.82638913
0.38900002 17610.11564004  1442.26853925
0.39000002 17393.64140120  1428.19196311
0.39100002 17182.60385433  1212.40458540
0.39200002 16978.52443220  1501.32609404
0.39300002 16780.47397990  1090.89866512
0.39400002 16589.70920110  1179.52838008
0.39500002 16403.81056464  1559.01822993
0.39600002 16224.04542628  1255.98453618
0.39700002 16050.10731651  1245.64888785
0.39800002 15882.19049781  1235.71389023
0.39900002 15719.65589228  943.17939822
0.40000002 15562.40219618  936.07853645
0.40100002 15410.99429705  1115.13960017
0.40200002 15265.11962334  1845.55304990
0.40300002 15123.70214007  1558.04386829
0.40400002 14987.90727682  1365.77311531
0.40500002 14857.26526918  995.28824754
0.40600002 14731.29469018  1438.95293352
0.40700002 14610.14386351  894.14084681
0.40800002 14493.89653084  1155.96077259
0.40900002 14381.90210041  1326.73053163
0.41000002 14274.92868191  1232.06915291
0.41100002 14172.05921974  1138.58329166
0.41200002 14073.22329824  959.01984710
0.41300002 13979.36482156  1041.74231586
0.41400002 13888.99972091  1383.34443775
0.41500002 13803.08074983  947.44350756
0.41600002 13720.47653254  1115.68060211
0.41700002 13642.12086354  855.36101867
0.41800002 13568.45367276  852.77735374
0.41900002 13496.47129382  935.30550498
0.42000002 13429.26712335  1356.89321444
0.42100002 13366.06556009  1099.89358706
0.42200002 13306.12282013  1097.55559283
0.42300002 13248.90908881  1263.94598696
0.42400002 13194.94485845  1093.53110696
0.42500002 13144.53980635  1343.89781348
0.42600002 13096.35959569  1006.58624622
0.42700002 13052.55889988  921.77175319
0.42800002 13010.59082535  837.23155928
0.42900002 12972.78959541  920.41946541
0.43000002 12936.97396862  1254.56311006
0.43100002 12903.04336267  1421.39932419
0.43200002 12872.90176531  919.70451021
0.43300002 12845.11123808  1254.32517184
0.43400002 12819.71469848  1171.08099320
0.43500002 12796.67688799  1255.35406220
0.43600002 12776.21869358  921.22929256
0.43700002 12757.54193450  1005.80465378
0.43800002 12741.03276544  922.89675210
0.43900002 12727.40999250  1092.01182911
0.44000002 12715.27300134  1009.33841868
0.44100002 12705.54971762  1010.85358344
0.44200002 12697.58202417  1096.88067514
0.44300002 12691.58517080  929.78557368
0.44400002 12687.74557117  1016.28846841
0.44500002 12684.43866713  1188.02458187
0.44600002 12683.29667376  1020.49809873
0.44700002 12684.89026814  1108.15206634
0.44800002 12686.38280635  1196.19909150
0.44900002 12691.25876212  1027.99200845
0.45000002 12696.72473252  944.82681575
0.45100002 12703.38090210  1033.54711918
0.45200002 12711.74719211  1122.89224143
0.45300002 12721.06025306  1299.45636644
0.45400002 12732.11811032  1303.45065332
0.45500002 12744.27922350  871.70874020
0.45600002 12757.44791527  1136.88002485
0.45700002 12771.85220932  877.42628836
0.45800002 12786.91425133  968.41699672
0.45900002 12803.14095723  1236.78347509
0.46000002 12821.07434353  1063.89279945
0.46100002 12838.82131823  1423.56857524
0.46200002 12858.34799435  1250.21723474
0.46300002 12878.66766808  1075.62637462
0.46400002 12899.02900518  1079.64877890
0.46500002 12920.75907917  903.16110244
0.46600002 12942.91346678  1087.98135758
0.46700002 12965.47857191  1365.26495833
0.46800002 12989.66371351  1096.58746267
0.46900002 13013.43732562  1284.42632492
0.47000002 13037.98842493  1013.24731847
0.47100002 13063.28950496  1017.36903487
0.47200002 13089.08030170  1021.53732056
0.47300002 13115.39028083  1492.00686906
0.47400002 13141.52999605  1591.76789622
0.47500002 13168.40859184  1128.26930163
0.47600002 13196.11859052  1888.36465981
0.47700002 13223.30536244  1327.35545520
