# SAXS profile: number of points = 501, q_min = 0, q_max = 0.5, delta_q = 0.001
#    q    intensity    error
0.00000000 1682732.95097188 302.89193117
0.00100000 1682646.31892158 605.75268920
0.00200000 1682386.38609590 1135.61084657
0.00300000 1681953.37619061 1211.00647400
0.00400000 1681347.15086091 1639.31353438
0.00500000 1680568.37660666 2117.51623834
0.00600000 1679616.88006449 1939.95757545
0.00700000 1678493.42042876 2819.86906351
0.00800000 1677197.77370478 3849.16905316
0.00900000 1675731.33012535 4021.75536422
0.01000000 1674093.49692477 3590.93070596
0.01100000 1672285.89472592 3311.12621572
0.01200000 1670308.30992546 4559.94188602
0.01300000 1668162.17021920 4203.76885436
0.01400000 1665847.60813743 4122.97301292
0.01500000 1663366.11158375 4391.28673012
0.01600000 1660717.50242154 4658.31280254
0.01700000 1657903.85598628 4476.34061197
0.01800000 1654925.70718824 6131.50002104
0.01900000 1651783.90843671 7433.02792336
0.02000000 1648479.39599639 5192.71033228
0.02100000 1645014.79770799 7057.11380213
0.02200000 1641388.76135160 6229.07063233
0.02300000 1637604.39474637 7074.45130732
0.02400000 1633662.41402992 7351.48119834
0.02500000 1629564.89589110 10804.01575318
0.02600000 1625312.57909221 11190.27761887
0.02700000 1620907.06157925 7488.59096748
0.02800000 1616349.10270160 7031.11891920
0.02900000 1611641.83497232 7977.62744940
0.03000000 1606785.97748378 7471.55513873
0.03100000 1601783.15335999 9995.12733687
0.03200000 1596634.42763034 8693.67485886
0.03300000 1591344.01640977 9739.02582940
0.03400000 1585910.60403809 9158.63416090
0.03500000 1580337.98821338 9387.20808347
0.03600000 1574627.02360114 9613.09842334
0.03700000 1568780.50533389 10730.45915274
0.03800000 1562800.13549470 11885.09558047
0.03900000 1556688.28600840 14944.20823775
0.04000000 1550445.08435155 11442.28525274
0.04100000 1544074.64516844 14591.50607340
0.04200000 1537578.63611874 12892.59746198
0.04300000 1530958.64250833 16166.92401532
0.04400000 1524217.18544391 12346.15977548
0.04500000 1517357.31683451 12563.71916716
0.04600000 1510379.25557205 11712.99167146
0.04700000 1503286.95762354 14070.76657776
0.04800000 1496082.06258211 14295.06477309
0.04900000 1488767.37462765 15632.05816122
0.05000000 1481344.37720084 18131.65602126
0.05100000 1473817.27718923 16094.08541663
0.05200000 1466185.22125219 13987.40766258
0.05300000 1458453.54372620 12994.82168039
0.05400000 1450622.87600283 14361.16714214
0.05500000 1442697.63699535 13330.52678770
0.05600000 1434677.65354847 17173.09231434
0.05700000 1426568.86027961 13652.26463014
0.05800000 1418370.03876213 15063.09051499
0.05900000 1410085.14306277 15228.92025636
0.06000000 1401718.16295968 14108.29396931
0.06100000 1393270.12688057 22027.60173536
0.06200000 1384744.06013205 14394.41517792
0.06300000 1376143.00915610 17174.26555726
0.06400000 1367466.68274092 14666.08085828
0.06500000 1358721.27852163 14796.47541525
0.06600000 1349908.12031170 14923.23496828
0.06700000 1341028.29588837 16414.18710984
0.06800000 1332086.15982129 16544.51087941
0.06900000 1323085.24817176 13892.39575623
0.07000000 1314025.00617798 18192.67706247
0.07100000 1304909.88216660 15502.33012623
0.07200000 1295741.95101603 19863.72503963
0.07300000 1286524.30148183 15708.46245712
0.07400000 1277260.37936466 18679.93392363
0.07500000 1267950.03987298 21681.94669811
0.07600000 1258597.29530596 15990.47938651
0.07700000 1249205.55226789 16077.27621153
0.07800000 1239776.31996283 16160.48508858
0.07900000 1230311.00924267 17716.47936406
0.08000000 1220815.16615419 14832.90496460
0.08100000 1211289.47097747 20858.40566887
0.08200000 1201735.20148858 16457.76435667
0.08300000 1192156.07475760 16523.28397161
0.08400000 1182555.03913297 16585.33520233
0.08500000 1172933.88325648 22696.27170649
0.08600000 1163295.04667110 25807.70182211
0.08700000 1153641.03694466 18273.67488329
0.08800000 1143973.17084207 18326.45105757
0.08900000 1134295.10608959 18375.58158175
0.09000000 1124609.05110044 16886.00569550
0.09100000 1114916.61449419 15385.85000287
0.09200000 1105219.97081583 20043.16511251
0.09300000 1095523.15392459 16991.56491584
0.09400000 1085824.76085397 26304.10606791
0.09500000 1076129.58610348 26343.65350604
0.09600000 1066438.94651222 15516.68740116
0.09700000 1056757.71967405 18641.20705143
0.09800000 1047084.09800617 24878.71933837
0.09900000 1037423.07009305 21785.88549638
0.10000000 1027773.47187626 17127.84571429
0.10100000 1018139.20550672 23366.29586534
0.10200000 1008522.72790711 20256.17994279
0.10300000 998924.85933676 15583.22853870
0.10400000 989347.89647364 23373.34515379
0.10500000 979796.08491532 24926.01357300
0.10600001 970265.37364910 20244.58797377
0.10700001 960763.86800321 17120.81293348
0.10800001 951288.40941134 15553.56622585
0.10900001 941844.17480924 17094.47257735
0.11000001 932431.68134225 18629.98587012
0.11100001 923051.52876402 23260.89961982
0.11200001 913707.37357140 17036.07478225
0.11300001 904398.31109665 17011.73303265
0.11400001 895128.11674345 18529.15288902
0.11500001 885897.15478166 21580.45570666
0.11600001 876707.70936197 20002.08733102
0.11700001 867560.69316922 16891.40749150
0.11800001 858456.25036521 16855.78926980
0.11900001 849396.75086282 18346.97068281
0.12000001 840383.17811006 21354.13756166
0.12100001 831418.39139798 16736.45300726
0.12200001 822502.12387920 22762.74735074
0.12300001 813636.25927040 19673.72567607
0.12400001 804820.83474878 18108.46963507
0.12500001 796057.27227396 19559.12810141
0.12600001 787348.60723365 16498.89084207
0.12700001 778693.27512102 16446.00274560
0.12800001 770093.19750067 20861.82570350
0.12900001 761549.99976541 20790.31597349
0.13000001 753063.79520574 25156.09726458
0.13100001 744634.86933268 16218.14821855
0.13200001 736264.66523710 22032.72114585
0.13300001 727955.51233614 19021.47843407
0.13400001 719705.41053752 27690.66697592
0.13500001 711517.89563421 18869.45548188
0.13600001 703390.82717023 15900.15039789
0.13700001 695327.53867837 14393.28072933
0.13800001 687325.58789782 15763.81310179
0.13900001 679388.95034783 17120.60235614
0.14000001 671515.92181169 15622.81865773
0.14100001 663707.48708406 15550.66715579
0.14200001 655963.94253680 15477.46995416
0.14300001 648287.38397453 18203.91060064
0.14400001 640673.81901712 18115.05308719
0.14500001 633129.08827576 18025.18599350
0.14600001 625650.22863431 20693.38228828
0.14700001 618240.33203193 13724.93601860
0.14800001 610894.32348594 20480.23316110
0.14900001 603617.50475028 14939.53394743
0.15000001 596407.64329296 14859.49713376
0.15100001 589266.06522441 14778.79361317
0.15200001 582192.83236752 14697.45874665
0.15300001 575188.65206282 13286.85848965
0.15400001 568249.99873656 14532.99440351
0.15500001 561381.35177928 21018.11880252
0.15600001 554578.35067985 14366.35285238
0.15700001 547847.51685284 18177.58146710
0.15800001 541180.81678383 14197.87939845
0.15900001 534584.53351989 19245.04411509
0.16000001 528054.11403696 14027.75820154
0.16100001 521594.49110453 15209.69607857
0.16200001 515201.26966511 17635.34029313
0.16300001 508875.39141081 13770.16874164
0.16400001 502617.31909726 14927.73508192
0.16500001 496425.86926104 16069.30614663
0.16600001 490302.48326223 14738.49334271
0.16700001 484244.09062488 17084.13232387
0.16800001 478251.88614173 18185.52882919
0.16900001 472327.86621735 16862.10562016
0.17000001 466468.23763597 13161.40194638
0.17100001 460673.94083191 11885.38823471
0.17200001 454945.44518970 12986.41834620
0.17300001 449281.65522706 14071.50210623
0.17400001 443682.22614470 15140.65668222
0.17500001 438146.74830213 13880.48964175
0.17600001 432673.28255875 12636.22381393
0.17700001 427265.15420601 14830.37420294
0.17800001 421917.91515841 20391.29380273
0.17900001 416633.57109490 13498.92834108
0.18000001 411411.17501893 14520.75810818
0.18100001 406251.36027084 11090.66265928
0.18200001 401149.84344700 12112.72009506
0.18300001 396109.70936784 18585.46844150
0.18400001 391128.61778514 13024.58358754
0.18500001 386208.39744125 10775.21479765
0.18600001 381345.43899585 14975.43609686
0.18700001 376540.29190418 15927.65510005
0.18800001 371792.99176412 10540.33181450
0.18900001 367104.10040517 11508.71409146
0.19000001 362467.94465385 13500.11923650
0.19100001 357892.20761093 13399.48488608
0.19200001 353368.43463441 12276.01999926
0.19300001 348901.96571321 13198.96198662
0.19400001 344487.13904622 10076.24929324
0.19500001 340127.04295043 13999.62974939
0.19600001 335819.56509042 10915.81547911
0.19700001 331564.40920871 11816.95610264
0.19800001 327361.11260339 9771.72967301
0.19900001 323209.37721520 11635.53812964
0.20000001 319106.43053628 12507.37713598
0.20100001 315055.37930607 14319.26766622
0.20200001 311051.65993612 11365.82819125
0.20300001 307098.47725189 12216.37800248
0.20400001 303192.39394415 12120.11652078
0.20500001 299333.62693120 12024.23236217
0.20600001 295522.14917937 11928.75211547
0.20700001 291757.05834902 9102.82065077
0.20800001 288036.25970188 9932.93088535
0.20900001 284362.66572998 11644.65171210
0.21000001 280732.00604882 10662.20209376
0.21100001 277145.89822348 11457.21197418
0.21200001 273602.37875846 9615.75605605
0.21300001 270101.01585657 9537.26732077
0.21400001 266642.87571247 9459.15646310
0.21500001 263226.70397096 10234.25473424
0.21600001 259850.55825568 9303.94967822
0.21700001 256514.88466832 10904.44826281
0.21800001 253219.57783147 12477.39528758
0.21900001 249962.10415232 11548.24975786
0.22000001 246743.21636791 11451.35321308
0.22100001 243564.18415194 11354.96280207
0.22200001 240422.69263298 12867.42311815
0.22300001 237316.84846964 9568.61578275
0.22400001 234246.78384999 8696.41226165
0.22500001 231215.85721751 7838.21793032
0.22600001 228217.98740766 8547.90512257
0.22700001 225257.02639787 9244.54880054
0.22800001 222329.11917780 9928.10728639
0.22900001 219434.55980315 10598.68973971
0.23000001 216574.90031518 9005.18478098
0.23100001 213748.69153492 7438.45481720
0.23200001 210953.39776822 7372.82160069
0.23300001 208191.04055501 8038.25645599
0.23400001 205460.98499819 10863.75009558
0.23500001 202760.05904613 8613.24771565
0.23600001 200091.77325242 8535.91545067
0.23700001 197452.96999591 9163.79277094
0.23800001 194844.32830120 8382.20339999
0.23900001 192264.63861443 8997.98551276
0.24000001 189714.05031892 9601.42854079
0.24100001 187193.50763031 10192.68697260
0.24200001 184700.00549646 9425.24172632
0.24300001 182235.19164752 8003.76999576
0.24400001 179797.23934690 6607.54885856
0.24500001 177386.35581637 8509.22389103
0.24600001 175002.93811051 6483.85916371
0.24700001 172645.76808151 8349.14973939
0.24800001 170314.51742187 6361.24752664
0.24900001 168008.20970872 8190.40061077
0.25000001 165728.52582118 8735.55100930
0.25100001 163472.73721792 6797.19673509
0.25200001 161243.30742545 6731.10218692
0.25300001 159038.17793224 7271.22583907
0.25400001 156856.86606590 10799.59573958
0.25500001 154699.07205195 7722.57804220
0.25600001 152565.52566396 6469.54142187
0.25700001 150454.44303443 6404.84594301
0.25800001 148367.43282206 8069.70505300
0.25900001 146303.05247325 7988.14704300
0.26000001 144261.04287793 7342.16612467
0.26100001 142240.97496644 5590.07058068
0.26200001 140243.67506226 6085.87456729
0.26300001 138267.48164632 8213.08879841
0.26400001 136313.36538621 6502.14783659
0.26500001 134380.89776651 5897.97788206
0.26600001 132468.59577112 5305.36751168
0.26700001 130578.41677151 6299.10312313
0.26800001 128709.31402107 7790.13159976
0.26900001 126859.33926504 6679.14452837
0.27000001 125030.65379591 6607.24521251
0.27100001 123221.62277633 5530.18669191
0.27200001 121434.15876135 4972.72903660
0.27300001 119665.37809533 7869.19563595
0.27400001 117914.49744244 7782.35719950
0.27500001 116186.02558120 6253.13219271
0.27600001 114474.66034454 5707.70683490
0.27700001 112783.80688617 5643.70196368
0.27800001 111111.00225971 5579.99479757
0.27900001 109458.40168831 4597.25308849
0.28000001 107822.91446655 4999.20966585
0.28100001 106206.74333674 4941.80000135
0.28200001 104609.56287934 5772.87900072
0.28300001 103030.26654750 5266.90747519
0.28400001 101468.76204764 5205.34773942
0.28500001 99925.72396284  5144.17651309
0.28600001 98400.38948914  6354.20545202
0.28700001 96892.92136468  5022.92928129
0.28800001 95402.33061384  6203.53684180
0.28900001 93931.10993765  4903.20417083
0.29000001 92475.50061772  5247.52253094
0.29100001 91038.36376403  5981.22078242
0.29200001 89618.19638925  3938.71991775
0.29300001 88215.16673763  3890.28903728
0.29400001 86828.53812221  4226.37929316
0.29500001 85459.80172312  3794.41537612
0.29600001 84107.24214915  4871.07115965
0.29700001 82771.25483404  4069.86279285
0.29800001 81451.80575541  4383.73639328
0.29900001 80149.61197488  3967.40598057
0.30000001 78863.06692337  5697.06822424
0.30100001 77593.74892510  4920.99578979
0.30200001 76339.08356147  5204.41726818
0.30300001 75101.79237575  4109.57027335
0.30400001 73880.61434153  3718.04209276
0.30500001 72674.89183979  5003.66654005
0.30600001 71484.33687746  3291.85386905
0.30700001 70310.52303931  3248.34631820
0.30800001 69151.89503783  3525.70953542
0.30900001 68009.15452495  3478.66841865
0.31000001 66881.85836272  4368.05437647
0.31100001 65769.19987629  4001.39830992
0.31200001 64672.61012280  3340.01710793
0.31300001 63590.53116858  2995.11415985
0.31400001 62524.76126237  2954.29510952
0.31500001 61472.95382943  4370.72722421
0.31600002 60436.57495821  5172.76669559
0.31700002 59414.94550464  3117.50233824
0.31800002 58408.06391072  3074.30858951
0.31900002 57415.76569060  3307.14826037
0.32000002 56438.65019128  3532.77747600
0.32100002 55475.08897256  4019.17038637
0.32200002 54527.17197987  2906.02576827
0.32300002 53592.00013991  3385.94272917
0.32400002 52671.30397331  3594.81666640
0.32500002 51764.87739651  2784.43288701
0.32600002 50873.10926806  2744.85874053
0.32700002 49994.38651079  2705.69632609
0.32800002 49130.30534183  2909.49682012
0.32900002 48279.31158135  2628.80864009
0.33000002 47442.95924813  2591.09734204
0.33100002 46617.58404618  3018.02253407
0.33200002 45808.66610738  2516.95727846
0.33300002 45011.59449101  3157.11338711
0.33400002 44228.41467472  3333.71691398
0.33500002 43457.11844803  2628.28664820
0.33600002 42700.12500815  2158.49142138
0.33700002 41954.71650760  2552.52507320
0.33800002 41223.38611195  2305.83021137
0.33900002 40503.62229073  2272.25331812
0.34000002 39797.09844253  3256.99469078
0.34100002 39102.85415580  2005.97651319
0.34200002 38421.55025298  2965.18328120
0.34300002 37751.22043904  2142.75937360
0.34400002 37094.63108857  2879.47087462
0.34500002 36449.10867394  2080.87971275
0.34600002 35816.62509734  2050.68096707
0.34700002 35194.13009171  3123.12725225
0.34800002 34584.90629290  2172.62391622
0.34900002 33986.63303569  2676.44747832
0.35000002 33399.86869924  1934.35348733
0.35100002 32825.19813100  2599.75581511
0.35200002 32260.37243915  2049.82416187
0.35300002 31707.19459570  2020.38253533
0.35400002 31165.50240679  2655.30093082
0.35500002 30634.65312034  1799.47960952
0.35600002 30113.59018123  1935.09939670
0.35700002 29603.68890401  1907.66180333
0.35800002 29105.11493510  1880.77261619
0.35900002 28616.46765799  2936.04972078
0.36000002 28138.35922756  2285.53833651
0.36100002 27669.76819031  1802.96218068
0.36200002 27212.46857182  2222.57847588
0.36300002 26763.84952446  1607.43687858
0.36400002 26325.36017143  1585.44489142
0.36500002 25896.31275949  1848.21992919
0.36600002 25477.33484176  1542.78008442
0.36700002 25067.03380415  1522.07036469
0.36800002 24667.82754812  1774.97361530
0.36900002 24276.61766101  1616.82281281
0.37000002 23894.22988944  1462.68535197
0.37100002 23520.55783726  1574.93662739
0.37200002 23156.91109156  1684.31800803
0.37300002 22801.20992323  1534.97752474
0.37400002 22454.11064293  1515.65254020
0.37500002 22115.98850215  1247.34181061
0.37600002 21786.31092490  1355.21753528
0.37700002 21464.32214042  1703.83797222
0.37800002 21150.32734027  1442.87539951
0.37900002 20845.16653419  2019.89673285
0.38000002 20547.61909825  1644.01508193
0.38100002 20257.02511481  1160.72759407
0.38200002 19975.05605449  1606.59383457
0.38300002 19699.68035915  1248.17180669
0.38400002 19432.89674831  1458.92479249
0.38500002 19171.81595337  1665.07229443
0.38600002 18919.46973558  1208.10279720
0.38700002 18673.31876589  1738.85952586
0.38800002 18434.19642999  1075.63541265
0.38900002 18201.51468487  1490.70412331
0.39000002 17976.63200576  1370.62837221
0.39100002 17757.12467988  1148.53087871
0.39200002 17544.78105745  1241.11787080
0.39300002 17338.47422424  1229.64465024
0.39400002 17139.61128377  1218.62642001
0.39500002 16945.65514563  1006.57196334
0.39600002 16757.77463238  1297.30318463
0.39700002 16575.87993636  1088.53808699
0.39800002 16400.10839632  1177.85584083
0.39900002 16229.66283835  1265.91376137
0.40000002 16064.61727640  1352.80148494
0.40100002 15905.40991662  1438.64439512
0.40200002 15751.97776376  1428.31065140
0.40300002 15602.88106097  1134.64156451
0.40400002 15459.55458342  1127.00158253
0.40500002 15321.35565077  1399.60590501
0.40600002 15187.86556355  1205.38500756
0.40700002 15059.29809098  1013.79199552
0.40800002 14935.74414659  1007.93874149
0.40900002 14816.44715562  1093.45385189
0.41000002 14702.17669865  906.38923642
0.41100002 14592.01806264  991.96543490
0.41200002 14486.01757461  987.14971440
0.41300002 14384.91731732  1071.96408928
0.41400002 14287.49756352  1156.21579511
0.41500002 14194.59183871  1062.89108725
0.41600002 14104.86072589  1058.71089625
0.41700002 14019.52424992  1054.82905455
0.41800002 13938.90625700  1051.27235972
0.41900002 13859.98103940  960.49673154
0.42000002 13786.01093927  1305.87994810
0.42100002 13715.87929433  1389.14432075
0.42200002 13649.16207642  1125.85118722
0.42300002 13585.18807623  864.01800259
0.42400002 13524.53664755  948.40817735
0.42500002 13467.36794440  1032.67782291
0.42600002 13412.53715592  1030.88765465
0.42700002 13362.07156789  1200.98304943
0.42800002 13313.49033786  1199.41240137
0.42900002 13269.10879336  855.85755773
0.43000002 13226.76941674  1197.15495664
0.43100002 13186.33742855  1025.36964703
0.43200002 13149.73812798  1024.89063826
0.43300002 13115.47318206  853.81734461
0.43400002 13083.75013767  939.08621063
0.43500002 13054.24777319  1109.87219827
0.43600002 13027.43370987  1024.73798418
0.43700002 13002.47880440  1025.11547752
0.43800002 12979.62683332  1025.65016097
0.43900002 12959.74502550  1026.41185466
0.44000002 12941.40458163  941.68134901
0.44100002 12925.44379323  942.65266051
0.44200002 12911.37105156  1029.55277644
0.44300002 12899.16276094  1030.90113671
0.44400002 12889.22076137  946.39107925
0.44500002 12879.84888893  1033.99431781
0.44600002 12872.57652823  1208.34881597
0.44700002 12868.19816081  1124.16584460
0.44800002 12863.56757185  1299.54197553
0.44900002 12862.42079246  1562.78420035
0.45000002 12862.00602675  1131.14917363
0.45100002 12862.68001340  1046.50769549
0.45200002 12865.19654455  874.19014663
0.45300002 12868.59006747  963.98612764
0.45400002 12873.74261661  966.49627275
0.45500002 12880.11915513  1145.30024955
0.45600002 12887.43518574  883.43372385
0.45700002 12896.04815788  974.55440548
0.45800002 12905.40503281  977.39089648
0.45900002 12915.88873105  1069.43563762
0.46000002 12928.17905542  1251.57707367
0.46100002 12940.17541268  986.42961846
0.46200002 12954.16011208  1079.59975491
0.46300002 12968.78166579  1444.20359475
0.46400002 12983.58295393  1267.84693554
0.46500002 12999.71011043  1272.15169170
0.46600002 13016.39583510  1002.97842861
0.46700002 13033.39355951  1097.93312549
0.46800002 13052.12817002  1193.68243836
0.46900002 13070.44691994  1013.61320668
0.47000002 13089.55732049  1572.12135649
0.47100002 13109.44662190  1113.77863779
0.47200002 13129.92729364  1024.72522420
0.47300002 13150.90033662  1122.03486990
0.47400002 13171.66956393  1032.32965100
0.47500002 13193.27575056  1036.19992656
0.47600002 13215.81355009  1607.50555736
0.47700002 13237.73906796  1044.06052978
