# SAXS profile: number of points = 501, q_min = 0, q_max = 0.5, delta_q = 0.001
#    q    intensity    error
0.00000000 1664650.74656090 324.60689558
0.00100000 1664564.60668927 699.11715141
0.00200000 1664306.15240059 748.93779230
0.00300000 1663875.60731705 1197.99047994
0.00400000 1663272.82658432 1621.69106754
0.00500000 1662498.48283424 1945.12330191
0.00600000 1661552.39930609 2268.01911739
0.00700000 1660435.33481771 2391.02698151
0.00800000 1659147.06498259 2687.81835875
0.00900000 1657688.98238266 3729.80036980
0.01000000 1656060.48998318 3005.74991911
0.01100000 1654263.19664085 4466.51082540
0.01200000 1652296.89353923 3544.17699203
0.01300000 1650163.01108757 4158.41097135
0.01400000 1647861.68984896 5190.76455314
0.01500000 1645394.41777817 4738.73613421
0.01600000 1642760.95447107 4607.94468328
0.01700000 1639963.44967528 6199.06211785
0.01800000 1637002.40889789 4665.45707529
0.01900000 1633878.66562956 5391.79983987
0.02000000 1630593.20189332 6163.64258197
0.02100000 1627148.53766778 5906.54945953
0.02200000 1623543.44218862 6161.34764303
0.02300000 1619780.96517624 8163.69643609
0.02400000 1615861.74609155 10301.11910104
0.02500000 1611788.05289811 6285.97369339
0.02600000 1607560.39771398 9114.86787194
0.02700000 1603180.52756871 8080.03022902
0.02800000 1598649.11760061 6954.12398048
0.02900000 1593969.31613063 9324.72092750
0.03000000 1589141.87932132 9606.36310206
0.03100000 1584168.35958236 9124.81017106
0.03200000 1579049.89327679 8597.92706490
0.03300000 1573790.63858806 11236.86567754
0.03400000 1568389.27134152 9880.85286536
0.03500000 1562849.58086016 8439.38812636
0.03600000 1557172.43669206 10370.76890764
0.03700000 1551360.64274081 13264.13410887
0.03800000 1545415.89681212 9944.75175622
0.03900000 1539340.49551765 16624.87812149
0.04000000 1533134.63535665 11314.53413324
0.04100000 1526802.45865417 12504.51271617
0.04200000 1520345.50638087 17651.21214797
0.04300000 1513765.39852030 11989.02251279
0.04400000 1507064.74378882 11189.95624232
0.04500000 1500246.51811462 11386.87160158
0.04600000 1493310.90756535 10527.84238774
0.04700000 1486261.88971547 12841.30332436
0.04800000 1479101.14669305 10871.39393402
0.04900000 1471831.28631599 16558.10274179
0.05000000 1464454.09366779 16804.61150736
0.05100000 1456973.53683145 13637.27294002
0.05200000 1449388.69874493 13827.16883039
0.05300000 1441705.19111467 15181.15637015
0.05400000 1433923.47364849 15378.82997205
0.05500000 1426047.84570857 11978.80246275
0.05600000 1418078.29530264 13337.02698968
0.05700000 1410020.64384122 15947.33422624
0.05800000 1401873.76751904 13647.24176402
0.05900000 1393641.59655231 13797.05245027
0.06000000 1385328.01898065 19013.62794880
0.06100000 1376934.10759187 12805.48779902
0.06200000 1368462.90133381 15518.37002651
0.06300000 1359917.44513619 13055.20808371
0.06400000 1351297.37732037 13175.15004503
0.06500000 1342608.92794891 17279.37771099
0.06600000 1333853.48467707 14745.75096304
0.06700000 1325031.99958867 17569.92513680
0.06800000 1316148.71968074 14984.35387497
0.06900000 1307207.44965664 17843.38252322
0.07000000 1298207.56801012 19356.27574546
0.07100000 1289153.43564958 19492.00085998
0.07200000 1280047.01779420 19623.12170207
0.07300000 1270891.65426736 25392.41644204
0.07400000 1261690.43754728 19871.62532264
0.07500000 1252443.65414281 17133.42999176
0.07600000 1243154.78676373 17230.12615230
0.07700000 1233827.67898903 17322.94142525
0.07800000 1224463.64195278 14509.89483760
0.07900000 1215063.99820476 18954.99926105
0.08000000 1205634.57902434 14648.46082232
0.08100000 1196175.68321632 19126.85007203
0.08200000 1186688.95406524 16251.70598854
0.08300000 1177177.62117899 20765.41421216
0.08400000 1167645.11939350 23819.96155370
0.08500000 1158092.94936311 16433.33972293
0.08600000 1148523.61331095 20983.52740040
0.08700000 1138939.50705328 18040.80263888
0.08800000 1129342.01348726 18092.05990574
0.08900000 1119734.99904082 19651.35015618
0.09000000 1110120.27347723 18183.77093375
0.09100000 1100499.63390995 24299.03305833
0.09200000 1090875.25778028 15217.71056107
0.09300000 1081251.15019257 22868.46290121
0.09400000 1071625.90146014 15270.66981349
0.09500000 1062004.23769239 22939.29261236
0.09600000 1052387.66620320 16843.46538936
0.09700000 1042780.67080252 18394.65189774
0.09800000 1033181.99309999 18411.30398270
0.09900000 1023595.82710744 19960.11956717
0.10000000 1014021.75256054 18434.91632849
0.10100000 1004463.34032220 21515.60576162
0.10200000 994922.90190258 16908.71551316
0.10300000 985401.56250544 19983.94462767
0.10400000 975901.63676247 18444.54180254
0.10500000 966426.76178100 26122.51659999
0.10600001 956973.48812528 21503.19528998
0.10700001 947549.69424805 15350.30576917
0.10800001 938152.18092460 16872.66776799
0.10900001 928786.31442953 15324.97490937
0.11000001 919452.29022301 16839.76948807
0.11100001 910150.87438160 19877.69603220
0.11200001 900885.72297913 18324.01646804
0.11300001 891655.91117026 16772.04847875
0.11400001 882465.25017744 21311.53679523
0.11500001 873313.99352266 15195.66420283
0.11600001 864204.43535696 28816.89825401
0.11700001 855137.37627337 15135.93227286
0.11800001 846113.23230045 19634.05848026
0.11900001 837134.10684399 16575.25609623
0.12000001 828200.98624130 22547.77291253
0.12100001 819317.11585679 19491.55510444
0.12200001 810481.76397052 19439.40602465
0.12300001 801696.84425554 20876.18680798
0.12400001 792962.53379523 17841.65785105
0.12500001 784280.25162583 17787.47694503
0.12600001 775652.92402212 16253.80778882
0.12700001 767078.99776882 17673.50094148
0.12800001 758560.51931577 14678.14674053
0.12900001 750098.66677330 14626.92469148
0.13000001 741694.19086773 17489.14984501
0.13100001 733346.96117267 14520.27051567
0.13200001 725058.59752441 17357.90364299
0.13300001 716831.17204449 17289.96868481
0.13400001 708662.99088136 18655.55411448
0.13500001 700557.13544874 20007.91273175
0.13600001 692511.95232610 15654.23342044
0.13700001 684530.47995473 19837.69424450
0.13800001 676610.55033260 14107.33063968
0.13900001 668755.46790046 16852.63858583
0.14000001 660964.19999192 15377.33283802
0.14100001 653237.53834018 19479.54431202
0.14200001 645575.63091422 16617.11752348
0.14300001 637980.64830892 20670.57398019
0.14400001 630448.76648847 16454.71358152
0.14500001 622985.34888422 24558.08361147
0.14600001 615588.03277648 19003.20346827
0.14700001 608259.33550342 13503.35788522
0.14800001 600994.53081536 14775.45123718
0.14900001 593798.65003131 17368.61133288
0.15000001 586669.92352312 15945.68927372
0.15100001 579609.20559033 14536.59956211
0.15200001 572616.58147090 19712.32674730
0.15300001 565692.89072926 14374.25703174
0.15400001 558834.66847695 16890.77865181
0.15500001 552046.24777465 14209.67108832
0.15600001 545323.44735413 23116.26202431
0.15700001 538672.45998310 15319.84548497
0.15800001 532085.47482554 21573.40659504
0.15900001 525568.76994325 12613.65107401
0.16000001 519117.65427432 15044.03033098
0.16100001 512737.32605481 17443.32465578
0.16200001 506422.82514045 13620.24252511
0.16300001 500175.75213676 13534.75649177
0.16400001 493996.12269239 14671.68553661
0.16500001 487883.06478109 13363.11777524
0.16600001 481837.59643692 13277.03559667
0.16700001 475856.94595732 11991.59560430
0.16800001 469942.25266141 15486.94766769
0.16900001 464095.55960024 14201.32479433
0.17000001 458312.84816492 15282.44264369
0.17100001 452595.23098210 16347.74051504
0.17200001 446943.19602600 15077.62942995
0.17300001 441355.61111330 12671.32019346
0.17400001 435831.94001492 14872.76565539
0.17500001 430372.02909046 12498.00431504
0.17600001 424973.99028546 11283.05997497
0.17700001 419640.66448151 14565.72815210
0.17800001 414367.90617726 11125.77880635
0.17900001 409157.99329545 13256.71960893
0.18000001 404009.57287329 13162.63250595
0.18100001 398923.49252078 15246.85660435
0.18200001 393895.14521501 14056.14892098
0.18300001 388927.94499156 12881.29414662
0.18400001 384019.55273589 10656.54309184
0.18500001 379171.65832759 19042.00158080
0.18600001 374380.43991216 14701.92056992
0.18700001 369646.96208115 16678.47171707
0.18800001 364970.70978337 13450.99614457
0.18900001 360352.58328416 12324.05893060
0.19000001 355786.98766991 14270.61674971
0.19100001 351281.25942831 10116.90074956
0.19200001 346827.03993508 11044.70760861
0.19300001 342429.80513613 11957.64936038
0.19400001 338083.86653590 10877.84891981
0.19500001 333792.35432955 14720.24352154
0.19600001 329552.88119384 10712.11690942
0.19700001 325365.32466621 14495.02589888
0.19800001 321229.29787609 12465.30349318
0.19900001 317144.29428805 10465.76220612
0.20000001 313107.92559239 10384.22484304
0.20100001 309122.81512075 10303.06391492
0.20200001 305184.71094002 9292.87488734
0.20300001 301296.53702214 10141.64191551
0.20400001 297455.26301982 14634.79963230
0.20500001 293660.77541616 12703.76574497
0.20600001 289913.11193602 10802.16306133
0.20700001 286211.32342445 13394.69056942
0.20800001 282553.65557726 9743.86327318
0.20900001 278942.60108256 11422.70005430
0.21000001 275374.00725528 8715.58774164
0.21100001 271849.50191120 12967.22185417
0.21200001 268367.15918959 11146.63048389
0.21300001 264926.59899889 9354.55865289
0.21400001 261528.60872690 15181.73645434
0.21500001 258172.35186599 9201.26305552
0.21600001 254855.54505064 12443.32257540
0.21700001 251578.89210738 9049.29317695
0.21800001 248341.86805723 14684.45535251
0.21900001 245142.36629217 8898.66831715
0.22000001 241981.07704646 8823.84039171
0.22100001 238859.01194835 8749.40602137
0.22200001 235774.20298060 10252.64170140
0.22300001 232724.37332630 10947.35503892
0.22400001 229710.17896281 10853.80646923
0.22500001 226734.28063339 9992.18022002
0.22600001 223791.06859392 9144.10349516
0.22700001 220884.27139509 10575.93941452
0.22800001 218010.33834738 7488.65547637
0.22900001 215169.03618801 9650.33172941
0.23000001 212362.16068834 10301.68890218
0.23100001 209588.29851943 9481.77507344
0.23200001 206844.95297939 10120.92402794
0.23300001 204133.87876198 7165.09948342
0.23400001 201454.71263316 7101.27895618
0.23500001 198804.30618043 11260.27643463
0.23600001 196186.00487621 9066.73664418
0.23700001 193596.73441109 10367.10561806
0.23800001 191037.05039208 9588.15001269
0.23900001 188506.00433334 8822.08142008
0.24000001 186003.55035034 8068.83439586
0.24100001 183530.61699669 7328.37788332
0.24200001 181084.29640934 8580.67979124
0.24300001 178666.20004940 7847.01987736
0.24400001 176274.42268431 7773.70240810
0.24500001 173909.28557184 6417.25294117
0.24600001 171571.10167658 8263.72250317
0.24700001 169258.88281143 7555.71688613
0.24800001 166971.96946479 7483.68402544
0.24900001 164709.48744137 7411.92728550
0.25000001 162473.18057279 6117.11553796
0.25100001 160260.39101338 6663.62737359
0.25200001 158073.58603764 6598.78216133
0.25300001 155910.42717495 7128.22506768
0.25400001 153770.68847443 8234.42075739
0.25500001 151654.11739740 6405.87022194
0.25600001 149561.23258907 5765.58578909
0.25700001 147490.33740005 6278.66396018
0.25800001 145443.20646481 7345.60949006
0.25900001 143418.04304603 6152.63433779
0.26000001 141414.93610737 6643.67401267
0.26100001 139433.28813282 7123.64702777
0.26200001 137474.05044716 5423.35154676
0.26300001 135535.45474748 8050.80639294
0.26400001 133618.39809778 5842.46473328
0.26500001 131722.69466675 6832.45649567
0.26600001 129846.66136339 5200.35903368
0.26700001 127992.37418466 5659.82305427
0.26800001 126158.53147364 7126.69578019
0.26900001 124343.52576440 5539.50433494
0.27000001 122549.51475345 7472.45701570
0.27100001 120774.59571935 5420.36411239
0.27200001 119020.80876872 6823.46328962
0.27300001 117285.36602943 5302.47164913
0.27400001 115567.41002401 5243.87147800
0.27500001 113871.34656515 5185.70136799
0.27600001 112192.02930348 4661.57903817
0.27700001 110532.89374530 5070.14407605
0.27800001 108891.39095996 5924.23640555
0.27900001 107269.64279613 5856.92277386
0.28000001 105664.58084755 6680.64344027
0.28100001 104078.45506023 6163.52640038
0.28200001 102511.02299447 6092.23038490
0.28300001 100960.88417607 5161.12064336
0.28400001 99428.39712495  4250.56417827
0.28500001 97913.82667001  6720.80538073
0.28600001 96416.72517613  4980.88825835
0.28700001 94936.96160307  5331.66001599
0.28800001 93473.87495720  6078.13900679
0.28900001 92029.58139713  4403.61567829
0.29000001 90600.74062440  6723.02827626
0.29100001 89189.93521645  5469.12708635
0.29200001 87795.69530652  5402.06938792
0.29300001 86418.31215768  3811.04774655
0.29400001 85056.87314236  4516.52017766
0.29500001 83713.05432168  4831.91772418
0.29600001 82384.97422324  5138.35108554
0.29700001 81073.35051168  4348.77472731
0.29800001 79777.78394445  3935.83715722
0.29900001 78499.08773009  3532.45911508
0.30000001 77235.73172724  5230.79017885
0.30100001 75989.29391817  4475.00973069
0.30200001 74757.12605945  3737.48269428
0.30300001 73542.08272061  4359.57487007
0.30400001 72342.83727316  4302.59045051
0.30500001 71158.80516128  5225.90289845
0.30600001 69989.48056793  3867.61887929
0.30700001 68836.67910152  5088.40756009
0.30800001 67698.74664867  3451.62076129
0.30900001 66576.34133982  3405.38002076
0.31000001 65469.11681295  3359.54788831
0.31100001 64376.21524603  4217.92982262
0.31200001 63299.14810296  3863.46368738
0.31300001 62236.27034296  3224.46131913
0.31400001 61189.52817262  2891.20534305
0.31500001 60156.33137122  4562.25638720
0.31600002 59138.33779785  4780.44776223
0.31700002 58134.83735581  4159.54780975
0.31800002 57145.75211318  3007.86680490
0.31900002 56171.08994898  2965.83368974
0.32000002 55211.19921256  3455.94517835
0.32100002 54264.71528662  3669.38022143
0.32200002 53333.56080266  3100.81337189
0.32300002 52414.88777669  3056.83639988
0.32400002 51510.72503739  2511.14796448
0.32500002 50620.27719190  3217.93117346
0.32600002 49744.26668145  2683.95203589
0.32700002 48881.21860671  2885.94728320
0.32800002 48032.47062519  3081.52329888
0.32900002 47196.55024579  3037.09815213
0.33000002 46375.07308809  2763.02698543
0.33100002 45564.33308330  2269.10389500
0.33200002 44769.92629304  3801.63847120
0.33300002 43987.09533884  2644.50429700
0.33400002 43217.86193279  2171.69766496
0.33500002 42460.37887497  2354.00351630
0.33600002 41716.95915531  2952.30933923
0.33700002 40985.03263205  2285.73537814
0.33800002 40266.81202492  3071.35123265
0.33900002 39560.06927272  2824.58907984
0.34000002 38866.33416671  2783.21832149
0.34100002 38184.65825469  2350.64767348
0.34200002 37515.78023167  2123.20568276
0.34300002 36857.74756827  2282.23183751
0.34400002 36213.16789522  2623.64413826
0.34500002 35579.54857729  2954.52585379
0.34600002 34958.74370425  2001.56296558
0.34700002 34347.73440383  2151.54218495
0.34800002 33749.97413834  2120.17347578
0.34900002 33162.89466973  2437.47287367
0.35000002 32587.11961918  2230.42550797
0.35100002 32023.35190275  1859.91636660
0.35200002 31469.18191205  1999.55191340
0.35300002 30926.55407283  2134.86012876
0.35400002 30395.33449177  1618.55163835
0.35500002 29874.67801416  1914.36945782
0.35600002 29363.77512522  2515.88837189
0.35700002 28863.89048437  1704.99009167
0.35800002 28375.07547253  2139.19704120
0.35900002 27896.13055555  2862.14313057
0.36000002 27427.58010056  1485.20353279
0.36100002 26968.39438536  1464.38388449
0.36200002 26520.41493285  1588.44032764
0.36300002 26080.91783534  1993.62545377
0.36400002 25651.44811929  1966.18359148
0.36500002 25231.32553677  2077.79975637
0.36600002 24821.14677194  1776.32545287
0.36700002 24419.59041883  1617.55374596
0.36800002 24028.90873443  2128.00025832
0.36900002 23646.09703031  1443.59429208
0.37000002 23272.04691957  1424.59841966
0.37100002 22906.73641550  1533.83514304
0.37200002 22551.13870952  1514.08352468
0.37300002 22203.45807612  1245.61405708
0.37400002 21864.31848351  1844.80195944
0.37500002 21534.03349186  1335.97150112
0.37600002 21212.01134054  1679.35501738
0.37700002 20897.64882999  1421.87609375
0.37800002 20591.30245973  1287.67716032
0.37900002 20293.53894394  1272.40495206
0.38000002 20003.31890310  1257.50870241
0.38100002 19719.98091106  1242.95045571
0.38200002 19445.20274159  1340.55234051
0.38300002 19176.96183603  1325.51166490
0.38400002 18917.21182001  1638.70355154
0.38500002 18663.11711658  1080.59453224
0.38600002 18417.55719237  1389.88101937
0.38700002 18178.25423990  1692.75911501
0.38800002 17945.80463051  1256.56529976
0.38900002 17719.76743109  1243.92773259
0.39000002 17501.44261559  1129.10562384
0.39100002 17288.47988332  1321.53146489
0.39200002 17082.57130564  1409.82467665
0.39300002 16882.64703217  1297.09383293
0.39400002 16690.08804833  1186.66531646
0.39500002 16502.35324057  980.23982893
0.39600002 16320.71389712  1069.08841448
0.39700002 16144.95486250  1060.23923605
0.39800002 15975.14051923  1338.55708753
0.39900002 15810.80802561  948.64852648
0.40000002 15651.71219756  1318.03074660
0.40100002 15498.45038413  1214.92358317
0.40200002 15350.79596239  1020.75122588
0.40300002 15207.55424572  1474.52452953
0.40400002 15069.95957077  1556.35014841
0.40500002 14937.40317928  1000.65668639
0.40600002 14809.66177895  994.54288389
0.40700002 14686.64698818  898.82283826
0.40800002 14568.66247142  983.16623347
0.40900002 14454.83290948  1066.76671926
0.41000002 14346.01280287  1326.64759680
0.41100002 14241.33345730  1320.17167404
0.41200002 14140.69077463  1226.42216899
0.41300002 14044.94818106  959.41045571
0.41400002 13952.85565850  1129.13489767
0.41500002 13865.13807812  1730.36931414
0.41600002 13780.70283535  948.18130351
0.41700002 13700.53977257  1460.34060356
0.41800002 13625.09268953  1027.60453934
0.41900002 13551.30712639  1280.59858412
0.42000002 13482.42801831  1021.69844364
0.42100002 13417.27735063  1104.10780550
0.42200002 13355.61042943  1101.63757847
0.42300002 13296.64708695  1014.80015376
0.42400002 13240.86515535  1012.92623238
0.42500002 13188.69243207  1011.30898361
0.42600002 13138.73425434  1093.99675953
0.42700002 13093.13953520  924.63755779
0.42800002 13049.33718843  1175.61484301
0.42900002 13009.77164455  839.13031084
0.43000002 12972.21838267  1341.84633309
0.43100002 12936.53104580  1257.43087724
0.43200002 12904.63831475  1424.86570704
0.43300002 12875.03435036  921.98125352
0.43400002 12847.95302271  922.16187190
0.43500002 12823.09582280  1341.80881048
0.43600002 12800.89161323  923.00833351
0.43700002 12780.48652999  1175.54920674
0.43800002 12762.23283224  1092.51099338
0.43900002 12746.86785461  1009.55198193
0.44000002 12732.98109500  842.28673935
0.44100002 12721.53971396  1096.46955991
0.44200002 12711.90497106  1013.64735043
0.44300002 12704.11467505  1099.92230069
0.44400002 12698.62565291  1186.68662350
0.44500002 12693.59396771  1103.96191969
0.44600002 12690.70475736  1021.09415317
0.44700002 12690.62820601  1364.49640938
0.44800002 12690.36264692  854.69596478
0.44900002 12693.42845678  1113.84839987
0.45000002 12697.29824827  1030.76672065
0.45100002 12702.22723676  1119.57436171
0.45200002 12708.89044670  949.92606146
0.45300002 12716.56746374  1385.59725652
0.45400002 12725.84812922  1042.24701118
0.45500002 12736.35676629  958.28352851
0.45600002 12747.79828674  1048.63393677
0.45700002 12760.51597379  964.31223784
0.45800002 12773.88899202  967.43052866
0.45900002 12788.48981262  1147.12759056
0.46000002 12804.77274407  1151.08510038
0.46100002 12820.76815971  1421.56684092
0.46200002 12838.72591042  891.64955674
0.46300002 12857.31807619  1521.27794688
0.46400002 12876.02417867  1077.72327483
0.46500002 12896.08668458  991.58015217
0.46600002 12916.63532367  1266.73448623
0.46700002 12937.57164926  1453.14811652
0.46800002 12960.10815073  1276.44111226
0.46900002 12982.23413406  1189.82181478
0.47000002 13005.12724078  1102.57473973
0.47100002 13028.79467074  1383.65805961
0.47200002 13052.99820466  1296.55437312
0.47300002 13077.69251062  1115.78877789
0.47400002 13102.19472286  1120.23770190
0.47500002 13127.44451132  1499.67933205
0.47600002 13153.60618535  1035.25462389
0.47700002 13179.13418281  1228.42715540
