# SAXS profile: number of points = 501, q_min = 0, q_max = 0.5, delta_q = 0.001
#    q    intensity    error
0.00000000 1682732.95097188 328.13292544
0.00100000 1682646.54472587 706.71156557
0.00200000 1682387.28954423 1059.90402597
0.00300000 1681955.40583089 1211.00793534
0.00400000 1681350.77182013 1891.51969017
0.00500000 1680574.01599535 1815.02000912
0.00600000 1679625.02111383 2116.32761276
0.00700000 1678504.48240270 2618.46710137
0.00800000 1677212.20182284 2717.08388167
0.00900000 1675749.62672552 3016.34945705
0.01000000 1674116.05834415 3314.74993865
0.01100000 1672313.18139756 3311.18024333
0.01200000 1670340.75533054 3582.88107727
0.01300000 1668200.20270203 4203.86469622
0.01400000 1665891.67458783 4123.08207739
0.01500000 1663416.72237926 5189.86040492
0.01600000 1660775.01271296 5081.97176608
0.01700000 1657968.69391774 4924.16724183
0.01800000 1654998.31155445 4716.74540017
0.01900000 1651864.76328235 4955.59451346
0.02000000 1648568.89551356 5712.29148135
0.02100000 1645113.38531781 5971.76185945
0.02200000 1641496.84953041 7362.11370462
0.02300000 1637722.42307429 8843.70148715
0.02400000 1633790.63418173 7964.72970481
0.02500000 1629704.02791010 6355.84599912
0.02600000 1625462.71403090 7241.43672222
0.02700000 1621068.86089917 6808.48952761
0.02800000 1616522.76722277 7031.87435990
0.02900000 1611827.88538693 12330.48388935
0.03000000 1606984.76735573 7472.47951168
0.03100000 1601995.01880556 9996.44937731
0.03200000 1596859.89767362 7904.45685755
0.03300000 1591583.53804085 9740.49170185
0.03400000 1586164.33010356 13323.78098763
0.03500000 1580606.34796651 9388.80214048
0.03600000 1574910.42962552 9614.82861720
0.03700000 1569079.38709300 13415.62938008
0.03800000 1563114.67151251 10973.06550185
0.03900000 1557019.05481315 12144.74918997
0.04000000 1550792.24380806 11444.84728965
0.04100000 1544438.66423667 10702.96043942
0.04200000 1537959.75694051 16863.72951721
0.04300000 1531357.14100422 13139.04487970
0.04400000 1524633.73082295 15436.91724150
0.04500000 1517791.95036226 13614.59442735
0.04600000 1510832.33177707 11716.50527759
0.04700000 1503758.72787286 12992.47601307
0.04800000 1496573.09027616 14299.75654293
0.04900000 1489277.73409553 13403.50023076
0.05000000 1481874.49395542 12469.97444731
0.05100000 1474367.26176236 11500.06517747
0.05200000 1466755.45558065 13992.84769832
0.05300000 1459044.26164386 17727.38860539
0.05400000 1451234.57698862 13169.95440034
0.05500000 1443330.24954731 15761.16706030
0.05600000 1435331.92188974 17180.92390675
0.05700000 1427244.62816652 16142.13749805
0.05800000 1419067.61493465 16326.37367214
0.05900000 1410804.81055043 12697.24388799
0.06000000 1402460.19529364 14115.76252510
0.06100000 1394034.66794334 16853.87992304
0.06200000 1385531.41605345 17021.25424185
0.06300000 1376953.53930202 17184.38097395
0.06400000 1368300.33693003 16009.11469078
0.06500000 1359578.35098350 20189.73945654
0.06600000 1350788.72753451 13575.42734690
0.06700000 1341932.68628024 16425.25684876
0.06800000 1333014.70964945 17935.71375789
0.06900000 1324037.93009338 15292.63880856
0.07000000 1315001.87198401 15405.24765170
0.07100000 1305911.20982446 16924.61007204
0.07200000 1296767.84967051 19879.45206674
0.07300000 1287575.20463731 15721.29398525
0.07400000 1278336.07888804 21571.92234219
0.07500000 1269051.07952790 20254.05617862
0.07600000 1259723.29465776 23279.68757664
0.07700000 1250356.94007251 19017.92995023
0.07800000 1240952.94675367 19116.88104125
0.07900000 1231513.36338106 16255.97715910
0.08000000 1222043.17599426 17817.39034183
0.08100000 1212543.09513603 19388.56500090
0.08200000 1203014.84370769 23964.05681118
0.08300000 1193461.43182394 19548.89917075
0.08400000 1183886.28969688 16604.00599237
0.08500000 1174291.11069877 16663.19164307
0.08600000 1164678.54110353 16718.96124252
0.08700000 1155050.34011542 19820.66476711
0.08800000 1145408.72210371 16820.32787404
0.08900000 1135756.94734385 15332.71950932
0.09000000 1126097.06223594 19982.59330807
0.09100000 1116430.95470068 16947.42268857
0.09200000 1106760.50773158 16983.24078913
0.09300000 1097089.87823898 21656.55521413
0.09400000 1087417.81388942 32540.97960998
0.09500000 1077748.97227068 21727.42030222
0.09600000 1068084.56126169 20202.82042595
0.09700000 1058429.31649888 20226.58518920
0.09800000 1048782.10269965 24919.06393178
0.09900000 1039147.22382241 17145.92999931
0.10000000 1029523.53104600 15597.28222884
0.10100000 1019915.51509968 18725.64973793
0.10200000 1010324.97407155 21853.33021707
0.10300000 1000752.74474067 15611.74355234
0.10400000 991202.28679207 21856.01145198
0.10500000 981675.97650476 18730.37851296
0.10600001 972170.90467607 17163.67812967
0.10700001 962694.93606558 21833.92217742
0.10800001 953245.26217903 15585.56077011
0.10900001 943826.45413281 20245.07839400
0.11000001 934439.22753188 17114.25525781
0.11100001 925084.30422530 23312.12556386
0.11200001 915764.96892156 18626.66034475
0.11300001 906481.13743935 24801.32508801
0.11400001 897235.41463822 23215.96744687
0.11500001 888029.71882999 18542.06140228
0.11600001 878864.51785652 16966.48031620
0.11700001 869741.71063034 20012.75770410
0.11800001 860661.59718247 18435.37227992
0.11900001 851626.07943692 18395.12418228
0.12000001 842636.42985956 19882.00749908
0.12100001 833695.69343918 16782.29509951
0.12200001 824802.79052862 18261.13464261
0.12300001 815960.48930179 22765.29872409
0.12400001 807168.29613570 24215.05002502
0.12500001 798427.55094632 25653.47842071
0.12600001 789741.57088091 19557.95092450
0.12700001 781108.99578817 17996.75211108
0.12800001 772531.32840587 19433.02648191
0.12900001 764009.91155343 16388.01337522
0.13000001 755545.85105341 17815.77200758
0.13100001 747138.47126744 16272.67667126
0.13200001 738790.01323679 17686.63375064
0.13300001 730502.13041072 20556.33091884
0.13400001 722273.28877140 16088.63826589
0.13500001 714106.28931838 18938.09968562
0.13600001 705999.81774647 18860.78602040
0.13700001 697956.58201646 15892.47212190
0.13800001 689974.85983914 15824.57415663
0.13900001 682057.85642748 14323.21566043
0.14000001 674204.56877416 17111.31276247
0.14100001 666415.30182455 17033.57591799
0.14200001 658690.71250904 22606.26631954
0.14300001 651032.62862102 18280.99707395
0.14400001 643438.02747482 22391.64441233
0.14500001 635911.18104953 18104.39217850
0.14600001 628450.17450936 13857.32700164
0.14700001 621057.66487012 17923.72505373
0.14800001 613729.17024794 20575.27140328
0.14900001 606469.16098189 16374.66811908
0.15000001 599275.99343560 21717.76302681
0.15100001 592150.94899821 16201.25072905
0.15200001 585093.51576371 20141.84523060
0.15300001 578105.11612872 16025.07457530
0.15400001 571181.90334914 13279.97987956
0.15500001 564328.47122095 14525.81553474
0.15600001 557540.52866230 14443.08807664
0.15700001 550823.98253334 14359.98190239
0.15800001 544171.49485647 12978.49076490
0.15900001 537589.18385840 19353.21153239
0.16000001 531072.25645423 17955.55383826
0.16100001 524625.95625021 19122.61700799
0.16200001 518245.60842287 13938.21629650
0.16300001 511932.45375442 13852.89285256
0.16400001 505686.50833205 17522.03834091
0.16500001 499507.00886080 13681.49761862
0.16600001 493395.18038580 14831.45982264
0.16700001 487348.24234569 15965.52917305
0.16800001 481367.07758122 18303.98398927
0.16900001 475453.71631227 12124.07033844
0.17000001 469604.28329182 15658.95556578
0.17100001 463819.85888692 16753.17409410
0.17200001 458100.90957917 13076.49108145
0.17300001 452446.40455703 14170.62205993
0.17400001 446856.01674213 15248.96229147
0.17500001 441328.96822668 13981.30237372
0.17600001 435863.90242021 15043.84330254
0.17700001 430463.55852936 12642.71531113
0.17800001 425123.84334484 11414.57573294
0.17900001 419846.92539651 13603.04102537
0.18000001 414631.10812112 13508.68214067
0.18100001 409477.95768248 17885.99803644
0.18200001 404382.53710851 12210.33128478
0.18300001 399348.26245508 13226.41507732
0.18400001 394372.73972220 16415.76606643
0.18500001 389458.05824812 11952.46837229
0.18600001 384599.59883780 15103.22695989
0.18700001 379799.10046233 13923.43568076
0.18800001 375055.65703772 10632.82837938
0.18900001 370370.88266111 11611.12772002
0.19000001 365738.03719946 18861.11146954
0.19100001 361165.55301682 10401.56841836
0.19200001 356644.54678223 12389.83214065
0.19300001 352180.36043984 12298.13876768
0.19400001 347767.85711712 12206.65236162
0.19500001 343409.52416667 14134.73668264
0.19600001 339103.59127876 11022.56275540
0.19700001 334849.39958050 11934.03316502
0.19800001 330647.01334091 10856.79519613
0.19900001 326495.56290381 11753.84082002
0.20000001 322393.04325506 11664.18085623
0.20100001 318341.63549899 11574.90241380
0.20200001 314337.60996968 13400.21294635
0.20300001 310383.37279870 13296.82431917
0.20400001 306476.34713007 10366.56293166
0.20500001 302616.21333531 15896.43043788
0.20600001 298802.75720353 10205.60865469
0.20700001 295035.57455461 11046.13243347
0.20800001 291312.28321307 10959.16861252
0.20900001 287636.45427270 9966.60361168
0.21000001 284002.53479123 11685.28484638
0.21100001 280412.97237220 10700.55953158
0.21200001 276865.92711561 10615.04014743
0.21300001 273360.52051403 9652.36043567
0.21400001 269897.98959892 9574.63163368
0.21500001 266477.43554604 10360.64318386
0.21600001 263096.36659896 8563.78713768
0.21700001 259755.76548248 13590.42229259
0.21800001 256454.74595092 8424.53880280
0.21900001 253191.70755590 11697.45744216
0.22000001 249966.92001211 9943.68454824
0.22100001 246781.45875846 10683.16985479
0.22200001 243633.41168246 10594.39940796
0.22300001 240520.72595072 11314.09548371
0.22400001 237443.85967412 8815.10370724
0.22500001 234405.28721399 11919.50941847
0.22600001 231399.52877660 9454.98519292
0.22700001 228430.83040573 7812.33476931
0.22800001 225494.76058823 10844.04354950
0.22900001 222591.77850217 8447.35839364
0.23000001 219723.45619998 9897.44355260
0.23100001 216888.33297151 7547.71434436
0.23200001 214083.75387066 11223.34132746
0.23300001 211311.80006327 11125.56679951
0.23400001 208571.99280488 7352.16309409
0.23500001 205861.04126512 9473.72556709
0.23600001 203182.69158966 10112.40303870
0.23700001 200533.39515496 7874.94680020
0.23800001 197913.90262755 9223.77786823
0.23900001 195323.43028156 11953.79449864
0.24000001 192761.71829236 10452.50466881
0.24100001 190229.66275559 7595.87079312
0.24200001 187724.82293043 8211.08414338
0.24300001 185247.93698993 6780.07481455
0.24400001 182797.96511154 10748.52085700
0.24500001 180374.89825876 8652.58427878
0.24600001 177978.76415009 7253.52487607
0.24700001 175608.93408556 9798.97898552
0.24800001 173265.00283295 7118.59297815
0.24900001 170945.71197346 7692.55740272
0.25000001 168652.63562312 6984.74923477
0.25100001 166383.30237412 8805.00477819
0.25200001 164140.37932190 8097.86599695
0.25300001 161921.36925673 6169.20446055
0.25400001 159725.91853969 8553.32334247
0.25500001 157553.86011801 9680.10962363
0.25600001 155405.87804821 6589.98657042
0.25700001 153280.42751104 8304.73395547
0.25800001 151178.60197465 8222.60455045
0.25900001 149099.13045791 7559.32627188
0.26000001 147042.23787801 7483.71505090
0.26100001 145006.74196262 7978.27132028
0.26200001 142994.23002688 9025.79622637
0.26300001 141002.33386772 6700.43122244
0.26400001 139032.51028883 8842.46807278
0.26500001 137084.22002936 6016.62670179
0.26600001 135155.98459052 7578.19641459
0.26700001 133249.62095102 9641.94302827
0.26800001 131364.12547960 5830.59698532
0.26900001 129497.70716871 5769.12312737
0.27000001 127652.56834800 6745.80029358
0.27100001 125827.00306047 7700.61295172
0.27200001 124022.65614244 6094.47361125
0.27300001 122237.08719554 6028.73342579
0.27400001 120469.17498088 5466.28907345
0.27500001 118723.51723060 5898.18461515
0.27600001 116994.59966608 4861.12584618
0.27700001 115286.71892904 5288.20204755
0.27800001 113596.47154926 5704.81507120
0.27900001 111926.11751277 5170.98687382
0.28000001 110272.85168580 7436.80146966
0.28100001 108638.96448518 5054.97125674
0.28200001 107023.91214165 6360.43139962
0.28300001 105426.45099806 5838.51713261
0.28400001 103847.05647767 4883.40806200
0.28500001 102285.82109179 6143.28670554
0.28600001 100742.40502901 5638.04896431
0.28700001 99216.47259564  4714.76700091
0.28800001 97707.47200362  4659.18102303
0.28900001 96217.84753933  6278.21484911
0.29000001 94743.79900203  4962.68042663
0.29100001 93288.16751190  4903.22631652
0.29200001 91849.19180094  4440.44938781
0.29300001 90427.64481590  5184.21712269
0.29400001 89022.20732863  3939.23286076
0.29500001 87634.66372866  4280.07717911
0.29600001 86263.06111430  4611.62346547
0.29700001 84908.45040810  6072.65266065
0.29800001 83569.94244575  4872.54572496
0.29900001 82248.87130275  4811.55919899
0.30000001 80943.09880169  4385.49730068
0.30100001 79654.77050290  5773.37803936
0.30200001 78380.96512507  4631.13954366
0.30300001 77124.67417644  4220.26237073
0.30400001 75884.17778383  3471.70129797
0.30500001 74659.32049223  4797.60816196
0.30600001 73449.48647091  4735.28861696
0.30700001 72256.55674235  3338.25307954
0.30800001 71078.80518219  3623.95305379
0.30900001 69916.66943190  3576.23781076
0.31000001 68770.23801598  4170.57128193
0.31100001 67638.29253206  4115.11391248
0.31200001 66522.38698719  3435.54883861
0.31300001 65421.15211869  3389.47005175
0.31400001 64336.20309204  3039.88574003
0.31500001 63264.96221073  3598.51122093
0.31600002 62209.29239184  4437.07798993
0.31700002 61168.35658736  3209.50382210
0.31800002 60142.27621365  3741.15046901
0.31900002 59131.02334600  4257.43388250
0.32000002 58134.54212422  3079.09616940
0.32100002 57151.68357438  2760.42644735
0.32200002 56184.74024574  2722.15079380
0.32300002 55230.12903738  3221.02127798
0.32400002 54290.66637599  2911.33712227
0.32500002 53365.24846179  3392.42900535
0.32600002 52454.30330030  2830.17206858
0.32700002 51556.57586979  3043.90038349
0.32800002 50673.52467255  2500.73856101
0.32900002 49803.52696128  3697.91205198
0.33000002 48948.21213000  4131.47404047
0.33100002 48104.09812101  2635.14261985
0.33200002 47276.27267835  3306.02990495
0.33300002 46460.47309393  2327.66981223
0.33400002 45658.47489324  2982.64001365
0.33500002 44868.57304864  2939.78904536
0.33600002 44092.89597355  2897.56479612
0.33700002 43329.04259625  2416.46082003
0.33800002 42579.35017678  2814.70807673
0.33900002 41841.07249966  2560.67375825
0.34000002 41116.23418590  2734.02412167
0.34100002 40403.57848272  2072.70367432
0.34200002 39704.08861632  2247.05300166
0.34300002 39015.65925223  2617.17054659
0.34400002 38341.14347302  2380.98512244
0.34500002 37677.48876245  2151.00793532
0.34600002 37026.89701540  2698.15011330
0.34700002 36386.60593263  2279.25710357
0.34800002 35759.66687086  2808.02797403
0.34900002 35143.59215375  2583.05414564
0.35000002 34539.45823745  2000.35281856
0.35100002 33947.07795997  1792.40580118
0.35200002 33364.94461756  2296.67607153
0.35300002 32794.42231512  2089.66068889
0.35400002 32235.38738401  2231.49479735
0.35500002 31687.39514501  2199.73907516
0.35600002 31149.38987533  2001.65988820
0.35700002 30622.53638132  2302.20239419
0.35800002 30106.85339964  1783.37954560
0.35900002 29601.55304386  2078.02912211
0.36000002 29106.93240350  2048.98260360
0.36100002 28621.66914799  1709.57237919
0.36200002 28147.92880812  1685.92027582
0.36300002 27683.04207683  2267.24125348
0.36400002 27228.23496898  2236.11890275
0.36500002 26783.06984360  1911.50778528
0.36600002 26348.07961338  1740.55422171
0.36700002 25922.07083926  2146.34756716
0.36800002 25506.86777492  1835.34675768
0.36900002 25100.12085229  1671.66812795
0.37000002 24702.08707718  2336.94105864
0.37100002 24313.22233660  2170.68459304
0.37200002 23934.07697406  1740.84517117
0.37300002 23563.22370232  1718.46598601
0.37400002 23201.12677894  1566.07613176
0.37500002 22848.09183754  1546.35892882
0.37600002 22503.51625438  1781.60346626
0.37700002 22166.85689266  1633.91909896
0.37800002 21838.52049873  1365.67194408
0.37900002 21518.93422931  1349.23724009
0.38000002 21207.06257419  1575.57878859
0.38100002 20902.29864163  1317.47194579
0.38200002 20606.18793967  1302.20810854
0.38300002 20317.04605992  1638.36667189
0.38400002 20036.48836854  1388.52870972
0.38500002 19761.98183384  1258.64068262
0.38600002 19496.16993823  1810.80434965
0.38700002 19236.52591633  1343.47903364
0.38800002 18984.36585779  1440.05914037
0.38900002 18738.50903204  1205.82311334
0.39000002 18500.76927547  1519.09823718
0.39100002 18268.58099904  1289.03113636
0.39200002 18043.58553589  1170.03635951
0.39300002 17824.73414269  1053.44183774
0.39400002 17613.61980963  2295.93545096
0.39500002 17407.50475517  1137.40641459
0.39600002 17207.72490870  1332.13608692
0.39700002 17013.95792167  1218.88000326
0.39800002 16826.39493531  1007.05978459
0.39900002 16644.35779869  1398.12612133
0.40000002 16467.99080915  1386.76957174
0.40100002 16297.61396901  1277.57001956
0.40200002 16132.93961140  1072.75987029
0.40300002 15972.96454907  1161.55403704
0.40400002 15818.79775561  960.99200919
0.40500002 15669.91009410  1049.72732694
0.40600002 15525.94503528  1516.57438290
0.40700002 15387.12183452  1600.87623152
0.40800002 15253.23169693  1310.10013252
0.40900002 15123.92210450  1209.15762955
0.41000002 14999.88806187  1202.16608568
0.41100002 14879.94773860  1011.53889520
0.41200002 14764.36395778  1006.11762958
0.41300002 14654.04502896  1183.02111124
0.41400002 14547.35888326  996.13044673
0.41500002 14445.25810392  1442.21463743
0.41600002 14346.62318448  1076.85758725
0.41700002 14252.55591198  1072.36235763
0.41800002 14163.24267316  979.17582861
0.41900002 14075.96403000  1241.50008627
0.42000002 13993.79174435  972.07878958
0.42100002 13915.38981130  968.92863847
0.42200002 13840.67332018  966.00984016
0.42300002 13768.86971934  963.27017121
0.42400002 13700.53483762  960.75005101
0.42500002 13635.86813194  1306.99802238
0.42600002 13573.72407933  1217.15589587
0.42700002 13516.01617303  1214.81959120
0.42800002 13460.57517862  1126.04446993
0.42900002 13409.22562739  951.38460335
0.43000002 13360.17119205  950.10861935
0.43100002 13313.28476871  1207.78125145
0.43200002 13270.24407027  1034.28287185
0.43300002 13229.64989422  1119.62532360
0.43400002 13191.85027896  860.76827149
0.43500002 13156.42011739  946.47290810
0.43600002 13123.94354144  1204.38435587
0.43700002 13093.26849900  946.25055926
0.43800002 13064.96408234  946.36071815
0.43900002 13039.74450198  946.68549571
0.44000002 13016.23814819  1119.33145260
0.44100002 12995.26422167  861.58605873
0.44200002 12976.27810381  1034.72846503
0.44300002 12959.34092021  1035.71057543
0.44400002 12944.91312329  864.07299193
0.44500002 12931.01824182  1124.61070979
0.44600002 12919.50728334  1126.12890572
0.44700002 12910.96346961  1041.14014353
0.44800002 12902.51467223  1390.37504697
0.44900002 12897.45561412  1218.80961330
0.45000002 12893.37373038  1133.90780646
0.45100002 12890.58971398  1398.37123844
0.45200002 12889.70028722  875.85517603
0.45300002 12889.84381147  1053.35808619
0.45400002 12891.83562562  1407.78851704
0.45500002 12895.25486083  1146.64611657
0.45600002 12899.83016661  884.28339983
0.45700002 12905.80500075  975.29173013
0.45800002 12912.54989690  977.93201279
0.45900002 12920.58800409  1158.97679890
0.46000002 12930.52877843  894.14610741
0.46100002 12940.37043186  1255.47479880
0.46200002 12952.30311853  1439.25999074
0.46300002 12965.09305384  1353.55577897
0.46400002 12978.13552586  905.22499583
0.46500002 12992.67702399  999.00698372
0.46600002 13007.78487664  1002.31491118
0.46700002 13023.40211141  1279.94002017
0.46800002 13040.89341985  1284.39765380
0.46900002 13058.05355349  1104.71138298
0.47000002 13076.27567511  1108.60670428
0.47100002 13095.12592857  1483.41593550
0.47200002 13114.92172328  1209.65486248
0.47300002 13135.28978146  1400.87872159
0.47400002 13155.55681600  1124.80016108
0.47500002 13176.71722175  1034.89941965
0.47600002 13198.94082561  1038.82268692
0.47700002 13220.69362669  1421.88566695
