# SAXS profile: number of points = 501, q_min = 0, q_max = 0.5, delta_q = 0.001
#    q    intensity    error
0.00000000 1664650.74656090 349.57665678
0.00100000 1664564.72359454 599.24331473
0.00200000 1664306.62045299 1048.51320409
0.00300000 1663876.65764909 1197.99123618
0.00400000 1663274.70179672 1621.69289587
0.00500000 1662501.40147139 1496.25132055
0.00600000 1661556.62045340 1919.09797475
0.00700000 1660441.05894516 2789.54109496
0.00800000 1659154.53054017 2911.81632403
0.00900000 1657698.45339440 3481.16690094
0.01000000 1656072.16583975 2732.51919162
0.01100000 1654277.31779120 3871.00909217
0.01200000 1652313.67766826 5155.21890035
0.01300000 1650182.70878007 3465.38384128
0.01400000 1647884.48386418 4449.28830367
0.01500000 1645420.59760948 5528.61345415
0.01600000 1642790.70407376 4608.02813092
0.01700000 1639996.99107435 6641.98811180
0.01800000 1637039.95634732 6531.78971974
0.01900000 1633920.48673338 5882.11401766
0.02000000 1630639.46118500 8218.42325614
0.02100000 1627199.49126816 10202.54127282
0.02200000 1623599.28971464 6161.55958440
0.02300000 1619841.93194191 6414.57434247
0.02400000 1615928.00151103 7271.67633837
0.02500000 1611859.89501706 9429.38081650
0.02600000 1607637.92019887 8464.21403699
0.02700000 1603264.04926356 6733.70931532
0.02800000 1598738.74140075 8345.41661283
0.02900000 1594065.33549112 10759.94150860
0.03000000 1589244.43361849 8867.98434721
0.03100000 1584277.62196076 8364.98622885
0.03200000 1579166.16078393 7816.87285591
0.03300000 1573914.09622018 8829.65848685
0.03400000 1568519.98781580 11528.62244238
0.03500000 1562987.82641217 10128.16158285
0.03600000 1557318.38339606 9507.42917001
0.03700000 1551514.51182477 11496.72306432
0.03800000 1545577.76353916 11754.11943569
0.03900000 1539510.71451352 10160.77118633
0.04000000 1533313.18414138 13201.82712722
0.04100000 1526989.67168501 12506.04599096
0.04200000 1520541.38347925 10788.24161628
0.04300000 1513970.15161968 9992.20346451
0.04400000 1507278.69666210 12208.95800997
0.04500000 1500469.70742830 15529.86219348
0.04600000 1493543.43638288 13688.32623078
0.04700000 1486504.00124222 13913.67809872
0.04800000 1479352.98485480 11960.56943905
0.04900000 1472092.96469657 14352.90707388
0.05000000 1464725.75894204 14566.69835099
0.05100000 1457255.27393987 15913.22833273
0.05200000 1449680.70499338 17287.44321266
0.05300000 1442007.57943939 14016.31432556
0.05400000 1434236.46227506 13015.69650212
0.05500000 1426371.27961395 14377.82316922
0.05600000 1418412.75122388 14552.91550666
0.05700000 1410365.90523419 13497.20234312
0.05800000 1402230.02168582 19855.57803418
0.05900000 1394008.95514549 12546.08118228
0.06000000 1385706.61843423 19018.82422655
0.06100000 1377323.93867610 20494.58116524
0.06200000 1368864.18718462 16816.49732563
0.06300000 1360330.36278538 18282.84093066
0.06400000 1351721.82567935 18451.00378342
0.06500000 1343045.15014095 14625.76236920
0.06600000 1334301.39725498 16091.67560380
0.06700000 1325491.74271505 17576.02133094
0.06800000 1316620.52090628 24528.64145265
0.06900000 1307691.19052819 17849.98558643
0.07000000 1298703.34563138 19363.66779013
0.07100000 1289661.39668295 18106.84685751
0.07200000 1280567.12100944 14022.21063195
0.07300000 1271424.14273708 15524.08951021
0.07400000 1262235.18585020 15620.16115692
0.07500000 1253000.80944733 15712.63088696
0.07600000 1243724.30715119 17238.01970524
0.07700000 1234409.69842512 18775.37239340
0.07800000 1225058.00052095 18872.01938305
0.07900000 1215671.07384535 18964.46964149
0.08000000 1206254.18057220 20518.38457407
0.08100000 1196807.80176394 20609.03131331
0.08200000 1187333.76618123 17738.76729914
0.08300000 1177835.00585779 14840.72177031
0.08400000 1168315.10866582 17875.22200163
0.08500000 1158775.62309521 25411.95060745
0.08600000 1149218.97574397 22495.96250641
0.08700000 1139647.35515111 16547.68037384
0.08800000 1130062.60498504 16594.97013357
0.08900000 1120468.27583421 15126.32243424
0.09000000 1110866.13089310 19712.32041869
0.09100000 1101258.23720468 16717.10082616
0.09200000 1091646.42828533 16751.31522913
0.09300000 1082034.86657996 21359.36927001
0.09400000 1072422.21214007 15282.01724121
0.09500000 1062813.20574983 19895.86414680
0.09600000 1053209.07535877 19921.45059687
0.09700000 1043614.45323021 16875.24650208
0.09800000 1034028.32493960 16890.85348206
0.09900000 1024454.60634356 15366.81981774
0.10000000 1014892.85478462 15375.62747306
0.10100000 1005346.82434213 16919.98784946
0.10200000 995818.50117469 15385.39656682
0.10300000 986309.26451502 15386.42525022
0.10400000 976821.80025465 18461.93289336
0.10500000 967358.88887205 18457.20846808
0.10600001 957917.61646823 23061.86770162
0.10700001 948505.74172019 19975.53186063
0.10800001 939120.22642222 21496.46299446
0.10900001 929766.17053112 18409.37104297
0.11000001 920443.88773424 16857.93059735
0.11100001 911154.17074174 15307.39078903
0.11200001 901900.43955646 16815.93448718
0.11300001 892682.27015296 22897.30130745
0.11400001 883502.83200207 18288.50948355
0.11500001 874363.20700329 18256.70462190
0.11600001 865264.69358825 18222.47530509
0.11700001 856208.71795214 21216.85303006
0.11800001 847195.65535506 15122.44316033
0.11900001 838227.41285742 16596.90355632
0.12000001 829305.12409834 19567.45532482
0.12100001 820432.10236820 15013.90818062
0.12200001 811607.26826744 19466.40124648
0.12300001 802832.93942760 23892.30940304
0.12400001 794109.04038260 16378.49972960
0.12500001 785436.96171416 22267.13891383
0.12600001 776819.72106696 22197.62457552
0.12700001 768255.98900413 22125.77352603
0.12800001 759747.35847008 19111.44570302
0.12900001 751295.21827784 23440.41191506
0.13000001 742900.44981439 17517.59343231
0.13100001 734562.63954536 17453.20913830
0.13200001 726283.77814113 15938.29826264
0.13300001 718065.70356315 18763.05771865
0.13400001 709906.80231323 18688.29745197
0.13500001 701809.81365202 14316.92087352
0.13600001 693773.55718080 19959.86618121
0.13700001 685800.65990559 19874.50406121
0.13800001 677889.41162669 19787.59285848
0.13900001 670042.78403660 14070.89912833
0.14000001 662259.92250157 19609.51723007
0.14100001 654541.38745562 13941.73221034
0.14200001 646887.58812376 15263.31336168
0.14300001 639300.22381857 17951.55113156
0.14400001 631776.42063765 21985.82047526
0.14500001 624320.50283348 19141.66751983
0.14600001 616930.59930677 17684.31646337
0.14700001 609609.12369074 16239.98782127
0.14800001 602351.57870704 17501.32594502
0.14900001 595162.63525130 14730.27591746
0.15000001 588040.71125993 18646.77183386
0.15100001 580986.78965878 14571.14937218
0.15200001 574000.55558340 14490.64470947
0.15300001 567083.21457714 15719.54744987
0.15400001 560231.23991575 16932.99002554
0.15500001 553448.95246747 15540.84731871
0.15600001 546732.09360588 14163.09555329
0.15700001 540086.77057348 16640.07418673
0.15800001 533505.35618295 15268.92401463
0.15900001 526994.20548335 17707.00614002
0.16000001 520548.37449894 15085.49260505
0.16100001 514173.15349870 21240.49397367
0.16200001 507863.66598643 13658.99394149
0.16300001 501621.47104908 23445.78866366
0.16400001 495446.39092447 14714.75850513
0.16500001 489337.86767826 17058.31887261
0.16600001 483296.69927144 15738.55775484
0.16700001 477320.34184798 16839.86245549
0.16800001 471409.76248032 14340.28565175
0.16900001 465567.01552813 11871.95945654
0.17000001 459787.90786402 12972.91643296
0.17100001 454073.89270941 12886.61768362
0.17200001 448425.26204925 12800.29970966
0.17300001 442840.87043863 16181.40616999
0.17400001 437320.43110030 20663.39134534
0.17500001 431863.40117763 12541.31376249
0.17600001 426468.24373582 12455.00564654
0.17700001 421137.54728033 13493.24765216
0.17800001 415867.22388897 16749.05323322
0.17900001 410659.85477254 11087.81660258
0.18000001 405513.42653329 13211.62806051
0.18100001 400429.49751042 10931.72579841
0.18200001 395403.00152467 11939.19419502
0.18300001 390437.52378185 19396.93709778
0.18400001 385530.78916337 11768.32789516
0.18500001 380684.46016317 15931.64541047
0.18600001 375894.45932062 10543.84008207
0.18700001 371162.23653474 12560.13067774
0.18800001 366486.90242362 14545.86584443
0.18900001 361869.80887857 11344.61904435
0.19000001 357304.83356910 11260.46236197
0.19100001 352799.76681805 12192.76051734
0.19200001 348346.00982920 12101.54095328
0.19300001 343949.02725363 11009.80888263
0.19400001 339603.36581740 11920.07870346
0.19500001 335311.96348281 10843.98941147
0.19600001 331072.40189098 14674.78490729
0.19700001 326884.59783730 10679.32031602
0.19800001 322748.17057878 14451.05002060
0.19900001 318662.70855540 11471.85805015
0.20000001 314625.79110588 10434.56485518
0.20100001 310639.90321984 9412.38951241
0.20200001 306700.97362339 10272.94959705
0.20300001 302811.77119611 10192.64470021
0.20400001 298969.47466605 11031.97413661
0.20500001 295173.84020518 10945.04651215
0.20600001 291424.67391782 13573.10482930
0.20700001 287721.45233486 10772.29168461
0.20800001 284062.15483057 8905.34897490
0.20900001 280449.62524599 9717.57997414
0.21000001 276879.09222865 13144.83552494
0.21100001 273352.56468110 10431.13436135
0.21200001 269868.28232264 9484.52123060
0.21300001 266425.44118623 9407.48277303
0.21400001 263025.13899324 11027.32947363
0.21500001 259666.53239478 11778.47446628
0.21600001 256347.22305094 9178.51275529
0.21700001 253068.09614221 9930.39256213
0.21800001 249828.19399973 9848.22787310
0.21900001 246625.99174675 11394.12135743
0.22000001 243461.85813751 8877.83707675
0.22100001 240336.75007703 9603.85698718
0.22200001 237248.82178943 9523.16815693
0.22300001 234195.75183307 7868.97763368
0.22400001 231178.48323575 9362.72901378
0.22500001 228199.03783128 10056.73207278
0.22600001 225252.24554869 8436.82325599
0.22700001 222342.00588680 9124.91635310
0.22800001 219464.34511236 8292.46067222
0.22900001 216619.34213099 9715.37795402
0.23000001 213808.61590531 11112.70333722
0.23100001 211030.81956271 9547.03472852
0.23200001 208283.39278703 8007.45541440
0.23300001 205568.22061659 10101.62283885
0.23400001 202884.92078074 7866.86317534
0.23500001 200230.21637254 7796.96499431
0.23600001 197607.64302596 9132.43765438
0.23700001 195013.95452922 9746.79790837
0.23800001 192449.71615945 7589.25491571
0.23900001 189914.20394451 7520.60283192
0.24000001 187407.06610910 6774.76576029
0.24100001 184929.30572781 7384.22752699
0.24200001 182478.32846473 7316.46892588
0.24300001 180055.27806048 6590.02348874
0.24400001 177658.58233239 7181.84853051
0.24500001 175288.48379875 6468.14535815
0.24600001 172945.17535782 7048.38095513
0.24700001 170627.76049291 8251.55888778
0.24800001 168335.76686248 6287.34118975
0.24900001 166068.05337536 6850.30752580
0.25000001 163826.41336337 8635.29065690
0.25100001 161608.17152406 7330.54700713
0.25200001 159415.98544295 6654.82062715
0.25300001 157247.34845537 8986.68638939
0.25400001 155102.04199706 8305.71474190
0.25500001 152979.81940857 8811.63801483
0.25600001 150881.24562038 6979.76675263
0.25700001 148804.70263305 6334.61649080
0.25800001 146751.71516824 6271.43484444
0.25900001 144720.67987273 6772.92813850
0.26000001 142711.78657694 6704.60005062
0.26100001 140724.12729814 5530.45846450
0.26200001 138758.99845030 7116.25557224
0.26300001 136814.30202125 5417.84661640
0.26400001 134891.19062728 5898.11758927
0.26500001 132989.37017734 6367.53134540
0.26600001 131107.15125814 6301.00998763
0.26700001 129246.63493942 6234.85796451
0.26800001 127406.54143649 5140.85419023
0.26900001 125585.20297049 6612.06124929
0.27000001 123784.84951163 5031.85437077
0.27100001 122003.60018073 6471.07125982
0.27200001 120243.43227845 5908.76254179
0.27300001 118501.50940391 7792.65962718
0.27400001 116777.06715699 5780.46509783
0.27500001 115074.50446175 5716.90165221
0.27600001 113388.38133341 4711.28746737
0.27700001 111722.88146554 5590.61325312
0.27800001 110074.69531826 5988.61408221
0.27900001 108446.14375354 6376.63355450
0.28000001 106834.38177127 6304.29716669
0.28100001 105241.56357197 6677.57752468
0.28200001 103667.21396587 4840.74078525
0.28300001 102110.25944925 5219.87671010
0.28400001 100570.94077784 6449.11188262
0.28500001 99049.48331666  5948.91224957
0.28600001 97545.52784472  4619.26868973
0.28700001 96058.74957399  4149.73817801
0.28800001 94588.56835849  6150.62194864
0.28900001 93137.35937557  4861.77038953
0.29000001 91701.50076962  6004.15604709
0.29100001 90283.64101786  5140.75076289
0.29200001 88882.22916013  6640.83606605
0.29300001 87497.78738329  5787.97890938
0.29400001 86129.13535104  4192.33586166
0.29500001 84778.15034080  4516.98006398
0.29600001 83442.79826525  4832.58989029
0.29700001 82124.01653633  5506.41556942
0.29800001 80821.21886608  4712.28138906
0.29900001 79535.25050185  4294.90373042
0.30000001 78264.53449586  4947.10145968
0.30100001 77010.73514275  5930.59699410
0.30200001 75771.25315221  3443.80361880
0.30300001 74548.88407192  4419.25805700
0.30400001 73342.14921331  5033.10522804
0.30500001 72150.77008151  4636.40870494
0.30600001 70973.93682070  4902.52491799
0.30700001 69813.69376410  4515.54992644
0.30800001 68668.34406245  3819.33347757
0.30900001 67538.32718073  3768.63883511
0.31000001 66423.70643693  4338.13247278
0.31100001 65323.19495241  3362.83823536
0.31200001 64238.60874719  3317.60310582
0.31300001 63168.22380919  3867.79052696
0.31400001 62113.86476810  4402.32037387
0.31500001 61072.98040060  3184.34534886
0.31600002 60047.32921702  3140.77570340
0.31700002 59036.12837050  3097.62580227
0.31800002 58039.45459658  2777.18803394
0.31900002 57057.18736143  3286.49414763
0.32000002 56089.59653985  2970.78562140
0.32100002 55135.29814537  3994.55253977
0.32200002 54196.52313385  2888.40383719
0.32300002 53269.94030702  4142.27075441
0.32400002 52358.15275219  2807.70607428
0.32500002 51460.07833165  3522.95712940
0.32600002 50576.21995822  2976.91644770
0.32700002 49705.34879113  3179.15425922
0.32800002 48848.81923038  2651.75827749
0.32900002 48005.08714110  2613.87711861
0.33000002 47175.75914451  2576.50420769
0.33100002 46357.26607703  2308.59195996
0.33200002 45554.93631765  2503.01609450
0.33300002 44764.26368274  3364.03457506
0.33400002 43987.14265306  2652.42482759
0.33500002 43221.81644818  2178.37965215
0.33600002 42470.53832485  2576.26297679
0.33700002 41730.73252048  2750.47271068
0.33800002 41004.70272791  2502.10707895
0.33900002 40290.00366884  3287.66445507
0.34000002 39588.40548184  2227.44173992
0.34100002 38898.75725502  2594.15824419
0.34200002 38222.03993219  2163.17645241
0.34300002 37556.10922934  2131.68486081
0.34400002 36903.72467212  2864.65176334
0.34500002 36262.08932841  2070.20277780
0.34600002 35633.31059273  2596.59946587
0.34700002 35014.40116044  2010.52700985
0.34800002 34408.76461024  2161.55869519
0.34900002 33813.68745273  2662.82801302
0.35000002 33230.17514277  2449.39632578
0.35100002 32658.35595152  2241.66965868
0.35200002 32096.36176716  2719.20389770
0.35300002 31545.86061190  1675.08527783
0.35400002 31006.68820698  2146.43809279
0.35500002 30478.12550237  2278.54477048
0.35600002 29959.41184156  1604.32658010
0.35700002 29451.58477540  2056.01523055
0.35800002 28954.78449450  1559.21521888
0.35900002 28468.00102199  2152.18097920
0.36000002 27991.72437945  2122.05272572
0.36100002 27524.61834049  1793.50421602
0.36200002 27068.80581586  1916.06551043
0.36300002 26621.51884752  1744.24199751
0.36400002 26184.16678425  1576.94151928
0.36500002 25756.24068255  1696.82121654
0.36600002 25338.28589012  1534.35997476
0.36700002 24929.00810756  1376.08131272
0.36800002 24530.46204083  1765.08947976
0.36900002 24139.95908089  1607.72135094
0.37000002 23758.13273310  1983.21022384
0.37100002 23385.22464597  1826.85383588
0.37200002 23021.86253408  1545.68792376
0.37300002 22666.50315160  1780.22724186
0.37400002 22319.69674411  1506.57960160
0.37500002 21981.82148425  2231.59462279
0.37600002 21652.11306478  1469.31246218
0.37700002 21330.18229396  1209.42139336
0.37800002 21016.34079207  1433.73483675
0.37900002 20711.03059467  1298.58167980
0.38000002 20413.27808325  1749.92834659
0.38100002 20122.42416559  1614.22094303
0.38200002 19840.10845092  1481.75856985
0.38300002 19564.52000055  1352.29968650
0.38400002 19297.31437970  2117.39792062
0.38500002 19035.93579715  1653.27110231
0.38600002 18783.02232170  1308.42539692
0.38700002 18536.33322471  1402.45903822
0.38800002 18296.70901335  1921.70343871
0.38900002 18063.37265297  1268.04882031
0.39000002 17837.82860763  1464.66417636
0.39100002 17617.71877351  1553.88286944
0.39200002 17404.66168413  1128.60534038
0.39300002 17197.57205628  1422.92717935
0.39400002 16998.01504970  1309.27217123
0.39500002 16803.31853278  1097.92888495
0.39600002 16614.73605406  1088.34833678
0.39700002 16432.01662462  1275.28887066
0.39800002 16255.30455097  1070.16802582
0.39900002 16084.10823653  1061.55119391
0.40000002 15918.29387143  1244.73104825
0.40100002 15758.31893354  1235.29467973
0.40200002 15603.90030240  1320.55814516
0.40300002 15454.04027287  1217.46935038
0.40400002 15309.86192247  1395.11123379
0.40500002 15170.69469535  1478.23256115
0.40600002 15036.48060451  1009.77490284
0.40700002 14907.03366798  1094.77260445
0.40800002 14782.60964075  1178.98708776
0.40900002 14662.44420022  991.91439714
0.41000002 14547.38393221  1165.90014049
0.41100002 14436.44491246  1338.25850680
0.41200002 14329.61494199  887.71968772
0.41300002 14227.86413438  971.90544507
0.41400002 14129.68824316  1231.40238874
0.41500002 14035.90949902  1051.00895309
0.41600002 13945.55490840  1133.98285111
0.41700002 13859.53929571  1216.59041702
0.41800002 13778.26291160  1125.75302453
0.41900002 13698.75424787  1035.62587021
0.42000002 13624.21897633  860.36946912
0.42100002 13553.39358802  857.92985477
0.42200002 13486.19474724  941.26900699
0.42300002 13421.71649999  938.98333083
0.42400002 13360.54983653  1277.60263866
0.42500002 13303.02730819  1020.07618233
0.42600002 13247.80291881  1187.93054402
0.42700002 13196.96095233  847.24493329
0.42800002 13148.10338047  1099.90464041
0.42900002 13103.40634602  1267.75462405
0.43000002 13060.89268968  1097.70277812
0.43100002 13020.31201640  1518.68926556
0.43200002 12983.53968143  843.28094227
0.43300002 12949.13884702  842.98897889
0.43400002 12917.37129391  927.14436856
0.43500002 12887.84547172  842.86513379
0.43600002 12861.15047722  1011.65814448
0.43700002 12836.23054737  1433.67865778
0.43800002 12813.61335007  928.15412700
0.43900002 12793.89003227  928.83646036
0.44000002 12775.80343557  845.11943731
0.44100002 12760.17593924  930.59967535
0.44200002 12746.41535557  931.69927457
0.44300002 12734.62460284  1102.56385036
0.44400002 12725.25772767  934.35209293
0.44500002 12716.35467006  1020.86900129
0.44600002 12709.71662479  1278.27981012
0.44700002 12705.90851976  1024.60451159
0.44800002 12702.10371249  1026.58407069
0.44900002 12701.60733801  1371.77365752
0.45000002 12702.06839513  1117.08345795
0.45100002 12703.68310028  861.30975502
0.45200002 12707.07289973  1467.85759558
0.45300002 12711.54530342  1385.05004190
0.45400002 12717.68704210  954.78039994
0.45500002 12725.19022121  1131.52396810
0.45600002 12733.72340697  1309.34517138
0.45700002 12743.63103184  1138.13374139
0.45800002 12754.18102114  1317.18810738
0.45900002 12766.09361368  1057.03260131
0.46000002 12779.76435183  1148.83697086
0.46100002 12793.24353915  1063.88618314
0.46200002 12808.71326595  1067.47821418
0.46300002 12825.01308395  1071.14514354
0.46400002 12841.43870598  895.69039219
0.46500002 12859.32404064  1078.64015165
0.46600002 12877.73653372  1262.91968172
0.46700002 12896.66809406  1176.94998605
0.46800002 12917.28193574  999.60390997
0.46900002 12937.51435532  1276.93272739
0.47000002 12958.69323297  1281.74440842
0.47100002 12980.60424472  919.02682409
0.47200002 13003.25720915  1014.83925699
0.47300002 13026.44392554  926.18020700
0.47400002 13049.50034979  929.77694399
0.47500002 13073.39788416  1026.78471849
0.47600002 13098.31048534  1218.33940754
0.47700002 13122.64374965  1034.98296159
