# SAXS profile: number of points = 501, q_min = 0, q_max = 0.5, delta_q = 0.001
#    q    intensity    error
0.00000000 1646666.22097350 395.19989303
0.00100000 1646580.61848415 493.97419728
0.00200000 1646323.77738293 1185.35315725
0.00300000 1645895.92037579 1283.79886363
0.00400000 1645296.90159794 1850.95908463
0.00500000 1644527.39504000 2072.10459977
0.00600000 1643587.22143444 2070.91998332
0.00700000 1642477.13666302 2168.06991050
0.00800000 1641196.92355768 3323.42391052
0.00900000 1639747.95794552 2459.62204206
0.01000000 1638129.64116170 4054.37103694
0.01100000 1636343.61360231 3534.50235927
0.01200000 1634389.63866825 3505.76592865
0.01300000 1632269.11505508 4113.31835136
0.01400000 1629982.22589704 3667.46017085
0.01500000 1627530.45550243 4687.28792057
0.01600000 1624913.54193036 5800.94160401
0.01700000 1622133.59293313 6569.64134608
0.01800000 1619191.19530922 6460.57315999
0.01900000 1616087.09015375 6787.56608492
0.02000000 1612822.36199879 7112.54693816
0.02100000 1609399.45843148 9559.83321651
0.02200000 1605817.12862177 6648.08321453
0.02300000 1602078.41896196 6920.97908495
0.02400000 1598184.02472726 7791.14747580
0.02500000 1594136.19963381 7460.55775501
0.02600000 1589935.33489854 6439.23840086
0.02700000 1585583.36099192 9323.23058965
0.02800000 1581080.70907333 10316.55209982
0.02900000 1576430.72540196 8512.72630803
0.03000000 1571634.13036851 10231.33865899
0.03100000 1566692.42750155 7520.12399803
0.03200000 1561606.76264704 10048.93998047
0.03300000 1556381.25478627 8731.29924187
0.03400000 1551014.45758725 8957.10890585
0.03500000 1545510.54466215 10849.48452454
0.03600000 1539869.98858863 10255.53459795
0.03700000 1534095.79954484 12242.08504653
0.03800000 1528189.44320483 10727.89038778
0.03900000 1522153.45816359 10046.21328912
0.04000000 1515987.88765433 10255.65853522
0.04100000 1509697.00791836 10462.20074997
0.04200000 1503282.09353053 9696.16995310
0.04300000 1496745.00470246 10866.36923853
0.04400000 1490088.39781142 15087.14572852
0.04500000 1483314.85315627 12281.84755481
0.04600000 1476424.86203913 12490.55491350
0.04700000 1469422.39982172 13753.79430199
0.04800000 1462309.02247050 16121.95772286
0.04900000 1455087.44740933 13095.78763626
0.05000000 1447759.26966718 13290.43071443
0.05100000 1440328.48123040 12358.01894464
0.05200000 1432794.40994951 14807.93091690
0.05300000 1425162.25444384 18470.10367863
0.05400000 1417432.87926644 18710.11487884
0.05500000 1409610.30652723 11840.72712719
0.05600000 1401694.64945031 17976.73471807
0.05700000 1393691.56293646 14550.14059624
0.05800000 1385600.01927489 15941.32896610
0.05900000 1377423.89150435 18595.22340381
0.06000000 1369167.22511633 15033.45683412
0.06100000 1360830.81523120 12655.72717307
0.06200000 1352417.81878757 14058.38388344
0.06300000 1343931.38083829 15482.09023113
0.06400000 1335370.92988995 16925.82732792
0.06500000 1326742.93166364 17075.18232925
0.06600000 1318048.39927541 13246.38703250
0.06700000 1309288.48468138 16025.69180249
0.06800000 1300467.70918995 16151.80970419
0.06900000 1291589.25569024 17630.19416560
0.07000000 1282652.96066240 16392.30560489
0.07100000 1273663.03347273 13755.56140579
0.07200000 1264621.29431077 18001.88496784
0.07300000 1255531.38165101 13936.39898932
0.07400000 1246396.12691987 14021.95708498
0.07500000 1237216.00289830 15514.68940356
0.07600000 1227994.12220252 15601.66605400
0.07700000 1218734.70672512 17111.03608473
0.07800000 1209438.72304846 15765.03449426
0.07900000 1200107.74914123 15841.42303169
0.08000000 1190747.59781500 18807.85918978
0.08100000 1181358.31716735 20342.99117608
0.08200000 1171941.66819904 17508.80934450
0.08300000 1162500.97835984 23436.02082363
0.08400000 1153039.57772864 14701.25530610
0.08500000 1143558.85829910 16227.10096105
0.08600000 1134061.54419444 16279.45423126
0.08700000 1124549.70108616 19297.27377679
0.08800000 1115025.19093694 19351.26309752
0.08900000 1105491.41876078 16416.54833968
0.09000000 1095950.33207595 16455.69500913
0.09100000 1086403.52599866 19490.08017208
0.09200000 1076853.48976546 18026.52826568
0.09300000 1067304.02718813 18058.78498864
0.09400000 1057753.89174511 18087.59239891
0.09500000 1048207.64224278 21131.86706087
0.09600000 1038666.58286146 15112.59949104
0.09700000 1029135.56234795 18153.95217329
0.09800000 1019613.17382853 15141.25634326
0.09900000 1010103.76455566 18181.86861696
0.10000000 1000606.38549972 16675.10619854
0.10100000 991125.08273737 21229.90027071
0.10200000 981661.74881332 19716.67715232
0.10300000 972217.93864073 16683.26061187
0.10400000 962796.00738154 18196.84539558
0.10500000 953399.25014781 18190.85854869
0.10600001 944024.08387212 19697.06343681
0.10700001 934678.41616801 19684.32837080
0.10800001 925359.62564689 25720.37200530
0.10900001 916072.37093374 16626.71431499
0.11000001 906817.27256765 24157.61327829
0.11100001 897594.77912077 22619.38949861
0.11200001 888408.73271541 18070.23447413
0.11300001 879258.42382267 16538.85173077
0.11400001 870146.75373723 15010.03220871
0.11500001 861075.17480210 17979.25049647
0.11600001 852045.11051248 17944.07087241
0.11700001 843057.41044943 17906.54024125
0.11800001 834113.22410628 17866.70610185
0.11900001 825213.67329794 14853.84681900
0.12000001 816360.34117249 20743.71724632
0.12100001 807556.31833347 19211.76571818
0.12200001 798800.74412385 16211.66186575
0.12300001 790095.62090842 16165.35716541
0.12400001 781441.37761522 16117.22917272
0.12500001 772838.72905094 27752.64006794
0.12600001 764291.12512013 17471.69594357
0.12700001 755796.88080566 18864.69103393
0.12800001 747358.15502748 17353.65717760
0.12900001 738975.92106415 14410.03113993
0.13000001 730651.06944074 18664.48244861
0.13100001 722383.35415189 15733.51019507
0.13200001 714174.63320681 21371.67690618
0.13300001 706026.46154516 15610.24580068
0.13400001 697937.82967418 18373.21423239
0.13500001 689910.81944204 16889.01765623
0.13600001 681944.94897286 15415.36629838
0.13700001 674042.14119633 15347.94027875
0.13800001 666201.10200123 18057.38172125
0.13900001 658424.62639440 13826.91780633
0.14000001 650711.93442781 13762.55806220
0.14100001 643063.57913344 13697.25488155
0.14200001 635479.84071377 16357.25187147
0.14300001 627962.67061691 24415.18978519
0.14400001 620508.80085448 14845.67376071
0.14500001 613122.95859859 17455.61145472
0.14600001 605802.95806206 13357.95585542
0.14700001 598551.55962685 14616.62977565
0.14800001 591363.67390865 13216.97873542
0.14900001 584244.72214046 13145.50686838
0.15000001 577192.49373635 22224.79801995
0.15100001 570208.04332042 13000.74400115
0.15200001 563291.41216799 14220.29237119
0.15300001 556443.38126763 14139.22698523
0.15400001 549660.89414503 28115.15606230
0.15500001 542947.75154400 19057.46697857
0.15600001 536300.07556128 16418.82758819
0.15700001 529723.65654535 15065.34150319
0.15800001 523211.14090612 18717.87944938
0.15900001 516768.71970607 14882.93983002
0.16000001 510391.47050398 20954.12281063
0.16100001 504084.66944428 13474.18385028
0.16200001 497843.45628975 13389.50038898
0.16300001 491669.51204114 15723.59173735
0.16400001 485562.41776858 13219.43744783
0.16500001 479521.70396760 17910.13648875
0.16600001 473548.13895139 14234.85772895
0.16700001 467639.36857414 11784.51264447
0.16800001 461795.83381560 14047.82992796
0.16900001 456020.17460805 17442.77250237
0.17000001 450308.06564472 15015.52315795
0.17100001 444660.74793128 14913.92218987
0.17200001 439078.82753084 13672.91533499
0.17300001 433560.56536603 11315.93129044
0.17400001 428106.14484568 14609.12288279
0.17500001 422715.12126202 12275.64770120
0.17600001 417385.58504160 13297.90536747
0.17700001 412120.28883339 14304.69590103
0.17800001 406915.41413958 16388.51907854
0.17900001 401772.89495620 10847.86867620
0.18000001 396691.34519659 15078.23874314
0.18100001 391671.87244563 12831.17114742
0.18200001 386709.74366233 15922.77444745
0.18300001 381808.16669653 13699.27766822
0.18400001 376965.40050845 11506.86939411
0.18500001 372182.54594951 12460.67222706
0.18600001 367455.82158608 10307.13628243
0.18700001 362786.55135301 13299.75560095
0.18800001 358174.06035781 11169.65859998
0.18900001 353619.47805944 13101.60228112
0.19000001 349116.77754838 13002.85499416
0.19100001 344673.66907999 10919.26235239
0.19200001 340281.71258300 9851.15604476
0.19300001 335946.16553886 12708.84404286
0.19400001 331661.62575866 14551.65451778
0.19500001 327430.98586589 10589.11858329
0.19600001 323252.17752984 10507.31252714
0.19700001 319124.52596572 10425.79875600
0.19800001 315048.20347186 12225.44611349
0.19900001 311022.51751281 10263.74356299
0.20000001 307044.95802611 10183.14651420
0.20100001 303118.25971334 12858.27718475
0.20200001 299238.19239344 10022.98372794
0.20300001 295407.68371036 11751.31821342
0.20400001 291623.63222670 9864.16982631
0.20500001 287885.83011695 8895.67257108
0.20600001 284194.33414518 13236.35173847
0.20700001 280548.46130610 8753.11240650
0.20800001 276946.25528040 10418.71861614
0.20900001 273390.43100116 10334.15878035
0.21000001 269876.39957654 11104.06498549
0.21100001 266405.95854972 8471.70988237
0.21200001 262977.50995727 10082.55820841
0.21300001 259590.25417776 8332.84755305
0.21400001 256245.25074597 8263.90972725
0.21500001 252941.46833648 9834.36475387
0.21600001 249676.73544500 11377.76937215
0.21700001 246451.89377644 10476.67049977
0.21800001 243266.04374949 10388.67688950
0.21900001 240117.40376430 7923.87469887
0.22000001 237006.76556424 8642.45211494
0.22100001 233934.65056692 8569.02665544
0.22200001 230899.33968906 8495.94160559
0.22300001 227898.80311256 10720.36020533
0.22400001 224933.67629245 8350.66312723
0.22500001 222005.96650585 9031.20314452
0.22600001 219110.55361670 8952.85764414
0.22700001 216251.42376431 7395.79904248
0.22800001 213424.82095597 12462.94300910
0.22900001 210630.29445274 7993.42005250
0.23000001 207869.74289153 10804.03039773
0.23100001 205141.91444355 7852.83285628
0.23200001 202444.13750648 9198.04982262
0.23300001 199778.14461939 10518.31981167
0.23400001 197143.87896105 9034.11868066
0.23500001 194537.93935468 8952.63639253
0.23600001 191963.62853681 8189.16878070
0.23700001 189418.03934564 8790.89162182
0.23800001 186901.57634290 8710.54837746
0.23900001 184413.48961766 9294.44031635
0.24000001 181953.56831522 6577.62180572
0.24100001 179522.59662585 7820.00467892
0.24200001 177118.33027783 8392.75247721
0.24300001 174741.49078431 7674.64663828
0.24400001 172390.64694488 8869.49920487
0.24500001 170066.26117973 8785.62346814
0.24600001 167768.20332391 9323.71834079
0.24700001 165495.90038563 7387.73734270
0.24800001 163248.59712035 6097.33539089
0.24900001 161025.46230580 6642.30063434
0.25000001 158827.98229562 5979.87381633
0.25100001 156653.66205559 5921.50870584
0.25200001 154505.09468528 7036.16234485
0.25300001 152379.81099978 8708.50661064
0.25400001 150277.45065145 7472.54658718
0.25500001 148197.98377396 6259.88313078
0.25600001 146141.90977746 7887.27924386
0.25700001 144107.47238342 7250.04727863
0.25800001 142096.44921601 7176.58150721
0.25900001 140107.11841850 6557.01345223
0.26000001 138139.65524183 8112.25163791
0.26100001 136192.94886827 5352.38314378
0.26200001 134268.65902906 9004.72804386
0.26300001 132364.59430987 7862.45727404
0.26400001 130481.65600122 5705.31067862
0.26500001 128619.83397891 6158.31794232
0.26600001 126777.38317401 6600.66476730
0.26700001 124956.32352264 5525.56888764
0.26800001 123155.50344967 5963.18975922
0.26900001 121373.17609181 4915.61386433
0.27000001 119611.55277549 5348.43083546
0.27100001 117868.78080471 5289.95113285
0.27200001 116146.68751119 6183.06920226
0.27300001 114442.73067181 7055.39467981
0.27400001 112755.99498406 4651.18501321
0.27500001 111090.94975371 6438.83175244
0.27600001 109442.16364179 5002.05432597
0.27700001 107813.47902820 4945.40451707
0.27800001 106202.06232683 4444.55651873
0.27900001 104610.14199217 5272.35140593
0.28000001 103034.62530259 4777.20062825
0.28100001 101477.86422497 4721.76524586
0.28200001 99939.43640701  4242.42927627
0.28300001 98417.97757144  5031.12725158
0.28400001 96913.92926679  7043.22014283
0.28500001 95427.71889284  7778.31373511
0.28600001 93958.55337796  4449.40750581
0.28700001 92506.51844826  4795.53814334
0.28800001 91070.89367160  5132.30045579
0.28900001 89653.85973682  5069.92600810
0.29000001 88252.06496481  5007.86366347
0.29100001 86867.96593012  4185.29879662
0.29200001 85500.25308671  4885.05719134
0.29300001 84149.20892960  5566.47043419
0.29400001 82813.75375337  5496.76316558
0.29500001 81495.79027383  4342.09591133
0.29600001 80193.27382613  3929.87156988
0.29700001 78907.06863807  4585.28997562
0.29800001 77636.66357928  3482.00452636
0.29900001 76382.85509544  4812.12009881
0.30000001 75144.13023728  4071.30916899
0.30100001 73922.22479584  4018.41233013
0.30200001 72714.22802992  3635.34800246
0.30300001 71523.38884724  3913.76002300
0.30400001 70347.99023645  3540.26277625
0.30500001 69187.61859611  3810.85421269
0.30600001 68041.63753972  4073.31282416
0.30700001 66912.14772296  4018.74378250
0.30800001 65797.22951974  5184.49294546
0.30900001 64697.68689450  3610.13109963
0.31000001 63613.22932388  4451.33593269
0.31100001 62542.75090399  2927.00088089
0.31200001 61487.91481216  3175.54351082
0.31300001 60447.07613757  3701.17464714
0.31400001 59422.14392428  3369.23572003
0.31500001 58410.75344309  3876.13778201
0.31600002 57414.23125881  3003.05150818
0.31700002 56432.07848066  2691.81027098
0.31800002 55464.13004478  3184.75049796
0.31900002 54510.57306022  3139.80915694
0.32000002 53571.34089348  4900.97435370
0.32100002 52645.51562649  3051.33423019
0.32200002 51734.79415355  2757.20598497
0.32300002 50836.43547037  2964.78105702
0.32400002 49952.40823651  2435.18001684
0.32500002 49081.97001675  2400.10844747
0.32600002 48225.69540125  2365.47047144
0.32700002 47382.22408241  3030.56719582
0.32800002 46552.99407745  2756.86843981
0.32900002 45736.35462537  3622.31945786
0.33000002 44933.99647348  3123.36224278
0.33100002 44142.17795919  2637.93667976
0.33200002 43366.67056556  2599.39835679
0.33300002 42602.54925842  3415.02051027
0.33400002 41851.69353929  2313.35246993
0.33500002 41112.69614178  2486.49598041
0.33600002 40387.40952178  2654.05874241
0.33700002 39673.61447998  2011.45234939
0.33800002 38973.32355293  2179.97295617
0.33900002 38284.39781622  2147.75481920
0.34000002 37608.28909543  2116.03048617
0.34100002 36944.03143498  2084.75179261
0.34200002 36292.46978559  1867.24765890
0.34300002 35651.76308940  1839.63106254
0.34400002 35024.19331038  1993.75229862
0.34500002 34407.57673822  1964.32864902
0.34600002 33803.49466077  2815.15516868
0.34700002 33209.21733722  2253.57759524
0.34800002 32627.92445603  2049.68631140
0.34900002 32057.22655920  2187.90581629
0.35000002 31497.75064575  2155.86364505
0.35100002 30950.08679389  1960.99759214
0.35200002 30411.90011577  2415.46528110
0.35300002 29885.21593089  2062.97655342
0.35400002 29369.68718429  2189.51028329
0.35500002 28864.63476357  1695.50872632
0.35600002 28369.20032835  1671.08782449
0.35700002 27884.75643498  2096.37608808
0.35800002 27411.11711619  1623.69759928
0.35900002 26947.33428571  2328.24979256
0.36000002 26493.77733204  1721.56573258
0.36100002 26049.53325136  1555.93869480
0.36200002 25616.19129725  1394.80168220
0.36300002 25191.43138856  1650.54266276
0.36400002 24776.40961092  1356.50849045
0.36500002 24370.77858326  1605.54696912
0.36600002 23974.86035773  1583.77935025
0.36700002 23587.58217587  1822.84843690
0.36800002 23210.86235927  1541.66555093
0.36900002 22842.02960646  1394.50597353
0.37000002 22481.80981640  1501.33533066
0.37100002 22130.28546255  1481.84398477
0.37200002 21788.17633056  2316.19219454
0.37300002 21454.06867336  1323.93064055
0.37400002 21128.27738029  1188.46565894
0.37500002 20811.30446736  1643.26067859
0.37600002 20502.51468738  1275.35898654
0.37700002 20201.19390268  1145.40774854
0.37800002 19907.75994080  1244.93182687
0.37900002 19622.81881344  1230.35079789
0.38000002 19345.38184249  1437.26521208
0.38100002 19074.67865393  1530.17079411
0.38200002 18812.34687017  1296.92325467
0.38300002 18556.61345336  1282.63318266
0.38400002 18309.10638684  1268.82113272
0.38500002 18067.38619535  1673.76273643
0.38600002 17833.83030144  1242.30467765
0.38700002 17606.56657980  1639.52355758
0.38800002 17386.10548245  1115.92723326
0.38900002 17171.79835849  1105.00527672
0.39000002 16965.19234025  1194.01029347
0.39100002 16763.91471490  1182.86187832
0.39200002 16569.46375404  1465.15490186
0.39300002 16381.02126177  968.11840244
0.39400002 16199.76463193  1151.80331990
0.39500002 16023.24841472  1332.49340130
0.39600002 15852.80510576  1038.43804765
0.39700002 15688.06365026  936.57744429
0.39800002 15529.19244493  1487.07553898
0.39900002 15375.72830105  1014.79811595
0.40000002 15227.40390655  1373.89258256
0.40100002 15084.84443195  1091.53939481
0.40200002 14947.63290140  993.94289687
0.40300002 14814.86701885  1077.33718065
0.40400002 14687.64266451  1070.72920097
0.40500002 14565.44919529  1330.55384703
0.40600002 14447.93360649  1146.66030501
0.40700002 14334.97245912  877.30035607
0.40800002 14226.93013069  960.10442536
0.40900002 14123.05009413  955.42438414
0.41000002 14024.09677666  1383.33697159
0.41100002 13929.17136402  1205.15196352
0.41200002 13838.17442637  1114.45743023
0.41300002 13752.07102401  1366.40584169
0.41400002 13669.36215721  936.00961807
0.41500002 13591.02093980  932.88772151
0.41600002 13515.96108403  845.42340587
0.41700002 13444.99519875  1264.50185836
0.41800002 13378.68860684  1429.44605193
0.41900002 13313.96141942  1090.41349192
0.42000002 13253.95353710  1004.38464663
0.42100002 13197.74831642  918.95925882
0.42200002 13144.84783049  917.44469780
0.42300002 13094.59260310  1499.06903224
0.42400002 13047.40306891  1081.30358057
0.42500002 13003.80025815  830.94287587
0.42600002 12962.30706974  1079.30654931
0.42700002 12925.12072900  912.77206913
0.42800002 12889.60743808  912.39090574
0.42900002 12858.27221494  1326.97375546
0.43000002 12828.81540945  995.25954663
0.43100002 12801.19874636  1161.32480530
0.43200002 12777.26267802  1161.83655037
0.43300002 12755.56500914  913.42605359
0.43400002 12736.22484122  1163.45419438
0.43500002 12719.16235795  1081.38323492
0.43600002 12704.58978722  999.34308002
0.43700002 12691.71580481  917.23034468
0.43800002 12680.99609712  1169.06108559
0.43900002 12673.01070635  836.41874626
0.44000002 12666.47507895  921.67610280
0.44100002 12662.27440871  1007.41059970
0.44200002 12659.73034172  925.36303318
0.44300002 12659.09090497  1096.02414249
0.44400002 12660.64086119  1014.11738104
0.44500002 12662.50932744  1101.25848840
0.44600002 12666.57903571  1019.15299751
0.44700002 12673.20810840  1107.13151282
0.44800002 12679.77763732  1366.37290295
0.44900002 12689.49991453  1370.46605572
0.45000002 12699.88287338  945.06182881
0.45100002 12711.36563608  948.01369407
0.45200002 12724.37618288  1124.00782338
0.45300002 12738.42505663  1214.48150246
0.45400002 12754.02017521  1131.60049368
0.45500002 12770.70593000  873.51632701
0.45600002 12788.33100636  964.30414524
0.45700002 12807.07624840  1847.67697792
0.45800002 12826.44046567  1148.03060829
0.45900002 12846.95868640  886.44019137
0.46000002 12869.04295293  1067.87323485
0.46100002 12890.88591807  1072.00612375
0.46200002 12914.44656667  1255.67169919
0.46300002 12938.71232869  1260.74818906
0.46400002 12962.96839581  1265.83392385
0.46500002 12988.53429148  1089.47830801
0.46600002 13014.47479683  911.66400273
0.46700002 13040.80985394  915.46489514
0.46800002 13068.61552733  1287.12800429
0.46900002 13095.91249159  1015.58806186
0.47000002 13123.99305110  1205.37319891
0.47100002 13152.74357992  1489.94286335
0.47200002 13181.92494946  1122.30914339
0.47300002 13211.55938687  1033.27610862
0.47400002 13240.93439649  1037.75828251
0.47500002 13271.03332666  1042.30700688
0.47600002 13301.84943646  1046.92210952
0.47700002 13332.08632288  1338.27488852
