# SAXS profile: number of points = 501, q_min = 0, q_max = 0.5, delta_q = 0.001
#    q    intensity    error
0.00000000 1664650.74656090 299.63713438
0.00100000 1664564.77865309 549.30639000
0.00200000 1664306.83500847 748.93809947
0.00300000 1663877.14546722 1098.15895513
0.00400000 1663275.56253139 1247.45671930
0.00500000 1662502.75111033 1945.12829579
0.00600000 1661558.54927783 2093.56385732
0.00700000 1660443.70516472 2391.03903481
0.00800000 1659157.98260168 3583.78139373
0.00900000 1657702.79662646 3232.52059160
0.01000000 1656077.52527934 4098.79205205
0.01100000 1654283.83023932 3275.48212649
0.01200000 1652321.41455591 3544.22958961
0.01300000 1650191.75399283 3811.94311985
0.01400000 1647894.99442861 4078.54029202
0.01500000 1645432.66168526 4343.94242028
0.01600000 1642804.40602582 5445.89684943
0.01700000 1640012.42490075 6199.24724422
0.01800000 1637057.27056963 5598.73611728
0.01900000 1633939.69281904 6862.54701950
0.02000000 1630660.75964313 5650.23978776
0.02100000 1627222.96701479 6980.78684499
0.02200000 1623625.01132328 6721.80785227
0.02300000 1619870.00817013 5831.53229485
0.02400000 1615958.50758314 7877.79808368
0.02500000 1611892.95226628 8800.93592132
0.02600000 1607673.62224387 7813.29416147
0.02700000 1603302.46515339 8754.03186068
0.02800000 1598779.97646185 8345.63185986
0.02900000 1594109.45579408 10042.89003261
0.03000000 1589291.55111822 8129.22665763
0.03100000 1584327.88429061 9886.20645287
0.03200000 1579219.58188429 8598.85101941
0.03300000 1573970.82062790 8027.25155526
0.03400000 1568580.06347153 11529.06399847
0.03500000 1563051.34897499 10128.57320908
0.03600000 1557385.43268979 15558.28119158
0.03700000 1551585.18090594 8844.03594018
0.03800000 1545652.13101518 10850.47846188
0.03900000 1539588.78096652 10161.28642495
0.04000000 1533395.13566994 12259.49467777
0.04100000 1527075.45446745 10582.63339014
0.04200000 1520631.24960611 16673.72242547
0.04300000 1514064.08454470 13989.95279058
0.04400000 1507376.73462648 15262.19014690
0.04500000 1500571.90713219 13460.13063240
0.04600000 1493649.92755005 14742.32547024
0.04700000 1486614.80021286 13914.71517714
0.04800000 1479468.21206775 16311.13779697
0.04900000 1472212.67060163 16562.39331521
0.05000000 1464850.01413530 17929.76500794
0.05100000 1457384.09609438 14777.87542281
0.05200000 1449814.18914578 14983.83034309
0.05300000 1442145.69649641 18690.20909789
0.05400000 1434379.29109287 13016.99267370
0.05500000 1426519.08066870 16775.86517125
0.05600000 1418565.29721643 13341.60724290
0.05700000 1410523.38237861 12271.55399951
0.05800000 1402392.45157765 16134.52590876
0.05900000 1394176.31481683 17566.62238716
0.06000000 1385879.04565747 12680.79386020
0.06100000 1377501.47450340 17935.07003616
0.06200000 1369046.78656045 15524.99128529
0.06300000 1360518.06005047 14367.07138587
0.06400000 1351914.71518520 18453.63672529
0.06500000 1343243.25931092 15957.73066708
0.06600000 1334504.70609422 16094.12750852
0.06700000 1325700.31494477 16226.57261431
0.06800000 1316834.44887317 14992.16090219
0.06900000 1307910.48709914 17852.97898476
0.07000000 1298927.85138355 15216.94049154
0.07100000 1289891.24852149 18110.07397748
0.07200000 1280802.36262627 16829.74383333
0.07300000 1271664.75965100 14115.47949352
0.07400000 1262481.22255412 21304.37162901
0.07500000 1253252.39776748 20001.90920591
0.07600000 1243981.14882658 17241.57953103
0.07700000 1234671.96315089 26002.19276316
0.07800000 1225325.77855289 17424.13338815
0.07900000 1215944.16323728 21886.99596485
0.08000000 1206532.71945808 16125.31055201
0.08100000 1197091.66685805 17669.07383183
0.08200000 1187623.08340757 14785.90808226
0.08300000 1178129.67678867 16328.87808664
0.08400000 1168615.17378614 22349.76624773
0.08500000 1159080.92363846 14952.14461687
0.08600000 1149529.76121930 16501.50049707
0.08700000 1139963.43423475 18057.02164619
0.08800000 1130384.07774290 25654.06784919
0.08900000 1120794.99723858 21183.02644277
0.09000000 1111198.28956804 21235.00031117
0.09100000 1101595.43995338 15202.01778557
0.09200000 1091988.86866874 16756.56997706
0.09300000 1082382.47481492 19840.07169569
0.09400000 1072774.98541137 19873.15753873
0.09500000 1063171.10475613 18371.59755370
0.09600000 1053572.05679991 18395.36897645
0.09700000 1043982.48801379 19950.50628387
0.09800000 1034401.31281426 16896.94623928
0.09900000 1024832.65338360 23058.73578541
0.10000000 1015275.64091690 16919.56935156
0.10100000 1005734.55186529 16926.51330398
0.10200000 996211.11765628 20008.90123927
0.10300000 986706.55157356 18471.14751435
0.10400000 977223.82349116 20008.65872729
0.10500000 967765.64822916 20003.71689006
0.10600001 958328.83218638 18457.41417640
0.10700001 948921.45159424 18447.03388707
0.10800001 939540.51866809 16897.63702348
0.10900001 930190.80286432 16882.96386660
0.11000001 920872.81325042 16865.78636855
0.11100001 911587.23404007 22971.99937918
0.11200001 902337.78010427 16824.08870207
0.11300001 893123.86280268 18326.90252756
0.11400001 883948.23849733 22872.16174804
0.11500001 874812.62113115 19788.26242178
0.11600001 865718.09254294 18232.02388753
0.11700001 856665.72575091 19711.87927786
0.11800001 847656.50453712 19669.87011420
0.11900001 838691.79673731 19625.38896804
0.12000001 829773.17764606 25602.65260228
0.12100001 820903.56306009 25538.31104986
0.12200001 812082.11720533 22474.37365245
0.12300001 803310.96762977 25400.69399319
0.12400001 794590.42580657 23837.71389737
0.12500001 785921.31602520 16339.30493008
0.12600001 777306.99276548 16288.46880097
0.12700001 768746.14003065 17711.91190100
0.12800001 760240.38997311 19123.84791107
0.12900001 751790.92296017 19057.90079528
0.13000001 743398.68437464 18990.12028745
0.13100001 735063.43077121 14554.25661532
0.13200001 726787.00322808 20299.16195707
0.13300001 718571.12908692 15887.60841310
0.13400001 710414.41301146 20140.24955840
0.13500001 702319.40693781 18625.51155015
0.13600001 694285.20202569 15694.31773179
0.13700001 686314.14536796 17048.04417481
0.13800001 678404.55408161 15559.20918157
0.13900001 670559.51671161 19714.45072102
0.14000001 662778.23322014 18223.08838180
0.14100001 655061.02383336 16743.36055885
0.14200001 647408.39702646 19441.67507968
0.14300001 639822.35859405 13820.16359750
0.14400001 632299.50274501 17878.26928343
0.14500001 624844.45744849 23262.96024817
0.14600001 617455.25760578 25868.28923771
0.14700001 610134.58192344 13544.98835771
0.14800001 602877.48375508 14821.74363739
0.14900001 595689.02382146 20104.50550252
0.15000001 588567.34701025 15997.26124654
0.15100001 581513.50542441 14584.35940421
0.15200001 574527.40841862 14503.94510993
0.15300001 567610.02953422 17045.32999127
0.15400001 560757.88511516 18252.67002186
0.15500001 553975.27083077 12963.02194920
0.15600001 547257.95731379 14176.71805328
0.15700001 540612.00184664 15375.00605817
0.15800001 534029.98205906 17831.26194256
0.15900001 527517.87240116 20256.68725633
0.16000001 521071.10306828 13842.25450640
0.16100001 514694.81830388 21262.04394779
0.16200001 508384.15017383 12429.99305852
0.16300001 502140.64216128 16058.45849440
0.16400001 495964.07943064 14730.13385449
0.16500001 489853.89148946 12197.36247394
0.16600001 483811.04673745 12119.46729297
0.16700001 477832.85369413 14449.66617795
0.16800001 471920.24518660 13159.49665837
0.16900001 466075.32358524 15450.39770639
0.17000001 460294.07210392 14167.85220836
0.17100001 454577.70950833 12900.91600504
0.17200001 448926.62171242 17474.46957535
0.17300001 443339.59861897 11571.16407040
0.17400001 437816.45113636 13791.21886210
0.17500001 432356.49823397 14838.47572018
0.17600001 426958.32284366 13602.89280825
0.17700001 421624.57197612 12383.11426380
0.17800001 416351.07814665 20122.24855724
0.17900001 411140.28170129 15541.10338237
0.18000001 405990.34637921 17636.22147976
0.18100001 400902.80596843 10944.64711992
0.18200001 395872.64951480 17386.72758800
0.18300001 390903.36534720 11867.82673257
0.18400001 385992.70308910 11782.42781840
0.18500001 381142.37149467 15950.80900060
0.18600001 376348.12388753 13723.53498591
0.18700001 371611.52328610 10479.44545177
0.18800001 366931.81299632 11442.76912892
0.18900001 362310.29018889 12391.01250990
0.19000001 357740.66546897 14348.97876993
0.19100001 353230.85467400 12207.65891435
0.19200001 348772.27197277 12116.34930085
0.19300001 344370.36463830 11023.29589295
0.19400001 340019.58930405 12929.24549424
0.19500001 335722.89604506 13818.35505420
0.19600001 331478.20475168 11754.21769596
0.19700001 327284.96278201 9720.36385399
0.19800001 323143.15374690 11574.98831423
0.19900001 319052.03996845 11485.87398169
0.20000001 315009.50503382 12346.79813332
0.20100001 311017.81861640 11308.60841936
0.20200001 307073.06817529 11220.45044144
0.20300001 303177.96134679 12060.41987241
0.20400001 299329.63907097 11965.70288743
0.20500001 295527.80702078 9131.80966857
0.20600001 291772.47431650 10871.44290690
0.20700001 288062.94089594 10785.07701694
0.20800001 284397.18855879 10699.02273933
0.20900001 280778.31266664 10613.42072051
0.21000001 277201.23093564 11405.44518601
0.21100001 273668.06361883 8702.64483448
0.21200001 270177.05364937 10358.58872661
0.21300001 266727.45421466 10274.34202207
0.21400001 263320.34982104 11888.91435649
0.21500001 259954.82234606 8422.53664221
0.21600001 256628.55124798 10023.91168566
0.21700001 253342.40739621 12426.44567030
0.21800001 250095.43922866 9858.76268052
0.21900001 246886.07175381 9776.68890371
0.22000001 243714.75913683 11310.80250634
0.22100001 240582.32534155 8812.53099395
0.22200001 237487.04644189 8738.33628702
0.22300001 234426.67158463 10239.75749901
0.22400001 231401.96223439 7809.81659471
0.22500001 228415.04063976 7743.27024385
0.22600001 225460.66144181 9212.32306215
0.22700001 222542.93371881 9133.16243172
0.22800001 219657.69648290 11317.86334650
0.22900001 216805.08050455 9723.70832047
0.23000001 213986.66664698 7414.63834997
0.23100001 211201.24134858 8819.76425583
0.23200001 208446.02550219 10199.26451018
0.23300001 205723.10898342 9387.14590687
0.23400001 203032.08086776 14313.76237815
0.23500001 200369.55369491 8511.69904353
0.23600001 197739.15789973 7732.59013540
0.23700001 195137.64025785 9056.33831271
0.23800001 192565.50721808 8974.51588838
0.23900001 190022.13237530 6840.79708908
0.24000001 187507.18331626 6778.38499750
0.24100001 185021.49916679 7387.90881119
0.24200001 182562.75128215 9981.61889850
0.24300001 180131.76877368 7252.10535387
0.24400001 177727.18244781 6531.47426392
0.24500001 175349.16286114 8411.49974035
0.24600001 172997.97108122 7050.53264494
0.24700001 170672.69021448 7618.82925159
0.24800001 168372.82646500 8804.21551235
0.24900001 166097.36355984 7474.38171379
0.25000001 163847.84837478 8636.42049641
0.25100001 161621.79524802 9774.88663904
0.25200001 159421.89458523 9075.09177860
0.25300001 157245.49410367 7189.26433055
0.25400001 155092.38784577 9491.65458522
0.25500001 152962.45722986 8810.63795329
0.25600001 150856.17403816 7560.15751961
0.25700001 148772.02424205 8060.46865480
0.25800001 146711.42694166 5699.73920636
0.25900001 144672.83587768 6770.68903943
0.26000001 142656.46677051 7260.50121982
0.26100001 140661.27506769 9397.58023193
0.26200001 138688.72739074 6565.52466534
0.26300001 136736.61705230 6497.72434978
0.26400001 134806.16193240 6430.25422844
0.26500001 132896.99775860 6363.10855378
0.26600001 131007.60582175 6820.91131987
0.26700001 129139.82784833 6748.84772271
0.26800001 127292.57225270 6163.50664014
0.26900001 125464.26195223 7113.82398933
0.27000001 123656.88784673 5529.31800173
0.27100001 121868.74786891 5469.46966319
0.27200001 120101.65386721 5409.97925447
0.27300001 118352.98012347 6323.60002726
0.27400001 116621.75671731 7697.03630760
0.27500001 114912.52146426 7611.80578202
0.27600001 113219.89340923 4704.28679379
0.27700001 111547.84110966 5116.69971386
0.27800001 109893.26910551 5058.93688270
0.27900001 108258.41110747 6365.59487439
0.28000001 106640.35717781 5843.35864812
0.28100001 105041.40836420 5331.90214092
0.28200001 103461.06655408 4831.11473140
0.28300001 101898.03767060 6511.28491533
0.28400001 100352.79061485 5577.10660239
0.28500001 98825.57042214  5087.54060613
0.28600001 97315.89413455  4189.44944079
0.28700001 95823.48755832  5381.44731599
0.28800001 94347.85087304  5725.97134051
0.28900001 92891.18840893  4444.84357576
0.29000001 91450.01632130  5189.33142179
0.29100001 90026.95734431  5914.77137750
0.29200001 88620.42236424  4284.35452200
0.29300001 87230.96824178  4231.57446971
0.29400001 85857.49529377  4559.03321591
0.29500001 84501.73092637  4127.06473381
0.29600001 83161.70818678  5557.28141265
0.29700001 81838.40055921  4023.99434598
0.29800001 80531.08006916  3611.81911208
0.29900001 79240.83844312  4279.00547849
0.30000001 77965.88223189  3520.15974941
0.30100001 76707.98496354  3822.35907168
0.30200001 75464.49501618  4458.81989911
0.30300001 74238.31646156  4400.84760818
0.30400001 73027.77989896  4009.22530626
0.30500001 71832.77502803  4286.26188884
0.30600001 70652.42201852  4229.60744438
0.30700001 69488.86987831  4173.50172248
0.30800001 68340.25075993  4434.59908176
0.30900001 67207.15717574  3750.15954795
0.31000001 66089.46708039  3699.68854232
0.31100001 64986.13895185  4562.02717041
0.31200001 63898.69921127  4200.06169801
0.31300001 62825.67744161  3254.99850236
0.31400001 61768.80400440  3794.14896561
0.31500001 60725.65155647  3166.23562207
0.31600002 59697.73580893  3406.35296654
0.31700002 58684.38301440  3079.16972256
0.31800002 57685.70257275  2760.26099880
0.31900002 56701.63880716  2993.84667077
0.32000002 55732.25481956  3220.20983595
0.32100002 54776.39062507  2645.69979246
0.32200002 53836.10631183  3130.03136918
0.32300002 52908.20839420  3085.60685966
0.32400002 51995.20783929  3548.67310307
0.32500002 51096.01816557  2498.59540661
0.32600002 50211.23618462  2462.86125148
0.32700002 49339.50357419  2670.25405988
0.32800002 48482.28803387  2392.60102777
0.32900002 47637.96440179  3301.31108937
0.33000002 46808.23965106  3950.84965484
0.33100002 45989.39578632  3206.38082606
0.33200002 45186.90576752  2708.50325997
0.33300002 44396.17376519  2669.09809316
0.33400002 43619.08124634  2191.85893643
0.33500002 42854.00986347  2375.82641934
0.33600002 42103.00007116  2553.96810526
0.33700002 41363.67118934  2726.27969720
0.33800002 40638.29724363  2066.45751270
0.33900002 39924.26210863  3054.20619595
0.34000002 39223.49269965  2407.53809592
0.34100002 38534.79488922  2174.51857858
0.34200002 37859.11006649  1947.85130517
0.34300002 37194.43976044  2495.00313729
0.34400002 36543.31424054  2836.67490227
0.34500002 35903.15333891  2049.71112119
0.34600002 35275.90853183  2019.72223865
0.34700002 34658.70327676  2351.93971575
0.34800002 34054.79198670  2495.87582291
0.34900002 33461.68387656  2108.08618407
0.35000002 32880.11549385  3116.04869294
0.35100002 32310.45952331  1876.59157799
0.35200002 31750.69799512  3026.15916924
0.35300002 31202.55219450  2319.59784000
0.35400002 30665.84671151  2286.13898062
0.35500002 30139.92587716  1609.47211807
0.35600002 29623.82379074  1744.99142304
0.35700002 29118.84867050  1720.05047244
0.35800002 28624.94405140  1541.45331018
0.35900002 28141.18684922  1975.51141039
0.36000002 27667.92579040  2397.14920402
0.36100002 27204.07857269  1624.89969011
0.36200002 26751.50505621  1602.28147124
0.36300002 26307.63074650  1723.67604816
0.36400002 25873.80504610  1699.90907205
0.36500002 25449.45752460  1816.32786957
0.36600002 25035.17556609  1653.82377623
0.36700002 24629.73085972  1359.56120786
0.36800002 24235.00370326  1475.54827037
0.36900002 23848.46404885  1588.30778089
0.37000002 23470.71298728  1436.75976357
0.37100002 23101.88798735  1417.99395183
0.37200002 22742.72356950  1399.70098839
0.37300002 22391.64897279  1381.78872357
0.37400002 22049.19334108  1488.32062103
0.37500002 21715.74594229  1592.19856791
0.37600002 21390.61333929  1451.56708997
0.37700002 21073.21425156  1553.30669607
0.37800002 20764.03562610  1298.47902939
0.37900002 20463.44562311  1399.69974693
0.38000002 20170.49971932  1729.11617035
0.38100002 19884.51049811  1595.13550773
0.38200002 19607.10948946  1126.42849353
0.38300002 19336.46503429  1670.67065811
0.38400002 19074.32712809  1211.69668822
0.38500002 18818.04800973  1198.52153452
0.38600002 18570.34682733  1724.81389503
0.38700002 18328.80622436  1280.08388735
0.38800002 18094.46631617  1161.39337552
0.38900002 17866.41836933  1045.18552412
0.39000002 17646.23447554  1138.44687112
0.39100002 17431.53221077  1537.46121383
0.39200002 17223.88491144  1319.95248272
0.39300002 17022.33132335  1106.62181176
0.39400002 16828.25512101  1595.31866105
0.39500002 16639.07928814  988.36135654
0.39600002 16456.12631468  1371.94731585
0.39700002 16279.05290234  1166.23140518
0.39800002 16107.95662308  1253.27962444
0.39900002 15942.44338387  1052.20131319
0.40000002 15782.35995199  1234.10169492
0.40100002 15628.07654410  1036.61036628
0.40200002 15479.41754731  1122.87700208
0.40300002 15335.27864161  1115.18151566
0.40400002 15196.87598554  1107.85231184
0.40500002 15063.57221907  1100.84590993
0.40600002 14935.17897058  911.79271936
0.40700002 14811.51314142  1722.28282969
0.40800002 14692.90686981  991.55086709
0.40900002 14578.58760720  986.24149836
0.41000002 14469.39257006  981.24190363
0.41100002 14364.28631428  1065.25552354
0.41200002 14263.31753082  1060.33507548
0.41300002 14167.36457164  967.77271974
0.41400002 14075.04824642  1226.64051280
0.41500002 13987.13611794  872.79733512
0.41600002 13902.58118993  1130.48844303
0.41700002 13822.39460298  953.33060094
0.41800002 13746.84927574  950.38846971
0.41900002 13673.14668130  1378.25325078
0.42000002 13604.40096423  1374.58873856
0.42100002 13539.33344653  1199.85578689
0.42200002 13477.82876917  1026.20193111
0.42300002 13419.06865680  938.79808771
0.42400002 13363.56857527  1022.31304445
0.42500002 13311.68766526  935.67857033
0.42600002 13262.13261793  934.38359787
0.42700002 13216.87645868  933.37585974
0.42800002 13173.58569251  932.49230743
0.42900002 13134.43798860  847.17129041
0.43000002 13097.37419943  1354.79245139
0.43100002 13062.26645879  1100.36537863
0.43200002 13030.97281091  930.99789659
0.43300002 13001.94226888  1269.63972272
0.43400002 12975.50710804  1100.64744260
0.43500002 12951.31666874  1016.41938033
0.43600002 12929.85913965  1440.83892151
0.43700002 12910.12980099  1017.83468174
0.43800002 12892.66224434  1273.47277353
0.43900002 12878.06802499  934.94778292
0.44000002 12865.00102020  936.12184360
0.44100002 12854.37453372  1022.69408637
0.44200002 12845.55811799  1109.66359061
0.44300002 12838.64156811  1026.06428275
0.44400002 12834.11260878  1285.01558585
0.44500002 12829.96491036  858.32469318
0.44600002 12828.03942084  1118.15610911
0.44700002 12828.87623498  1293.15078577
0.44800002 12829.70809884  950.48896955
0.44900002 12833.70761095  1039.53036575
0.45000002 12838.61361577  1042.23870272
0.45100002 12844.62141834  1132.12498547
0.45200002 12852.31547217  960.64636549
0.45300002 12861.01259051  1401.33599828
0.45400002 12871.34624645  1405.55107673
0.45500002 12882.96051297  1233.67235719
0.45600002 12895.54988700  1325.98497997
0.45700002 12909.35933510  975.56033119
0.45800002 12923.84709040  1334.71037152
0.45900002 12939.52793866  1249.95845812
0.46000002 12956.91349599  1254.35885500
0.46100002 12974.02089220  1168.82959757
0.46200002 12993.12828704  1173.08464299
0.46300002 13012.83944860  905.69366855
0.46400002 13032.70484789  999.93432685
0.46500002 13053.90910995  1277.45560605
0.46600002 13075.58835310  1373.91751132
0.46700002 13097.64740954  1195.29135925
0.46800002 13121.35263010  1015.39592141
0.46900002 13144.57955192  926.69290233
0.47000002 13168.69829313  1395.55286776
0.47100002 13193.41491613  934.09382033
0.47200002 13218.81535204  1500.59998989
0.47300002 13244.62779630  1318.37031333
0.47400002 13270.27358693  1040.05774167
0.47500002 13296.63839289  1044.31802888
0.47600002 13323.93337041  953.32747784
0.47700002 13350.55249643  1627.29892092
