# SAXS profile: number of points = 501, q_min = 0, q_max = 0.5, delta_q = 0.001
#    q    intensity    error
0.00000000 1664650.74656091 274.66737318
0.00100000 1664564.67087845 549.30635444
0.00200000 1664306.40553320 898.72548745
0.00300000 1663876.17952230 1197.99089193
0.00400000 1663273.84290262 1621.69205845
0.00500000 1662500.06796206 1945.12515651
0.00600000 1661554.68464626 2093.55898789
0.00700000 1660438.44265546 2391.03145680
0.00800000 1659151.11842050 2463.83951488
0.00900000 1657694.08941088 2735.19536445
0.01000000 1656066.79496730 3825.51446156
0.01100000 1654270.85247428 3573.22519692
0.01200000 1652305.97575776 3544.19647339
0.01300000 1650173.67262622 4158.43783843
0.01400000 1647874.02099751 4449.26005393
0.01500000 1645408.57810466 5923.47114494
0.01600000 1642777.03739660 6283.62244894
0.01700000 1639981.56614477 6199.13059811
0.01800000 1637022.71044699 5598.61792165
0.01900000 1633901.20451934 7352.55575210
0.02000000 1630618.13787009 7704.67104996
0.02100000 1627176.01244318 5906.64919297
0.02200000 1623573.51296331 5601.32887420
0.02300000 1619813.74582376 6997.59570048
0.02400000 1615897.42187260 6059.61560833
0.02500000 1611826.61139924 8171.96129301
0.02600000 1607602.05294069 7161.86747342
0.02700000 1603225.30001440 9426.96519585
0.02800000 1598697.13429841 9040.63270906
0.02900000 1594020.69959311 9325.02152077
0.03000000 1589196.70454566 8128.74151739
0.03100000 1584226.75457622 9125.14652624
0.03200000 1579111.94861910 8598.26495625
0.03300000 1573856.41479493 9632.00170258
0.03400000 1568458.81254087 10704.73188951
0.03500000 1562923.10057197 10971.72067267
0.03600000 1557249.96079679 10371.28521820
0.03700000 1551442.26492574 8843.22131905
0.03800000 1545501.66212083 10849.42217019
0.03900000 1539430.53384195 9236.58363080
0.04000000 1533228.96394708 15086.97370435
0.04100000 1526901.20881308 11543.37367385
0.04200000 1520448.69977364 10787.58402536
0.04300000 1513873.13918453 11989.87581889
0.04400000 1507177.09989143 16277.51343479
0.04500000 1500363.52612992 11387.75969246
0.04600000 1493432.60298294 11581.57037452
0.04700000 1486388.48047899 11772.19731289
0.04800000 1479232.50470231 10872.35941543
0.04900000 1471967.62489035 12143.73347061
0.05000000 1464595.34144251 14565.40134890
0.05100000 1457119.76190718 13638.64160679
0.05200000 1449540.03972298 13828.61262339
0.05300000 1441861.55958222 15182.80293019
0.05400000 1434084.95578488 14197.44172435
0.05500000 1426214.47000635 14376.24252831
0.05600000 1418250.22215139 20614.26794092
0.05700000 1410197.77125018 22083.69812861
0.05800000 1402056.15400701 21093.93582196
0.05900000 1393829.22853116 18816.69546402
0.06000000 1385520.99281394 12677.51767653
0.06100000 1377132.34358498 17930.26395138
0.06200000 1368666.45869605 18107.45809496
0.06300000 1360126.38043580 15668.65663521
0.06400000 1351511.61202337 14494.96271683
0.06500000 1342828.68705150 22599.80786025
0.06600000 1334078.51109232 14748.23863017
0.06700000 1325262.34175463 14869.44417036
0.06800000 1316384.57852302 20436.87153820
0.06900000 1307448.59551231 17846.67416430
0.07000000 1298454.01339195 16594.24306823
0.07100000 1289405.34283680 16710.69402586
0.07200000 1280304.25189420 19627.06510100
0.07300000 1271154.21959910 25397.66249761
0.07400000 1261958.37704949 15616.73564785
0.07500000 1252716.79841818 18565.26382276
0.07600000 1243433.20376875 17233.98501217
0.07700000 1234111.31706343 21658.65463001
0.07800000 1224752.46020544 17415.98080086
0.07900000 1215358.03231458 17501.15648620
0.08000000 1205933.69711147 19047.72363942
0.08100000 1196479.81066137 17660.04283394
0.08200000 1186998.08359986 16255.93951771
0.08300000 1177491.78191113 17803.67657806
0.08400000 1167964.20405930 19359.00759097
0.08500000 1158416.89511149 19426.65224301
0.08600000 1148852.41959405 16491.77725759
0.08700000 1139272.99972741 15038.40430257
0.08800000 1129680.33622010 19605.60315585
0.08900000 1120077.95585721 16633.15842573
0.09000000 1110467.87621021 16673.67594455
0.09100000 1100851.64512523 21268.45478304
0.09200000 1091231.75251606 16744.95202915
0.09300000 1081611.97348616 16775.80249710
0.09400000 1071991.00949645 16803.45986358
0.09500000 1062373.63696134 18357.81730956
0.09600000 1052761.10341702 18381.20972972
0.09700000 1043158.19615973 15334.42620446
0.09800000 1033563.44606269 19952.94326438
0.09900000 1023981.30197648 18431.66430228
0.10000000 1014411.00753597 15368.32748690
0.10100000 1004856.25294919 19986.59181116
0.10200000 995319.30049427 16915.45230754
0.10300000 985801.43778067 23067.75472919
0.10400000 976304.96295224 16914.48427889
0.10500000 966833.51742515 16909.91901537
0.10600001 957383.39074479 24585.60663117
0.10700001 947962.64334201 16892.69509929
0.10800001 938568.20110213 15345.59081021
0.10900001 929205.13294202 22997.82812272
0.11000001 919873.88541017 16847.49100429
0.11100001 910575.06699521 21416.72658388
0.11200001 901312.49589663 16804.97227712
0.11300001 892085.26986316 18305.59059943
0.11400001 882896.68814352 16752.96544633
0.11500001 873747.70287120 21284.49504419
0.11600001 864640.27076163 19726.76870639
0.11700001 855575.08016515 15143.67963211
0.11800001 846552.89209053 22666.45475328
0.11900001 837575.40776646 30152.71609983
0.12000001 828643.93752937 16543.87699207
0.12100001 819761.43563969 18001.96197469
0.12200001 810927.47759482 17953.93519978
0.12300001 802143.72801784 19395.83625729
0.12400001 793410.61903551 16364.09478864
0.12500001 784729.13322049 16314.51944840
0.12600001 776102.60550047 16263.23086464
0.12700001 767529.38729930 17683.87791675
0.12800001 759011.47548670 19092.93456570
0.12900001 750550.13252129 16099.30110138
0.13000001 742145.85713916 20416.43349222
0.13100001 733798.75688766 17435.05928550
0.13200001 725510.41575090 15921.32682419
0.13300001 717282.92300558 14417.38743209
0.13400001 709114.49630408 14359.56922715
0.13500001 701008.15218592 14300.56697884
0.13600001 692962.59846114 21360.57310473
0.13700001 684980.37799796 15597.00394246
0.13800001 677059.57900995 21175.03933206
0.13900001 669203.67521291 15458.60562642
0.14000001 661411.35802383 25179.93158747
0.14100001 653683.45208624 22277.53309777
0.14200001 646020.18962091 13857.13372094
0.14300001 638423.68137671 23442.91868590
0.14400001 630890.22548899 15094.04935681
0.14500001 623425.12210438 13653.01081813
0.14600001 616025.83459740 14941.70732303
0.14700001 608695.30535789 18918.25098302
0.14800001 601428.28940031 20162.88435340
0.14900001 594230.24138472 16044.21727437
0.15000001 587099.09986202 15957.35428716
0.15100001 580035.78915114 17192.26160166
0.15200001 573040.58771505 14466.41031949
0.15300001 566114.13064031 14384.96073838
0.15400001 559253.06177777 14302.89772993
0.15500001 552461.62541285 18098.64370265
0.15600001 545735.67172425 16707.69837836
0.15700001 539081.34258431 16609.09694892
0.15800001 532491.04405478 12699.91200013
0.15900001 525970.77775174 13885.62918806
0.16000001 519516.10723023 13800.94604001
0.16100001 513131.98369723 16209.84013017
0.16200001 506813.71772474 17348.23437666
0.16300001 500562.71248867 19702.14929365
0.16400001 494378.86645433 17130.22853135
0.16500001 488261.64554747 13373.48710293
0.16600001 482211.85009917 14495.28889835
0.16700001 476226.83763122 16801.28362490
0.16800001 470307.67727450 16691.22025457
0.16900001 464456.26941826 14212.36251528
0.17000001 458668.79204328 14117.82608573
0.17100001 452946.45359668 14023.22286555
0.17200001 447289.53918022 15089.31331681
0.17300001 441696.81722029 13833.94496864
0.17400001 436168.10164645 12594.35452982
0.17500001 430702.98413247 17055.83897715
0.17600001 425299.59295392 12420.87519885
0.17700001 419960.95975950 15698.14141724
0.17800001 414682.77964802 12247.65647539
0.17900001 409467.28171116 16583.42569260
0.18000001 404313.18830770 14270.23465538
0.18100001 399221.44023768 11988.62041664
0.18200001 394187.39642956 12984.53345175
0.18300001 389214.25856640 13965.00825706
0.18400001 384299.97117960 17062.91952644
0.18500001 379446.10753140 13762.51097033
0.18600001 374648.76954096 12610.67817852
0.18700001 369909.15847179 12517.72651408
0.18800001 365226.75921600 15531.26866945
0.18900001 360602.45131357 12332.60441761
0.19000001 356030.46262697 10200.27323621
0.19100001 351518.38357398 12148.47591033
0.19200001 347057.81296875 14066.25382427
0.19300001 342654.16699366 11965.48407682
0.19400001 338301.70351819 12863.92288415
0.19500001 334003.60690621 12765.61845920
0.19600001 329757.60106633 11693.20508639
0.19700001 325563.37251667 13536.92566897
0.19800001 321420.71340703 14391.61312293
0.19900001 317329.03774648 13327.82021522
0.20000001 313285.91622598 11334.68498475
0.20100001 309294.07056750 12183.09401545
0.20200001 305349.17589594 13017.03598367
0.20300001 301454.29028800 9224.50171881
0.20400001 297606.16636259 11896.80706266
0.20500001 293804.85821311 11802.14171227
0.20600001 290050.37469388 9906.67101594
0.20700001 286341.76956704 9827.24999607
0.20800001 282677.19717248 15065.28193545
0.20900001 279059.30291634 12306.51584036
0.21000001 275483.83470145 9590.97015852
0.21100001 271952.42637884 10377.70508121
0.21200001 268463.28744722 11150.62317126
0.21300001 265015.75461325 10208.40735031
0.21400001 261610.95906798 8436.95382881
0.21500001 258247.83767578 8367.23033628
0.21600001 254924.22131564 10787.11893497
0.21700001 251640.80234529 9874.38555089
0.21800001 248396.95016690 8159.84019878
0.21900001 245190.71080832 8900.42322317
0.22000001 242022.69488502 8023.05271479
0.22100001 238893.86804123 15114.81574565
0.22200001 235802.34046734 9465.10639391
0.22300001 232745.89016105 8602.28850712
0.22400001 229725.05485932 9303.86516175
0.22500001 226742.56506531 12298.51731071
0.22600001 223792.79045911 9906.18833812
0.22700001 220879.50605542 9064.89535719
0.22800001 217999.05713264 11232.40194994
0.22900001 215151.35169658 9649.53857993
0.23000001 212338.13179121 12507.77824468
0.23100001 209557.94177895 10209.66340631
0.23200001 206808.23798464 7950.74308534
0.23300001 204090.97672508 7879.95298403
0.23400001 201405.75584487 7099.55322931
0.23500001 198749.17136637 11257.15359861
0.23600001 196124.84529898 8366.68629617
0.23700001 193529.64027137 8981.71102981
0.23800001 190964.02166174 7530.66655042
0.23900001 188427.16037606 8818.39152271
0.24000001 185918.93932835 7393.06697209
0.24100001 183440.20775659 7990.65582784
0.24200001 180988.34595552 9895.53828320
0.24300001 178564.70249605 6535.46842050
0.24400001 176167.40644839 6474.15249323
0.24500001 173796.85803900 7054.41480151
0.24600001 171453.46533807 8258.05654866
0.24700001 169135.90853233 7550.22731405
0.24800001 166843.84062364 6854.77951630
0.24900001 164576.39196038 9257.42248572
0.25000001 162335.03491028 7945.48865957
0.25100001 160117.33214310 7262.92252961
0.25200001 157925.75269300 5993.28259824
0.25300001 155757.90396248 7714.68934825
0.25400001 153613.53699731 7638.43348857
0.25500001 151492.41795866 8144.23277478
0.25600001 149395.12903103 7486.93724562
0.25700001 147319.88823449 6841.53593331
0.25800001 145268.50822851 6772.41817404
0.25900001 143239.25677055 5586.33127837
0.26000001 141232.17176953 6082.16376504
0.26100001 139246.49899236 7114.10397013
0.26200001 137283.47259706 8665.33320034
0.26300001 135341.14463183 5895.46053912
0.26400001 133420.51583272 5833.81233083
0.26500001 131521.19006414 7346.77402462
0.26600001 129641.74958722 7269.01324332
0.26700001 127784.13906382 6677.99942348
0.26800001 125947.11206010 5590.16283332
0.26900001 124129.05719823 8043.56328708
0.27000001 122331.98944575 5967.35472755
0.27100001 120554.24787465 6886.05896447
0.27200001 118797.67625893 5837.71808762
0.27300001 117059.52915251 7697.83500136
0.27400001 115338.98782987 5709.28016777
0.27500001 113640.54781970 7998.02213406
0.27600001 111958.83292456 5582.26767380
0.27700001 110297.53781016 4599.40754436
0.27800001 108653.87664806 7275.46392468
0.27900001 107030.14444730 4495.26627954
0.28000001 105423.16851097 6221.02146826
0.28100001 103835.30923230 6588.35068261
0.28200001 102266.14887608 5209.43787031
0.28300001 100714.49130111 5148.52503899
0.28400001 99180.50289307  6783.94671898
0.28500001 97664.62451818  5027.77510817
0.28600001 96166.28023126  6623.93369585
0.28700001 94685.41134027  5317.53295256
0.28800001 93221.27282494  4849.37084189
0.28900001 91776.07893786  4790.71154732
0.29000001 90346.43992555  5126.70897624
0.29100001 88934.93885188  3895.35050610
0.29200001 87540.08225347  4232.12547687
0.29300001 86162.24559953  4939.68177405
0.29400001 84800.46758756  5253.38921573
0.29500001 83456.35632374  4446.55487542
0.29600001 82128.11753458  4024.68859030
0.29700001 80816.45735646  5418.74372226
0.29800001 79520.91679400  3923.16461575
0.29900001 78242.36649709  3872.99732495
0.30000001 76979.26309189  4170.73667176
0.30100001 75733.16809969  3773.78394506
0.30200001 74501.48112383  4063.31097285
0.30300001 73286.99599326  4010.26461060
0.30400001 72088.36397018  5606.67277321
0.30500001 70905.12210405  4230.90883625
0.30600001 69736.60207445  3532.50774532
0.30700001 68584.76704553  3485.47802627
0.30800001 67447.85636408  3751.44994858
0.30900001 66326.62089588  4317.86322475
0.31000001 65220.60184195  3346.79534197
0.31100001 64129.03457049  3601.48675199
0.31200001 63053.34399534  2960.35464074
0.31300001 61991.95538503  3211.80336056
0.31400001 60946.74520100  4319.60077064
0.31500001 59915.29842808  4259.97791993
0.31600002 58898.97664267  3360.77576636
0.31700002 57897.28094683  3037.87047512
0.31800002 56910.14655535  3812.41089826
0.31900002 55937.46249165  3221.99799208
0.32000002 54979.66371826  3176.72512006
0.32100002 54035.32739968  2609.90643698
0.32200002 53106.37999667  3087.60507921
0.32300002 52190.03479087  2790.07939203
0.32400002 51288.14057005  2750.32666830
0.32500002 50400.18245892  2711.02594284
0.32600002 49526.70652482  3886.85611212
0.32700002 48666.20380147  3352.12827658
0.32800002 47820.06891925  2595.91256421
0.32900002 46986.86283881  2558.43480272
0.33000002 46168.19307013  2521.47598393
0.33100002 45360.27873645  3162.51878326
0.33200002 44568.70862515  2448.82781137
0.33300002 43788.88561306  2193.82327310
0.33400002 43022.59911427  2161.88570787
0.33500002 42268.18400062  2556.37988942
0.33600002 41527.92817516  2309.16055553
0.33700002 40799.10785027  3309.62378555
0.33800002 40084.14182297  2445.93444987
0.33900002 39380.66314029  2610.93808985
0.34000002 38690.19597036  2374.80434113
0.34100002 38011.85601306  2145.00913640
0.34200002 37346.41269537  2497.91493143
0.34300002 36691.80475768  2082.62693668
0.34400002 36050.69809538  2611.87320071
0.34500002 35420.59968304  2205.99505274
0.34600002 34803.30949529  1992.66357953
0.34700002 34195.91958584  2856.04333907
0.34800002 33601.73336431  1759.05082493
0.34900002 33018.31889472  1906.80800648
0.35000002 32446.22072918  2049.95232276
0.35100002 31886.11754443  1683.58708608
0.35200002 31335.68552801  1825.14709002
0.35300002 30796.84109514  2780.03097733
0.35400002 30269.37683705  2256.58215008
0.35500002 29752.55313492  1747.66505392
0.35600002 29245.43873879  2192.53064610
0.35700002 28749.36947043  1852.60945642
0.35800002 28264.42863221  1826.44746472
0.35900002 27789.34261201  1650.68702934
0.36000002 27324.65194769  1775.55596766
0.36100002 26869.36308201  1604.90713291
0.36200002 26425.24119794  1870.51078680
0.36300002 25989.68906241  1702.84450803
0.36400002 25564.07816754  1819.52334976
0.36500002 25147.87641547  1380.61848061
0.36600002 24741.63993861  1498.23007745
0.36700002 24344.01179104  1881.30532033
0.36800002 23957.21887150  1458.63534008
0.36900002 23578.35768157  1439.45880465
0.37000002 23208.21079391  1549.84439023
0.37100002 22846.80616939  1657.30739803
0.37200002 22495.11265515  1762.04225775
0.37300002 22151.35379958  1242.69100702
0.37400002 21816.03606454  1349.86729544
0.37500002 21489.66788555  1696.82425662
0.37600002 21171.52403922  1676.14963759
0.37700002 20861.00978356  1301.10124184
0.37800002 20558.46891126  1519.37371686
0.37900002 20264.55840761  1270.58787235
0.38000002 19978.10879956  1370.09876638
0.38100002 19698.57537962  1354.47410727
0.38200002 19427.51094891  1339.33266827
0.38300002 19163.04346493  1103.79135587
0.38400002 18907.02876282  1310.25715534
0.38500002 18656.63710733  1080.21933969
0.38600002 18414.78351837  1389.67170405
0.38700002 18179.10075990  1163.82608579
0.38800002 17950.30772049  1466.36070716
0.38900002 17727.88303703  1140.78932748
0.39000002 17513.10555019  1129.85805810
0.39100002 17303.67460676  1424.43856111
0.39200002 17101.24026337  1713.80087419
0.39300002 16904.81450669  1298.79696008
0.39400002 16715.71749005  1386.56883149
0.39500002 16531.41544894  1374.75257387
0.39600002 16353.14885627  1460.74509079
0.39700002 16180.73677919  1255.78704093
0.39800002 16014.23882781  1245.98791103
0.39900002 15853.16138023  1236.54664624
0.40000002 15697.31693059  1133.03238973
0.40100002 15547.23415672  1124.99791688
0.40200002 15402.73948564  1117.31477523
0.40300002 15262.60091122  1387.37048856
0.40400002 15128.07868700  919.03082378
0.40500002 14998.61558726  1004.75730580
0.40600002 14873.84173854  1180.46250551
0.40700002 14753.73447128  1173.80717015
0.40800002 14638.68778373  987.89189189
0.40900002 14527.74568061  893.45640169
0.41000002 14421.74879644  1066.92102651
0.41100002 14319.84893175  973.46337650
0.41200002 14221.92685213  881.04841024
0.41300002 14128.83755703  1052.88102464
0.41400002 14039.40347583  1048.74348934
0.41500002 13954.28800318  870.74761266
0.41600002 13872.40436193  867.71893395
0.41700002 13794.73051055  864.92964400
0.41800002 13721.72872812  862.41069143
0.41900002 13650.32120150  859.97027644
0.42000002 13583.83804234  1200.94717823
0.42100002 13520.95355521  1198.22696084
0.42200002 13461.55866490  1110.37671909
0.42300002 13404.81350570  852.54617936
0.42400002 13351.17816562  936.25141323
0.42500002 13301.08923163  934.93360639
0.42600002 13253.20543166  1103.52820256
0.42700002 13209.61521959  932.86307101
0.42800002 13167.77456381  1440.48876667
0.42900002 13130.10737756  846.89196598
0.43000002 13094.39640295  1523.79498162
0.43100002 13060.53724384  1354.11656561
0.43200002 13030.42101381  1015.59106194
0.43300002 13002.51000658  846.46344154
0.43400002 12977.09696319  1354.80898716
0.43500002 12953.82884898  847.18044687
0.43600002 12933.17333182  1017.32346249
0.43700002 12914.27057003  1187.85466332
0.43800002 12897.48560573  1019.15936086
0.43900002 12883.49996655  1105.40434951
0.44000002 12870.99408102  851.41629881
0.44100002 12860.83498767  1023.20808011
0.44200002 12852.44285414  1110.25832857
0.44300002 12845.83022398  941.08556681
0.44400002 12841.54345185  1028.60767924
0.44500002 12837.59242547  1374.13595834
0.44600002 12835.77047999  1290.95767720
0.44700002 12836.68952539  1121.41325008
0.44800002 12837.41433959  1123.97986577
0.44900002 12841.36298463  953.47124680
0.45000002 12846.10618106  1129.75086163
0.45100002 12851.83169522  958.48965325
0.45200002 12859.27613909  873.78785506
0.45300002 12867.66206679  963.91661111
0.45400002 12877.57294739  878.89439531
0.45500002 12888.76127150  881.59131275
0.45600002 12900.76784184  884.34767747
0.45700002 12913.98234980  1419.50500717
0.45800002 12927.88356228  1157.11027308
0.45900002 12942.90341270  982.36641558
0.46000002 12959.58518707  1254.61750142
0.46100002 12975.90885700  1348.84578961
0.46200002 12994.20813109  1263.42691647
0.46300002 13013.00440353  1177.41669423
0.46400002 13031.92837278  1090.77245650
0.46500002 13052.15823260  1550.98803629
0.46600002 13072.86006401  1098.90466906
0.46700002 13093.86683230  1103.02739423
0.46800002 13116.47758854  1199.56751471
0.46900002 13138.54728790  1296.77467878
0.47000002 13161.42353760  1301.79646380
0.47100002 13185.01083481  1120.19857362
0.47200002 13209.10177686  937.18581549
0.47300002 13233.61963749  1223.18352107
0.47400002 13257.89715113  1322.47530351
0.47500002 13282.94179347  948.40208901
0.47600002 13308.81427885  952.24570679
0.47700002 13334.03149281  1051.65511368
0.47800002 13359.73382911  1055.88661323
