# SAXS profile: number of points = 501, q_min = 0, q_max = 0.5, delta_q = 0.001
#    q    intensity    error
0.00000000 1646666.22097350 271.69992646
0.00100000 1646580.95604536 642.16658811
0.00200000 1646325.13588842 963.10023499
0.00300000 1645898.97131984 987.53941797
0.00400000 1645302.32490100 1604.16982773
0.00500000 1644535.85555161 2220.12349287
0.00600000 1643599.41583276 2243.51329395
0.00700000 1642493.71804016 2168.09179792
0.00800000 1641218.57526521 2437.20968717
0.00900000 1639775.39070189 3689.49478680
0.01000000 1638163.46583547 2702.96983534
0.01100000 1636384.45894250 2945.49215434
0.01200000 1634438.20354884 3824.58556399
0.01300000 1632326.06754928 4799.03885026
0.01400000 1630048.23473321 4401.13042889
0.01500000 1627606.14888149 3906.25493126
0.01600000 1624999.53296800 4143.74899431
0.01700000 1622230.56029442 5256.02725113
0.01800000 1619299.71172799 4615.00438609
0.01900000 1616207.90106854 5333.48631419
0.02000000 1612955.96682335 6605.05498293
0.02100000 1609546.56640692 8498.40625593
0.02200000 1605978.31466766 7756.87561226
0.02300000 1602254.34124859 6344.92748016
0.02400000 1598375.18021522 6593.29791903
0.02500000 1594343.26217025 7461.52680773
0.02600000 1590158.79974080 7728.17212021
0.02700000 1585823.97561534 8658.59930343
0.02800000 1581338.89152077 6878.82449358
0.02900000 1576707.08971637 7095.18222949
0.03000000 1571929.20526116 10233.25959662
0.03100000 1567006.72649985 9025.95915995
0.03200000 1561940.90670283 7731.60784428
0.03300000 1556735.83858984 10321.15908566
0.03400000 1551389.93231070 8959.27727248
0.03500000 1545907.32555893 10852.26992656
0.03600000 1540288.67828680 10258.32307147
0.03700000 1534536.89751025 10496.23286439
0.03800000 1528653.37990594 10731.14722357
0.03900000 1522640.74065975 10963.01384045
0.04000000 1516498.89338091 12124.40921441
0.04100000 1510232.22996180 10465.90983890
0.04200000 1503841.98663650 12609.71564295
0.04300000 1497329.83240128 11858.85282308
0.04400000 1490698.97223185 11068.44038286
0.04500000 1483951.26989608 11263.19066185
0.04600000 1477087.55592244 11454.81452868
0.04700000 1470111.64082221 13760.24559806
0.04800000 1463025.47633309 15054.53285193
0.04900000 1455831.30876157 13102.48238874
0.05000000 1448530.95295838 11081.26230614
0.05100000 1441128.20147887 13488.96059421
0.05200000 1433622.54960438 12537.02978053
0.05300000 1426019.00148178 15015.98078562
0.05400000 1418318.72397255 18721.80802951
0.05500000 1410525.45320218 14218.09723154
0.05600000 1402639.62700529 13191.82630757
0.05700000 1394666.23018188 14560.31612275
0.05800000 1386604.76521472 14725.74329416
0.05900000 1378458.95394278 18609.19674739
0.06000000 1370232.77211348 13791.39349564
0.06100000 1361927.09213403 15199.10705849
0.06200000 1353545.20414432 12791.00277706
0.06300000 1345089.80597478 16786.72156343
0.06400000 1336560.73471168 16940.90810474
0.06500000 1327963.99391108 18405.58181658
0.06600000 1319301.03133142 21214.36157640
0.06700000 1310572.85600323 17378.19688388
0.06800000 1301783.98289186 17515.50430969
0.06900000 1292937.49051337 21721.35085759
0.07000000 1284033.11397081 17777.43929542
0.07100000 1275075.15464434 16524.97477818
0.07200000 1266065.45929558 18022.44265737
0.07300000 1257007.79239134 25115.01686876
0.07400000 1247904.68783960 15442.82123573
0.07500000 1238756.65956282 16946.19189713
0.07600000 1229566.93730336 15621.64867079
0.07700000 1220339.81954876 15705.77421401
0.07800000 1211075.80583306 15786.37386936
0.07900000 1201777.18155761 14421.32685511
0.08000000 1192448.99997552 18834.73283817
0.08100000 1183091.72182120 16007.23174727
0.08200000 1173706.91699770 14612.65180232
0.08300000 1164298.20036439 19071.20541702
0.08400000 1154868.24998914 16197.02796636
0.08500000 1145419.06211857 17731.08791398
0.08600000 1135953.27646152 22236.28643076
0.08700000 1126472.63916022 16356.38348866
0.08800000 1116979.35771422 19385.17766353
0.08900000 1107476.37589681 14950.93177685
0.09000000 1097966.02131215 16485.96058444
0.09100000 1088449.85437393 15020.60869605
0.09200000 1078930.12729307 16556.18358123
0.09300000 1069410.69435314 19602.29894865
0.09400000 1059890.62697150 16613.78635858
0.09500000 1050373.94226084 18150.46257539
0.09600000 1040862.08239278 16658.99841180
0.09700000 1031360.15864304 19709.29355826
0.09800000 1021866.68723744 16692.19312085
0.09900000 1012385.64046633 18222.94238528
0.10000000 1002916.33034426 15194.18311926
0.10100000 993463.09457227 15199.98606184
0.10200000 984027.38332095 18243.86854489
0.10300000 974610.48520183 16724.31671279
0.10400000 965215.55510287 19762.78942047
0.10500000 955845.05381720 16717.73077782
0.10600001 946496.06065356 18229.51498595
0.10700001 937175.78839049 21255.14788091
0.10800001 927882.60982058 18205.05766144
0.10900001 918620.14910562 19704.40312572
0.11000001 909389.39536511 16655.46756008
0.11100001 900191.17763487 21172.49749463
0.11200001 891028.37234709 19633.81110897
0.11300001 881901.41788461 19604.66944258
0.11400001 872812.31526732 21078.41840617
0.11500001 863763.04760285 22544.21660400
0.11600001 854754.61129071 21001.32178840
0.11700001 845788.16040309 19461.58648742
0.11800001 836864.71277069 17925.64299182
0.11900001 827985.38551017 16394.11140529
0.12000001 819152.01270726 16354.37070407
0.12100001 810367.28783201 16312.69427252
0.12200001 801630.25480621 16269.08678775
0.12300001 792943.40550785 17698.49764479
0.12400001 784306.88777542 14705.75483869
0.12500001 775721.07761868 17593.35486940
0.12600001 767190.19779179 16076.47135231
0.12700001 758712.10269265 16024.00036402
0.12800001 750288.88644961 15969.89970073
0.12900001 741921.29535392 17360.95912954
0.13000001 733610.94412039 17298.54687772
0.13100001 725356.92157563 18670.68804145
0.13200001 717161.39650385 15738.10758818
0.13300001 709025.82840734 17101.70378741
0.13400001 700949.26787997 14194.22334376
0.13500001 692933.65215703 15549.43188753
0.13600001 684978.57808224 16891.57253196
0.13700001 677085.97363402 16818.81637813
0.13800001 669254.57406746 16744.75023278
0.13900001 661487.18240303 18058.60093121
0.14000001 653782.89065726 16593.01054742
0.14100001 646142.35695397 17891.68270788
0.14200001 638565.77975388 16436.68394611
0.14300001 631055.37924931 16356.95620166
0.14400001 623607.59800588 13563.46589641
0.14500001 616227.16265479 16194.45059849
0.14600001 608911.82238930 20139.75947561
0.14700001 601664.29755525 14692.64283945
0.14800001 594480.14013463 18601.28446240
0.14900001 587364.09761879 13215.69281995
0.15000001 580313.98253682 14458.52355710
0.15100001 573331.44797965 15686.34915688
0.15200001 566415.65241764 15599.08780366
0.15300001 559568.16492435 20681.64035155
0.15400001 552785.35509265 19278.39016862
0.15500001 546071.55815249 17889.30508933
0.15600001 539422.53160853 20325.44195027
0.15700001 532844.09975926 12628.40576032
0.15800001 526329.04904298 12552.94841216
0.15900001 519883.30437571 13724.91988334
0.16000001 513502.09326779 14881.29136533
0.16100001 507190.86157249 13557.21236979
0.16200001 500944.79617932 13472.91092925
0.16300001 494765.22760337 17039.71524307
0.16400001 488651.96470080 15722.37770650
0.16500001 482604.36798894 14420.21919631
0.16600001 476623.58618677 15521.24781698
0.16700001 470706.86087151 13047.99479942
0.16800001 464854.93221992 11784.07308818
0.16900001 459070.18591320 12876.91932289
0.17000001 453348.56032966 15116.90845801
0.17100001 447690.96665783 12705.47023372
0.17200001 442098.23987362 12619.69485313
0.17300001 436568.73051904 12533.88884511
0.17400001 431102.47897055 18106.30497185
0.17500001 425698.99342400 14609.99014431
0.17600001 420356.52836945 15624.65289743
0.17700001 415077.79705799 13299.09324586
0.17800001 409859.09162632 12105.18884294
0.17900001 404702.14125790 13112.34999610
0.18000001 399605.63729718 11934.22292159
0.18100001 394570.54884355 16157.66473837
0.18200001 389592.57258803 10694.31662272
0.18300001 384674.70099679 11678.72447396
0.18400001 379814.92882904 11593.85125021
0.18500001 375014.83974735 13601.78888021
0.18600001 370270.27530977 17656.33891229
0.18700001 365582.63477805 12371.31694537
0.18800001 360951.34983294 17396.05112709
0.18900001 356377.74534103 13203.79608873
0.19000001 351855.45819486 10080.65935358
0.19100001 347392.33648470 16007.83962159
0.19200001 342980.28185715 14893.91944340
0.19300001 338623.59587994 13795.52594802
0.19400001 334318.01536151 11734.56289369
0.19500001 330065.69550907 12615.11147849
0.19600001 325865.04185192 11555.17493012
0.19700001 321715.02653526 12421.41776153
0.19800001 317616.09246944 13273.17713157
0.19900001 313567.34317539 10347.72281382
0.20000001 309566.55574963 10266.77530666
0.20100001 305616.02686469 10186.18265682
0.20200001 301712.14369528 10105.84873071
0.20300001 297857.20559842 10937.31710652
0.20400001 294048.66848004 9946.19668145
0.20500001 290286.03494258 9866.82279407
0.20600001 286569.17651382 10677.56802161
0.20700001 282898.02401746 15004.91190315
0.20800001 279269.98781935 12257.16034479
0.20900001 275688.52512459 13894.70232310
0.21000001 272148.20070427 9474.84005542
0.21100001 268651.22671234 11106.04223731
0.21200001 265196.25919350 12709.53132268
0.21300001 261782.03659039 10083.84452618
0.21400001 258410.00106259 9167.09522108
0.21500001 255078.99961643 10743.92797179
0.21600001 251786.79569308 13113.05693966
0.21700001 248534.50994460 9752.49463132
0.21800001 245320.81230616 9670.54687834
0.21900001 242144.41831986 8789.84280061
0.22000001 239005.69661033 11092.25490416
0.22100001 235905.50394895 8641.21901824
0.22200001 232841.80494697 11682.83811563
0.22300001 229812.97334601 10038.23115042
0.22400001 226819.42402395 11482.73388419
0.22500001 223863.10577050 9106.75157338
0.22600001 220939.03584728 9779.86688425
0.22700001 218051.23430118 8203.08782233
0.22800001 215195.80342140 9609.56905622
0.22900001 212372.58001181 8792.22522828
0.23000001 209583.18907252 7988.26362928
0.23100001 206826.56698563 7917.32135864
0.23200001 204099.97321122 15693.24768240
0.23300001 201404.92292183 9190.10706756
0.23400001 198741.66076872 7706.20826077
0.23500001 196106.86242319 9024.83823556
0.23600001 193503.63267417 8942.77080700
0.23700001 190929.22047791 8179.40819214
0.23800001 188383.96457303 7428.92199432
0.23900001 185867.11881080 8698.58157178
0.24000001 183378.33383059 7292.03978969
0.24100001 180918.71997493 9851.02476860
0.24200001 178486.04352436 8457.56157246
0.24300001 176080.35703585 9022.35792130
0.24400001 173701.17978681 6383.51865913
0.24500001 171348.58224684 6322.76298400
0.24600001 169022.03145105 6888.49321765
0.24700001 166721.52926096 8062.65353647
0.24800001 164446.39099291 7984.69489239
0.24900001 162195.39573975 7298.79315358
0.25000001 159970.19600627 8432.02943039
0.25100001 157768.20007649 7752.72971853
0.25200001 155592.13419663 7085.66612654
0.25300001 153439.64146107 7599.86580112
0.25400001 151310.04337954 8681.41414963
0.25500001 149203.63614180 9167.07183826
0.25600001 147120.71944838 6805.80480368
0.25700001 145059.89670810 6175.20009503
0.25800001 143022.23001536 7778.97945859
0.25900001 141006.71366827 7149.04072124
0.26000001 139013.36404847 5986.61080601
0.26100001 137040.67339712 7001.40833514
0.26200001 135090.97723951 5862.27323469
0.26300001 133161.41995988 6855.15022390
0.26400001 131253.36697270 5739.05374244
0.26500001 129366.63973255 8774.93958828
0.26600001 127499.60626358 7148.90326148
0.26700001 125654.04910567 6566.68091700
0.26800001 123829.11163872 6495.45635838
0.26900001 122022.75961874 6424.49859794
0.27000001 120237.50268223 5865.18565839
0.27100001 118471.32472173 5800.35633287
0.27200001 116726.13988054 4779.93565431
0.27300001 114999.41436346 5199.12376942
0.27400001 113290.11508838 6075.18270912
0.27500001 111602.87449779 6006.46698973
0.27600001 109931.95168924 6851.50921329
0.27700001 108281.62636280 5418.41283963
0.27800001 106648.66616092 5802.22095709
0.27900001 105035.59682562 6176.09338565
0.28000001 103439.27049325 7411.94127799
0.28100001 101862.03874507 5601.39377570
0.28200001 100303.37277723 6386.81756388
0.28300001 98761.98429561  5048.71287615
0.28400001 97238.31521003  4156.93817198
0.28500001 95732.83453677  4517.63267562
0.28600001 94244.63224889  6897.29373760
0.28700001 92773.80906604  5210.17736376
0.28800001 91319.78178412  4750.45527326
0.28900001 89884.82556920  4691.98811680
0.29000001 88465.28798236  5406.11400450
0.29100001 87063.76710145  4957.41113341
0.29200001 85679.00486014  4518.71093022
0.29300001 84311.20782650  4089.93688526
0.29400001 82959.27781948  4772.23268247
0.29500001 81625.16780966  3986.57338454
0.29600001 80306.90546747  4293.20736952
0.29700001 79005.18881787  4590.99173954
0.29800001 77719.73920914  3834.30351539
0.29900001 76451.13277959  4128.36136553
0.30000001 75197.88832159  5432.29570951
0.30100001 73961.75494493  3350.46765762
0.30200001 72739.93203883  3636.63307444
0.30300001 71535.69690559  4566.83910665
0.30400001 70347.01541879  3540.21371855
0.30500001 69173.75762903  3175.07562549
0.30600001 68015.24710937  3132.10227767
0.30700001 66873.60755304  3707.47297826
0.30800001 65746.72136848  3656.83281564
0.30900001 64635.61763663  3907.22327112
0.31000001 63539.99809158  2964.14105131
0.31100001 62458.61552955  2923.06334518
0.31200001 61393.17642910  3170.65074680
0.31300001 60342.15159413  2842.11547465
0.31400001 59307.04914835  3082.48402543
0.31500001 58285.92206892  3867.85397163
0.31600002 57280.13008962  4357.87250355
0.31700002 56288.86040587  3221.97452219
0.31800002 55312.22016810  3705.36580450
0.31900002 54350.30694440  3130.57782823
0.32000002 53402.82020591  4114.15346347
0.32100002 52469.04347684  2787.68041192
0.32200002 51550.89197381  3246.93308471
0.32300002 50645.20743236  2953.62863731
0.32400002 49754.20911614  2910.62137112
0.32500002 48877.22605514  3585.14470091
0.32600002 48014.46901148  3297.15374315
0.32700002 47164.78920832  2784.60928672
0.32800002 46329.82947346  2743.65263134
0.32900002 45507.61216523  2477.88959973
0.33000002 44699.74661720  2441.27677710
0.33100002 43902.99909619  2186.36945852
0.33200002 43122.67898199  2369.37570887
0.33300002 42354.08763854  2970.71584765
0.33400002 41598.88843983  2926.48194033
0.33500002 40856.02667487  2882.80137870
0.33600002 40126.83203616  2636.93489213
0.33700002 39409.60129027  3396.71369607
0.33800002 38706.13805594  2361.84865602
0.33900002 38014.14654120  2520.33803504
0.34000002 37335.32911314  2482.61282695
0.34100002 36668.47172349  2069.20195735
0.34200002 36014.48591368  2594.12354322
0.34300002 35371.83901854  2190.22437576
0.34400002 34742.42098695  2337.29648259
0.34500002 34124.05638566  2833.66177647
0.34600002 33518.40336417  1919.09627550
0.34700002 32922.96132444  1890.43652878
0.34800002 32340.50265172  1693.02539400
0.34900002 31769.00183053  1834.65994261
0.35000002 31208.97443337  1807.46783991
0.35100002 30660.73495005  2590.21901126
0.35200002 30122.40902152  2232.97428653
0.35300002 29595.60714960  2200.13753971
0.35400002 29080.06146206  2167.91868468
0.35500002 28575.27143516  1678.51152360
0.35600002 28080.29783378  1804.44002426
0.35700002 27596.54836423  1630.12818909
0.35800002 27123.41657713  1898.77486742
0.35900002 26660.68983721  2015.54824716
0.36000002 26208.29021662  1844.93267719
0.36100002 25765.23297928  1399.05221704
0.36200002 25333.17072414  1517.33033239
0.36300002 24910.05546736  2040.13363941
0.36400002 24496.72212953  1609.43472014
0.36500002 24092.84414347  1322.69720613
0.36600002 23698.80690796  2348.31488774
0.36700002 23313.63143599  2059.06002596
0.36800002 22939.00514528  1523.60879392
0.36900002 22572.55251921  1753.88741382
0.37000002 22214.67771935  1483.49624837
0.37100002 21865.71297214  1342.11752581
0.37200002 21526.14356467  1445.26534739
0.37300002 21194.72985309  1426.82928130
0.37400002 20871.80997933  1761.05905043
0.37500002 20557.66809846  1275.39778925
0.37600002 20251.92868051  1259.77128325
0.37700002 19953.60231193  1810.19088749
0.37800002 19663.38852420  1341.43642867
0.37900002 19381.72068690  1546.66138408
0.38000002 19107.63056438  1201.20125233
0.38100002 18840.29457211  1403.41360916
0.38200002 18581.39333504  1067.50109767
0.38300002 18329.25336518  1266.91805262
0.38400002 18085.25232532  1253.30804552
0.38500002 17847.34036441  1136.69716166
0.38600002 17617.51579786  1431.77557672
0.38700002 17393.84316266  1417.25040804
0.38800002 17177.36004351  1403.21860843
0.38900002 16966.81735010  1786.60595161
0.39000002 16764.17121292  1081.54055704
0.39100002 16566.89926501  1168.96046752
0.39200002 16376.40069667  1448.08330021
0.39300002 16191.98785404  1531.11444402
0.39400002 16014.74927626  1233.53612145
0.39500002 15842.28961399  1223.34166195
0.39600002 15676.03181386  1400.26160811
0.39700002 15515.37303355  1389.40172098
0.39800002 15360.76717095  1379.01293811
0.39900002 15211.41814882  1277.75918504
0.40000002 15067.34178890  906.30065154
0.40100002 14929.06630794  900.22274102
0.40200002 14795.99459662  1609.95224834
0.40300002 14667.49167178  1066.62004491
0.40400002 14544.43446444  1060.28932269
0.40500002 14426.54659780  966.43440238
0.40600002 14313.24377651  1398.11771833
0.40700002 14204.71291126  956.26131849
0.40800002 14100.72470335  951.58745169
0.40900002 14001.16044909  1033.28569010
0.41000002 13906.56298380  1286.00947286
0.41100002 13815.78934673  1109.96056871
0.41200002 13729.07209319  1190.72247906
0.41300002 13647.29380274  1101.74608090
0.41400002 13568.78903365  1182.52002031
0.41500002 13494.60834870  926.26996094
0.41600002 13423.71118505  1091.54912673
0.41700002 13356.97314554  921.23048150
0.41800002 13294.80326430  1169.80979466
0.41900002 13234.29427343  1000.51269448
0.42000002 13178.35571188  998.65584317
0.42100002 13126.34128273  997.07693108
0.42200002 13077.42735112  1161.66792665
0.42300002 13031.22760681  1077.42194959
0.42400002 12988.15315470  993.59376342
0.42500002 12948.56696377  1241.12020229
0.42600002 12911.05000087  992.34335009
0.42700002 12877.82595691  909.43211217
0.42800002 12846.41610360  909.33360698
0.42900002 12818.91938176  909.50237323
0.43000002 12793.38240176  827.09221147
0.43100002 12769.67823603  1158.46526447
0.43200002 12749.57126681  1324.93550883
0.43300002 12731.71097390  1160.36819315
0.43400002 12716.11841658  912.69944260
0.43500002 12702.80460917  1246.14519121
0.43600002 12692.02498263  998.35473244
0.43700002 12682.82269198  1249.89223553
0.43800002 12675.74471775  1001.63739506
0.43900002 12671.39654565  1003.57465397
0.44000002 12668.51261669  1257.03322396
0.44100002 12667.84660767  923.86609688
0.44200002 12668.82169993  1010.21189023
0.44300002 12671.79521565  928.33576149
0.44400002 12676.70509493  1100.02113674
0.44500002 12681.99946267  933.26838469
0.44600002 12689.54494867  1191.16764078
0.44700002 12699.48311466  853.40530575
0.44800002 12709.49661920  1112.78002923
0.44900002 12722.55782201  944.64996305
0.45000002 12736.22715041  1033.92696907
0.45100002 12751.00677426  950.97013029
0.45200002 12767.31210049  1214.55445768
0.45300002 12784.49732856  1218.87403307
0.45400002 12803.35875014  1048.59513133
0.45500002 12823.16357290  877.10442996
0.45600002 12843.93690908  1056.54230021
0.45700002 12865.76636404  972.26601021
0.45800002 12888.24432917  976.09123053
0.45900002 12911.73486739  1247.27364730
0.46000002 12936.81986899  1431.32981814
0.46100002 12961.68739994  988.06947733
0.46200002 12988.13048995  1443.24112845
0.46300002 13015.42850216  1087.04864002
0.46400002 13042.54843016  1364.57669418
0.46500002 13071.06092898  1096.40064269
0.46600002 13099.75705389  1192.92943265
0.46700002 13128.91450615  921.64984201
0.46800002 13159.54886767  1110.92916806
0.46900002 13189.62085901  1208.82880902
0.47000002 13220.50901420  1307.64060857
0.47100002 13251.91684282  1125.88290833
0.47200002 13283.89891927  1130.99120759
0.47300002 13316.27877163  1230.82370520
0.47400002 13348.34129572  1141.28323488
0.47500002 13381.12390063  1433.11843768
0.47600002 13414.50212462  1151.76920701
0.47700002 13447.44093800  964.18156096
