# SAXS profile: number of points = 501, q_min = 0, q_max = 0.5, delta_q = 0.001
#    q    intensity    error
0.00000000 1646666.22097350 246.99993315
0.00100000 1646580.79383194 790.35879981
0.00200000 1646324.49370315 814.93065019
0.00300000 1645897.52272328 1086.29240369
0.00400000 1645299.75271460 1604.16731985
0.00500000 1644531.85031115 1628.08659625
0.00600000 1643593.63128949 2243.50539805
0.00700000 1642485.85146290 2562.27803477
0.00800000 1641208.32927023 2215.63133806
0.00900000 1639762.39737797 4181.39429206
0.01000000 1638147.42232318 2973.23769990
0.01100000 1636365.06317090 4123.64013873
0.01200000 1634415.19244752 4143.24269451
0.01300000 1632299.06519319 3770.61100690
0.01400000 1630016.93947136 4034.29210404
0.01500000 1627570.21582952 5859.25303789
0.01600000 1624958.72214029 4143.64492669
0.01700000 1622184.52838803 5255.87810775
0.01800000 1619248.17978306 5076.34327204
0.01900000 1616150.50952333 7272.67762102
0.02000000 1612892.50861086 7620.91744792
0.02100000 1609476.63657619 7966.90971226
0.02200000 1605901.69172181 6094.39719697
0.02300000 1602170.61499712 6921.37737184
0.02400000 1598284.24188100 8390.99265248
0.02500000 1594244.67573904 8082.82087514
0.02600000 1590052.34660236 8371.62598777
0.02700000 1585709.35117436 9323.97141195
0.02800000 1581215.82838091 6878.28916889
0.02900000 1576575.27408459 9222.96577686
0.03000000 1571788.43151718 7308.81654251
0.03100000 1566856.70025080 7520.91250726
0.03200000 1561781.30737194 8503.89961031
0.03300000 1556566.33297980 7938.48866417
0.03400000 1551210.43560639 8958.24067896
0.03500000 1545717.51374827 8346.87495968
0.03600000 1540088.29329609 9402.23946509
0.03700000 1534325.64404424 10494.78789062
0.03800000 1528431.07169194 10729.58661984
0.03900000 1522407.05720552 13701.66414937
0.04000000 1516253.69542874 13054.94492259
0.04100000 1509975.24171284 16171.83558858
0.04200000 1503572.93748202 12607.45966568
0.04300000 1497048.71743315 12844.67859180
0.04400000 1490405.16875528 13078.30596321
0.04500000 1483644.83340385 11260.86480877
0.04600000 1476768.27082334 14575.70351061
0.04700000 1469779.24574693 11640.65216770
0.04800000 1462679.67960370 10750.69614530
0.04900000 1455472.02811463 14190.85293467
0.05000000 1448157.87006488 14401.93068844
0.05100000 1440741.26429396 12361.56062349
0.05200000 1433221.52929759 12533.52285779
0.05300000 1425603.81929864 13856.86976956
0.05400000 1417888.98986207 21055.65248136
0.05500000 1410081.17944709 15398.08719787
0.05600000 1402180.37568264 16784.09988014
0.05700000 1394192.08278691 13342.41885508
0.05800000 1386115.59744917 15947.26069327
0.05900000 1377954.43393533 12401.59048464
0.06000000 1369712.88694816 16292.73555143
0.06100000 1361391.72935884 20257.50987952
0.06200000 1352994.04546290 17900.11205819
0.06300000 1344522.87577648 12907.42021094
0.06400000 1335977.92254402 16933.52096017
0.06500000 1327365.10928189 14455.00671625
0.06600000 1318686.05624168 18553.91367943
0.06700000 1309941.50240324 14697.54434479
0.06800000 1301136.21039705 13466.76040798
0.06900000 1292273.15680545 14925.75565991
0.07000000 1283352.45782701 16401.24517907
0.07100000 1274377.69850886 19268.59170395
0.07200000 1265351.38239602 18012.27777222
0.07300000 1256276.78810509 15339.14030149
0.07400000 1247156.82631465 15433.56644892
0.07500000 1237991.83366972 15524.41832189
0.07600000 1228785.20701351 14192.46980636
0.07700000 1219540.95857130 22829.80781491
0.07800000 1210259.93863775 21512.37141813
0.07900000 1200944.02905765 18734.72773203
0.08000000 1191598.69535861 21716.88724167
0.08100000 1182224.31519958 15995.49573513
0.08200000 1172822.14842116 14601.63643303
0.08300000 1163396.14789130 21988.18822710
0.08400000 1153949.14401899 14712.85227684
0.08500000 1144482.68444807 23622.12371595
0.08600000 1134999.48033631 17774.09269659
0.08700000 1125501.71985179 17827.94807961
0.08800000 1115991.13634719 17878.17884391
0.08900000 1106470.93567565 17924.82999987
0.09000000 1096943.31508903 16470.60464978
0.09100000 1087409.94663279 15006.25796854
0.09200000 1077873.10375537 21050.86270545
0.09300000 1068336.61038096 16569.90160566
0.09400000 1058799.41576235 19614.26009882
0.09500000 1049265.61504810 19642.25323694
0.09600000 1039736.79235588 19666.62235190
0.09700000 1030218.08336418 22716.30980614
0.09800000 1020707.61210370 16673.25962765
0.09900000 1011209.88421345 22752.22346467
0.10000000 1001723.86484394 18211.34071929
0.10100000 992253.85883779 16699.63322965
0.10200000 982801.67144223 22776.42980699
0.10300000 973368.55679431 19739.91526037
0.10400000 963956.99617168 18218.78808475
0.10500000 954570.40121769 19730.97112150
0.10600001 945205.22328640 16687.59900233
0.10700001 935869.08234783 18193.29581698
0.10800001 926559.75093097 16664.17790474
0.10900001 917281.41496319 19675.68727701
0.11000001 908035.18124980 19654.42242328
0.11100001 898821.38524746 19630.25997787
0.11200001 889643.29884813 16587.40008791
0.11300001 880500.86109171 16562.22197690
0.11400001 871396.90099994 16534.75697500
0.11500001 862332.39269122 15004.58433936
0.11600001 853309.16409461 25458.48010964
0.11700001 844328.17988480 14944.60948778
0.11800001 835390.25922407 16402.88851241
0.11900001 826496.72036302 22315.41250089
0.12000001 817648.99456742 14840.32995045
0.12100001 808850.20700613 22202.93922826
0.12200001 800099.49755900 22142.75463812
0.12300001 791399.03996074 22080.03425519
0.12400001 782748.92815702 20547.16033225
0.12500001 774149.96119692 19020.86544288
0.12600001 765606.11084439 18960.23622853
0.12700001 757115.02276768 15990.27003442
0.12800001 748679.04467454 15935.63421693
0.12900001 740299.29834018 15879.42069783
0.13000001 731976.57760604 15821.67447071
0.13100001 723710.60703445 17195.36483369
0.13200001 715503.14361119 17129.14606553
0.13300001 707355.95496310 17061.42643804
0.13400001 699268.00119946 15576.19546107
0.13500001 691241.28496783 21151.98431729
0.13600001 683275.16418713 21061.95792916
0.13700001 675372.00514524 23766.34198172
0.13800001 667530.19072113 15309.80564613
0.13900001 659752.47109795 16625.76305571
0.14000001 652038.18207268 15169.66902133
0.14100001 644387.82626847 17843.09975091
0.14200001 636801.89903243 15025.34151634
0.14300001 629282.01663443 14951.74142047
0.14400001 621825.08998873 13524.69634521
0.14500001 614435.93804116 20184.22151678
0.14600001 607112.11983466 18741.55202342
0.14700001 599856.49209717 13316.81475280
0.14800001 592664.20152869 18544.46374074
0.14900001 585540.45698069 18444.52526512
0.15000001 578482.86519323 17033.42876930
0.15100001 571492.84476032 16939.04871796
0.15200001 564570.23895742 16843.95387411
0.15300001 557715.99840248 16748.21222236
0.15400001 550926.74672727 12809.04746588
0.15500001 544206.72771643 19101.65704431
0.15600001 537551.70935664 15191.21202337
0.15700001 530967.66640349 13842.32771645
0.15800001 524447.13424651 13758.87121636
0.15900001 517996.39854761 14918.29698232
0.16000001 511610.29261853 12355.38914994
0.16100001 505294.50435813 12278.65703551
0.16200001 499043.92678079 14641.94950294
0.16300001 492860.31525686 16974.11005876
0.16400001 486743.32906483 13251.58775939
0.16500001 480692.21676080 15560.00779116
0.16600001 474708.15067586 15458.87165662
0.16700001 468788.43562977 12994.81604920
0.16800001 462933.65495655 12908.90557798
0.16900001 457146.54462744 16320.13241380
0.17000001 451422.75254465 16210.59180934
0.17100001 445763.16107346 18401.10415804
0.17200001 440168.96491015 15991.33925034
0.17300001 434637.97484155 11344.05167908
0.17400001 429170.63001290 13518.87548385
0.17500001 423766.43533247 13424.92130536
0.17600001 418423.39077215 19996.45478942
0.17700001 413144.29276350 14340.23907912
0.17800001 407925.62364161 16429.20526815
0.17900001 402768.79146474 15224.66103648
0.18000001 397672.94929193 11876.50319159
0.18100001 392638.65263788 15006.65001268
0.18200001 387661.63095520 13833.70595411
0.18300001 382745.09435290 13732.89463411
0.18400001 377886.82817224 14680.90396803
0.18500001 373088.33584269 16654.66409882
0.18600001 368346.01153581 14464.94855639
0.18700001 363660.64459643 11280.75372834
0.18800001 359031.96963157 10178.55681995
0.18900001 354461.03484149 10102.13997028
0.19000001 349941.99497846 16041.34180775
0.19100001 345482.01912860 9949.88262104
0.19200001 341073.44049137 9874.07656879
0.19300001 336720.69836084 13718.00189943
0.19400001 332419.03610458 13612.56017173
0.19500001 328171.08117876 10613.05326684
0.19600001 323974.88772106 17232.22509222
0.19700001 319829.67943276 10448.83612085
0.19800001 315735.64027711 11309.65116921
0.19900001 311692.14135084 9350.76468244
0.20000001 307696.74284008 12987.88012910
0.20100001 303751.86303632 11044.41826199
0.20200001 299853.82320728 11869.71415266
0.20300001 296005.09020775 11775.08304501
0.20400001 292202.91402901 12579.33604352
0.20500001 288446.60153952 11586.90053152
0.20600001 284736.60375905 8841.07196462
0.20700001 281072.37363767 10523.35016642
0.20800001 277451.52112590 10437.72671815
0.20900001 273877.20017195 10352.55865588
0.21000001 270344.53169665 9412.04531595
0.21100001 266855.39635074 11031.80260665
0.21200001 263408.29895699 12623.84332430
0.21300001 260002.32798452 10849.89765973
0.21400001 256638.62734381 9104.25573544
0.21500001 253316.15250458 9848.93247501
0.21600001 250032.61718067 11393.98690361
0.21700001 246789.08720191 8070.00353305
0.21800001 243584.53427194 8801.92756208
0.21900001 240417.28114665 9520.52478355
0.22000001 237287.89367650 10225.92226150
0.22100001 234197.29514836 10918.27841607
0.22200001 231143.36605631 10051.26974823
0.22300001 228124.39775067 9964.47416492
0.22400001 225140.80442371 12157.60401377
0.22500001 222194.65079247 8285.63891986
0.22600001 219280.97945320 8213.16947381
0.22700001 216403.51397242 7401.00052784
0.22800001 213558.78871739 8802.89368722
0.22900001 210746.25147372 10179.04442756
0.23000001 207967.61130289 7926.68587968
0.23100001 205222.02043349 7855.89931372
0.23200001 202506.57335825 7077.60507360
0.23300001 199822.78666425 7715.15815799
0.23400001 197170.86534343 7645.30066528
0.23500001 194547.59591533 7575.68374324
0.23600001 191955.93568962 9553.64737113
0.23700001 189393.17937770 8113.60418830
0.23800001 186859.82755601 11388.17272905
0.23900001 184354.84257938 7300.45211145
0.24000001 181878.10714818 9204.85143816
0.24100001 179430.67654363 7816.00063995
0.24200001 177009.96478565 8387.61757812
0.24300001 174616.73419897 9586.45916099
0.24400001 172249.88348601 8229.23857282
0.24500001 169909.73933341 6896.63664578
0.24600001 167595.70728562 8693.18974814
0.24700001 165307.93633693 6764.40107490
0.24800001 163045.35017016 6089.74411694
0.24900001 160806.96850682 7236.31392514
0.25000001 158594.59806392 8956.63034938
0.25100001 156405.57231823 8276.98327866
0.25200001 154242.29058370 5853.49520458
0.25300001 152102.73699692 7533.64891988
0.25400001 149986.17257346 8031.75992130
0.25500001 147892.82871869 6246.99338063
0.25600001 145823.04101011 6745.77419629
0.25700001 143775.24593393 6120.51250899
0.25800001 141750.81242116 5507.01932312
0.25900001 139748.54686928 8175.29037867
0.26000001 137768.32811696 7551.08242137
0.26100001 135809.01060924 5871.02380643
0.26200001 133872.40941196 6337.52016143
0.26300001 131956.20569520 7838.19898918
0.26400001 130061.40480449 6203.92930273
0.26500001 128188.06790172 7672.05622695
0.26600001 126334.29106313 6577.59517545
0.26700001 124502.11309407 8007.97629315
0.26800001 122690.53233376 4950.56321393
0.26900001 120897.47304041 6365.25225679
0.27000001 119125.52189369 5810.94323296
0.27100001 117372.54186113 5746.55992146
0.27200001 115640.70295337 8050.32791707
0.27300001 113927.27078989 5150.65215616
0.27400001 112231.22932188 6018.39995721
0.27500001 110557.09954649 4577.06413784
0.27600001 108899.62194239 5429.73540702
0.27700001 107262.30906470 6709.25774952
0.27800001 105642.56722954 7515.94080125
0.27900001 104042.65500872 6991.66674749
0.28000001 102459.43458100 5614.26498358
0.28100001 100895.23689933 6401.80308425
0.28200001 99349.63321579  5904.34898146
0.28300001 97821.28966977  5417.34327832
0.28400001 96310.47225858  4940.72746071
0.28500001 94817.87014443  6508.29891476
0.28600001 93342.53613358  5625.75491905
0.28700001 91884.57114128  3969.41366119
0.28800001 90443.26690668  5096.93054778
0.28900001 89020.98345644  5034.13685275
0.29000001 87614.04719796  4971.65934358
0.29100001 86225.04559846  4154.32289358
0.29200001 84852.84884678  5593.92432501
0.29300001 83497.43312111  4050.46067244
0.29400001 82157.87804556  6180.32666853
0.29500001 80836.06593912  4306.94579711
0.29600001 79530.07931381  3897.37172126
0.29700001 78240.44668249  3847.08294549
0.29800001 76967.03616737  5177.95760328
0.29900001 75710.43806579  4429.06083652
0.30000001 74469.16989355  3362.28317986
0.30100001 73244.93472825  3317.99570026
0.30200001 72034.82063151  4583.57585377
0.30300001 70842.18002648  4845.60534321
0.30400001 69665.18955669  4780.77385966
0.30500001 68503.42437041  3458.73806021
0.30600001 67356.32909902  4032.28683241
0.30700001 66225.95487630  3977.53103818
0.30800001 65110.28841308  4225.00681515
0.30900001 64010.37876516  3571.77930420
0.31000001 62925.63016760  4109.67310082
0.31100001 61855.21931472  4052.75416138
0.31200001 60800.68431914  3710.96994312
0.31300001 59760.26570062  3096.17951254
0.31400001 58735.82212383  3607.84804478
0.31500001 57725.32832854  3830.65296925
0.31600002 56729.88783096  3506.75818231
0.31700002 55748.96426736  2659.22572146
0.31800002 54782.45583531  3407.74282659
0.31900002 53830.55264110  2842.25331403
0.32000002 52893.18302351  3310.84894812
0.32100002 51969.38701866  2510.12151186
0.32200002 51060.92349200  3216.07241843
0.32300002 50164.99986759  2438.01910901
0.32400002 49283.49479995  3123.34163084
0.32500002 48415.85423998  3077.79599977
0.32600002 47562.41969521  3266.11151513
0.32700002 46722.03923067  3218.21421460
0.32800002 45896.11218193  2944.46521646
0.32900002 45082.95113423  2454.76680550
0.33000002 44284.01143149  2198.70127169
0.33100002 43495.93838419  2382.70761752
0.33200002 42724.31227127  2134.07949901
0.33300002 41964.19486405  2522.88751470
0.33400002 41217.52042363  3106.77074905
0.33500002 40482.82748807  2244.36806222
0.33600002 39761.85925883  2612.95070493
0.33700002 39052.68480855  1979.97121356
0.33800002 38356.97524126  2535.58796840
0.33900002 37672.87754396  2689.84358402
0.34000002 37001.76364698  1892.64030018
0.34100002 36342.51106501  2237.24508711
0.34200002 35696.03034297  1836.56084812
0.34300002 35060.60000194  1990.03975036
0.34400002 34438.33264907  1782.18379899
0.34500002 33827.10858074  1755.62701849
0.34600002 33228.54959440  1902.50069713
0.34700002 32639.89009597  2555.70351556
0.34800002 32064.24408571  2014.27590886
0.34900002 31499.38093421  2149.83285058
0.35000002 30945.78430487  1629.29562082
0.35100002 30404.04408278  2086.93368468
0.35200002 29871.81248130  1581.71254580
0.35300002 29351.22763132  1558.55026104
0.35400002 28841.76648352  1689.40655179
0.35500002 28342.80555140  1664.85647694
0.35600002 27853.66532956  2386.50215847
0.35700002 27375.54091377  1764.07994004
0.35800002 26908.14944620  2173.50587447
0.35900002 26450.73514380  1856.84169505
0.36000002 26003.60925444  1830.52416017
0.36100002 25565.82360320  1665.86914489
0.36200002 25138.89435617  2190.10058005
0.36300002 24720.68969656  1349.74972137
0.36400002 24312.20037902  1597.31164056
0.36500002 23913.22676432  1575.40345386
0.36600002 23523.74159205  1683.47664678
0.36700002 23142.99285872  1532.99191958
0.36800002 22772.93096314  1512.57814622
0.36900002 22410.68032864  1616.93066230
0.37000002 22057.04526587  1718.46447807
0.37100002 21712.10067465  1453.84233004
0.37200002 21376.58252948  1435.22381902
0.37300002 21049.05459923  1771.27802843
0.37400002 20729.87441543  1399.26658933
0.37500002 20419.43158937  1381.98719543
0.37600002 20117.25913848  1706.44658726
0.37700002 19822.43273152  1236.32518803
0.37800002 19535.49383316  1221.65216473
0.37900002 19257.03742099  1317.18142199
0.38000002 18986.11454175  1193.56214721
0.38100002 18721.84357635  1394.59019407
0.38200002 18465.93807553  1379.12865050
0.38300002 18216.64783377  1049.27896493
0.38400002 17975.40567178  1764.73553543
0.38500002 17740.04239823  1129.86335387
0.38600002 17512.64460976  1219.93088131
0.38700002 17291.65787397  1308.28689672
0.38800002 17077.41085484  1096.11366765
0.38900002 16869.20704212  1085.53352459
0.39000002 16668.68240816  1075.38009651
0.39100002 16473.47884004  1549.82496270
0.39200002 16285.03191044  960.00267660
0.39300002 16102.53443176  1046.82581300
0.39400002 15927.09503180  1226.78455295
0.39500002 15756.39529388  1310.30189472
0.39600002 15591.72470358  1764.12577517
0.39700002 15432.60803861  1013.45941791
0.39800002 15279.48858658  1280.26840933
0.39900002 15131.53954700  1271.04938217
0.40000002 14988.73781867  901.57262251
0.40100002 14851.61557181  1253.77344597
0.40200002 14719.78576967  978.79220113
0.40300002 14592.32443453  1061.15388316
0.40400002 14470.28427243  879.06981120
0.40500002 14353.32949200  961.52958823
0.40600002 14240.82670198  1130.22326475
0.40700002 14132.99945141  951.43356815
0.40800002 14029.81305639  1118.94779333
0.40900002 13930.81605571  856.74522802
0.41000002 13836.68215705  1279.54724310
0.41100002 13746.45161139  934.48382482
0.41200002 13660.12210893  930.86906522
0.41300002 13578.65995102  1096.20526979
0.41400002 13500.42974792  924.44197079
0.41500002 13426.45940170  1089.15443827
0.41600002 13355.73772610  1169.56200809
0.41700002 13289.07240946  916.54736751
0.41800002 13226.96243343  831.31462833
0.41900002 13166.35798547  1161.27282934
0.42000002 13110.26601641  1076.28733962
0.42100002 13058.18328892  1322.53286617
0.42200002 13009.05548205  907.96707039
0.42300002 12962.61038510  989.30647147
0.42400002 12919.21800329  823.60018674
0.42500002 12879.25618339  1069.87986185
0.42600002 12841.30380442  1151.47976671
0.42700002 12807.63522281  822.25022027
0.42800002 12775.54627295  1233.15966243
0.42900002 12747.58937075  904.44150871
0.43000002 12721.42148895  1069.17191970
0.43100002 12696.97748475  1069.59343400
0.43200002 12676.12930248  987.97756465
0.43300002 12657.54600381  1318.41005423
0.43400002 12641.16244074  1072.28665485
0.43500002 12627.00409674  990.96732847
0.43600002 12615.29172429  1240.39861757
0.43700002 12605.17532961  1076.60807592
0.43800002 12597.15358883  1244.28390470
0.43900002 12591.81396686  1329.69561791
0.44000002 12587.88187327  832.68842538
0.44100002 12586.14870180  834.46169847
0.44200002 12586.00231550  836.33989350
0.44300002 12587.82059814  1173.68844819
0.44400002 12591.56401811  1344.77910086
0.44500002 12595.74244866  926.92073072
0.44600002 12602.01396186  1013.95809142
0.44700002 12610.74926178  1101.67510772
0.44800002 12619.35316060  1189.87886590
0.44900002 12631.18799045  1193.64732167
0.45000002 12643.45155378  1026.39544578
0.45100002 12656.87044895  943.94944282
0.45200002 12671.81901435  1119.36518568
0.45300002 12687.57390818  950.42620651
0.45400002 12705.03018982  1040.54202186
0.45500002 12723.37294605  1305.41812613
0.45600002 12742.65150167  960.85968202
0.45700002 12763.02538822  1052.18386287
0.45800002 12783.99109167  1848.37343959
0.45900002 12805.99454392  1148.69776503
0.46000002 12829.56845316  975.88117064
0.46100002 12852.91523309  1068.84848144
0.46200002 12877.78205520  1252.10680857
0.46300002 12903.52997627  1257.32002048
0.46400002 12929.10770591  991.98583575
0.46500002 12956.03565344  1086.75232212
0.46600002 12983.13438645  909.46860688
0.46700002 13010.72679138  1278.69428966
0.46800002 13039.78216071  1100.81846218
0.46900002 13068.26123955  921.31246105
0.47000002 13097.50030739  1017.87228463
0.47100002 13127.39647095  1022.36168561
0.47200002 13157.67241908  1773.72011452
0.47300002 13188.40601944  1031.46528367
0.47400002 13218.86514256  1318.58186047
0.47500002 13250.01962251  1040.65659048
0.47600002 13281.85733847  1045.34863137
0.47700002 13313.15790087  954.55346674
0.47800002 13344.74021980  1534.11140838
