# SAXS profile: number of points = 501, q_min = 0, q_max = 0.5, delta_q = 0.001
#    q    intensity    error
0.00000000 1664650.74656091 324.60689558
0.00100000 1664564.84728544 649.18030586
0.00200000 1664307.12597724 898.72587649
0.00300000 1663877.79217386 1297.82472413
0.00400000 1663276.71345102 1372.20334074
0.00500000 1662504.55721077 1795.50499286
0.00600000 1661561.13842514 2268.03104629
0.00700000 1660447.22160378 2391.04409848
0.00800000 1659162.60651633 2911.83049737
0.00900000 1657708.63477763 2983.87567015
0.01000000 1656084.70083939 4098.80981156
0.01100000 1654292.45642201 3871.04451657
0.01200000 1652331.71832453 4833.07048800
0.01300000 1650203.83775037 3465.42821212
0.01400000 1647908.98238397 3707.79537473
0.01500000 1645448.62536855 5528.70762743
0.01600000 1642822.55358272 5445.95700858
0.01700000 1640032.85777347 4870.89780609
0.01800000 1637080.09664070 5598.81418244
0.01900000 1633965.09233591 6862.65369747
0.02000000 1630688.78810513 5650.33690638
0.02100000 1627253.75333628 7517.91268126
0.02200000 1623658.68850195 6721.94727579
0.02300000 1619906.62245387 5831.66410628
0.02400000 1615998.35482745 8483.99174969
0.02500000 1611935.89272417 8172.51534936
0.02600000 1607719.90765418 7162.39251619
0.02700000 1603352.21566763 6734.07961423
0.02800000 1598833.24410839 7650.41742390
0.02900000 1594166.31819072 8608.49851348
0.03000000 1589352.13066782 8129.53652204
0.03100000 1584392.23822622 7605.08309342
0.03200000 1579287.78531472 15634.94979473
0.03300000 1574042.87338448 9633.14282921
0.03400000 1568656.23358779 11529.62384885
0.03500000 1563131.61945472 10129.09336181
0.03600000 1557469.88825255 8643.95827927
0.03700000 1551673.80294487 10613.44930299
0.03800000 1545745.09022368 9042.60919630
0.03900000 1539686.01715813 12009.55149000
0.04000000 1533496.76614535 10374.10610370
0.04100000 1527181.51374355 13469.74157576
0.04200000 1520741.73131585 14713.17693307
0.04300000 1514179.14641860 14990.37424537
0.04400000 1507496.28843429 14245.84058731
0.04500000 1500696.01394824 16567.68476380
0.04600000 1493778.62875507 13690.48176897
0.04700000 1486748.06115855 12845.50384583
0.04800000 1479606.03540807 11962.61535287
0.04900000 1472355.17838708 13251.19722229
0.05000000 1464997.03203177 13448.67338030
0.05100000 1457535.74375177 13642.53519704
0.05200000 1449970.49154407 13832.71913395
0.05300000 1442306.60883393 12850.95248379
0.05400000 1434544.63523147 14201.99255109
0.05500000 1426689.08079782 14381.02660531
0.05600000 1418739.71299716 15769.29264582
0.05700000 1410702.24574100 18409.66516626
0.05800000 1402575.80725349 16136.63541591
0.05900000 1394364.01190816 13804.20436263
0.06000000 1386071.05190372 13950.80578918
0.06100000 1377697.78126428 17937.62595031
0.06200000 1369247.34702535 19409.08205133
0.06300000 1360722.67092935 14369.23207685
0.06400000 1352123.54744065 13183.20520408
0.06500000 1343455.94692972 15960.25739611
0.06600000 1334721.43113612 17438.13631370
0.06700000 1325920.77476031 14876.83178903
0.06800000 1317058.62406263 16357.86887655
0.06900000 1308138.19768401 19229.63240627
0.07000000 1299159.37271293 15219.65276405
0.07100000 1290125.99446093 16720.03367134
0.07200000 1281040.46882070 19638.35130702
0.07300000 1271905.94331589 19765.41928525
0.07400000 1262725.58655879 21308.49527178
0.07500000 1253499.30158611 21434.83906183
0.07600000 1244231.09569639 18682.13077771
0.07700000 1234924.57237609 17338.34180913
0.07800000 1225580.82765051 15975.44683761
0.07900000 1216201.65856362 14594.42058730
0.08000000 1206792.29615597 20527.53792058
0.08100000 1197353.52600395 17672.93887300
0.08200000 1187886.41416717 14789.18655037
0.08300000 1178395.04130944 22271.66732600
0.08400000 1168881.98676767 23845.19364932
0.08500000 1159349.03892291 20937.84462588
0.08600000 1149798.88868739 18005.85144225
0.08700000 1140233.74966316 19566.41206301
0.08800000 1130655.21339318 15094.24780768
0.08900000 1121066.56336559 19674.71911118
0.09000000 1111470.17442571 16688.72545296
0.09100000 1101867.52930327 18246.92714252
0.09200000 1092260.99998991 19808.15416554
0.09300000 1082654.40052526 21371.59887067
0.09400000 1073046.53551310 18349.09661964
0.09500000 1063441.84687763 18376.27597778
0.09600000 1053841.74624445 19933.41756724
0.09700000 1044251.30915566 21490.69295276
0.09800000 1034668.58178537 18437.79499432
0.09900000 1025098.41548084 21527.06773735
0.10000000 1015539.64678997 15385.42637240
0.10100000 1005996.38416566 24626.79264262
0.10200000 996470.81084235 15395.47475166
0.10300000 986963.81609704 16936.29988092
0.10400000 977477.90169642 18474.33321119
0.10500000 968016.84744220 16930.61545834
0.10600001 958576.85728752 16923.67521173
0.10700001 949165.81470194 19989.43299828
0.10800001 939781.07117243 15365.42123679
0.10900001 930427.11693242 15352.04815194
0.11000001 921104.92311841 23004.59653770
0.11100001 911814.93105455 16850.34071909
0.11200001 902560.62629219 21417.76467020
0.11300001 893341.48445025 21386.59614464
0.11400001 884160.78545499 16776.95169394
0.11500001 875019.08485468 15225.33279340
0.11600001 865918.64931674 18236.24761338
0.11700001 856860.41103941 16683.07298863
0.11800001 847844.66574405 19674.23639521
0.11900001 838873.36176995 16609.69334539
0.12000001 829947.71125301 16569.90683569
0.12100001 821070.69375586 19533.27272463
0.12200001 812241.72087079 20980.20463850
0.12300001 803462.84595632 14944.40963888
0.12400001 794734.17647822 22351.89976661
0.12500001 786056.58318356 14856.47012221
0.12600001 777433.91768191 17772.14019569
0.12700001 768864.10206220 14762.19145528
0.12800001 760349.11401258 20597.85846936
0.12900001 751890.42782028 16128.05043689
0.13000001 743488.54463242 27758.14612223
0.13100001 735143.38479343 20378.17558705
0.13200001 726856.58594840 15950.86853057
0.13300001 718630.20339934 20222.25487699
0.13400001 710462.68492796 14386.87004807
0.13500001 702356.85769013 21492.12085863
0.13600001 694311.30851464 19975.33728782
0.13700001 686328.84486973 15627.70853458
0.13800001 678407.48351369 15559.27636810
0.13900001 670550.51745090 14081.56153053
0.14000001 662756.84520249 16820.76952452
0.14100001 655027.14132142 20928.11815225
0.14200001 647361.93727042 16663.09705126
0.14300001 639762.92887593 15200.76790708
0.14400001 632226.63002621 15126.02283687
0.14500001 624758.30882092 16418.64913032
0.14600001 617355.38931777 17696.49306961
0.14700001 610020.88923693 13542.46437995
0.14800001 602749.63736697 16165.74603686
0.14900001 595546.95573487 14739.78784987
0.15000001 588410.72364496 18658.50492714
0.15100001 581342.06023556 15905.51951855
0.15200001 574341.00989589 13181.12679909
0.15300001 567408.55304262 13107.13819380
0.15400001 560540.90486580 13032.57665315
0.15500001 553742.81675388 19436.37378532
0.15600001 547009.67897450 15458.49425738
0.15700001 540347.90789090 15367.49522571
0.15800001 533749.71932916 14002.92454752
0.15900001 527221.42857707 17714.64083633
0.16000001 520758.11716391 20122.09459703
0.16100001 514365.11892490 13748.98027787
0.16200001 508037.70945514 13663.67484080
0.16300001 501777.21490101 16046.83609007
0.16400001 495583.66455083 12265.69627669
0.16500001 489456.26144444 17062.44607949
0.16600001 483396.06280657 13319.97913951
0.16700001 477400.41667158 18045.73660221
0.16800001 471470.08859167 14342.12077214
0.16900001 465607.43695775 11872.99020304
0.17000001 459808.44865603 20049.94835040
0.17100001 454073.96340493 12886.61968995
0.17200001 448404.97675079 16290.55357464
0.17300001 442799.73666741 15024.19577463
0.17400001 437258.24707540 13773.63543335
0.17500001 431780.11999047 15958.59398853
0.17600001 426363.37630188 14715.93262808
0.17700001 421011.11315010 12365.09697723
0.17800001 415719.38008868 18975.51200040
0.17900001 410489.74156040 13299.86825476
0.18000001 405321.46989083 18707.61332647
0.18100001 400215.08049850 12018.45943508
0.18200001 395166.28267563 11932.04646904
0.18300001 390178.27224635 13999.59706953
0.18400001 385248.70070455 13897.84753446
0.18500001 380379.35079915 13796.35970525
0.18600001 375566.59193360 11588.10774157
0.18700001 370810.98972261 12548.24448505
0.18800001 366112.65015933 13493.08235912
0.18900001 361472.12581236 15452.93410859
0.19000001 356883.85208099 12269.66741427
0.19100001 352355.15011196 12177.39456325
0.19200001 347878.02349185 12085.28310715
0.19300001 343457.37534358 15991.37615163
0.19400001 339087.92487503 9918.32227127
0.19500001 334772.64820027 13779.24285106
0.19600001 330509.44624918 13673.17643747
0.19700001 326297.79347345 12598.35840138
0.19800001 322137.48786879 11538.96536078
0.19900001 318028.20404584 9540.84657228
0.20000001 313967.24202769 10412.72407397
0.20100001 309957.51088306 13148.39823308
0.20200001 305994.66025271 13976.30676761
0.20300001 302081.76518788 11092.44294198
0.20400001 298215.53286298 16506.23052415
0.20500001 294395.89527477 14554.93375035
0.20600001 290622.96168598 10828.61206427
0.20700001 286896.08403758 13426.73736763
0.20800001 283213.02314521 15093.83878201
0.20900001 279576.74639704 9687.33472059
0.21000001 275982.73845381 8734.85408498
0.21100001 272432.78000652 9529.69909513
0.21200001 268925.03942515 12888.23312373
0.21300001 265458.94782260 10225.47915354
0.21400001 262035.61252398 10140.77868410
0.21500001 258653.82067424 13408.61469768
0.21600001 255311.51858626 14958.70258120
0.21700001 252009.46043320 9888.85169494
0.21800001 248747.12189901 8988.47767480
0.21900001 245522.24689636 9722.68143680
0.22000001 242335.66006282 8836.77026202
0.22100001 239188.43126031 7964.97513758
0.22200001 236078.32143687 11055.54831564
0.22300001 233003.56414710 10177.59616320
0.22400001 229964.38310347 8537.42812642
0.22500001 226963.49093626 8463.46897723
0.22600001 223995.43575741 10677.86292749
0.22700001 221064.03190693 7560.39024874
0.22800001 218165.53441306 9742.18239992
0.22900001 215299.81613070 8913.41280933
0.23000001 212468.60670872 12515.46387006
0.23100001 209670.72424870 10215.15816850
0.23200001 206903.37371525 11570.03720535
0.23300001 204168.38527510 9316.20386071
0.23400001 201465.58824729 8521.99478591
0.23500001 198791.75365417 7740.95125341
0.23600001 196150.13517288 8367.76516225
0.23700001 193537.79136832 8982.08932224
0.23800001 190955.30922118 7530.32297531
0.23900001 188401.57089134 7460.70256018
0.24000001 185876.59288037 6719.43915046
0.24100001 183381.43000394 7988.09546882
0.24200001 180913.21542121 6594.28701403
0.24300001 178473.22033596 7838.54420794
0.24400001 176059.94088786 9705.30470054
0.24500001 173673.66658521 11535.40548026
0.24600001 171314.29441923 6981.91439934
0.24700001 168981.24576891 10057.76422396
0.24800001 166673.92262500 6847.79843499
0.24900001 164391.33209486 6164.67524519
0.25000001 162135.13785033 6714.82705174
0.25100001 159902.69340859 7857.61872583
0.25200001 157696.48032458 10772.24708060
0.25300001 155514.38772572 8295.13783374
0.25400001 153355.84934691 7039.03381805
0.25500001 151220.78190210 5806.87829978
0.25600001 149109.80714672 6897.82000496
0.25700001 147021.20528028 6258.69300490
0.25800001 144956.43410225 9573.64814325
0.25900001 142914.24590167 5573.65585388
0.26000001 140894.41166678 8274.02471662
0.26100001 138896.15053062 6004.48087155
0.26200001 136920.76144308 5941.67672396
0.26300001 134966.32852468 6413.60023497
0.26400001 133033.78228194 7403.33033430
0.26500001 131122.97100146 7324.52950673
0.26600001 129232.12294496 7763.62015329
0.26700001 127363.34080847 6656.00850561
0.26800001 125515.56814177 8609.74080411
0.26900001 123686.81370569 6512.11104977
0.27000001 121879.37391689 5449.83646259
0.27100001 120091.46930437 6859.62505128
0.27200001 118325.06733936 5329.95291053
0.27300001 116577.34084783 4791.32893559
0.27400001 114847.52544773 4737.46064892
0.27500001 113139.97906119 4683.99535481
0.27600001 111449.48811474 6946.08967548
0.27700001 109779.54088115 5035.58777854
0.27800001 108127.57353301 4525.13916652
0.27900001 106495.73785219 5814.66756193
0.28000001 104881.10486623 4862.81265727
0.28100001 103285.71321221 6553.47881348
0.28200001 101709.32699624 4317.56113534
0.28300001 100150.70048792 4693.06204699
0.28400001 98609.88525908  5901.80191209
0.28500001 97087.62369158  4998.07110421
0.28600001 95582.97514598  4526.33200228
0.28700001 94096.15141938  4471.44932709
0.28800001 92626.29142169  4416.88491551
0.28900001 91175.79893291  4362.76218545
0.29000001 89740.92775899  4700.63001852
0.29100001 88324.44843392  5802.91653679
0.29200001 86925.06516017  4584.42815355
0.29300001 85542.74498758  4149.67875578
0.29400001 84176.77517672  4097.30472568
0.29500001 82828.78927051  4045.35825947
0.29600001 81497.00288279  4719.89914539
0.29700001 80181.81790668  4659.36565912
0.29800001 78883.19918967  4599.28514648
0.29900001 77601.77544907  4888.91208473
0.30000001 76336.00121440  4480.54180339
0.30100001 75087.52330973  5442.34394713
0.30200001 73853.60769262  3692.31129139
0.30300001 72637.24878957  3974.71044193
0.30400001 71437.00279431  3268.24303256
0.30500001 70252.21498975  3547.03450276
0.30600001 69082.46196707  3499.37227661
0.30700001 67929.64897817  4393.68990392
0.30800001 66791.90518534  3714.96594229
0.30900001 65670.16531410  3053.66283168
0.31000001 64563.86227212  3313.09474935
0.31100001 63472.20499384  3861.64913466
0.31200001 62396.67621624  3222.47649576
0.31300001 61335.57758737  3177.79642526
0.31400001 60290.76765831  3703.36057875
0.31500001 59260.06691307  3932.49822654
0.31600002 58244.76730911  3323.44658002
0.31700002 57244.21162635  3822.76863341
0.31800002 56258.37798786  4037.94527127
0.31900002 55287.26748828  3184.54675811
0.32000002 54331.18648248  3662.46545420
0.32100002 53388.74231953  3352.27928897
0.32200002 52461.93285904  3558.49307432
0.32300002 51547.90024214  2755.75087743
0.32400002 50648.36342594  2962.92940072
0.32500002 49763.13344689  2676.75907486
0.32600002 48892.35944313  2877.80441309
0.32700002 48034.77928653  2835.97350337
0.32800002 47191.86054998  3493.37764263
0.32900002 46361.97444312  2983.39319669
0.33000002 45546.60681321  2939.80587597
0.33100002 44742.28317076  2896.61554964
0.33200002 43954.52538786  2634.63437651
0.33300002 43178.50282725  3244.86464113
0.33400002 42416.29335966  2983.98637916
0.33500002 41666.06792193  2729.96089952
0.33600002 40929.96909911  2275.91103953
0.33700002 40205.61742531  2853.79486000
0.33800002 39495.12616449  3815.82179509
0.33900002 38796.31352443  2572.19570848
0.34000002 38110.70121971  2924.04368956
0.34100002 37437.24771880  2304.63707871
0.34200002 36776.71206671  2081.37811799
0.34300002 36127.22685558  2609.83099165
0.34400002 35491.30724567  2571.34533173
0.34500002 34866.45371288  2533.39664676
0.34600002 34254.54661919  2317.83400676
0.34700002 33652.63897234  2108.00140506
0.34800002 33063.92278056  1903.98608349
0.34900002 32486.14163494  1876.07476827
0.35000002 31919.81835117  1848.63636736
0.35100002 31365.48794454  1987.31741029
0.35200002 30820.88580666  2121.55577498
0.35300002 30287.98157989  1929.95027768
0.35400002 29766.41661938  2060.58028807
0.35500002 29255.53023562  1718.46992743
0.35600002 28754.51009482  2001.74531506
0.35700002 28264.60413128  1669.59024511
0.35800002 27785.77501313  2244.39608299
0.35900002 27316.92206295  1622.62524740
0.36000002 26858.50115139  2036.14306873
0.36100002 26409.51803516  1434.03689723
0.36200002 25971.61937963  1979.81663909
0.36300002 25542.49916195  1813.00667639
0.36400002 25123.27232160  1375.49922476
0.36500002 24713.53923880  1492.45070532
0.36600002 24313.58218504  1472.30903896
0.36700002 23922.34852973  1452.56507153
0.36800002 23542.00985767  2084.88049175
0.36900002 23169.59633517  1543.09518902
0.37000002 22805.88345609  1522.97696934
0.37100002 22450.88477240  1378.03537261
0.37200002 22105.60653898  1978.89399111
0.37300002 21768.28143163  1709.68090463
0.37400002 21439.40580106  1326.56329678
0.37500002 21119.39651370  1429.36082376
0.37600002 20807.73072977  1294.34495136
0.37700002 20503.60000994  1278.80959320
0.37800002 20207.32093919  1608.30074974
0.37900002 19919.72289215  1248.96668450
0.38000002 19639.68760911  1571.37148005
0.38100002 19366.40985446  1442.60393840
0.38200002 19101.60702010  1097.38737529
0.38300002 18843.41966768  1628.07153642
0.38400002 18593.46808318  1395.90468247
0.38500002 18349.31258829  1806.12292363
0.38600002 18113.44583173  1156.63413838
0.38700002 17883.86461162  1249.00916365
0.38800002 17661.15307241  1030.52833060
0.38900002 17444.65798616  1326.66630270
0.39000002 17235.81607285  1111.96872662
0.39100002 17032.27526247  1301.94718274
0.39200002 16835.69223991  992.46410456
0.39300002 16645.03679012  1180.46606508
0.39400002 16461.63152263  1170.42205671
0.39500002 16282.98264729  967.20921507
0.39600002 16110.33360181  1343.11857602
0.39700002 15943.36157062  1142.18247703
0.39800002 15782.50044811  1227.95750554
0.39900002 15626.76951927  1031.36683714
0.40000002 15476.29459667  1117.07899691
0.40100002 15331.50224039  1016.93859179
0.40200002 15192.21110012  1010.20612497
0.40300002 15057.20701627  912.46678842
0.40400002 14927.76231802  1178.92008492
0.40500002 14803.34799285  991.67632903
0.40600002 14683.47404378  1075.71135942
0.40700002 14568.33725443  1159.05696688
0.40800002 14457.97573699  1330.49528024
0.40900002 14351.77762987  1588.74185890
0.41000002 14250.46430864  1317.81174938
0.41100002 14153.08090027  1137.05857340
0.41200002 14059.70087586  958.09836158
0.41300002 13971.13618421  1127.88987759
0.41400002 13885.95563582  1123.72101307
0.41500002 13805.13410057  1119.87253130
0.41600002 13727.43085008  1116.24609247
0.41700002 13653.89874120  1027.31938997
0.41800002 13584.93508160  1109.95717344
0.41900002 13517.52808350  851.60430961
0.42000002 13454.79892318  934.63765149
0.42100002 13395.93409510  1017.55520208
0.42200002 13340.15080541  1269.64891307
0.42300002 13287.07171187  845.05780092
0.42400002 13237.09364809  928.25123606
0.42500002 13190.52891416  1011.44980507
0.42600002 13146.06552890  1094.60719813
0.42700002 13105.87106011  925.53665812
0.42800002 13067.31436434  1009.05806303
0.42900002 13032.91391600  1429.05907861
0.43000002 13000.33297281  1092.61303648
0.43100002 12969.50193305  924.46614160
0.43200002 12942.34835099  1092.78723480
0.43300002 12917.42105047  925.01656526
0.43400002 12894.85346994  925.52815166
0.43500002 12874.38229739  1178.77849901
0.43600002 12856.44750194  1011.28820843
0.43700002 12840.19219985  843.60066751
0.43800002 12825.96343701  1351.34357176
0.43900002 12814.52112631  930.33427786
0.44000002 12804.50549091  1016.42169404
0.44100002 12796.67920039  1442.31378103
0.44200002 12790.55377267  849.93233847
0.44300002 12786.30825696  1021.88180432
0.44400002 12784.09752314  1194.67397015
0.44500002 12782.36672228  1111.68248652
0.44600002 12782.63378286  942.78319933
0.44700002 12785.54916126  1116.94562766
0.44800002 12788.18408331  1119.66951048
0.44900002 12794.16234490  1122.68779897
0.45000002 12800.66450933  1125.75449362
0.45100002 12808.26430747  1042.08043344
0.45200002 12817.48727560  1045.13796198
0.45300002 12827.46767485  960.90564906
0.45400002 12839.17420636  1051.52841734
0.45500002 12851.86304997  1230.69446399
0.45600002 12865.48072707  1411.08599302
0.45700002 12880.22729229  884.87165692
0.45800002 12895.62610855  887.86389965
0.45900002 12912.04304071  980.02411324
0.46000002 12930.10592504  983.52855380
0.46100002 12947.88489884  987.01731262
0.46200002 12967.35143614  990.64085992
0.46300002 12987.57525430  1446.29644887
0.46400002 13007.74810520  1088.74856801
0.46500002 13029.22708240  1366.11452434
0.46600002 13051.02436563  1005.64673016
0.46700002 13073.21566871  1284.83569682
0.46800002 13096.96865360  1197.78332499
0.46900002 13120.18666862  1479.95712637
0.47000002 13144.14801235  1392.95115163
0.47100002 13168.79682604  932.35085947
0.47200002 13193.89714770  936.10704700
0.47300002 13219.46754903  1315.86586220
0.47400002 13244.73765231  1509.90016393
0.47500002 13270.77409273  947.53331513
0.47600002 13297.61047132  1046.58848175
0.47700002 13323.82175821  1528.50890455
