# SAXS profile: number of points = 501, q_min = 0, q_max = 0.5, delta_q = 0.001
#    q    intensity    error
0.00000000 1646666.22097350 321.09991309
0.00100000 1646580.98330896 543.37173740
0.00200000 1646325.24303960 889.01565939
0.00300000 1645899.21525929 987.53956433
0.00400000 1645302.76145553 1480.77254158
0.00500000 1644536.54157179 2072.11612440
0.00600000 1643600.39018326 1898.35852795
0.00700000 1642495.05091448 2365.19297161
0.00800000 1641220.31605680 2437.21227224
0.00900000 1639777.56162440 2951.59973710
0.01000000 1638166.14196774 2973.27167606
0.01100000 1636387.73835150 4123.69728019
0.01200000 1634442.10208525 4780.74335821
0.01300000 1632330.62797767 3427.89446994
0.01400000 1630053.50737452 5868.19288669
0.01500000 1627612.24160580 4687.52346455
0.01600000 1625006.43236468 7458.77985799
0.01700000 1622238.31878829 5694.05675437
0.01800000 1619308.44945353 4615.02928861
0.01900000 1616217.56781629 6303.24879890
0.02000000 1612966.72302152 5588.92994809
0.02100000 1609558.38587339 6905.00578846
0.02200000 1605991.29829952 6094.73725394
0.02300000 1602268.48167394 8652.25019488
0.02400000 1598390.54808865 8990.94724296
0.02500000 1594359.92661162 6839.80439754
0.02600000 1590176.81300551 9016.30294213
0.02700000 1585843.30974449 9324.75908838
0.02800000 1581359.68266241 7566.80642855
0.02900000 1576729.35297114 9223.86713839
0.03000000 1571952.93655060 8040.53964004
0.03100000 1567032.03949658 7521.75413568
0.03200000 1561967.83434624 8504.91524974
0.03300000 1556764.39474112 10321.34841295
0.03400000 1551420.25033817 8959.45235910
0.03500000 1545939.33587929 10852.49463902
0.03600000 1540322.45863155 12823.18506071
0.03700000 1534572.45986250 12245.88879604
0.03800000 1528690.83362448 10731.41014869
0.03900000 1522680.08299276 11876.90519736
0.04000000 1516540.20015339 10259.39492945
0.04100000 1510275.45853086 10466.20941290
0.04200000 1503887.27674768 10670.08072354
0.04300000 1497377.29185439 11859.22870197
0.04400000 1490748.30676622 13081.31699940
0.04500000 1484002.84085617 12287.54409323
0.04600000 1477141.27883654 12496.61579989
0.04700000 1470167.62308655 16936.33180563
0.04800000 1463083.65930121 13979.76501508
0.04900000 1455891.72377110 12011.10728020
0.05000000 1448593.67027771 12189.91630302
0.05100000 1441193.29789868 13489.56989673
0.05200000 1433689.92639125 14817.18607975
0.05300000 1426088.91735749 16171.84907673
0.05400000 1418390.97398745 16382.41651353
0.05500000 1410600.17217499 13033.94619892
0.05600000 1402716.73231721 16790.52006935
0.05700000 1394745.85183350 20628.29211152
0.05800000 1386686.97734195 17181.05245149
0.05900000 1378543.65826575 14888.27220464
0.06000000 1370320.05905040 18807.64368914
0.06100000 1362016.99661764 15200.11039257
0.06200000 1353637.59992980 14071.06350900
0.06300000 1345184.94476018 14205.15368083
0.06400000 1336658.47653921 14335.66283131
0.06500000 1328064.45151999 17092.19029060
0.06600000 1319404.24100837 14586.01456681
0.06700000 1310678.70688517 14705.81577947
0.06800000 1301892.46489825 14822.04640667
0.06900000 1293048.69670349 14934.71314615
0.07000000 1284147.09277980 16411.40061425
0.07100000 1275191.88770011 17903.69494188
0.07200000 1266185.06162074 18024.14519654
0.07300000 1257130.24652338 16744.97566829
0.07400000 1248029.89313959 16848.40434697
0.07500000 1238884.73016412 15535.61524445
0.07600000 1229697.71950177 15623.31025870
0.07700000 1220473.34580073 14279.53881541
0.07800000 1211212.24475279 30141.01812417
0.07900000 1201916.42417234 15865.29754322
0.08000000 1192591.02809758 17387.97800535
0.08100000 1183236.56976724 21830.71573646
0.08200000 1173854.76641006 24844.63729691
0.08300000 1164448.68353751 16139.25951128
0.08400000 1155021.78334694 23562.44548627
0.08500000 1145575.35883618 16255.71510501
0.08600000 1136112.38471631 17791.52078000
0.08700000 1126634.64085027 17845.89354907
0.08800000 1117144.13226882 16405.26235282
0.08900000 1107644.03803227 17943.83425894
0.09000000 1098136.55589295 16488.52116129
0.09100000 1088623.13563118 19529.89997076
0.09200000 1079106.26849208 24085.65304445
0.09300000 1069589.62439327 18097.45729517
0.09400000 1060072.24415760 24169.64830271
0.09500000 1050558.45500691 19666.45520211
0.09600000 1041049.47948456 22720.90595781
0.09700000 1031550.26944836 19712.92657592
0.09800000 1022059.60690099 19730.86163892
0.09900000 1012581.33344628 15188.72071591
0.10000000 1003114.67919565 18236.62572539
0.10100000 993664.13458855 19763.98056650
0.10200000 984231.17785821 18247.64689579
0.10300000 974817.04153872 18248.57587603
0.10400000 965424.83575688 18246.53025421
0.10500000 956056.97507693 16721.43728083
0.10600001 946710.49371996 18233.64496700
0.10700001 937393.07977031 15185.76860689
0.10800001 928102.34411291 16691.92144442
0.10900001 918842.44372687 22741.35155258
0.11000001 909614.30094073 16659.58670589
0.11100001 900418.50688810 19665.14111614
0.11200001 891258.32198016 16617.51219562
0.11300001 882133.84925678 18101.38743898
0.11400001 873047.25837773 21084.09228255
0.11500001 864000.42348784 16536.96888425
0.11600001 854994.44165292 22507.72973644
0.11700001 846030.35939135 16472.21187311
0.11800001 837109.29384256 19425.12207851
0.11900001 828232.38780222 19380.63878743
0.12000001 819401.21546297 14872.13276120
0.12100001 810618.85168722 16317.75825316
0.12200001 801884.20439409 16274.24069488
0.12300001 793199.50901349 16228.86271903
0.12400001 784565.18624903 22065.89690294
0.12500001 775981.63966442 14666.05368073
0.12600001 767452.82766562 19005.97017277
0.12700001 758976.98599450 16029.59469962
0.12800001 750555.82942436 20332.55837736
0.12900001 742190.36928188 23156.34061300
0.13000001 733881.94219901 20189.09318150
0.13100001 725629.91938244 18677.71500533
0.13200001 717436.36814669 21469.28432886
0.13300001 709302.75642325 15682.68468385
0.13400001 701228.15373409 19879.81909561
0.13500001 693214.34562380 15555.73064922
0.13600001 685261.09067164 14082.11607728
0.13700001 677370.44076982 19630.19629914
0.13800001 669540.81967799 15355.91942343
0.13900001 661774.96675173 13897.27495716
0.14000001 654072.54922349 16600.36208217
0.14100001 646433.52443758 20653.55207986
0.14200001 638858.72408267 15073.87230569
0.14300001 631349.75365020 21819.44851532
0.14400001 623903.59821135 21711.84624190
0.14500001 616524.56041226 14852.07736094
0.14600001 609210.82105771 18806.33893323
0.14700001 601964.87917386 13363.62094811
0.14800001 594782.04617857 19940.06903888
0.14900001 587667.26231949 14544.76542864
0.15000001 580618.64350612 18411.41805428
0.15100001 573637.26620720 19618.39542998
0.15200001 566722.81530722 13006.28922503
0.15300001 559876.62937544 14226.46582376
0.15400001 553095.00572341 16717.29733690
0.15500001 546382.33477148 20456.55557925
0.15600001 539734.39641114 13981.82019890
0.15700001 533157.10260952 17690.15349950
0.15800001 526643.08634332 16328.56966276
0.15900001 520198.26824875 17478.66263816
0.16000001 513818.14955754 17372.19245655
0.16100001 507508.00844172 12332.44518728
0.16200001 501262.61919353 12255.87161783
0.16300001 495084.00904771 15832.78735678
0.16400001 488971.50082828 13312.24973852
0.16500001 482924.73159000 14429.79166116
0.16600001 476944.68138231 14336.95779924
0.16700001 471028.60891464 11869.92150508
0.16800001 465177.39489720 14150.69702092
0.16900001 459393.39610682 15228.89180002
0.17000001 453672.25090398 15127.70192072
0.17100001 448015.24079879 15026.43188596
0.17200001 442423.10647166 18369.40824816
0.17300001 436894.10829914 14823.81779464
0.17400001 431428.38786852 14722.49443130
0.17500001 426025.29338977 11247.06827666
0.17600001 420683.27186958 13402.96967477
0.17700001 415405.00128406 14418.70827557
0.17800001 410186.39406409 11013.50520081
0.17900001 405029.82317197 13122.96689062
0.18000001 399933.57243131 10858.19700440
0.18100001 394898.86911451 11858.81359968
0.18200001 389920.97753270 13914.33074054
0.18300001 385003.36666069 12751.31210617
0.18400001 380143.72107681 12658.78650987
0.18500001 375343.67041634 14660.92445908
0.18600001 370599.18167262 14553.43055184
0.18700001 365911.69279725 11350.58124683
0.18800001 361280.40809558 12290.76006410
0.18900001 356706.76047881 12199.37178476
0.19000001 352184.43233488 13117.10980208
0.19100001 347721.27832912 14020.12260468
0.19200001 343308.91806962 11926.55237728
0.19300001 338952.26518826 13808.91593628
0.19400001 334646.38291300 17619.13289294
0.19500001 330394.04768389 10684.94400702
0.19600001 326193.07993756 10602.90656442
0.19700001 322042.90073977 11477.60952477
0.19800001 317943.62444102 11388.74116570
0.19900001 313894.57893499 13183.57293832
0.20000001 309893.47507441 14949.26194411
0.20100001 305942.62197782 11124.07426086
0.20200001 302038.35411370 9197.06831745
0.20300001 298182.99071572 12774.15992603
0.20400001 294374.03084774 9957.20206406
0.20500001 290610.89870290 9877.86491381
0.20600001 286893.72033629 11580.46556876
0.20700001 283221.91403988 14138.43861718
0.20800001 279593.45342173 11394.83173284
0.20900001 276011.39889404 9563.79542377
0.21000001 272470.46383825 12935.53588221
0.21100001 268973.03945455 10264.01167080
0.21200001 265517.37301713 8483.28046894
0.21300001 262102.58668813 10937.54145957
0.21400001 258729.83041646 9178.44116795
0.21500001 255398.22013638 10757.37354073
0.21600001 252105.36568951 13129.64806586
0.21700001 248852.46920702 11392.46657893
0.21800001 245637.99303127 8876.12929785
0.21900001 242460.80588537 9601.44836703
0.22000001 239321.33047368 10313.55322441
0.22100001 236220.33102980 11799.20609285
0.22200001 233155.94362838 9358.88001977
0.22300001 230126.18132973 9278.68806996
0.22400001 227131.93620774 9965.41417234
0.22500001 224174.69317385 9119.42694955
0.22600001 221249.78680050 9040.26671617
0.22700001 218361.10740524 9708.33529434
0.22800001 215504.82915730 8142.85035478
0.22900001 212680.66407755 7337.48325767
0.23000001 209890.40039712 7999.97298947
0.23100001 207132.75494280 9370.68627678
0.23200001 204405.14449995 9287.14817958
0.23300001 201709.23637755 7787.99398487
0.23400001 199045.11125676 7717.97455401
0.23500001 196409.24710087 6952.88767622
0.23600001 193805.09527759 9645.68004818
0.23700001 191229.70168755 8192.28080777
0.23800001 188683.34648007 8117.15794950
0.23900001 186165.51954753 8712.54672692
0.24000001 183675.73120898 11951.78039509
0.24100001 181215.07684930 10524.97216125
0.24200001 178781.26053469 7819.89270568
0.24300001 176374.71811526 7100.84648721
0.24400001 173994.42302549 6394.29534866
0.24500001 171640.69637820 8866.95879434
0.24600001 169313.21871493 6273.05505014
0.24700001 167011.69325700 8076.68586798
0.24800001 164735.44577469 7383.44302891
0.24900001 162483.25782529 7311.74694804
0.25000001 160256.87730339 6637.03888751
0.25100001 158053.78488781 6571.87668654
0.25200001 155876.75901580 6507.07561296
0.25300001 153723.05837016 7613.90344129
0.25400001 151592.40497651 7537.93269409
0.25500001 149484.86667576 6314.24106712
0.25600001 147400.81571384 7386.99222900
0.25700001 145338.76794133 7874.45481963
0.25800001 143300.03800554 6680.64808791
0.25900001 141283.41346677 7163.06940168
0.26000001 139288.84484224 6543.79024031
0.26100001 137315.12459561 5936.13311714
0.26200001 135364.20916172 5874.13013452
0.26300001 133433.49064785 6340.75977561
0.26400001 131524.37533632 5750.90358370
0.26500001 129636.49749498 7758.74474221
0.26600001 127768.22586891 6140.54122583
0.26700001 125921.57089260 6074.45686730
0.26800001 124095.37776745 5007.24872986
0.26900001 122287.97403312 5447.92950098
0.27000001 120501.53801105 5388.22652715
0.27100001 118734.20072090 6297.66230426
0.27200001 116987.92567757 6706.91809649
0.27300001 115259.92269936 5684.61965655
0.27400001 113549.51821300 4683.91784795
0.27500001 111860.96570322 6020.35745906
0.27600001 110188.90817611 6409.68909195
0.27700001 108537.44685601 5883.81527253
0.27800001 106903.43175508 5368.69059683
0.27900001 105289.13078616 5748.78681300
0.28000001 103691.64654316 6992.96497384
0.28100001 102113.25203706 5615.20799528
0.28200001 100553.37595812 5122.18921374
0.28300001 99010.81709734  5483.21931037
0.28400001 97486.00445869  6668.04302058
0.28500001 95979.25700658  4941.01238456
0.28600001 94489.98673137  7728.80883051
0.28700001 93018.01232188  4420.21615476
0.28800001 91562.89613717  4763.10208251
0.28900001 90126.69378433  4704.61363823
0.29000001 88705.96516951  4259.21711922
0.29100001 87303.35024472  5735.83038258
0.29200001 85917.32392804  4153.67322192
0.29300001 84548.43231098  4101.44464555
0.29400001 83195.36963650  4049.53480875
0.29500001 81860.10432702  4361.50656500
0.29600001 80540.64485765  5382.12884739
0.29700001 79237.84968549  4958.70486805
0.29800001 77951.16362434  4894.55379567
0.29900001 76681.47945427  4485.86676043
0.30000001 75427.15302302  3746.08973223
0.30100001 74189.78488926  4032.95689750
0.30200001 72966.83913840  3647.97729542
0.30300001 71761.39437841  4908.47960786
0.30400001 70571.54147131  3551.51299268
0.30500001 69397.25307887  3185.33406712
0.30600001 68237.59228905  3770.80952841
0.30700001 67094.80723802  4649.67036173
0.30800001 65966.83908507  3669.07576362
0.30900001 64854.56163014  3317.31098444
0.31000001 63757.71296822  3569.15694094
0.31100001 62675.17110883  3519.83777612
0.31200001 61608.62958829  4049.53541457
0.31300001 60556.45418273  3137.43003975
0.31400001 59520.30580600  3093.56804074
0.31500001 58498.02432518  3604.64842959
0.31600002 57491.04503771  3280.43918517
0.31700002 56498.59336637  2694.98303118
0.31800002 55520.88060371  3453.67654148
0.31900002 54557.73672684  2618.77148688
0.32000002 53609.19244301  3355.66755986
0.32100002 52674.27950805  2798.58460278
0.32200002 51755.01098243  2507.53040083
0.32300002 50848.04858094  3459.70138927
0.32400002 49956.01688481  3409.49831383
0.32500002 49077.85890557  3119.87963836
0.32600002 48213.98283688  3310.85435818
0.32700002 47363.21648684  2330.27036150
0.32800002 46527.01226479  2525.71898039
0.32900002 45703.65523659  2262.33104134
0.33000002 44894.73146074  2897.73057935
0.33100002 44096.86660724  3074.43368544
0.33200002 43315.31451158  2596.32007477
0.33300002 42545.52733428  2557.83722446
0.33400002 41789.29098237  2309.90316844
0.33500002 41045.16227057  2689.27915932
0.33600002 40314.86602934  2241.70823172
0.33700002 39596.49530019  3011.31361019
0.33800002 38891.83192438  2570.94467111
0.33900002 38198.61677637  2142.94250264
0.34000002 37518.68396096  2302.89693058
0.34100002 36850.61810266  2457.56783765
0.34200002 36195.54302340  2048.48685442
0.34300002 35551.63685599  2384.80391324
0.34400002 34921.06570531  2349.31480659
0.34500002 34301.45791613  2314.31947521
0.34600002 33694.69882069  2279.95190368
0.34700002 33097.97491311  2073.25724675
0.34800002 32514.43396591  2212.76990835
0.34900002 31941.67269950  1844.63168576
0.35000002 31380.44414540  1817.39850876
0.35100002 30831.00563406  1790.66489204
0.35200002 30291.41597225  1764.32360687
0.35300002 29763.40887096  2212.61192026
0.35400002 29246.74037896  1868.86679873
0.35500002 28740.70628717  2148.65530380
0.35600002 28244.56167133  1512.49634914
0.35700002 27759.51077663  1788.82295917
0.35800002 27285.20601066  1616.23925459
0.35900002 26821.15173795  1593.17648870
0.36000002 26367.49450838  1570.57988478
0.36100002 25923.12847018  1548.38853687
0.36200002 25489.94872796  1804.30610617
0.36300002 25065.45395630  1779.14600609
0.36400002 24650.86105611  1889.48858945
0.36500002 24245.69071630  1464.19733171
0.36600002 23850.36398060  1575.55511919
0.36700002 23463.90529237  1424.72839684
0.36800002 23087.98448893  1405.71200220
0.36900002 22720.18011713  1639.26107310
0.37000002 22361.01479782  1368.82958569
0.37100002 22010.79544248  1351.02268826
0.37200002 21669.92011619  1454.91850552
0.37300002 21337.14009219  1436.41633905
0.37400002 21012.88478683  1536.56727283
0.37500002 20697.45565727  1284.07020980
0.37600002 20390.28846335  1268.37795395
0.37700002 20090.64481693  1253.05357659
0.37800002 19799.09128139  1575.80974973
0.37900002 19516.03638223  1223.65553913
0.38000002 19240.54389088  1319.51656255
0.38100002 18971.84044995  2065.46436763
0.38200002 18711.55084238  1827.46369959
0.38300002 18458.00681709  1382.13561594
0.38400002 18212.65502430  1788.02749172
0.38500002 17973.21969884  1456.90925781
0.38600002 17741.99021363  1750.86838718
0.38700002 17516.96194163  1223.38467996
0.38800002 17298.99821530  1110.33625305
0.38900002 17087.04145011  999.59197219
0.39000002 16882.89960989  1584.29137445
0.39100002 16684.12222334  1079.12907653
0.39200002 16492.19744204  1069.43659380
0.39300002 16306.24475785  963.69911085
0.39400002 16127.59274794  1051.11590715
0.39500002 15953.63753104  1421.46917136
0.39600002 15785.87692572  1034.05391701
0.39700002 15623.70012478  1119.28192997
0.39800002 15467.49461886  1018.30255648
0.39900002 15316.67825231  1470.40118189
0.40000002 15171.11344024  1003.79676833
0.40100002 15031.21124477  997.02028910
0.40200002 14896.64643327  990.55255151
0.40300002 14766.55974690  1073.82427567
0.40400002 14642.00604497  1067.40229125
0.40500002 14522.47458432  1149.74436732
0.40600002 14407.68095520  1231.42454959
0.40700002 14297.43866238  1050.00394512
0.40800002 14191.94910866  1393.08179051
0.40900002 14090.72096114  1039.89525620
0.41000002 13994.47861171  862.75964729
0.41100002 13902.08710117  1546.46824241
0.41200002 13813.72367980  1198.06431152
0.41300002 13730.29382704  1023.18154447
0.41400002 13650.16294394  849.72268352
0.41500002 13574.32997911  1016.44587700
0.41600002 13501.77120209  1013.44299445
0.41700002 13433.40731587  926.50214648
0.41800002 13369.52443916  1008.32958098
0.41900002 13307.34497076  1173.70788204
0.42000002 13249.74659814  1004.06584478
0.42100002 13195.93482006  918.83298506
0.42200002 13145.35846849  1000.88764122
0.42300002 13097.48158948  916.29985542
0.42400002 13052.65432136  832.10675242
0.42500002 13011.34722486  914.56763977
0.42600002 12972.12233166  997.03736966
0.42700002 12937.12926760  1079.73285984
0.42800002 12903.88691551  913.40167860
0.42900002 12874.67274285  1079.54136064
0.43000002 12847.37743145  1411.99108351
0.43100002 12821.89189348  913.94449748
0.43200002 12800.03654700  1330.17986100
0.43300002 12780.32333539  1081.59881513
0.43400002 12763.02038775  832.78711976
0.43500002 12747.88153697  1000.45379043
0.43600002 12735.30772433  1419.15908351
0.43700002 12724.22062183  919.57946792
0.43800002 12715.40116821  1004.77104793
0.43900002 12709.21783135  922.68925828
0.44000002 12704.50357556  924.44324648
0.44100002 12702.02513292  1179.00202871
0.44200002 12701.17947471  843.99341609
0.44300002 12702.21693984  845.96768828
0.44400002 12705.40211307  1017.70275749
0.44500002 12708.89445058  1275.33761855
0.44600002 12714.48681949  852.50638165
0.44700002 12722.61544806  1196.94371808
0.44800002 12730.73558088  943.15659021
0.44900002 12741.85321677  1290.11269934
0.45000002 12753.71142964  949.06748101
0.45100002 12766.61556422  1298.36486441
0.45200002 12781.04599434  1129.01375142
0.45300002 12796.38516570  958.57725819
0.45400002 12813.25571182  1224.30664129
0.45500002 12831.19448540  965.41911884
0.45600002 12850.05033876  880.87099247
0.45700002 12870.04238073  1149.42353950
0.45800002 12890.56158705  887.51520733
0.45900002 12912.19266860  1069.12960363
0.46000002 12935.38394588  1073.37821070
0.46100002 12958.25717031  1347.01089670
0.46200002 12982.87831915  1172.15922460
0.46300002 13008.18913915  995.90700769
0.46400002 13033.44554743  1272.71601803
0.46500002 13060.03025943  1460.63385344
0.46600002 13086.81002969  916.73108603
0.46700002 13114.10985795  1104.73266679
0.46800002 13142.79998984  1294.43443235
0.46900002 13170.96694072  1207.11917733
0.47000002 13199.92813245  1119.08996011
0.47100002 13229.44053417  1123.97332106
0.47200002 13259.47992559  1128.91217437
0.47300002 13289.91430703  1133.89554242
0.47400002 13320.07840073  1328.67788345
0.47500002 13350.89068305  953.25363995
0.47600002 13382.49390317  1340.52447782
0.47700002 13413.44091437  1057.91813506
0.47800002 13444.74092359  1255.80608549
