# SAXS profile: number of points = 501, q_min = 0, q_max = 0.5, delta_q = 0.001
#    q    intensity    error
0.00000000 1628779.37420969 244.31690613
0.00100000 1628694.51875531 684.05171412
0.00200000 1628439.92803467 879.35758898
0.00300000 1628015.81706774 976.80952504
0.00400000 1627422.03510377 1708.79320179
0.00500000 1626659.26580666 1903.19141632
0.00600000 1625727.31688608 2389.81925312
0.00700000 1624626.94769009 2339.46290190
0.00800000 1623357.95202167 2410.68666053
0.00900000 1621921.68386049 4135.90047064
0.01000000 1620317.53371608 3208.22885529
0.01100000 1618547.13640256 4661.41595579
0.01200000 1616610.27436670 4728.58525984
0.01300000 1614508.35814526 4746.65478230
0.01400000 1612241.51676495 5804.06971765
0.01500000 1609811.30061178 4249.90202286
0.01600000 1607217.29764452 5737.76600909
0.01700000 1604461.74899626 5198.45629994
0.01800000 1601545.20210229 5933.72524079
0.01900000 1598468.37063472 5754.48639394
0.02000000 1595232.34404986 6532.47674439
0.02100000 1591839.51632554 5778.37770624
0.02200000 1588288.72917327 7123.47527398
0.02300000 1584582.95844653 6845.39869208
0.02400000 1580722.82683288 8298.79521928
0.02500000 1576710.67486304 6149.17191280
0.02600000 1572546.85239869 7005.69654786
0.02700000 1568233.30285449 9221.21224313
0.02800000 1563770.40619487 8843.12205257
0.02900000 1559161.51682955 11927.58615139
0.03000000 1554407.27041566 7950.79355364
0.03100000 1549509.28323202 8925.17388209
0.03200000 1544468.67668224 9938.65639221
0.03300000 1539289.48464558 10990.52742704
0.03400000 1533970.37920636 8858.67934866
0.03500000 1528515.23685506 8253.98266017
0.03600000 1522924.79320966 10987.90289080
0.03700000 1517201.89880046 10377.66146774
0.03800000 1511348.18313607 10609.66473663
0.03900000 1505365.95004984 9032.19611858
0.04000000 1499255.27449000 10142.46240192
0.04100000 1493020.52983294 9406.02977407
0.04200000 1486662.92278468 10547.87392650
0.04300000 1480184.24389600 9769.21646318
0.04400000 1473587.18577067 15914.74234543
0.04500000 1466874.41026601 13157.86407146
0.04600000 1460046.14619215 17498.65387557
0.04700000 1453106.56782207 12554.84132988
0.04800000 1446057.16836576 18068.48515942
0.04900000 1438900.50116080 14029.28053935
0.05000000 1431638.41214507 14237.64467177
0.05100000 1424274.68654631 13331.21168710
0.05200000 1416808.50339912 20274.53062846
0.05300000 1409245.45747384 12556.37761144
0.05400000 1401585.99824763 17344.62753716
0.05500000 1393834.27816471 11708.20848276
0.05600000 1385990.52483735 13035.24149437
0.05700000 1378060.02800077 11989.12280324
0.05800000 1370042.20330561 14549.84887847
0.05900000 1361940.54242396 13483.21199974
0.06000000 1353759.14769733 18580.34517020
0.06100000 1345498.83225746 13764.45369723
0.06200000 1337162.83191176 17690.66509312
0.06300000 1328754.11895751 24236.47626297
0.06400000 1320272.20860734 14159.92009953
0.06500000 1311723.42670232 19479.09379772
0.06600000 1303108.99732222 17025.11984660
0.06700000 1294429.76081578 14523.50259604
0.06800000 1285690.15449957 21291.02995513
0.06900000 1276893.77851247 20111.07795315
0.07000000 1268040.23240773 14855.09201830
0.07100000 1259133.61801212 20397.96556719
0.07200000 1250175.77611378 19165.19554565
0.07300000 1241170.54299136 16532.39240728
0.07400000 1232120.25019640 13861.35346431
0.07500000 1223025.65287151 13942.49309625
0.07600000 1213889.79702581 15422.47059423
0.07700000 1204717.05732267 22552.30437052
0.07800000 1195508.08882139 17000.12582028
0.07900000 1186264.82204485 18505.73209189
0.08000000 1176992.61768112 17160.55317081
0.08100000 1167691.77886338 15798.87050928
0.08200000 1158364.04973793 17305.95971517
0.08300000 1149012.51539391 15925.31421077
0.08400000 1139640.67603999 18889.54509201
0.08500000 1130249.81611854 17496.26797488
0.08600000 1120842.72437799 19015.09771186
0.08700000 1111421.41355469 23473.22135652
0.08800000 1101987.63945937 14711.53567769
0.08900000 1092544.89475789 23598.97083521
0.09000000 1083095.00443473 14784.24750503
0.09100000 1073639.60820867 22224.34093405
0.09200000 1064181.27853697 14845.32953312
0.09300000 1054723.61797953 19333.08482607
0.09400000 1045265.56609826 17874.04202032
0.09500000 1035811.38770179 16407.25315238
0.09600000 1026362.55267762 17920.29101214
0.09700000 1016923.85620110 14948.78138894
0.09800000 1007494.11354166 16457.41711849
0.09900000 998076.88937152 16468.26944901
0.10000000 988672.06332244 23965.41194196
0.10100000 979283.36392640 16481.33979003
0.10200000 969912.49410534 20979.20823428
0.10300000 960561.16039677 17981.70576850
0.10400000 951231.81960842 17978.28223639
0.10500000 941927.26897696 19469.63756579
0.10600001 932644.35539708 19459.62539100
0.10700001 923390.90908518 16454.82677422
0.10800001 914164.17943171 19430.56054826
0.10900001 904968.86328363 16425.18564166
0.11000001 895805.51694523 16406.67881511
0.11100001 886674.79822671 16385.75104256
0.11200001 877580.10125554 19337.47844152
0.11300001 868521.16121793 19307.22632287
0.11400001 859500.62061129 17791.66368436
0.11500001 850519.70409068 14799.04354803
0.11600001 841580.21679317 14769.73350025
0.11700001 832682.86489604 14738.48740277
0.11800001 823828.68223772 16175.87693759
0.11900001 815018.86321314 20538.47632037
0.12000001 806254.86808654 16096.87919959
0.12100001 797540.07796268 18973.47934854
0.12200001 788873.34097666 20376.59935740
0.12300001 780256.50066410 23220.43455378
0.12400001 771690.32323540 20256.87193938
0.12500001 763175.22868268 18751.21625230
0.12600001 754715.00036752 18690.51786486
0.12700001 746307.78400970 20060.75417957
0.12800001 737955.53397946 18563.27233213
0.12900001 729659.07701225 17074.02320682
0.13000001 721419.88387561 17011.08166360
0.13100001 713237.23819343 18358.72737649
0.13200001 705113.13175673 15473.70840584
0.13300001 697049.11002662 16812.82532645
0.13400001 689044.26970364 26510.97952672
0.13500001 681100.30442835 16673.33623852
0.13600001 673217.10543459 15218.07338589
0.13700001 665396.62527681 15151.08187198
0.13800001 657637.26742311 15082.91143959
0.13900001 649941.59672363 13648.77417485
0.14000001 642309.45059688 16301.81462495
0.14100001 634740.97011886 24335.96994211
0.14200001 627236.81133410 14799.65326146
0.14300001 619798.30801810 22758.99494391
0.14400001 612422.78584793 15984.23546461
0.14500001 605114.52112868 19878.01295677
0.14600001 597871.57770373 18456.29647438
0.14700001 590696.58839845 13113.46488109
0.14800001 583584.54205110 15651.73815624
0.14900001 576540.54440625 18161.02800565
0.15000001 569563.01640886 14190.66322338
0.15100001 562652.56545797 19242.71864663
0.15200001 555809.06213482 14031.40043569
0.15300001 549033.82370250 13950.95011861
0.15400001 542323.16891768 16391.71855408
0.15500001 535681.52807199 13788.44318329
0.15600001 529104.44851556 17444.57449085
0.15700001 522598.07638461 19816.91999180
0.15800001 516154.96720971 13541.32620388
0.15900001 509781.12446846 19575.59610357
0.16000001 503471.93103935 14590.61725023
0.16100001 497232.65066574 15707.58017600
0.16200001 491057.91763885 14407.63998365
0.16300001 484950.08131620 14315.72707627
0.16400001 478908.16927777 16594.16884888
0.16500001 472932.13639314 16486.41505301
0.16600001 467022.58082589 14038.69944244
0.16700001 461176.93801870 16270.32314150
0.16800001 455396.14515761 16162.00995476
0.16900001 449682.40415879 18347.04295599
0.17000001 444031.39286440 15945.16807069
0.17100001 438444.64992301 13574.24700261
0.17200001 432922.54172964 12357.77453724
0.17300001 427463.47679782 12272.47699843
0.17400001 422067.46378491 21050.61575041
0.17500001 416734.21981240 13202.14070716
0.17600001 411461.82395827 12016.74313624
0.17700001 406252.96999774 10846.95481125
0.17800001 401103.68309153 11846.59783965
0.17900001 396016.25641365 11761.68337103
0.18000001 390989.20929664 13799.96479397
0.18100001 386023.56060139 12646.13244266
0.18200001 381114.35671753 13600.06646190
0.18300001 376265.25137945 11423.41357151
0.18400001 371474.19471693 11339.25032941
0.18500001 366742.37498025 11255.32401987
0.18600001 362066.01850870 11171.54752887
0.18700001 357446.57017253 10079.99375509
0.18800001 352883.10211596 10004.23641765
0.18900001 348376.94261064 12907.36633356
0.19000001 343922.27447120 11824.04835499
0.19100001 339526.28763216 11734.02905500
0.19200001 335180.95005473 9703.48896259
0.19300001 330891.23261806 12517.61592143
0.19400001 326651.98517277 10510.02811957
0.19500001 322466.27852057 14220.76355476
0.19600001 318331.51775561 9406.69679420
0.19700001 314247.37733482 12133.09181228
0.19800001 310213.88605097 15741.80439159
0.19900001 306230.47994346 9186.91483248
0.20000001 302294.79369624 10025.60730676
0.20100001 298409.26727194 9945.98134824
0.20200001 294569.82216970 10763.58181081
0.20300001 290779.32018144 9787.63237992
0.20400001 287034.71521578 9708.94970107
0.20500001 283335.89490577 16634.65117619
0.20600001 279682.75201836 9552.56484672
0.20700001 276074.70833307 11197.59069929
0.20800001 272509.89427475 11960.45982509
0.20900001 268990.89320967 10167.85624397
0.21000001 265513.01514039 9243.83605909
0.21100001 262078.48521330 13334.55395802
0.21200001 258685.26451224 9917.99351027
0.21300001 255332.76367975 10655.03673208
0.21400001 252022.06792744 9753.25448989
0.21500001 248752.11738966 12089.35347669
0.21600001 245520.71049644 11188.37930629
0.21700001 242329.00787897 10301.40661198
0.21800001 239175.45139543 8642.60534480
0.21900001 236058.76423730 8568.93354697
0.22000001 232979.72440905 8495.60605227
0.22100001 229938.82683159 14548.23026153
0.22200001 226934.19898573 10627.32904101
0.22300001 223963.82187050 10535.25867895
0.22400001 221028.88567729 8205.69776879
0.22500001 218130.48343939 12570.86035505
0.22600001 215264.17557950 8795.69463011
0.22700001 212433.71520269 7265.23340350
0.22800001 209635.64142340 9361.28001046
0.22900001 206869.06742841 7136.98316379
0.23000001 204136.25646690 8487.98594531
0.23100001 201435.67900455 11916.93533349
0.23200001 198764.88714843 6946.83313438
0.23300001 196125.42742401 8260.80339379
0.23400001 193517.49979115 7503.64140929
0.23500001 190937.55213327 8786.94656476
0.23600001 188388.91940532 8036.67168194
0.23700001 185868.79998743 8626.17141542
0.23800001 183377.45254931 11175.93937423
0.23900001 180914.19297985 8466.78463193
0.24000001 178478.73030021 7097.20704609
0.24100001 176072.10666556 8308.84310657
0.24200001 173691.88259295 6964.17636198
0.24300001 171338.85975359 10660.70435815
0.24400001 169011.49877519 7453.40744856
0.24500001 166710.44703878 6151.61578673
0.24600001 164435.46962942 6701.56788177
0.24700001 162185.99043176 7239.98295537
0.24800001 159961.37346940 7766.92485623
0.24900001 157760.58509082 6507.62444286
0.25000001 155585.31935169 6443.56630578
0.25100001 153432.94190252 8119.67166961
0.25200001 151306.36252282 6316.28440234
0.25300001 149202.70257297 8526.93485546
0.25400001 147121.85610985 6752.89351493
0.25500001 145063.77523302 7241.58400225
0.25600001 143028.83809009 6065.13816617
0.25700001 141015.41416091 6003.02646485
0.25800001 139025.20886925 5941.24258213
0.25900001 137056.70585897 8552.33885025
0.26000001 135109.80640738 5818.50408824
0.26100001 133183.51780059 5234.11249722
0.26200001 131279.67290024 5178.98334097
0.26300001 129395.85173915 5636.48356846
0.26400001 127533.09821343 7604.16134079
0.26500001 125691.25347281 6519.60562613
0.26600001 123868.72465171 7937.50825128
0.26700001 122067.50594355 7851.38235382
0.26800001 120286.44359133 5338.91405144
0.26900001 118523.77594452 7200.31972936
0.27000001 116781.74586532 5221.89601348
0.27100001 115058.49733611 5633.26429616
0.27200001 113355.90675091 7427.07936179
0.27300001 111671.20602511 5966.59282029
0.27400001 110003.93994674 4991.42901130
0.27500001 108358.10260616 6729.03849030
0.27600001 106728.49300971 7095.31055108
0.27700001 105119.01587182 4821.80948624
0.27800001 103526.73372556 4765.85341261
0.27900001 101953.89432726 4710.27014085
0.28000001 100397.49489419 4654.93007108
0.28100001 98859.76105851  4599.94489976
0.28200001 97340.31905518  5784.93543525
0.28300001 95837.78862601  4899.22798644
0.28400001 94352.71408235  6050.36807690
0.28500001 92885.34041252  4781.73755076
0.28600001 91435.15137290  4329.91179821
0.28700001 90001.95879465  4276.89328436
0.28800001 88585.28002056  4224.18927772
0.28900001 87187.07943533  4930.42957544
0.29000001 85804.14915093  3745.35128772
0.29100001 84438.90607722  4438.10911350
0.29200001 83090.08784923  5112.53334737
0.29300001 81757.93341986  3966.07753794
0.29400001 80441.25425245  4983.33593683
0.29500001 79142.12236842  3513.91039950
0.29600001 77858.50376971  4856.03510999
0.29700001 76591.21346616  4108.35288481
0.29800001 75339.72438997  3716.88547873
0.29900001 74104.74191373  4001.65625278
0.30000001 72885.03785800  3619.83557658
0.30100001 71681.88300376  3571.90839917
0.30200001 70492.75163288  3844.67485607
0.30300001 69320.84370521  3477.13368486
0.30400001 68164.37383550  4054.07632579
0.30500001 67023.04285745  3691.62937536
0.30600001 65895.97050434  4248.31341954
0.30700001 64785.46416091  4190.32402031
0.30800001 63689.48298958  3247.20844396
0.30900001 62608.92856998  4366.97297451
0.31000001 61543.39064245  4019.39903316
0.31100001 60491.99152290  3963.43547223
0.31200001 59456.25549595  3070.61846047
0.31300001 58434.40255401  3853.16468684
0.31400001 57428.52364266  2984.84765765
0.31500001 56436.08532415  5350.14114204
0.31600002 55458.71026749  3164.47415769
0.31700002 54495.52205716  4159.09844033
0.31800002 53546.75040204  4355.76061769
0.31900002 52612.16644980  2525.38410916
0.32000002 51692.04267202  3235.66356426
0.32100002 50785.26734984  2698.22138206
0.32200002 49893.68656944  3867.75876600
0.32300002 49014.33424575  4287.77416285
0.32400002 48149.47280967  2582.01560168
0.32500002 47298.16141668  3238.03228391
0.32600002 46460.89979855  2278.90724303
0.32700002 45636.56225562  3592.51035088
0.32800002 44826.39040159  2875.83721239
0.32900002 44028.79207919  3051.19543557
0.33000002 43245.40688434  2791.27491953
0.33100002 42472.60815236  3384.21757784
0.33200002 41716.13977732  2500.46553666
0.33300002 40970.96610877  3078.96824888
0.33400002 40239.13926167  2830.82358111
0.33500002 39519.05355437  2390.11247215
0.33600002 38812.64782019  2942.96916033
0.33700002 38117.88727637  2125.83467408
0.33800002 37436.36095508  2284.36685366
0.33900002 36766.30504608  2062.58981076
0.34000002 36109.04025613  1846.97749657
0.34100002 35463.50746681  2001.20582113
0.34200002 34830.65648351  1971.24109704
0.34300002 34208.73902349  1941.68811893
0.34400002 33599.77636683  1912.66736027
0.34500002 33001.72361688  1884.06849052
0.34600002 32416.23922464  2024.71839786
0.34700002 31840.40293138  3157.93131230
0.34800002 31277.58396221  1801.11975777
0.34900002 30725.31348680  2097.00274479
0.35000002 30184.19034193  2065.95700580
0.35100002 29654.79005987  2035.50488612
0.35200002 29134.80785517  1542.68814900
0.35300002 28626.27909750  2128.07768890
0.35400002 28128.91099817  1797.43749792
0.35500002 27641.74581272  1623.67622594
0.35600002 27164.32594028  1745.57966760
0.35700002 26697.80104678  2293.87517459
0.35800002 26241.88367128  2261.00080421
0.35900002 25795.79738690  1671.56774985
0.36000002 25359.86392376  1647.88403582
0.36100002 24933.11095776  1489.25478805
0.36200002 24517.27377373  1334.96562021
0.36300002 24109.85957373  1316.39839508
0.36400002 23712.13944633  1687.71160503
0.36500002 23323.66978350  1792.65734447
0.36600002 22944.79376118  1515.73314766
0.36700002 22574.52928751  1619.94829841
0.36800002 22214.66998612  1475.49845037
0.36900002 21862.55576443  1698.72066336
0.37000002 21518.98688740  1676.54434781
0.37100002 21184.12440253  1300.28161742
0.37200002 20858.40046517  1167.02756131
0.37300002 20540.59784525  1613.25863119
0.37400002 20231.03535874  1365.59495140
0.37500002 19930.18016525  1348.87465748
0.37600002 19637.31480059  1443.63726595
0.37700002 19351.81890511  1206.97300229
0.37800002 19074.15389866  1192.80227056
0.37900002 18804.77175386  1286.24644890
0.38000002 18542.80386090  1377.63767811
0.38100002 18287.39341558  1467.01476929
0.38200002 18040.31936773  1243.69967613
0.38300002 17799.67559839  1230.31363565
0.38400002 17567.08275469  1217.39889257
0.38500002 17340.18286227  1305.19562588
0.38600002 17121.23867511  1590.22072348
0.38700002 16908.55300716  1279.30118113
0.38800002 16702.48954402  1364.42643549
0.38900002 16502.41833968  1158.46982233
0.39000002 16309.87902310  1147.88934003
0.39100002 16122.54016799  1232.40702883
0.39200002 15941.90222231  1221.70773469
0.39300002 15767.11805009  1025.02039300
0.39400002 15599.39947698  1109.11735536
0.39500002 15436.18124733  916.90920953
0.39600002 15278.99938312  1000.85090201
0.39700002 15127.25626196  903.09724163
0.39800002 14981.30588365  1075.95743954
0.39900002 14840.60912529  890.43658970
0.40000002 14704.93251511  1061.40207923
0.40100002 14574.84107424  966.74925426
0.40200002 14449.86463976  960.84379475
0.40300002 14329.21438584  868.35043292
0.40400002 14214.01351198  1381.60217882
0.40500002 14103.59910062  1288.36383888
0.40600002 13997.85016831  1110.93943124
0.40700002 13896.34682457  935.50211255
0.40800002 13799.61358110  1185.24886664
0.40900002 13706.91454120  1348.76045476
0.41000002 13618.98954506  1175.45504333
0.41100002 13534.90887529  1087.39463056
0.41200002 13454.64852349  1250.27327329
0.41300002 13379.11517762  1080.09601947
0.41400002 13306.81728846  1076.85424009
0.41500002 13238.67862013  1156.53101905
0.41600002 13173.69714401  906.41627494
0.41700002 13112.65396947  822.16344284
0.41800002 13056.15598352  1230.86916367
0.41900002 13001.07832802  982.88156817
0.42000002 12950.47982857  899.60512392
0.42100002 12903.55172331  1061.83332163
0.42200002 12859.78252468  1060.73921181
0.42300002 12818.56682736  978.31306662
0.42400002 12780.16375027  1222.10321653
0.42500002 12745.31850181  1058.75365812
0.42600002 12712.29294879  895.64464215
0.42700002 12683.53596795  1302.85287637
0.42800002 12656.17375001  895.86730135
0.42900002 12632.93764090  1140.75432303
0.43000002 12611.45513890  1304.52898139
0.43100002 12591.61398247  897.53028720
0.43200002 12575.31598212  980.12017409
0.43300002 12561.06529740  899.49792857
0.43400002 12549.08853794  900.71087249
0.43500002 12539.19086680  1312.10099448
0.43600002 12531.69070192  903.59760088
0.43700002 12525.66251968  905.22967320
0.43800002 12521.79691558  1236.84054895
0.43900002 12520.43413217  908.98356107
0.44000002 12520.41134160  1076.69282435
0.44100002 12522.57576596  1162.34553768
0.44200002 12526.23975052  915.60553795
0.44300002 12531.70483303  1084.99505586
0.44400002 12539.23057958  1004.39241702
0.44500002 12546.97144158  923.33167214
0.44600002 12556.73765663  1094.50808971
0.44700002 12568.92918649  1266.94812204
0.44800002 12580.97419253  932.06151723
0.44900002 12595.95082098  1020.27206485
0.45000002 12611.61231336  1194.44585881
0.45100002 12628.19405538  856.19159753
0.45200002 12646.16327347  1374.89093625
0.45300002 12665.13051445  1466.24222915
0.45400002 12685.41273580  865.77946025
0.45500002 12706.73068046  956.05446171
0.45600002 12728.83356523  1221.58621515
0.45700002 12752.01120072  876.06321101
0.45800002 12775.65785075  1055.52490165
0.45900002 12800.42252961  1324.84379461
0.46000002 12826.54401440  886.95556063
0.46100002 12852.35167432  1068.80161589
0.46200002 12879.80847828  983.95301533
0.46300002 12907.88008780  1167.90504570
0.46400002 12935.80907066  1082.72727053
0.46500002 12964.99599969  996.87858966
0.46600002 12994.37635988  910.25610715
0.46700002 13024.23654838  1188.59188374
0.46800002 13055.29768471  1469.50437704
0.46900002 13085.81237816  1014.80479802
0.47000002 13117.04921634  1204.73544238
0.47100002 13148.90822422  1024.03702104
0.47200002 13181.03228021  1122.23314153
0.47300002 13213.60757989  1409.23131519
0.47400002 13245.79994551  1415.64493627
0.47500002 13278.63915151  1042.90436839
0.47600002 13312.13798839  1238.22857368
0.47700002 13344.96351842  1243.88410851
0.47800002 13378.12079769  1345.70523482
