# SAXS profile: number of points = 501, q_min = 0, q_max = 0.5, delta_q = 0.001
#    q    intensity    error
0.00000000 1628779.37420970 268.74859674
0.00100000 1628712.40006222 586.33647795
0.00200000 1628511.42310925 952.67921269
0.00300000 1628176.61068635 1172.28720145
0.00400000 1627707.84087275 1220.78092704
0.00500000 1627105.52042507 1610.83452898
0.00600000 1626369.47439769 2219.99442293
0.00700000 1625500.22334600 2145.66038399
0.00800000 1624497.33993730 2412.37865166
0.00900000 1623362.08701592 2678.54755808
0.01000000 1622093.67328466 3211.74561179
0.01100000 1620693.30117384 4375.87210369
0.01200000 1619160.38805962 3473.09918466
0.01300000 1617496.32855112 5434.78790363
0.01400000 1615700.52894994 4362.39162155
0.01500000 1613774.44434714 4260.36472279
0.01600000 1611717.13454726 4520.86676450
0.01700000 1609530.65258961 4780.30625263
0.01800000 1607214.59264305 6870.84269272
0.01900000 1604769.65023101 5295.74008472
0.02000000 1602196.32586241 5046.91865477
0.02100000 1599496.28109783 7389.67315371
0.02200000 1596667.77534129 6610.20489023
0.02300000 1593713.80816441 7458.58096171
0.02400000 1590633.97053998 8350.82872611
0.02500000 1587429.62669239 7429.17099222
0.02600000 1584101.17903168 7057.17107537
0.02700000 1580649.23722366 7966.47252048
0.02800000 1577073.87769384 7546.29885084
0.02900000 1573377.97512237 7788.22133445
0.03000000 1569561.22284901 8028.30602390
0.03100000 1565624.19390760 9017.99577185
0.03200000 1561567.79506378 9275.71312990
0.03300000 1557394.80917846 11914.07083946
0.03400000 1553103.10774991 8153.79169191
0.03500000 1548696.14345714 13380.73529737
0.03600000 1544173.69867629 9427.18086608
0.03700000 1539537.23317104 9652.89889841
0.03800000 1534788.57245369 10774.21627725
0.03900000 1529928.17295694 11933.44030170
0.04000000 1524955.58119612 10316.32498484
0.04100000 1519874.46458086 11490.25148499
0.04200000 1514685.28453572 10746.69259235
0.04300000 1509387.77579465 10958.15576092
0.04400000 1503985.86391905 15227.85757939
0.04500000 1498478.95537509 14475.30738152
0.04600000 1492867.46568628 11577.18773458
0.04700000 1487154.33375404 13919.76521132
0.04800000 1481340.11706504 11976.63540372
0.04900000 1475427.20684982 15491.98639304
0.05000000 1469414.92341118 12365.12715630
0.05100000 1463307.21198781 13696.55614225
0.05200000 1457101.59899869 17375.93737780
0.05300000 1450804.03859768 12926.66458652
0.05400000 1444412.24434073 14299.68188582
0.05500000 1437930.67566991 18117.92735863
0.05600000 1431357.49863826 14685.72862133
0.05700000 1424697.66609480 13634.35730096
0.05800000 1417949.77671939 13803.74172089
0.05900000 1411116.19025672 13970.05093602
0.06000000 1404199.02860494 19272.63256800
0.06100000 1397199.76423291 18191.54178043
0.06200000 1390119.15050033 15763.95190354
0.06300000 1382960.34398100 15931.70390755
0.06400000 1375721.17961404 13413.28212853
0.06500000 1368408.19051461 13547.24171980
0.06600000 1361018.96287980 21885.18594708
0.06700000 1353556.55914750 15186.90530437
0.06800000 1346023.43576895 16717.61185479
0.06900000 1338421.01272216 19674.78980817
0.07000000 1330748.25480781 15589.71653512
0.07100000 1323010.34838594 17146.21491817
0.07200000 1315205.72953443 14401.50341307
0.07300000 1307339.21174904 14511.46593036
0.07400000 1299410.83692922 17542.04712064
0.07500000 1291421.80696695 17666.65114739
0.07600000 1283372.91712003 22234.43683147
0.07700000 1275269.31757257 19396.84722977
0.07800000 1267109.77169193 15015.25149871
0.07900000 1258895.19067083 16617.41729627
0.08000000 1250630.79364943 21273.23079793
0.08100000 1242315.49763245 29032.91454184
0.08200000 1233950.80760017 18435.22593062
0.08300000 1225539.21853159 18530.15385385
0.08400000 1217082.23826692 18621.35911955
0.08500000 1208583.31662319 15590.72551635
0.08600000 1200041.19401241 18792.64598058
0.08700000 1191459.83860438 17299.99766890
0.08800000 1182837.43125346 18949.05653860
0.08900000 1174180.33156905 22192.00930901
0.09000000 1165487.49726987 20681.57661058
0.09100000 1156761.03316766 19155.96360923
0.09200000 1148001.95562897 20819.01644355
0.09300000 1139213.91426367 20881.79202973
0.09400000 1130395.00248729 20940.56840523
0.09500000 1121549.63648058 17765.34707687
0.09600000 1112678.63759520 17808.42243185
0.09700000 1103785.23300412 24338.46553196
0.09800000 1094869.54262816 32517.62694496
0.09900000 1085934.19633680 24433.52056650
0.10000000 1076978.25318839 16316.22130311
0.10100000 1068004.96787462 17974.52445470
0.10200000 1059016.31308754 21270.34364884
0.10300000 1050012.91251094 21294.26286742
0.10400000 1040997.91327988 19674.86148660
0.10500000 1031973.47512491 19690.05483179
0.10600001 1022936.14812111 16418.12594987
0.10700001 1013893.80420719 18067.58844119
0.10800001 1004843.15735773 16429.18639598
0.10900001 995788.50944765 19716.61341504
0.11000001 986729.99383061 18071.96068765
0.11100001 977669.94127622 18067.34136528
0.11200001 968610.86880690 18059.75049911
0.11300001 959550.78417957 18049.15110019
0.11400001 950494.83960350 22954.45145722
0.11500001 941442.56068815 21295.43172552
0.11600001 932395.76203515 17999.90103373
0.11700001 923356.66258880 17977.75506727
0.11800001 914324.07026465 16320.68542290
0.11900001 905302.01149610 17924.98067192
0.12000001 896290.72870295 17894.44524147
0.12100001 887293.02748602 19484.95580149
0.12200001 878308.28229251 21066.22514324
0.12300001 869339.06118719 17786.67802990
0.12400001 860385.74832556 22585.12695770
0.12500001 851450.00037430 25747.84922457
0.12600001 842534.96957080 16050.29192667
0.12700001 833639.94795688 17606.47653058
0.12800001 824765.40816988 17555.13254026
0.12900001 815913.99533464 15910.32365891
0.13000001 807086.24112050 19031.09446265
0.13100001 798283.14512858 25289.61122977
0.13200001 789507.52257498 23626.01372679
0.13300001 780760.39389702 26678.58391717
0.13400001 772040.22744293 15633.81534279
0.13500001 763351.04809814 15572.36211541
0.13600001 754691.44462016 18610.69190184
0.13700001 746065.03000635 18532.25621921
0.13800001 737470.24350598 18451.50636261
0.13900001 728911.67693165 16837.86053116
0.14000001 720387.30942268 21330.66923797
0.14100001 711898.80745973 21228.82343966
0.14200001 703446.91293744 18106.72439302
0.14300001 695035.39094819 28524.25378993
0.14400001 686659.48275418 17921.81334525
0.14500001 678327.13891378 23768.58406875
0.14600001 670032.82329081 16251.64689558
0.14700001 661783.58935086 20568.23492736
0.14800001 653574.38713746 17528.86589002
0.14900001 645408.78858905 18878.20795692
0.15000001 637288.00048002 20208.40344871
0.15100001 629212.84691251 15780.65894518
0.15200001 621183.97516177 18533.02477347
0.15300001 613201.91311769 21247.44729217
0.15400001 605265.78082513 15479.67307510
0.15500001 597379.71987163 19570.16054657
0.15600001 589539.98000927 22213.86749513
0.15700001 581754.22020485 16545.09080350
0.15800001 574013.95223376 16428.28008832
0.15900001 566327.66409890 20387.79686988
0.16000001 558690.42551016 20238.56161942
0.16100001 551108.70086315 20087.91309470
0.16200001 543577.35566957 22593.79385497
0.16300001 536100.99898739 15825.70223720
0.16400001 528677.93911895 20935.64737747
0.16500001 521309.18231763 18172.83895356
0.16600001 513995.82579393 15450.71525284
0.16700001 506736.67545225 17877.67075404
0.16800001 499533.28340557 12663.16933224
0.16900001 492387.93287150 13811.48216920
0.17000001 485298.34792088 18671.85481793
0.17100001 478266.37169993 13573.20026979
0.17200001 471292.12121375 12230.03112303
0.17300001 464375.35443943 12120.19732324
0.17400001 457518.26081416 16813.79687897
0.17500001 450719.14569427 11898.98600829
0.17600001 443977.33864077 12966.35878739
0.17700001 437297.53988307 15178.59832624
0.17800001 430675.82851735 11563.64654187
0.17900001 424114.08508057 14886.40508947
0.18000001 417613.34932917 18141.12475176
0.18100001 411173.94081234 16837.57367161
0.18200001 404792.18358396 12222.70056069
0.18300001 398473.71124451 10997.87494988
0.18400001 392214.96950033 13060.75910136
0.18500001 386018.23541499 17231.85484299
0.18600001 379882.75733538 14917.99658534
0.18700001 373807.86156730 11595.52041365
0.18800001 367794.69917882 12512.37625722
0.18900001 361844.83233574 11343.83602969
0.19000001 355952.51911065 11217.84416980
0.19100001 350127.42997547 11092.03750572
0.19200001 344359.71364018 10966.13559904
0.19300001 338656.99362057 12811.39467404
0.19400001 333015.05669503 11688.82904234
0.19500001 327435.62123811 10589.26849124
0.19600001 321916.64643874 16171.48349806
0.19700001 316460.78492574 15038.21721034
0.19800001 311066.29655344 11142.39526912
0.19900001 305734.66557282 11923.65252085
0.20000001 300462.97736446 9964.85511524
0.20100001 295254.83548583 11630.08851945
0.20200001 290106.54805062 10600.49376679
0.20300001 285020.89584612 10465.96779014
0.20400001 279996.39626351 10331.86751047
0.20500001 275032.53127075 8498.50561796
0.20600001 270130.82266040 10903.83117209
0.20700001 265289.06977107 11587.82711535
0.20800001 260508.49195381 8983.63576969
0.20900001 255790.74131124 8863.14960541
0.21000001 251130.46484005 11127.59142309
0.21100001 246531.04152284 9407.62498924
0.21200001 241991.66446575 9277.96085423
0.21300001 237512.03663358 8386.55041001
0.21400001 233092.40456025 9020.67648295
0.21500001 228733.10828425 14821.90611756
0.21600001 224431.74087847 9496.82956427
0.21700001 220189.45473212 10080.27371423
0.21800001 216006.03573579 9224.53819224
0.21900001 211879.81311423 8390.44099604
0.22000001 207811.28027638 12400.09968040
0.22100001 203802.63608383 6786.62810249
0.22200001 199850.55748701 6685.00146404
0.22300001 195955.20867266 8559.32391955
0.22400001 192115.28927521 9077.44784749
0.22500001 188335.03338259 8938.38110701
0.22600001 184608.30862981 8171.68716792
0.22700001 180939.18887112 6806.93260723
0.22800001 177324.38836590 6700.20233126
0.22900001 173764.42621406 6594.36028668
0.23000001 170259.38258074 6489.43667396
0.23100001 166810.18265986 6965.99355732
0.23200001 163413.01325163 6282.41359158
0.23300001 160070.54671194 6180.32410084
0.23400001 156781.40424977 6079.19923730
0.23500001 153543.57500442 8696.70849957
0.23600001 150359.51194448 8552.44944391
0.23700001 147227.13470608 5781.60985337
0.23800001 144145.86468660 6717.91834147
0.23900001 141116.38870522 5080.19023368
0.24000001 138137.27282203 6491.76144333
0.24100001 135209.89476852 6871.36717716
0.24200001 132331.62378875 5788.18549831
0.24300001 129502.96970591 5213.78980699
0.24400001 126722.81487924 5588.47640053
0.24500001 123991.70362480 5947.88230424
0.24600001 121309.11624421 5842.85386030
0.24700001 118674.67286924 6622.04705937
0.24800001 116086.63377284 4335.83597653
0.24900001 113545.47670098 5535.34225104
0.25000001 111051.31198152 5017.29851268
0.25100001 108602.43629416 4515.68951474
0.25200001 106200.34078316 6045.45468509
0.25300001 103843.52965674 7912.87733421
0.25400001 101530.07114013 5048.58302630
0.25500001 99261.30871550  5336.28820902
0.25600001 97036.42404290  4114.82975622
0.25700001 94854.73803611  3670.87853568
0.25800001 92715.62556305  4322.40266826
0.25900001 90619.38674223  3887.57187518
0.26000001 88565.73217670  3467.34857878
0.26100001 86551.02022421  6462.76498594
0.26200001 84579.52928508  5004.99388227
0.26300001 82647.39060838  3600.12050525
0.26400001 80755.36645338  4494.03635578
0.26500001 78903.55828639  4092.72776198
0.26600001 77089.88091886  4013.68483997
0.26700001 75316.07727468  3330.47709469
0.26800001 73580.13783122  3859.64631258
0.26900001 71881.41666166  3784.55676633
0.27000001 70220.62849029  3425.36241985
0.27100001 68596.23183719  3638.34430882
0.27200001 67008.67257795  2744.00527192
0.27300001 65456.29265496  3497.32988206
0.27400001 63938.49640523  3692.44834215
0.27500001 62457.67895607  3620.04724361
0.27600001 61009.22265691  3548.90664991
0.27700001 59596.83847873  2485.18828218
0.27800001 58216.73328775  2680.00744374
0.27900001 56870.55639492  4538.27061510
0.28000001 55556.35994503  3044.21088727
0.28100001 54274.52376771  2754.97495684
0.28200001 53024.75925902  2926.17147820
0.28300001 51806.40170327  3089.73394382
0.28400001 50619.05519934  3245.94706829
0.28500001 49462.12533003  2758.50286022
0.28600001 48334.58474131  2288.88436876
0.28700001 47237.20527167  2040.64736433
0.28800001 46168.12392455  2201.52709355
0.28900001 45129.13299991  2159.42911626
0.29000001 44117.16909897  2503.42887902
0.29100001 43134.75107633  3400.74393583
0.29200001 42178.30110675  2409.85734781
0.29300001 41249.28827538  2728.64054858
0.29400001 40346.66096837  1963.87381560
0.29500001 39471.56436417  1927.79129480
0.29600001 38620.53614924  2064.65396027
0.29700001 37795.06204694  2196.27115951
0.29800001 36994.97983119  2156.99240117
0.29900001 36219.41416633  2281.82320050
0.30000001 35467.74228617  1761.50550403
0.30100001 34740.46400712  2045.86602223
0.30200001 34035.53871282  1701.60683850
0.30300001 33354.10239501  1673.04185534
0.30400001 32695.69853763  1944.57676259
0.30500001 32058.49591260  1912.93054167
0.30600001 31443.38757623  1882.35848637
0.30700001 30849.92019498  1567.79301853
0.30800001 30277.21800452  2245.35859352
0.30900001 29725.07678486  1796.88097672
0.31000001 29194.23462049  1770.48444238
0.31100001 28681.36047192  1476.51650700
0.31200001 28189.37678964  2779.33173616
0.31300001 27715.58876633  1435.94472197
0.31400001 27262.24910995  1674.58373086
0.31500001 26826.76246615  1525.90632132
0.31600002 26408.86382277  1632.46399450
0.31700002 26008.51490836  1612.78808583
0.31800002 25626.02262836  1716.68733716
0.31900002 25260.88006418  1455.02676059
0.32000002 24911.92841861  1319.46035117
0.32100002 24579.94596027  1543.37487992
0.32200002 24264.27690493  1410.72512605
0.32300002 23963.48713033  1630.47574155
0.32400002 23678.36302920  1269.75227757
0.32500002 23408.05114654  1144.65375527
0.32600002 23152.99603666  1249.21996031
0.32700002 22912.20075556  1240.00836361
0.32800002 22686.24960954  1343.47976550
0.32900002 22472.93066602  1334.89214477
0.33000002 22274.54531627  1105.93122732
0.33100002 22087.35014560  1649.92513401
0.33200002 21915.37987580  1860.94457028
0.33300002 21754.88002121  1307.90344881
0.33400002 21607.47708691  1194.35335254
0.33500002 21471.53613538  1515.03166146
0.33600002 21347.57411446  1079.11992259
0.33700002 21234.09957571  1399.53956931
0.33800002 21133.44070045  1182.09906156
0.33900002 21042.39020202  1180.47814624
0.34000002 20962.99399573  1179.48291303
0.34100002 20893.55180008  1393.39103554
0.34200002 20835.13476683  1715.14837523
0.34300002 20785.32953055  1394.27997094
0.34400002 20746.00714111  1288.32710448
0.34500002 20715.67686587  1290.17241631
0.34600002 20695.78675779  1292.65890211
0.34700002 20682.60461408  1295.55841438
0.34800002 20679.56066882  1190.83255751
0.34900002 20684.62980094  1411.72605078
0.35000002 20697.92397837  1525.64404870
0.35100002 20719.23916715  1859.75899573
0.35200002 20747.74668464  1538.03053458
0.35300002 20783.75116030  1545.06413444
0.35400002 20827.65583624  1663.60908871
0.35500002 20878.35355112  1114.90413244
0.35600002 20935.22368105  1233.18940934
0.35700002 20998.95281674  1127.64381967
0.35800002 21069.64725221  1701.90083741
0.35900002 21146.00590960  1484.44968517
0.36000002 21229.29680790  1494.43641958
0.36100002 21317.23497022  1389.03109645
0.36200002 21412.10266378  1282.47794979
0.36300002 21510.35600683  1409.35859232
0.36400002 21614.87863033  1538.43905939
0.36500002 21723.84068551  1431.16669215
0.36600002 21838.22762385  1322.41393640
0.36700002 21956.68048871  1454.41058447
0.36800002 22081.10222521  1955.50250569
0.36900002 22208.84722864  1355.85018753
0.37000002 22339.63330479  1243.20065230
0.37100002 22474.91056892  1504.92008298
0.37200002 22614.29014144  1265.26959335
0.37300002 22756.70882969  1531.98171099
0.37400002 22903.49580782  1288.32170022
0.37500002 23052.56484030  1560.19766230
0.37600002 23205.62868106  1837.18970971
0.37700002 23360.31796873  1456.98310073
0.37800002 23519.04752818  1470.76370685
0.37900002 23679.86119256  1619.70258230
0.38000002 23843.31743438  1771.43935271
0.38100002 24008.73535459  2063.55090148
0.38200002 24176.40153211  1944.50806735
0.38300002 24346.00488877  1542.56294283
0.38400002 24518.22985808  1557.52062552
0.38500002 24690.73552360  1572.55302000
0.38600002 24866.49721907  2453.95039432
0.38700002 25042.64118354  1894.72632171
0.38800002 25220.14352429  1618.75498880
0.38900002 25398.84244429  2080.16529474
0.39000002 25579.51701114  2100.33424129
0.39100002 25760.25410934  2272.05452009
0.39200002 25942.30373342  1682.22876529
0.39300002 26124.88738100  2470.36946779
0.39400002 26308.80677381  2026.43593776
0.39500002 26492.50810178  1731.02056138
0.39600002 26676.53893591  1747.44676579
0.39700002 26860.53147922  1763.93118581
0.39800002 27045.71522505  1942.42335949
0.39900002 27230.20740112  2614.10003436
0.40000002 27414.85766916  1813.90414362
0.40100002 27598.78323352  1997.04804940
0.40200002 27784.08252716  1679.54786834
0.40300002 27967.85101739  1694.85185196
0.40400002 28151.04305447  1710.17594659
0.40500002 28334.03041695  1898.09678756
0.40600002 28516.66977901  2437.31988149
0.40700002 28698.37507294  1931.97470145
0.40800002 28879.86719406  2126.13592357
0.40900002 29059.39713623  2144.58361027
0.41000002 29238.94630295  1982.83923749
0.41100002 29417.14541235  1817.97967262
0.41200002 29593.76104834  3116.66709248
0.41300002 29769.66875554  2773.04477597
0.41400002 29944.11260404  1864.02109792
0.41500002 30117.85869035  1879.35447133
0.41600002 30288.84908458  1894.56760001
0.41700002 30459.40945938  1909.80506360
0.41800002 30629.12016916  2310.04835262
0.41900002 30795.33257519  2328.12725300
0.42000002 30960.63298668  2150.68047233
0.42100002 31124.95290048  2561.27249555
0.42200002 31287.15008084  2382.20372004
0.42300002 31447.17372604  2400.04841250
0.42400002 31605.30396759  2216.32204575
0.42500002 31761.82190273  2435.49661891
0.42600002 31915.16256810  2452.99951122
0.42700002 32067.73458607  2470.49838958
0.42800002 32217.61489345  3109.80542495
0.42900002 32366.02768341  2296.36977296
0.43000002 32512.06990552  2522.28650279
0.43100002 32654.42172739  4020.41259359
0.43200002 32795.66658218  2343.08651000
0.43300002 32934.10006373  3001.61402205
0.43400002 33070.53105359  3020.99315490
0.43500002 33204.23083439  3474.49087916
0.43600002 33336.29714207  3059.27213370
0.43700002 33464.84798550  2198.64061684
0.43800002 33590.31178917  2433.11434975
0.43900002 33714.37583331  2892.69358358
0.44000002 33834.91841628  2685.81595116
0.44100002 33953.69652548  3376.69527948
0.44200002 34069.35752407  3622.25426362
0.44300002 34182.73213066  2731.88408135
0.44400002 34292.88595580  2975.76531984
0.44500002 34399.37306460  2991.71361721
0.44600002 34503.98258152  2544.84135590
0.44700002 34605.94969175  2558.07192244
0.44800002 34704.31788732  2337.33592048
0.44900002 34800.82020359  2818.86657008
0.45000002 34894.34846573  3540.90417837
0.45100002 34983.66809569  2846.27137116
0.45200002 35071.01829451  2383.07580605
0.45300002 35155.09829515  3112.28099957
0.45400002 35236.72217921  3847.85024433
0.45500002 35315.21442786  2415.56078135
0.45600002 35390.30909353  2426.00580334
0.45700002 35462.62918929  2923.53928892
0.45800002 35531.43365379  3180.24111991
0.45900002 35597.34124059  3193.08166061
0.46000002 35661.18311231  2712.56802200
0.46100002 35720.75379114  2970.53802606
0.46200002 35777.99844158  2484.78210953
0.46300002 35831.58594791  3491.42990024
0.46400002 35881.95731562  3754.14996208
0.46500002 35930.02906312  2762.66006560
0.46600002 35974.36747896  3528.00638587
0.46700002 36015.65182844  3033.95865383
0.46800002 36054.34254027  3043.70774151
0.46900002 36089.40381892  2544.30308982
0.47000002 36121.08046227  2807.14990117
0.47100002 36150.11209723  3583.19928091
0.47200002 36175.83440501  2566.67557269
0.47300002 36198.82977571  3088.48430285
0.47400002 36217.67072568  3870.76374227
0.47500002 36234.42802597  3104.56594041
0.47600002 36248.33384332  2852.92525036
0.47700002 36258.20696765  3639.59898792
