# SAXS profile: number of points = 501, q_min = 0, q_max = 0.5, delta_q = 0.001
#    q    intensity    error
0.00000000 1664650.74656091 299.63713438
0.00100000 1664582.59339936 649.18722684
0.00200000 1664378.08457386 1123.45524266
0.00300000 1664037.37314601 998.42245945
0.00400000 1663560.35054180 1621.97140341
0.00500000 1662947.45928913 2244.97915890
0.00600000 1662198.43014679 2094.37010725
0.00700000 1661313.87386826 2791.00742409
0.00800000 1660293.33525818 2241.39609723
0.00900000 1659138.09828451 3733.06088072
0.01000000 1657847.33507862 3282.53786519
0.01100000 1656422.28512073 3279.71626734
0.01200000 1654862.37812476 4195.07631247
0.01300000 1653168.99700470 4513.15156087
0.01400000 1651341.49092739 4458.62222316
0.01500000 1649381.46221295 4750.21882270
0.01600000 1647287.85555089 5040.70106332
0.01700000 1645062.80768259 4885.83675799
0.01800000 1642705.80764292 6086.22529118
0.01900000 1640217.65032611 5412.71849031
0.02000000 1637598.85677201 7737.65494827
0.02100000 1634851.09721138 5395.00886540
0.02200000 1631972.62838515 7319.39757084
0.02300000 1628966.33109952 6450.70696478
0.02400000 1625831.87329170 6706.55678313
0.02500000 1622570.81411207 6960.82911045
0.02600000 1619183.30362922 8525.00048353
0.02700000 1615670.17578649 8821.55956383
0.02800000 1612031.47696296 12622.20704347
0.02900000 1608269.82511532 7960.93599984
0.03000000 1604385.23526264 9698.50919296
0.03100000 1600378.19919740 8449.99728057
0.03200000 1596249.62660933 10271.86682033
0.03300000 1592002.29481150 10554.97570119
0.03400000 1587634.18366479 10835.60380347
0.03500000 1583148.60369676 9403.90314021
0.03600000 1578545.36898362 11389.20536355
0.03700000 1573826.04810104 12559.13244467
0.03800000 1568992.37761882 11014.32700062
0.03900000 1564045.07917965 10322.69800063
0.04000000 1558983.40612947 10546.52323118
0.04100000 1553811.25258298 12725.71474870
0.04200000 1548528.87244613 14982.01753597
0.04300000 1543136.28073563 11203.16991817
0.04400000 1537637.09262814 14530.67120017
0.04500000 1532031.00531583 13742.31875622
0.04600000 1526318.47228898 12912.65487583
0.04700000 1520502.25900772 16421.42516101
0.04800000 1514583.13320639 12245.40520173
0.04900000 1508563.28078317 15839.91518553
0.05000000 1502442.35377557 13792.42144992
0.05100000 1496223.90040491 17505.82045023
0.05200000 1489905.85080215 16582.65289220
0.05300000 1483493.77388026 13217.93014146
0.05400000 1476985.85940940 17059.18747171
0.05500000 1470386.31218476 19761.99295765
0.05600000 1463693.28126815 12514.57813882
0.05700000 1456911.88471474 15210.16078641
0.05800000 1450040.69416342 14116.14681680
0.05900000 1443081.98382431 32469.34615255
0.06000000 1436038.08728928 17081.67384634
0.06100000 1428910.52212945 15946.64217217
0.06200000 1421699.83716162 16122.07690702
0.06300000 1414409.25344490 17651.82830831
0.06400000 1407036.85177160 19206.05392489
0.06500000 1399588.82477249 15241.52301474
0.06600000 1392063.06318950 15389.25788360
0.06700000 1384462.48002415 22594.42873139
0.06800000 1376789.92193632 17099.73163087
0.06900000 1369046.34004420 15812.48596783
0.07000000 1361230.98073680 23195.37699796
0.07100000 1353348.92158645 23385.87046036
0.07200000 1345398.69149202 17678.53963439
0.07300000 1337385.40297372 20782.97013601
0.07400000 1329308.67406529 23927.55725452
0.07500000 1321169.82550099 16567.47038834
0.07600000 1312969.92975386 18197.76407951
0.07700000 1304714.00346786 19844.70092323
0.07800000 1296400.54059006 15362.34712643
0.07900000 1288030.85710547 20093.28231330
0.08000000 1279610.41183651 15547.26723315
0.08100000 1271137.76829636 26579.49198214
0.08200000 1262614.36925982 15719.54963493
0.08300000 1254043.35775383 17381.04175420
0.08400000 1245425.20683551 19055.00655900
0.08500000 1236763.97002153 22335.95834715
0.08600000 1228058.70828470 20834.01696424
0.08700000 1219312.78613977 19313.91543939
0.08800000 1210525.20606272 16160.51225990
0.08900000 1201701.79124180 16222.97494375
0.09000000 1192841.55218323 19538.74554260
0.09100000 1183946.58066446 19606.15629692
0.09200000 1175018.21762667 21308.95637790
0.09300000 1166059.92604323 18085.59030281
0.09400000 1157069.95085786 16488.24757463
0.09500000 1148052.50548090 21491.54391276
0.09600000 1139008.36493920 18229.82973780
0.09700000 1129941.31624730 18271.15194270
0.09800000 1120851.25504638 16644.64192003
0.09900000 1111740.43242840 18343.71799764
0.10000000 1102608.49225640 20045.42333190
0.10100000 1093458.40533155 18402.90582725
0.10200000 1084292.41143117 20102.78225349
0.10300000 1075110.90666272 18448.90402618
0.10400000 1065917.07833698 16788.19477361
0.10500000 1056713.30386232 16801.74232192
0.10600001 1047496.15221419 18493.54543753
0.10700001 1038272.91319190 16820.02198522
0.10800001 1029041.32477678 18507.30909710
0.10900001 1019804.89203442 20192.13781264
0.11000001 1010564.63254361 21873.67250099
0.11100001 1001322.07515591 20186.65398540
0.11200001 992079.72172262 21860.47769729
0.11300001 982836.03568376 18487.14670160
0.11400001 973596.33551426 16794.53757838
0.11500001 964359.90737421 18457.84949629
0.11600001 955128.69928551 23467.51324657
0.11700001 945904.86654504 35159.28554530
0.11800001 936687.29914542 20063.84289267
0.11900001 927479.94809083 28380.88774837
0.12000001 918282.96946742 26666.93868948
0.12100001 909099.79999046 23291.13797296
0.12200001 899928.81280573 28226.26854343
0.12300001 890773.70996723 26509.42685760
0.12400001 881634.05163919 23142.89494596
0.12500001 872511.99048887 21437.62061646
0.12600001 863410.53179669 18092.76854639
0.12700001 854328.92329594 16403.11610030
0.12800001 845267.72096873 17991.52428875
0.12900001 836229.67305425 17937.12733243
0.13000001 827215.71653689 16254.78959612
0.13100001 818226.03255377 17820.96382906
0.13200001 809263.89931097 19373.77866279
0.13300001 800330.38763700 20912.63401484
0.13400001 791424.03518739 25642.13994899
0.13500001 782548.63483482 19156.79148396
0.13600001 773703.22389652 17489.56220083
0.13700001 764891.13466759 18999.89668105
0.13800001 756110.61827368 15764.90713441
0.13900001 747366.84156583 17264.17485432
0.14000001 738657.21981123 20309.38121651
0.14100001 729984.14169890 20213.26183696
0.14200001 721347.63072688 20114.77963154
0.14300001 712752.30103356 15395.45042849
0.14400001 704192.16479069 15316.18030666
0.14500001 695676.22592803 19805.90308646
0.14600001 687198.96577044 18183.28549207
0.14700001 678766.74653193 15068.62248389
0.14800001 670375.42467394 17979.46973800
0.14900001 662027.87635603 17874.75350496
0.15000001 653725.92729888 14806.89295195
0.15100001 645469.64728289 17660.05038295
0.15200001 637260.55362622 20475.18255417
0.15300001 629098.55976184 15985.39515788
0.15400001 620982.79983338 15881.63585521
0.15500001 612918.03295553 21513.42397202
0.15600001 604900.51496687 21368.11169967
0.15700001 596936.80673429 15562.14328605
0.15800001 589019.76931511 14048.12216122
0.15900001 581157.07997002 19526.87880867
0.16000001 573344.14518274 13846.26175974
0.16100001 565587.55563674 13743.77825074
0.16200001 557881.92978608 13640.21382717
0.16300001 550231.85356680 13535.70423673
0.16400001 542635.83197925 14773.26122307
0.16500001 535095.37802725 13323.87554192
0.16600001 527610.24378075 22468.28329220
0.16700001 520180.83307205 18351.98065727
0.16800001 512807.49849000 18199.53898073
0.16900001 505493.32599929 12890.08042163
0.17000001 498235.76333235 21725.57148598
0.17100001 491036.56033741 16469.36701142
0.17200001 483895.78565274 16324.22509987
0.17300001 476813.52888148 12444.83369151
0.17400001 469791.93397854 14798.44661920
0.17500001 462829.16516790 14662.42864499
0.17600001 455924.56454045 12104.79776025
0.17700001 449082.73387997 20383.86625355
0.17800001 442300.29371345 13063.33979184
0.17900001 435578.51419143 12936.68248253
0.18000001 428918.80685085 15138.69000288
0.18100001 422321.29231973 16141.12055491
0.18200001 415782.43752130 12554.55129401
0.18300001 409308.20040783 14685.97892439
0.18400001 402894.47091828 11180.32209615
0.18500001 396543.96491519 14382.65028694
0.18600001 390255.54018573 14230.66894518
0.18700001 384028.94414182 10829.61673644
0.18800001 377864.69865097 14997.45059803
0.18900001 371765.17454733 14833.43116528
0.19000001 365724.43786098 12573.60676775
0.19100001 359751.70217131 14505.18931692
0.19200001 353838.00148544 11267.97168973
0.19300001 347989.96729827 14177.11193764
0.19400001 342203.94131760 13012.30548348
0.19500001 336481.40923898 12860.32006883
0.19600001 330820.85897824 9775.75684477
0.19700001 325224.01874494 10625.06919451
0.19800001 319690.26310313 9542.75480461
0.19900001 314220.40542044 15082.58017298
0.20000001 308811.33791921 9310.66227830
0.20100001 303467.26824456 13792.58799359
0.20200001 298184.22334521 9987.68103300
0.20300001 292965.17044923 11654.15503130
0.20400001 287808.31450463 11505.13791612
0.20500001 282713.47358160 10483.01609591
0.20600001 277681.58193808 12933.02029008
0.20700001 272711.40643425 8508.59628294
0.20800001 267803.12533717 9235.19121380
0.20900001 262959.09697313 9939.85433545
0.21000001 258174.03415731 8988.32942409
0.21100001 253450.96035696 8865.71501240
0.21200001 248789.04963069 10333.45366492
0.21300001 244188.18301512 8622.28514989
0.21400001 239648.77145595 11593.00986726
0.21500001 235170.80408447 9905.39473634
0.21600001 230751.70758469 9013.16212439
0.21700001 226393.32928094 7403.06221750
0.21800001 222095.01910211 8754.98606695
0.21900001 217855.04456130 8627.06017253
0.22000001 213674.19471041 7791.62987852
0.22100001 209554.69127954 9071.62301443
0.22200001 205492.67680298 6873.73036408
0.22300001 201488.95047552 6770.02905610
0.22400001 197541.60414486 9333.84123721
0.22500001 193655.19890801 7221.40270876
0.22600001 189824.13124264 9048.91676424
0.22700001 186051.42504311 6999.25494111
0.22800001 182334.56386914 6263.19256509
0.22900001 178673.74455952 8629.94227034
0.23000001 175069.12881403 10312.44752048
0.23100001 171521.69399359 7162.74627992
0.23200001 168027.44805972 9983.35129862
0.23300001 164589.23317581 6354.79059346
0.23400001 161205.69773322 6250.75122524
0.23500001 157874.71776261 6706.51832775
0.23600001 154598.65797824 5495.98255107
0.23700001 151375.49890272 5944.51612307
0.23800001 148205.24654426 6907.10584189
0.23900001 145087.50616258 5745.46551580
0.24000001 142021.58326036 7187.71266879
0.24100001 139008.52713926 7064.41368337
0.24200001 136045.96502649 6942.42592369
0.24300001 133134.17850922 5847.25339672
0.24400001 130272.24020582 7660.00808645
0.24500001 127460.72646662 5173.63113202
0.24600001 124698.45969903 5544.09378048
0.24700001 121986.19463713 4991.67532069
0.24800001 119321.34857572 6239.31361219
0.24900001 116704.49856075 4376.41890307
0.25000001 114135.78859215 7305.26149444
0.25100001 111613.93710817 5484.70912897
0.25200001 109139.87691260 4141.85852478
0.25300001 106712.13798278 4472.30591445
0.25400001 104329.32879062 3990.59701504
0.25500001 101992.03584979 4699.79323431
0.25600001 99700.10792025  4996.47114482
0.25700001 97452.39123409  4902.83003496
0.25800001 95248.57144116  4070.44789313
0.25900001 93088.60887774  3630.45591801
0.26000001 90972.39651317  3917.72644121
0.26100001 88896.34147157  5589.80221622
0.26200001 86864.90915989  5140.23124276
0.26300001 84873.85704638  5041.50734711
0.26400001 82923.81004049  3625.84376559
0.26500001 81015.26661247  3555.76021988
0.26600001 79146.13153585  4120.74353341
0.26700001 77317.67031338  3108.17049368
0.26800001 75528.49638240  3352.33247057
0.26900001 73777.47002525  4183.18274839
0.27000001 72065.32133308  3222.40099590
0.27100001 70390.97723898  3159.14720799
0.27200001 68754.34036592  3378.58844547
0.27300001 67154.00323303  3036.03262984
0.27400001 65589.19704544  3517.22085801
0.27500001 64062.75704311  3182.63792052
0.27600001 62569.57488246  3639.67234316
0.27700001 61113.24024344  2803.26446264
0.27800001 59690.39739418  3247.45622392
0.27900001 58302.35401745  2693.56888309
0.28000001 56947.58111589  2400.34065764
0.28100001 55625.89970075  3058.86836932
0.28200001 54337.36601387  3921.25620398
0.28300001 53081.29666766  2713.51601408
0.28400001 51857.08751243  2881.95777491
0.28500001 50664.33605751  3260.25017961
0.28600001 49501.91389620  3622.79773997
0.28700001 48370.54144023  2716.48973586
0.28800001 47268.46360403  2868.72319191
0.28900001 46197.56021348  2210.55336085
0.29000001 45154.27365619  2562.27937990
0.29100001 44141.46214163  2126.73574665
0.29200001 43155.76793152  2465.70491748
0.29300001 42198.18218515  2233.12790695
0.29400001 41267.84275931  2373.93276710
0.29500001 40365.81710518  2867.58778289
0.29600001 39489.04201899  1935.16059575
0.29700001 38638.28418123  2245.27080006
0.29800001 37813.95448661  2204.74272071
0.29900001 37014.88058759  1998.80364635
0.30000001 36240.51860820  1799.88544188
0.30100001 35491.51761216  1768.54240634
0.30200001 34765.50639483  1896.11080854
0.30300001 34063.69690335  1708.63511756
0.30400001 33385.81332749  1985.62134166
0.30500001 32729.72530326  1502.29446254
0.30600001 32096.45508011  2364.86692226
0.30700001 31485.62204231  1454.63580722
0.30800001 30896.34589405  1575.25026999
0.30900001 30328.43001061  1692.32647471
0.31000001 29782.23558874  1528.27549159
0.31100001 29254.93115861  1916.78318026
0.31200001 28749.02431753  1889.67345786
0.31300001 28262.16900066  1597.37786755
0.31400001 27796.38317397  1576.05500058
0.31500001 27348.84360475  1555.60229789
0.31600002 26919.81473075  1408.04097616
0.31700002 26508.77193147  1264.46848100
0.31800002 26116.29272049  1624.56406560
0.31900002 25741.67308059  1235.60036637
0.32000002 25384.03158944  1222.24117890
0.32100002 25043.90012357  1330.58247657
0.32200002 24720.45496012  1437.24731944
0.32300002 24412.45860875  1186.44554456
0.32400002 24120.80627760  1763.83404257
0.32500002 23844.40133930  1282.59040877
0.32600002 23583.85580595  1619.50345488
0.32700002 23338.08781505  1722.35096231
0.32800002 23107.64000433  1710.54313232
0.32900002 22890.32499265  1133.07114079
0.33000002 22688.54654180  1577.08094480
0.33100002 22498.11529298  1232.44681411
0.33200002 22323.66126288  1672.60039933
0.33300002 22160.94104865  1221.28951903
0.33400002 22011.85026136  1216.70508081
0.33500002 21874.65745259  1543.47590295
0.33600002 21749.79487004  1209.39740102
0.33700002 21635.92818038  1535.71825497
0.33800002 21535.12445166  1204.56724325
0.33900002 21444.58711535  1421.77619308
0.34000002 21365.66820665  1202.13937858
0.34100002 21297.45449949  1311.07136108
0.34200002 21240.55148160  1420.67435313
0.34300002 21192.47862662  1093.53194892
0.34400002 21155.40543832  1313.75073994
0.34500002 21127.48843006  1206.16837160
0.34600002 21110.36467981  1648.19180044
0.34700002 21100.22800990  1321.71834514
0.34800002 21100.63445185  1767.38922539
0.34900002 21109.30646850  1773.18182733
0.35000002 21126.62805000  1557.24382732
0.35100002 21152.14733502  1675.25014828
0.35200002 21185.03111360  1121.74745059
0.35300002 21225.89359807  1127.09500344
0.35400002 21274.77146715  1246.16979771
0.35500002 21330.61872479  1366.86611262
0.35600002 21393.02403894  1145.59649155
0.35700002 21462.36794748  1267.78213471
0.35800002 21539.00218991  1275.86285515
0.35900002 21621.40351083  1401.06701386
0.36000002 21710.84150901  1528.33476042
0.36100002 21805.27421435  1657.63702429
0.36200002 21906.68321326  1789.22843619
0.36300002 22011.82663873  1322.03037054
0.36400002 22123.22261027  1574.62044387
0.36500002 22239.27533808  1709.31078345
0.36600002 22360.82644936  1354.05990978
0.36700002 22486.70966947  1365.39307581
0.36800002 22618.56997747  1377.13169831
0.36900002 22753.79512157  1389.11925797
0.37000002 22892.31735124  1656.14477723
0.37100002 23035.24132719  1542.43983233
0.37200002 23182.61524954  1426.77412312
0.37300002 23332.93074579  1570.77297221
0.37400002 23487.76619472  1717.54298435
0.37500002 23644.82449634  1733.63861420
0.37600002 23806.10319343  1346.23519936
0.37700002 23968.95963083  1766.75209808
0.37800002 24135.85619713  2058.18523471
0.37900002 24305.01672594  1662.46322281
0.38000002 24476.82057307  1538.73539822
0.38100002 24650.49399975  2824.94674620
0.38200002 24826.55321754  1568.91410491
0.38300002 25004.52280936  1728.31269846
0.38400002 25185.10172629  1599.88366296
0.38500002 25366.20708098  2349.92553531
0.38600002 25550.19044910  1928.14521359
0.38700002 25734.67409448  1497.75810325
0.38800002 25920.47687488  1814.95187676
0.38900002 26107.54963179  1832.75007098
0.39000002 26296.48393947  2159.20439856
0.39100002 26485.34659180  2491.74152541
0.39200002 26675.71275807  2358.80001238
0.39300002 26866.32734604  1746.58002351
0.39400002 27058.40649595  3046.10025560
0.39500002 27250.04680351  2913.57514227
0.39600002 27442.04030776  2124.42565108
0.39700002 27633.89670593  1979.69245381
0.39800002 27827.05410586  2331.62897400
0.39900002 28019.27550175  1849.27227073
0.40000002 28211.30187389  1696.90988811
0.40100002 28402.99950298  2226.51123653
0.40200002 28595.66977361  2074.32998366
0.40300002 28786.83438672  3140.06804368
0.40400002 28977.34994518  2112.44891109
0.40500002 29167.45501879  1953.92790429
0.40600002 29357.13842761  2329.92940170
0.40700002 29545.74063597  2893.11906015
0.40800002 29733.92622731  2189.01175257
0.40900002 29920.17918533  2024.10021779
0.41000002 30106.33464039  2412.87230408
0.41100002 30290.96996065  2059.18023549
0.41200002 30473.70770091  2076.63090967
0.41300002 30655.77796120  2284.46868191
0.41400002 30836.19817867  2303.46411309
0.41500002 31015.72467474  2515.99570483
0.41600002 31192.50862642  3511.96471266
0.41700002 31368.54397452  2163.48858044
0.41800002 31543.64621561  2379.02191031
0.41900002 31715.02271554  2197.85117833
0.42000002 31885.52851506  2416.28546537
0.42100002 32054.66760777  2231.96661129
0.42200002 32221.62574617  2248.90847552
0.42300002 32386.14744912  3089.63861305
0.42400002 32548.67586872  2282.47600345
0.42500002 32709.39897851  2090.13069377
0.42600002 32866.63640766  3157.66224250
0.42700002 33023.08846988  2332.09061825
0.42800002 33176.73323022  2561.90746144
0.42900002 33328.50951500  2579.62675870
0.43000002 33477.87828181  2164.34493348
0.43100002 33623.44558066  2614.55925225
0.43200002 33767.47873879  2193.19784801
0.43300002 33908.66243835  3090.43564108
0.43400002 34047.71684574  3776.74317009
0.43500002 34183.54534852  2682.72476608
0.43600002 34317.83001495  2924.39402331
0.43700002 34448.39079606  2489.58532081
0.43800002 34575.54716323  2959.83985517
0.43900002 34701.13017629  2519.30217019
0.44000002 34823.09854532  2764.25769352
0.44100002 34942.98577475  2780.06407999
0.44200002 35059.59562638  3028.62331171
0.44300002 35173.64519550  2342.56488104
0.44400002 35284.26217972  3297.31445696
0.44500002 35391.12090983  2367.66610107
0.44600002 35495.88393851  3331.99878322
0.44700002 35597.89052684  2631.39619245
0.44800002 35695.77305320  2644.52147197
0.44900002 35791.90077601  3140.73944194
0.45000002 35884.78559451  3398.64820473
0.45100002 35973.23307663  3170.68091364
0.45200002 36059.53571197  3430.34379485
0.45300002 36142.11841482  2461.27838070
0.45400002 36222.29910598  3708.25804672
0.45500002 36299.06255207  4717.42639284
0.45600002 36372.41422095  2991.99493562
0.45700002 36442.51062649  3505.04083817
0.45800002 36508.95081107  2765.00552072
0.45900002 36572.41202194  2775.84620402
0.46000002 36633.42046622  3799.80171795
0.46100002 36689.95021600  3305.39777162
0.46200002 36744.14173618  3317.44499388
0.46300002 36794.47488880  3585.25380309
0.46400002 36841.31196510  3340.58612076
0.46500002 36885.71653802  2578.31170821
0.46600002 36926.04977908  3104.00389155
0.46700002 36963.20164656  3373.26194214
0.46800002 36997.67593849  2602.78662564
0.46900002 37028.23678237  2610.49081689
0.47000002 37055.09289673  3403.32516841
0.47100002 37079.21712520  3412.77130596
0.47200002 37099.86015660  3685.12928402
0.47300002 37117.80721744  2902.98384007
0.47400002 37131.03981135  3968.38006793
0.47500002 37142.22036235  2917.15012552
0.47600002 37150.37251380  3721.35299109
0.47700002 37154.09409404  2663.94867281
