# SAXS profile: number of points = 501, q_min = 0, q_max = 0.5, delta_q = 0.001
#    q    intensity    error
0.00000000 1646666.22097351 271.69992646
0.00100000 1646598.64488463 740.96940780
0.00200000 1646395.86085860 1259.49287344
0.00300000 1646058.03609979 1086.39834253
0.00400000 1645585.04480654 1357.60771355
0.00500000 1644977.31782589 1480.47964464
0.00600000 1644234.63428614 1726.44643629
0.00700000 1643357.55694678 2366.43498035
0.00800000 1642345.64453021 2438.88338510
0.00900000 1641200.17639414 2707.98040681
0.01000000 1639920.33370227 2705.86866745
0.01100000 1638507.33885952 3244.24467219
0.01200000 1636960.63293166 4468.90272384
0.01300000 1635281.58034234 3777.50061720
0.01400000 1633469.58386353 4042.83739929
0.01500000 1631526.14041711 4307.22920250
0.01600000 1629450.27293842 5401.62789626
0.01700000 1627244.08570364 5272.27107419
0.01800000 1624907.12115911 5094.08405406
0.01900000 1622440.10263650 7300.98079130
0.02000000 1619843.53199141 5612.75809225
0.02100000 1617119.12760183 8004.74004455
0.02200000 1614265.09411776 6126.13631050
0.02300000 1611284.37345429 7540.81121101
0.02400000 1608176.64870395 7839.86151991
0.02500000 1604943.33313241 8137.06307061
0.02600000 1601584.73630035 9080.98587017
0.02700000 1598101.53819565 8054.43212141
0.02800000 1594493.84211131 9016.86309065
0.02900000 1590764.39819193 7874.28413259
0.03000000 1586913.01170656 11806.63334979
0.03100000 1582940.25938173 11397.17039197
0.03200000 1578847.03387411 10941.41044869
0.03300000 1574636.09430032 11242.90223161
0.03400000 1570305.40544162 9068.51413485
0.03500000 1565858.36875143 10992.32625624
0.03600000 1561294.70916834 12131.26045087
0.03700000 1556616.02658496 11534.52529044
0.03800000 1551823.99193951 11801.62200487
0.03900000 1546919.31869988 10209.66797623
0.04000000 1541901.34242639 14224.04054301
0.04100000 1536773.81590587 15490.68078258
0.04200000 1531537.13540100 10866.25647979
0.04300000 1526191.20651673 14102.00740280
0.04400000 1520739.75181183 15397.49070218
0.04500000 1515182.35992946 11500.23464622
0.04600000 1509519.45685884 12770.53519869
0.04700000 1503753.85321035 15157.83954532
0.04800000 1497886.19120330 15413.24962463
0.04900000 1491918.90067252 12308.33150347
0.05000000 1485851.33217313 18186.82115269
0.05100000 1479687.31644381 13849.87392710
0.05200000 1473424.55114361 12885.09830021
0.05300000 1467068.75798568 13071.58324302
0.05400000 1460617.98803051 20485.16823743
0.05500000 1454076.43707544 12214.24264122
0.05600000 1447442.38630337 14850.75957647
0.05700000 1440720.80793400 17547.98025975
0.05800000 1433910.32762590 13959.11769122
0.05900000 1427013.23185682 12843.11968656
0.06000000 1420031.73330166 14292.62006342
0.06100000 1412967.30547155 14454.65621046
0.06200000 1405820.78186850 13285.00700965
0.06300000 1398595.08903315 14769.16483073
0.06400000 1391288.38445142 18991.08733591
0.06500000 1383906.97744079 13700.67971755
0.06600000 1376448.56417987 20749.96307587
0.06700000 1368916.10919990 16755.53396075
0.06800000 1361312.42311984 16907.50108657
0.06900000 1353638.54507163 15634.52592757
0.07000000 1345893.59639739 14333.76747286
0.07100000 1338082.71887768 18786.68225297
0.07200000 1330204.51933174 16022.31418594
0.07300000 1322263.73009040 17612.55371005
0.07400000 1314260.40651504 14785.43026620
0.07500000 1306195.57399431 16379.69326565
0.07600000 1298070.46552004 19490.52895351
0.07700000 1289889.90712867 21128.39766945
0.07800000 1281652.61895049 16706.34267148
0.07900000 1273359.74019942 22920.47639865
0.08000000 1265016.55613954 15369.95187812
0.08100000 1256621.97841835 18547.74127168
0.08200000 1248177.27533237 18647.76936852
0.08300000 1239685.27882448 15620.03524627
0.08400000 1231147.03957257 15697.12549135
0.08500000 1222566.42237835 17348.21834796
0.08600000 1213942.07805525 23762.91729364
0.08700000 1205277.97246811 20682.57097876
0.08800000 1196572.37351959 23961.36290505
0.08900000 1187831.59864354 19242.87280186
0.09000000 1179054.64379275 20922.32563694
0.09100000 1170243.46504252 20994.16874919
0.09200000 1161399.19916209 17821.67154852
0.09300000 1152525.72932352 16250.61354711
0.09400000 1143620.88564963 17926.25822505
0.09500000 1134689.20847153 21241.38298099
0.09600000 1125731.29734898 21293.20849030
0.09700000 1116750.77598791 18057.86089667
0.09800000 1107747.71614566 23030.07610149
0.09900000 1098724.44697873 31313.64821134
0.10000000 1089680.25894392 26413.85071897
0.10100000 1080618.37328079 18186.80807767
0.10200000 1071541.01909309 19866.37142843
0.10300000 1062448.48122208 16574.19708673
0.10400000 1053344.03211083 16590.16928623
0.10500000 1044229.93865316 24904.88520864
0.10600001 1035102.77388856 19936.08036316
0.10700001 1025970.03836315 19944.85848434
0.10800001 1016829.00291377 21612.70147406
0.10900001 1007683.60875835 16626.78032706
0.11000001 998534.45212313 19950.71929249
0.11100001 989383.39609643 24932.46275528
0.11200001 980232.90261078 19937.93817772
0.11300001 971081.25041394 21587.13721304
0.11400001 961933.85087578 21571.36762156
0.11500001 952789.87049618 19894.25343274
0.11600001 943651.25879578 19873.29644610
0.11700001 934520.19912672 21503.31079460
0.11800001 925395.69418955 19821.97670312
0.11900001 916281.49994827 19791.68133110
0.12000001 907177.96229160 21404.86502854
0.12100001 898088.13335536 31226.52586779
0.12200001 889011.01475682 24603.38099249
0.12300001 879949.52490331 18003.76812776
0.12400001 870903.87112462 21228.28285889
0.12500001 861875.67023920 17918.39602860
0.12600001 852868.33806072 17871.85686625
0.12700001 843880.87363022 38886.03248944
0.12800001 834913.98902335 17771.14509390
0.12900001 825970.19621203 16106.41958526
0.13000001 817050.35688687 19266.04832350
0.13100001 808154.98293977 22402.05718307
0.13200001 799287.18961170 20729.51423978
0.13300001 790448.02925940 19065.60736455
0.13400001 781635.94892218 22159.38019666
0.13500001 772854.82216776 18919.48693869
0.13600001 764103.57267951 17272.56207483
0.13700001 755385.68102188 21891.07806825
0.13800001 746699.41242301 17125.55183149
0.13900001 738049.60599809 18598.85094824
0.14000001 729433.95596990 29312.30490304
0.14100001 720854.74608054 23031.31022350
0.14200001 712311.94426222 16807.00111757
0.14300001 703810.15719203 18242.76013488
0.14400001 695343.64583726 22685.58751552
0.14500001 686921.09814681 15043.57275905
0.14600001 678537.08056106 17954.09199862
0.14700001 670197.99110855 17854.07532542
0.14800001 661899.45771037 16272.79893554
0.14900001 653644.76033522 17648.40936172
0.15000001 645435.19890070 16081.01873936
0.15100001 637271.32226894 17435.74419998
0.15200001 629154.21557462 18770.81690741
0.15300001 621084.09041540 15781.74748218
0.15400001 613060.12852303 17104.37839297
0.15500001 605086.69354617 15574.93222691
0.15600001 597160.10799392 18282.05756905
0.15700001 589287.42500630 22345.78021089
0.15800001 581460.86397267 20801.76339044
0.15900001 573688.49770518 16522.22951377
0.16000001 565965.68449031 16401.68631073
0.16100001 558298.58950325 18993.31891147
0.16200001 550682.38870891 16157.02204743
0.16300001 543121.36976359 17369.02222499
0.16400001 535614.14017486 14582.09565468
0.16500001 528161.83229600 15781.47629407
0.16600001 520764.97270194 16958.71213671
0.16700001 513423.02244010 12938.26077637
0.16800001 506137.11129710 14113.63401491
0.16900001 498909.76973714 15266.63967482
0.17000001 491738.53274606 17658.33154473
0.17100001 484625.47261836 13753.67156238
0.17200001 477570.40983716 18589.42908076
0.17300001 470573.41069023 14738.35991883
0.17400001 463636.65575170 19472.74046119
0.17500001 456758.23660352 13264.25981741
0.17600001 449937.61932585 13140.42879302
0.17700001 443179.41416607 16566.04728395
0.17800001 436479.93392547 12891.43545738
0.17900001 429840.75835662 12766.27112619
0.18000001 423263.18303127 14939.07475074
0.18100001 416747.37233310 13652.64456254
0.18200001 410289.69516629 14641.18846363
0.18300001 403895.97094393 12262.28225712
0.18400001 397562.53615013 16548.54134901
0.18500001 391291.56116666 16375.55260844
0.18600001 385082.39634110 10801.56172767
0.18700001 378934.28038727 11754.54193295
0.18800001 372848.31026595 15855.37514316
0.18900001 366826.32609791 10454.55078774
0.19000001 360862.54336932 14474.19729843
0.19100001 354966.40990425 11245.33639711
0.19200001 349128.34307960 10107.26600974
0.19300001 343355.78931668 10990.81933537
0.19400001 337644.57642498 13826.54605796
0.19500001 331996.27947409 9760.69107778
0.19600001 326409.25279597 13503.55142630
0.19700001 320885.62727526 12389.39465459
0.19800001 315424.21704746 19772.36798004
0.19900001 310026.28078408 11160.94663569
0.20000001 304688.58258438 11023.63343889
0.20100001 299415.16392184 11793.96386429
0.20200001 294202.21844103 9854.30377243
0.20300001 289052.56054750 13267.51315621
0.20400001 283964.50038079 10478.29055932
0.20500001 278937.90768771 9481.09993045
0.20600001 273973.70845760 13611.01447954
0.20700001 269070.40728800 10073.99652505
0.20800001 264228.64237487 12425.35249503
0.20900001 259450.29033442 8989.95298505
0.21000001 254730.25742727 12093.31954304
0.21100001 250071.58552903 11928.41519363
0.21200001 245473.50386306 10980.03034687
0.21300001 240935.76924296 9280.84627000
0.21400001 236458.82137940 7625.79735001
0.21500001 232042.64865260 9773.63682332
0.21600001 227684.87508918 8893.37164145
0.21700001 223387.00996077 8035.23112819
0.21800001 219148.55741108 7918.93349646
0.21900001 214967.90294680 8512.72935919
0.22000001 210845.52309893 9086.38824758
0.22100001 206783.84470775 8951.67306066
0.22200001 202779.08382286 9496.14494444
0.22300001 198831.74538101 7348.82165677
0.22400001 194940.40291500 9210.93447329
0.22500001 191109.24769292 8422.18494409
0.22600001 187332.56175406 6378.67402936
0.22700001 183613.81641274 8163.47066375
0.22800001 179950.05349196 7417.54155571
0.22900001 176341.75908070 7300.54917119
0.23000001 172788.94239300 7783.27827818
0.23100001 169292.61659017 7658.79833674
0.23200001 165848.82685228 6376.05844988
0.23300001 162460.38790953 7413.06785091
0.23400001 159125.95922325 7291.94742628
0.23500001 155843.36070441 6068.54075285
0.23600001 152615.06797809 5968.01251555
0.23700001 149439.02743183 5868.47088481
0.23800001 146314.96034252 5245.39157638
0.23900001 143243.02727752 5672.42414849
0.24000001 140222.06189363 6589.73611039
0.24100001 137253.40102218 6975.21816988
0.24200001 134334.51496543 6855.09062295
0.24300001 131465.71910905 4811.64554700
0.24400001 128646.06100680 5673.29155877
0.24500001 125876.08591103 5109.31056882
0.24600001 123154.94194161 8213.20346661
0.24700001 120482.83286390 4930.15775402
0.24800001 117857.56368872 6162.77229682
0.24900001 115279.75639396 5619.88839007
0.25000001 112749.35824716 5518.51760048
0.25100001 110265.07134507 4168.01989403
0.25200001 107827.97359818 4910.48614997
0.25300001 105436.59846939 5222.27496926
0.25400001 103089.33554226 4337.48399815
0.25500001 100787.13815147 6192.36206100
0.25600001 98529.43952041  6077.29611715
0.25700001 96315.42653583  4100.14790162
0.25800001 94144.62580250  4754.77455112
0.25900001 92017.06663278  7895.06469065
0.26000001 89932.66187118  3872.95026673
0.26100001 87887.76693172  4144.78728462
0.26200001 85886.67047486  4743.52103477
0.26300001 83925.39517441  4652.82412863
0.26400001 82004.66284905  5215.49680399
0.26500001 80124.70044619  3516.67326899
0.26600001 78283.44913097  3135.25228605
0.26700001 76482.41732339  3996.97131846
0.26800001 74719.86543743  3014.94671307
0.26900001 72994.97338009  3547.55587415
0.27000001 71308.43580263  3188.55685780
0.27100001 69658.87419990  3694.70686241
0.27200001 68046.59420638  3343.80979754
0.27300001 66469.94558353  3005.10638205
0.27400001 64928.33027340  2946.12312558
0.27500001 63424.31490805  2888.34343760
0.27600001 61952.99646140  2574.14712480
0.27700001 60518.11730559  3533.04785551
0.27800001 59116.08403682  2721.40905743
0.27900001 57748.32318218  2667.97265729
0.28000001 56413.14386973  3091.15836464
0.28100001 55110.60737066  2797.41456253
0.28200001 53840.59545799  2742.64006244
0.28300001 52602.53540708  2240.86811440
0.28400001 51395.75020998  2416.88526802
0.28500001 50219.93067214  3016.20917893
0.28600001 49073.86871943  2323.89316320
0.28700001 47958.37044397  2071.80170124
0.28800001 46871.56523269  2031.88244901
0.28900001 45815.32456881  2391.56005569
0.29000001 44786.42435247  2345.91301862
0.29100001 43787.44277836  2109.67909292
0.29200001 42814.93670157  2446.23152424
0.29300001 41870.13826445  2585.06245881
0.29400001 40952.10015438  2174.55662113
0.29500001 40061.96204566  1956.62631893
0.29600001 39196.34710515  2095.43681543
0.29700001 38356.49410879  2400.34951496
0.29800001 37542.54584240  2694.05321718
0.29900001 36753.36685059  1653.90158657
0.30000001 35988.46925832  1787.36741033
0.30100001 35248.34473838  1596.75009224
0.30200001 34530.92409437  2511.08891902
0.30300001 33837.27583813  2005.87380664
0.30400001 33166.97084306  1820.86678549
0.30500001 32518.21135407  1791.10316618
0.30600001 31891.79148867  1762.34048110
0.30700001 31287.41668677  1590.02659130
0.30800001 30704.08417205  2703.95530063
0.30900001 30141.71611596  1962.22581205
0.31000001 29600.86024409  1657.05623492
0.31100001 29078.26104353  1633.03521752
0.31200001 28576.82552576  1341.68202196
0.31300001 28093.95309457  1852.51535477
0.31400001 27631.83917166  1566.72535521
0.31500001 27187.69279670  1675.30570945
0.31600002 26761.51628639  1527.01219160
0.31700002 26353.10161873  1508.45160808
0.31800002 25962.87081999  1739.25279858
0.31900002 25590.16600996  1473.99363197
0.32000002 25234.04408174  1701.02699209
0.32100002 24895.12707478  1442.92163358
0.32200002 24572.64653592  1428.65373725
0.32300002 24265.32467063  1297.22431832
0.32400002 23973.93131896  1869.96673142
0.32500002 23697.57638353  1622.33615604
0.32600002 23436.69421701  1954.26883982
0.32700002 23190.43230836  1483.26012068
0.32800002 22959.02485824  1812.84468865
0.32900002 22740.59842816  1238.22564305
0.33000002 22537.32447006  1454.67167680
0.33100002 22345.32354463  1224.07688174
0.33200002 22168.85870799  1218.06799939
0.33300002 22003.97800133  1212.63928508
0.33400002 21852.45380728  1317.70302698
0.33500002 21712.62072305  1203.74774989
0.33600002 21584.83186430  1745.78128386
0.33700002 21467.87627124  1088.42137850
0.33800002 21363.79237646  1303.61867255
0.33900002 21269.58205900  1301.69848366
0.34000002 21187.01358097  1083.71579599
0.34100002 21114.78493761  1408.14507418
0.34200002 21053.68406781  1083.21209659
0.34300002 21001.29720090  1300.40038427
0.34400002 20959.64705312  1410.06032228
0.34500002 20927.06271099  1303.33752737
0.34600002 20905.06387868  1523.35207699
0.34700002 20889.89510510  1417.58834897
0.34800002 20885.11021873  1093.33557173
0.34900002 20888.47191516  1535.30275848
0.35000002 20900.23876015  1320.47714741
0.35100002 20920.14088193  1215.04183997
0.35200002 20947.31736213  1220.07655754
0.35300002 20982.24928471  1225.57323877
0.35400002 21025.10055094  1343.50398884
0.35500002 21074.88929961  1125.39914190
0.35600002 21130.99017726  1471.03395086
0.35700002 21194.02309252  1479.55482217
0.35800002 21264.15456164  1832.11964381
0.35900002 21340.02031993  1382.83338223
0.36000002 21422.91253379  1160.05076865
0.36100002 21510.62420669  1401.63233970
0.36200002 21605.24959752  1294.04648594
0.36300002 21703.52550478  1777.51882304
0.36400002 21807.99234039  1193.98763719
0.36500002 21917.03931516  1804.86827310
0.36600002 22031.58613544  1212.83887421
0.36700002 22150.32545288  1589.50742979
0.36800002 22275.07750387  1356.21815807
0.36900002 22403.22036109  1367.71666783
0.37000002 22534.49378329  1254.04463844
0.37100002 22670.20975345  1391.49754058
0.37200002 22810.27153312  2552.46950547
0.37300002 22953.35487800  1287.68326965
0.37400002 23100.86374783  1429.36601211
0.37500002 23250.69970851  1442.47347825
0.37600002 23404.63530722  1720.59184612
0.37700002 23560.20007050  2137.38145165
0.37800002 23719.81306897  2022.70715528
0.37900002 23881.68466840  2178.00974494
0.38000002 24046.17975011  1786.51100917
0.38100002 24212.67792581  1526.12516196
0.38200002 24381.44053306  2381.21350247
0.38300002 24552.22895194  1555.62930009
0.38400002 24725.62819037  1856.27662433
0.38500002 24899.50833865  1730.01792133
0.38600002 25076.44422488  2037.96271870
0.38700002 25253.88957630  1616.75408727
0.38800002 25432.71624947  1929.19878250
0.38900002 25612.75851989  1648.18108884
0.39000002 25794.83817997  1664.15406402
0.39100002 25976.90510239  2291.16313858
0.39200002 26160.38723087  2004.80137042
0.39300002 26344.35516882  2024.03690351
0.39400002 26529.78627086  1729.07890212
0.39500002 26714.91313439  1745.55250690
0.39600002 26900.38888610  1922.30188088
0.39700002 27085.85945160  2263.83624022
0.39800002 27272.59491717  2448.39732469
0.39900002 27458.63022308  1977.02146973
0.40000002 27644.65857557  1829.10892131
0.40100002 27830.14260728  2013.78921447
0.40200002 28016.92983306  1862.98583752
0.40300002 28202.23142362  1879.96083577
0.40400002 28386.96199792  2241.86043001
0.40500002 28571.42031076  1913.99953730
0.40600002 28755.57781690  2106.63373068
0.40700002 28938.72184579  2125.25983305
0.40800002 29121.66057042  1965.27535671
0.40900002 29302.69614256  2162.53907779
0.41000002 29483.76602472  2544.74396617
0.41100002 29663.43412862  2566.48044241
0.41200002 29841.38968590  2033.54159650
0.41300002 30018.74027344  2423.41301710
0.41400002 30194.58857449  2067.57455061
0.41500002 30369.66486569  2653.09404838
0.41600002 30542.11083325  3247.69550934
0.41700002 30714.00570138  2118.34507360
0.41800002 30885.04651398  2329.35031846
0.41900002 31052.58448227  1956.31291508
0.42000002 31219.21687460  2562.94173076
0.42100002 31384.76608493  2383.98694478
0.42200002 31548.25491297  2001.73686908
0.42300002 31709.45196236  2823.40973652
0.42400002 31868.75395944  4063.26632237
0.42500002 32026.43960085  3479.03229870
0.42600002 32180.85881598  2679.53933629
0.42700002 32334.56656989  2491.05512659
0.42800002 32485.53874290  2926.62232403
0.42900002 32634.92158527  2525.94305040
0.43000002 32782.00346183  3390.97059878
0.43100002 32925.37612157  2560.27736854
0.43200002 33067.51491489  2577.28223460
0.43300002 33206.86548109  2377.94374979
0.43400002 33344.22380355  2175.71070628
0.43500002 33478.62943074  2846.35320909
0.43600002 33611.55860652  2643.88532528
0.43700002 33740.88040884  2438.45354270
0.43800002 33867.08602386  2453.16249239
0.43900002 33991.74896994  2243.45553833
0.44000002 34112.98480663  2482.23145709
0.44100002 34232.34698287  3631.36754003
0.44200002 34348.58694262  2738.95645260
0.44300002 34462.44154643  3672.31794522
0.44400002 34573.09459209  2538.52959073
0.44500002 34679.98161406  2552.09996793
0.44600002 34784.98853090  2332.33359153
0.44700002 34887.39409178  2813.31959289
0.44800002 34985.94815355  2827.56446377
0.44900002 35082.79069581  3552.13272629
0.45000002 35176.56481064  2379.69472222
0.45100002 35266.05993882  2869.24677260
0.45200002 35353.58998104  4804.55310612
0.45300002 35437.62157286  2654.63235783
0.45400002 35519.30522340  4121.12758386
0.45500002 35597.79827238  2434.88951723
0.45600002 35672.94307004  3178.99447235
0.45700002 35745.11670794  2455.68963422
0.45800002 35813.75637337  3205.51041612
0.45900002 35879.51257227  3218.39243027
0.46000002 35943.08911440  2734.01120306
0.46100002 36002.30029229  4241.43119846
0.46200002 36059.24592039  3005.17769744
0.46300002 36112.50726295  2513.43062463
0.46400002 36162.44738739  3026.79698978
0.46500002 36210.08405225  2784.19349474
0.46600002 36253.87168805  3301.45898175
0.46700002 36294.56454452  3312.24211732
0.46800002 36332.70838182  2811.60677139
0.46900002 36367.09180979  3076.65611293
0.47000002 36398.02443244  3085.82465764
0.47100002 36426.26661355  3352.67373802
0.47200002 36451.22509690  3103.45745185
0.47300002 36473.46961708  2852.59019396
0.47400002 36491.29784109  3640.00713218
0.47500002 36507.12916244  3127.93097489
0.47600002 36520.11651150  3658.22024435
0.47700002 36528.83997074  2619.11795004
