# SAXS profile: number of points = 501, q_min = 0, q_max = 0.5, delta_q = 0.001
#    q    intensity    error
0.00000000 1664650.74656091 349.57665678
0.00100000 1664582.60178451 549.31227163
0.00200000 1664378.11745099 823.86719423
0.00300000 1664037.45109089 998.42250622
0.00400000 1663560.48700630 1746.73857773
0.00500000 1662947.66684842 1496.65295940
0.00600000 1662198.73397716 2094.37049008
0.00700000 1661314.28983185 2192.93495372
0.00800000 1660293.88067069 2465.53651689
0.00900000 1659138.78381219 2488.70828210
0.01000000 1657848.18054342 2735.44961601
0.01100000 1656423.31643315 3577.87451927
0.01200000 1654863.59374469 4517.77780900
0.01300000 1653170.42118464 4165.98964513
0.01400000 1651343.15164537 5201.73115828
0.01500000 1649383.36185225 5541.92834260
0.01600000 1647290.01860486 5040.70768227
0.01700000 1645065.25576405 5774.17930675
0.01800000 1642708.54786709 5149.89152930
0.01900000 1640220.69457649 6396.86099749
0.02000000 1637602.22134854 6190.13667671
0.02100000 1634854.81404592 7553.02958333
0.02200000 1631976.70186902 5630.31987725
0.02300000 1628970.77913619 6450.72457901
0.02400000 1625836.71686761 7316.26555951
0.02500000 1622576.06875787 7593.65634859
0.02600000 1619188.98958309 7213.48727853
0.02700000 1615676.29394445 8821.59296898
0.02800000 1612038.04806425 8414.83899680
0.02900000 1608276.89819741 8684.69564902
0.03000000 1604392.77330121 7460.42673877
0.03100000 1600386.26617573 7681.85443111
0.03200000 1596258.18287640 9481.77404300
0.03300000 1592011.39039713 12178.88769799
0.03400000 1587643.81977440 11669.18261376
0.03500000 1583158.83681539 12823.58717037
0.03600000 1578556.13826383 12265.38176114
0.03700000 1573837.44124150 9867.96121295
0.03800000 1569004.35586196 9178.67590658
0.03900000 1564057.72719482 13138.08551686
0.04000000 1558996.72403240 16299.31150505
0.04100000 1553825.21084291 9789.09928220
0.04200000 1548543.50196421 11985.72726126
0.04300000 1543151.60414139 12221.76127211
0.04400000 1537653.12387736 17644.57041594
0.04500000 1532047.73161586 12685.35580720
0.04600000 1526335.96874215 11836.73598785
0.04700000 1520520.48943570 12042.52283640
0.04800000 1514602.08963501 12245.55846446
0.04900000 1508583.05274271 12445.81076445
0.05000000 1502462.81379558 12643.22516684
0.05100000 1496245.24631313 12837.78481140
0.05200000 1489928.02348842 15398.40684034
0.05300000 1483516.69785618 13218.13439410
0.05400000 1477009.69554528 14622.39666780
0.05500000 1470411.01291051 16056.88901003
0.05600000 1463718.86180410 15017.75622290
0.05700000 1456938.32338924 15210.43680618
0.05800000 1450068.06148503 16683.03382636
0.05900000 1443110.26400062 16884.39087741
0.06000000 1436067.27430541 15768.01940854
0.06100000 1428940.59880805 17275.89264692
0.06200000 1421730.85924935 22840.10732147
0.06300000 1414441.20461575 17652.22705894
0.06400000 1407069.78458040 19206.50345775
0.06500000 1399622.76930197 16627.51927711
0.06600000 1392097.93749275 18187.76040432
0.06700000 1384498.37248567 16946.26087229
0.06800000 1376826.87581833 14250.15883176
0.06900000 1369084.32912239 21563.07919324
0.07000000 1361270.00484396 14497.52623049
0.07100000 1353388.93812563 16078.26133800
0.07200000 1345439.84499024 16205.82369210
0.07300000 1337427.58901019 23752.71509377
0.07400000 1329351.92705172 16450.73086821
0.07500000 1321214.15064340 18074.21042798
0.07600000 1313015.41902661 15165.32880072
0.07700000 1304760.52666158 24425.11820436
0.07800000 1296448.17126810 18435.49385999
0.07900000 1288079.68458388 17002.65263400
0.08000000 1279660.23456166 17102.65983722
0.08100000 1271188.83160523 18762.74803481
0.08200000 1262666.59800526 20436.25984769
0.08300000 1254096.72296517 17381.78139606
0.08400000 1245479.74885533 19055.84105194
0.08500000 1236819.70488765 23932.46241309
0.08600000 1228115.62006856 19232.29151326
0.08700000 1219370.94272384 17705.26691975
0.08800000 1210584.44453437 19393.56371224
0.08900000 1201762.25798042 17846.17036924
0.09000000 1192903.26034528 22796.38237607
0.09100000 1184009.54188559 19607.19893479
0.09200000 1175082.29923807 19670.87861352
0.09300000 1166125.25394322 23019.31359457
0.09400000 1157136.51483068 18138.11572242
0.09500000 1148120.31000007 18186.22656520
0.09600000 1139077.48373052 23203.00943431
0.09700000 1130011.59772327 16611.17126747
0.09800000 1120922.80116965 19974.84525601
0.09900000 1111813.22219741 18344.91902888
0.10000000 1102682.55458615 18376.20563636
0.10100000 1093533.71267950 20077.27990907
0.10200000 1084368.99453954 16753.50175366
0.10300000 1075188.73676903 16772.94508261
0.10400000 1065996.26797403 16789.44201045
0.10500000 1056793.71437507 20163.62501896
0.10600001 1047577.88742551 21857.71364962
0.10700001 1038355.88018979 16821.36605065
0.10800001 1029125.62713867 21874.06623426
0.10900001 1019890.47141169 18511.01292736
0.11000001 1010651.50938430 18510.08326563
0.11100001 1001410.20654816 26917.90761913
0.11200001 992169.10967325 28589.35424114
0.11300001 982926.77007282 20169.65827150
0.11400001 973688.27744406 18475.73593442
0.11500001 964453.22926462 18459.63567735
0.11600001 955223.21450078 21793.41866512
0.11700001 946000.67315593 21767.47651446
0.11800001 936784.39059535 23410.24302356
0.11900001 927578.35975699 23374.97576688
0.12000001 918382.57071318 16668.64444362
0.12100001 909200.69393764 21629.88552772
0.12200001 900031.05085247 24908.36050581
0.12300001 890877.22620722 21541.41234460
0.12400001 881738.88132344 19839.12576455
0.12500001 872617.97638966 19790.97663708
0.12600001 863517.86426295 19740.01930727
0.12700001 854437.44277240 24607.79951152
0.12800001 845377.63007025 16358.05791280
0.12900001 836340.67832199 21201.23719472
0.13000001 827328.01258760 16256.99621362
0.13100001 818339.53764493 21064.06069189
0.13200001 809378.69029623 17761.81619585
0.13300001 800446.34261073 16088.97224496
0.13400001 791541.28245956 19234.45407059
0.13500001 782667.04061607 19159.69005763
0.13600001 773822.80897606 17492.26542168
0.13700001 765011.97860047 15835.74870374
0.13800001 756232.68354778 20497.68785415
0.13900001 747490.09159333 15697.29266372
0.14000001 738781.50461312 18750.27547135
0.14100001 730109.64166227 18661.60332102
0.14200001 721474.31703876 18570.74979647
0.14300001 712880.13933841 20017.67525681
0.14400001 704321.12782135 15318.98525271
0.14500001 695806.34450675 18285.79159622
0.14600001 687330.26548544 16671.19637580
0.14700001 678899.05913682 16578.71580625
0.14800001 670508.91091029 17983.04983903
0.14900001 662162.40381861 23837.84766216
0.15000001 653861.48189363 19252.95224277
0.15100001 645606.29337517 16191.80660186
0.15200001 637398.25330747 17553.94872441
0.15300001 629237.27499978 17442.45808609
0.15400001 621122.54352130 21661.64972754
0.15500001 613058.75811219 20083.80586357
0.15600001 605042.22967177 14248.74518124
0.15700001 597079.45843607 18396.01898265
0.15800001 589163.34311503 16861.85567581
0.15900001 581301.62179159 16741.48749781
0.16000001 573489.73134093 18004.71096531
0.16100001 565733.95801574 21995.73732594
0.16200001 558029.25558638 15008.19753747
0.16300001 550380.06009497 16247.22014100
0.16400001 542784.97088917 16120.71439646
0.16500001 535245.30905753 14660.36970722
0.16600001 527761.09731418 15864.49933428
0.16700001 520332.49009408 18357.33111726
0.16800001 512959.93831899 15604.24206044
0.16900001 505646.51279516 20630.37869617
0.17000001 498389.73580866 20453.91572341
0.17100001 491191.31056932 13940.01005222
0.17200001 484051.20064331 17585.58094981
0.17300001 476969.62680021 14938.68941685
0.17400001 469948.75830995 13569.77103705
0.17500001 462986.67227962 13445.13359798
0.17600001 456082.73322497 12108.99713902
0.17700001 449241.51357441 15593.17367264
0.17800001 442459.63950109 14256.05025807
0.17900001 435738.46702796 16470.91483164
0.18000001 429079.37514379 13979.40670250
0.18100001 422482.40002938 12687.14707218
0.18200001 415944.01227313 13701.19641149
0.18300001 409470.23592835 12431.51695004
0.18400001 403057.06076179 11184.83396452
0.18500001 396707.00796773 16602.18906777
0.18600001 390419.02920165 13141.50514378
0.18700001 384192.83485687 13001.08614579
0.18800001 378028.91905100 10717.12036144
0.18900001 371929.74504436 14839.99752842
0.19000001 365889.33277160 12579.27585504
0.19100001 359916.96168450 18658.09617532
0.19200001 354003.47951004 14347.76170249
0.19300001 348155.77544521 12157.60025303
0.19400001 342369.96009374 11015.75398655
0.19500001 336647.65937375 13856.41831461
0.19600001 330987.28359373 13692.94456935
0.19700001 325390.62178724 9664.10192378
0.19800001 319856.88294209 10502.50124774
0.19900001 314387.24514568 10374.77958012
0.20000001 308978.25818246 11178.83390937
0.20100001 303634.21778906 11960.15240398
0.20200001 298351.21299073 9993.27435144
0.20300001 293132.09414340 9866.82675522
0.20400001 287975.21191160 10626.28582180
0.20500001 282880.42514132 11363.30721503
0.20600001 277848.40943249 8627.19352067
0.20700001 272878.20609837 10216.56051925
0.20800001 267969.70545812 10081.02079587
0.20900001 263125.47508030 9946.14342820
0.21000001 258340.27828800 10629.41125264
0.21100001 253616.96903219 8871.52199613
0.21200001 248954.86873206 8749.51927522
0.21300001 244353.61375733 9412.50164691
0.21400001 239814.00488574 9280.80242784
0.21500001 235335.67448588 11437.31432074
0.21600001 230916.20317083 9019.58732229
0.21700001 226557.47436178 8890.11571428
0.21800001 222258.70145522 7301.19868801
0.21900001 218018.28955239 7914.06428494
0.22000001 213836.93246581 10633.04196962
0.22100001 209716.91910415 10475.36060456
0.22200001 205654.35872736 9630.79407459
0.22300001 201650.06975627 10840.70826270
0.22400001 197702.16637131 6672.44843055
0.22500001 193815.13936940 9198.46694944
0.22600001 189983.46815831 7762.72487603
0.22700001 186210.10416502 7005.22444996
0.22800001 182492.48583049 6895.47890319
0.22900001 178830.95004980 6786.63487534
0.23000001 175225.59240733 9107.35059607
0.23100001 171677.26540000 8364.11676585
0.23200001 168182.22551963 5877.96905990
0.23300001 164743.12567948 8095.47757876
0.23400001 161358.76694568 6825.47616462
0.23500001 158026.89970283 8950.64402250
0.23600001 154749.83694366 5501.35696355
0.23700001 151525.72902212 7573.25629472
0.23800001 148354.45451209 6382.20893498
0.23900001 145235.70046732 7319.87964978
0.24000001 142168.73381327 6167.27996453
0.24100001 139154.61234491 5556.44393376
0.24200001 136190.96277635 6453.40907642
0.24300001 133277.96409324 10243.74480476
0.24400001 130414.88853580 5751.29685649
0.24500001 127602.08192472 9417.03409151
0.24600001 124838.59263467 6012.85109869
0.24700001 122125.13721868 5451.66638334
0.24800001 119458.94885361 5800.32953598
0.24900001 116840.82395649 6134.14354791
0.25000001 114270.80052863 4302.29584344
0.25100001 111747.56663093 5068.86986218
0.25200001 109272.08393191 4976.25093768
0.25300001 106842.97132496 4477.78914008
0.25400001 104458.65443899 4395.09809346
0.25500001 102119.88395682 6274.24596715
0.25600001 99826.45964534  4617.97224168
0.25700001 97577.26227537  4153.86425160
0.25800001 95371.80727894  4816.75335452
0.25900001 93210.24708463  4362.23976996
0.26000001 91092.50313387  4279.52599972
0.26100001 89014.82463537  4547.76760580
0.26200001 86981.64055708  4117.71105881
0.26300001 84988.91698829  4711.78578078
0.26400001 83037.19453709  3960.87436684
0.26500001 81126.89890807  3560.65976156
0.26600001 79255.98860391  3491.62274317
0.26700001 77425.79051907  3735.02031138
0.26800001 75634.70225672  4272.60453267
0.26900001 73881.89842645  3590.66043344
0.27000001 72167.98831903  5280.53195519
0.27100001 70491.71943537  4314.09343360
0.27200001 68853.19385625  3383.44610621
0.27300001 67250.94311298  2764.01389275
0.27400001 65684.19670769  3793.26253938
0.27500001 64155.78001821  2921.65436030
0.27600001 62660.61603872  2863.90359159
0.27700001 61202.27259614  3572.98884326
0.27800001 59777.48556095  3002.02546695
0.27900001 58387.33582597  3187.94868698
0.28000001 57030.51322173  2884.60349528
0.28100001 55706.73572150  2356.39503255
0.28200001 54416.05898153  2771.95417571
0.28300001 53157.95497728  2490.98188813
0.28400001 51931.52366942  2442.08001614
0.28500001 50736.65458290  2611.92310155
0.28600001 49572.03456047  2134.07618884
0.28700001 48438.55904471  2301.80043475
0.28800001 47334.25455083  2257.13403509
0.28900001 46261.05938408  2817.29864984
0.29000001 45215.56437945  2565.75732216
0.29100001 44200.55410399  2129.58279753
0.29200001 43212.50137865  2658.86533569
0.29300001 42252.70318450  2608.68201810
0.29400001 41320.05525225  2194.09503776
0.29500001 40415.78744549  2332.79936178
0.29600001 39536.58302220  2818.16777123
0.29700001 38683.50768152  1902.06816274
0.29800001 37856.93456998  2546.82539376
0.29900001 37055.46469001  2334.49438598
0.30000001 36278.73609063  1801.78351324
0.30100001 35527.30208097  1770.32554650
0.30200001 34798.94890498  2056.09599339
0.30300001 34094.80346062  2021.14004483
0.30400001 33414.47024740  1987.32571205
0.30500001 32755.99546959  1653.85028956
0.30600001 32120.29518036  1479.13966308
0.30700001 31507.05999318  2183.43936090
0.30800001 30915.37203320  2006.09858621
0.30900001 30344.96920789  1834.35347546
0.31000001 29796.43752941  1807.00503952
0.31100001 29266.63581727  1917.55006953
0.31200001 28758.23913318  1620.23926947
0.31300001 28268.95447549  1864.05494637
0.31400001 27800.72311653  1313.58422945
0.31500001 27350.72927519  1944.63694354
0.31600002 26919.21535259  1536.01050075
0.31700002 26505.76424305  1517.19001711
0.31800002 26110.80861957  1374.34247676
0.31900002 25733.74674022  1605.78587262
0.32000002 25373.64601004  1588.26344720
0.32100002 25031.01028360  1329.89763934
0.32200002 24705.15920163  1795.44752999
0.32300002 24394.71146339  1185.58303326
0.32400002 24100.60646398  1762.35693113
0.32500002 23821.76344488  1164.88428761
0.32600002 23558.70821854  2195.55391639
0.32700002 23310.60447472  1146.88179446
0.32800002 23077.65327654  1138.88224313
0.32900002 22857.96955678  1357.76345597
0.33000002 22653.73105601  1237.23358021
0.33100002 22460.90422280  1118.55308326
0.33200002 22283.99187585  1669.62817036
0.33300002 22118.88951364  1440.60334224
0.33400002 21967.40888011  1103.86234850
0.33500002 21827.89678621  1650.18907518
0.33600002 21700.57206696  1645.44595490
0.33700002 21584.39187409  1422.62733579
0.33800002 21481.27825568  1420.01996634
0.33900002 21388.32290225  1199.88497164
0.34000002 21307.17277677  1416.82052089
0.34100002 21236.55588546  1525.20951593
0.34200002 21177.38289190  1198.53404153
0.34300002 21127.00968010  1635.23062668
0.34400002 21087.71252152  1964.32051441
0.34500002 21057.50238852  1311.46131087
0.34600002 21038.12750195  1095.03458834
0.34700002 21025.75871523  1426.80805399
0.34800002 21024.04046008  1430.79114128
0.34900002 21030.49209733  1324.92106488
0.35000002 21045.59823133  1218.85587929
0.35100002 21069.00077582  1557.42061111
0.35200002 21099.72707065  1228.95366144
0.35300002 21138.47257528  2020.41530444
0.35400002 21185.24173965  1353.73701128
0.35500002 21239.01655181  1360.99624510
0.35600002 21299.37582142  1596.81428096
0.35700002 21366.66684547  1262.12907034
0.35800002 21441.31881494  1270.07658016
0.35900002 21521.70130569  1743.25788833
0.36000002 21609.20204330  1521.17984989
0.36100002 21701.71518573  1414.08382848
0.36200002 21801.20207295  1543.19816183
0.36300002 21904.43329377  1315.58032594
0.36400002 22013.97825570  1446.31843991
0.36500002 22128.19211896  1336.32158536
0.36600002 22247.91611161  1592.17219195
0.36700002 22371.96312689  1358.42566541
0.36800002 22502.11399399  1245.49206856
0.36900002 22635.59843033  1507.53092687
0.37000002 22772.43612354  1520.74335637
0.37100002 22913.69810315  1278.58441472
0.37200002 23059.39610423  2064.27723704
0.37300002 23208.08740708  1432.17114173
0.37400002 23361.31700378  1839.70380120
0.37500002 23516.88214872  1591.62265922
0.37600002 23676.57741967  1472.80156816
0.37700002 23837.95015040  1486.77302131
0.37800002 24003.35134733  1773.96776536
0.37900002 24171.11458927  2066.63039528
0.38000002 24341.48925095  1530.22779425
0.38100002 24513.83211577  1545.10691145
0.38200002 24688.54147039  1560.19245213
0.38300002 24865.20555850  1575.45949882
0.38400002 25044.47758981  1590.95051426
0.38500002 25224.37301267  1898.63864661
0.38600002 25407.14919268  1769.86209661
0.38700002 25590.51608641  1638.30491747
0.38800002 25775.16639140  1955.17533925
0.38900002 25961.09105114  2126.21345782
0.39000002 26149.00764218  1687.00330796
0.39100002 26336.85546960  1858.32860998
0.39200002 26526.24154784  2501.95522133
0.39300002 26715.88728584  2210.47261876
0.39400002 26907.04504285  2072.51524262
0.39500002 27097.81415160  1770.57126055
0.39600002 27288.98921811  1625.05938493
0.39700002 27480.01551881  2132.72410546
0.39800002 27672.39005475  2318.66967254
0.39900002 27863.95639179  1839.02120899
0.40000002 28055.29908307  1856.27895178
0.40100002 28246.31563468  2043.90349616
0.40200002 28438.41117892  1891.01224094
0.40300002 28628.97739951  3990.30705900
0.40400002 28818.98895995  1925.82902849
0.40500002 29008.58822384  2473.27234915
0.40600002 29197.81704698  2317.28485973
0.40700002 29385.96563406  2158.10541842
0.40800002 29573.80275018  1995.78817316
0.40900002 29759.71017420  2562.31116741
0.41000002 29945.59284104  2030.76047474
0.41100002 30129.92528573  2606.84125924
0.41200002 30312.45131039  2065.64209242
0.41300002 30494.39448207  1893.70198707
0.41400002 30674.64571046  2482.34582174
0.41500002 30854.08369451  2502.88338789
0.41600002 31030.83473374  2911.46820685
0.41700002 31206.82971420  2348.00197895
0.41800002 31381.98588125  2169.59369670
0.41900002 31553.45029554  2981.80119422
0.42000002 31723.99934813  2404.04478452
0.42100002 31893.32843925  2422.61734304
0.42200002 32060.49139022  2644.50975763
0.42300002 32225.24907046  2664.38371940
0.42400002 32388.02767804  2477.68423478
0.42500002 32549.03755904  2911.83703801
0.42600002 32706.66429458  2094.86194734
0.42700002 32863.48506514  2953.77017762
0.42800002 33017.55695027  2549.61586852
0.42900002 33169.78359185  2781.28648597
0.43000002 33319.65965072  2369.52770835
0.43100002 33465.74694004  2819.15465582
0.43200002 33610.38144006  2182.99437798
0.43300002 33752.21747967  2197.26946205
0.43400002 33891.93572318  3096.02847503
0.43500002 34028.46289794  2225.46157899
0.43600002 34163.49216932  2239.41701782
0.43700002 34294.84003192  2253.17109687
0.43800002 34422.83318521  2946.76677446
0.43900002 34549.27236933  2508.27729288
0.44000002 34672.11064834  2981.62829650
0.44100002 34792.91118368  2768.12414496
0.44200002 34910.49836419  2551.78299886
0.44300002 35025.52497019  2799.24008828
0.44400002 35137.31200532  2579.95725626
0.44500002 35245.17170575  2593.69230874
0.44600002 35351.08517720  3555.43556019
0.44700002 35454.23103011  3573.78665720
0.44800002 35553.28944033  3352.31982020
0.44900002 35650.65245218  3128.34490094
0.45000002 35744.81811002  2901.76447169
0.45100002 35834.50782818  2672.53772048
0.45200002 35922.16422181  3173.18452692
0.45300002 36006.08672519  2942.41754663
0.45400002 36087.65931643  2709.28115158
0.45500002 36165.88720970  2721.12148262
0.45600002 36240.69494948  2732.72973218
0.45700002 36312.26195122  2744.11776571
0.45800002 36380.25553618  2755.25878362
0.45900002 36445.26741308  4023.55771310
0.46000002 36507.87646668  3281.87571051
0.46100002 36566.03554444  3294.23429833
0.46200002 36621.87776195  3052.06743733
0.46300002 36673.87951504  3063.00256227
0.46400002 36722.42541254  2561.38929392
0.46500002 36768.61618451  4626.22750760
0.46600002 36810.71017227  2836.44940676
0.46700002 36849.65486685  3104.21507311
0.46800002 36885.94259161  3632.89665803
0.46900002 36918.36116781  3123.29350283
0.47000002 36947.11830955  3132.37683875
0.47100002 36973.09777217  4450.08225878
0.47200002 36995.70428242  3937.26801487
0.47300002 37015.60773564  3158.17180169
0.47400002 37030.79580964  2902.28875914
0.47500002 37043.98263524  2909.43453407
0.47600002 37054.22235482  3446.59865570
0.47700002 37059.97568202  3454.36049705
