# SAXS profile: number of points = 501, q_min = 0, q_max = 0.5, delta_q = 0.001
#    q    intensity    error
0.00000000 1646666.22097352 246.99993315
0.00100000 1646598.66085719 691.57145398
0.00200000 1646395.92754054 1037.22946719
0.00300000 1646058.18251398 1086.39843916
0.00400000 1645585.31186871 1234.18903080
0.00500000 1644977.73878877 2220.72003526
0.00600000 1644235.23580165 2244.38118824
0.00700000 1643358.38802657 2366.43617711
0.00800000 1642346.71815886 3325.75224468
0.00900000 1641201.52741493 3200.34311527
0.01000000 1639922.00222513 3517.63284666
0.01100000 1638509.36586919 3244.24868567
0.01200000 1636963.03668992 4149.70147995
0.01300000 1635284.40285490 4807.73635644
0.01400000 1633472.82351830 4042.84541743
0.01500000 1631529.84669549 5090.37334836
0.01600000 1629454.50651165 4155.10917735
0.01700000 1627248.84464726 5272.28649317
0.01800000 1624912.43179527 5557.20076680
0.01900000 1622445.99466064 5354.07202397
0.02000000 1619850.06780944 7143.53912218
0.02100000 1617126.27979719 8538.42714445
0.02200000 1614272.92877251 7796.93860020
0.02300000 1611292.93082187 7540.85125949
0.02400000 1608185.89596997 6030.69738487
0.02500000 1604953.34189072 6885.25015116
0.02600000 1601595.48331793 9729.69300618
0.02700000 1598113.12921135 9396.90563015
0.02800000 1594506.28076598 11097.76422307
0.02900000 1590777.57076592 8590.19927655
0.03000000 1586927.10459784 9592.97478824
0.03100000 1582955.22581346 9117.82252023
0.03200000 1578862.90010039 9378.44605855
0.03300000 1574652.89026593 8833.80312163
0.03400000 1570323.14979929 8244.19691684
0.03500000 1565877.07157428 16065.89949624
0.03600000 1561314.38777172 9531.82477785
0.03700000 1556636.61282271 9760.11201378
0.03800000 1551845.60102278 9078.29718612
0.03900000 1546941.94279986 9281.65208663
0.04000000 1541924.95898144 11379.40672459
0.04100000 1536798.50778710 11618.19725757
0.04200000 1531562.82512357 10866.43874838
0.04300000 1526217.95358111 12087.64675345
0.04400000 1520767.50636425 15397.77171704
0.04500000 1515211.15235396 11500.45318073
0.04600000 1509549.28007610 12770.78750312
0.04700000 1503784.78468094 15158.15133456
0.04800000 1497918.26434524 12110.66973072
0.04900000 1491951.98744856 19022.38872541
0.05000000 1485885.54551580 11367.02495251
0.05100000 1479722.51320905 15004.38698290
0.05200000 1473460.84998477 12885.41573359
0.05300000 1467106.11202101 13071.91606749
0.05400000 1460656.38581602 18075.62361741
0.05500000 1454115.94414790 13436.03195071
0.05600000 1447482.89217255 16088.77309727
0.05700000 1440762.32281750 17548.48591105
0.05800000 1433952.83524467 20304.77309514
0.05900000 1427056.71012623 17980.91538740
0.06000000 1420076.26853150 14293.06831052
0.06100000 1413012.96034768 14455.12325986
0.06200000 1405867.29230629 15942.53583996
0.06300000 1398642.60956623 13426.96967962
0.06400000 1391336.86728905 13565.53509048
0.06500000 1383956.35787122 16441.40230060
0.06600000 1376498.84694220 15217.19546494
0.06700000 1368967.20028971 18152.50592536
0.06800000 1361364.40891849 16908.14675022
0.06900000 1353691.29836665 28427.51859665
0.07000000 1345947.13698501 15767.77144816
0.07100000 1338137.11762361 17342.25785667
0.07200000 1330259.46832042 18936.24441864
0.07300000 1322319.56813474 22016.62184105
0.07400000 1314316.81026144 20700.49073173
0.07500000 1306252.75782913 22336.92320587
0.07600000 1298128.16498748 16492.71910935
0.07700000 1289948.28589282 22638.59347891
0.07800000 1281711.51446128 18225.93859037
0.07900000 1273419.19142322 18337.23721658
0.08000000 1265076.45391258 16907.74759970
0.08100000 1256682.27166804 24731.50826679
0.08200000 1248237.91579161 24864.90044936
0.08300000 1239746.39671099 15620.80533167
0.08400000 1231208.62292746 18837.49281500
0.08500000 1222627.99282591 23657.85277180
0.08600000 1214003.97901193 23764.12900492
0.08700000 1205339.91842762 19092.58520444
0.08800000 1196634.64976104 22365.10265438
0.08900000 1187894.00188121 22451.19769008
0.09000000 1179116.92420478 17704.44144861
0.09100000 1170305.85617023 16150.22157391
0.09200000 1161461.64587648 17822.62979340
0.09300000 1152587.89152964 19501.78804111
0.09400000 1143683.00866099 16297.48363936
0.09500000 1134750.96687753 17974.45616019
0.09600000 1125792.86747726 19656.34439015
0.09700000 1116812.00100241 18058.85090521
0.09800000 1107808.54056228 16450.95760084
0.09900000 1098784.85071874 18129.95088937
0.10000000 1089740.17525632 18160.52087468
0.10100000 1080677.76953490 19841.24478183
0.10200000 1071599.75267207 18211.83865328
0.10300000 1062506.59394942 19890.12437438
0.10400000 1053401.42722764 21568.39523717
0.10500000 1044286.56120903 19924.98852533
0.10600001 1035158.48659066 21598.58283900
0.10700001 1026024.91903999 23270.24625887
0.10800001 1016882.93240123 19951.24407265
0.10900001 1007736.52690061 21615.94951939
0.11000001 998586.19817371 26602.33757151
0.11100001 989433.91425468 16622.49054196
0.11200001 980282.14052443 24923.67459617
0.11300001 971129.46171283 19927.57749255
0.11400001 961980.47669886 18253.58040482
0.11500001 952835.29065776 16579.33483813
0.11600001 943695.20376475 21530.40708779
0.11700001 934562.66925506 23158.46403479
0.11800001 925436.50419617 19822.85085350
0.11900001 916320.76072410 21441.90681089
0.12000001 907215.37211632 16465.95977954
0.12100001 898123.91591753 21366.36896621
0.12200001 889044.67296469 26244.59998233
0.12300001 879981.32046273 24551.47999764
0.12400001 870933.49553349 17963.00419175
0.12500001 861903.35860865 24434.96136794
0.12600001 852893.73384679 19497.15167451
0.12700001 843904.22882231 19443.55434837
0.12800001 834934.77914461 22618.38423301
0.12900001 825988.83816081 17717.46141361
0.13000001 817066.60360544 16055.35951761
0.13100001 808168.84639968 20802.26708690
0.13200001 799298.49802592 23919.00868098
0.13300001 790456.78941565 17477.00043790
0.13400001 781642.04950196 15828.25224865
0.13500001 772858.27367239 22072.83333678
0.13600001 764104.32108319 18842.81344636
0.13700001 755383.41592463 20327.36868103
0.13800001 746694.26073259 20239.14889155
0.13900001 738041.58040812 29447.86044699
0.14000001 729422.89246357 16970.02439348
0.14100001 720840.53941411 19960.07547775
0.14200001 712294.85940900 18334.47054594
0.14300001 703789.63909808 16722.04261371
0.14400001 695320.00285920 19660.17400821
0.14500001 686894.06975348 19555.87508837
0.14600001 678506.65080341 19449.39406279
0.14700001 670164.29823010 16365.41293484
0.14800001 661862.29340140 19230.40984204
0.14900001 653604.05606155 16176.70115075
0.15000001 645390.83933919 17541.72384091
0.15100001 637223.43302213 18887.30344597
0.15200001 629102.64234397 18769.27822000
0.15300001 621028.85771018 14345.76729007
0.15400001 613001.13147494 19953.18777112
0.15500001 605023.96209761 14157.56138122
0.15600001 597093.44247610 15467.70635734
0.15700001 589216.94250677 13964.44219649
0.15800001 581386.40674635 15252.67310090
0.15900001 573610.06752861 16519.97072458
0.16000001 565883.15691502 17765.90254994
0.16100001 558212.08584082 13564.55432624
0.16200001 550591.83643139 14808.16813986
0.16300001 543026.74581405 13358.45857765
0.16400001 535515.29252483 15904.80493885
0.16500001 528058.82142470 14463.53180166
0.16600001 520657.66867707 16955.21778098
0.16700001 513311.55610119 15522.54218939
0.16800001 506021.12277868 19241.45410217
0.16900001 498789.60149904 19078.70315820
0.17000001 491614.22153777 15131.88645346
0.17100001 484496.72493417 13750.01770293
0.17200001 477437.41837249 12389.50159183
0.17300001 470436.06839353 13506.22016140
0.17400001 463494.75569861 14600.08549401
0.17500001 456612.08771908 14465.47162211
0.17600001 449786.85528284 23883.68314352
0.17700001 443024.15298780 13011.61998780
0.17800001 436320.32998075 15229.76183731
0.17900001 429676.71591537 12761.39906545
0.18000001 423094.59596492 13784.42258764
0.18100001 416574.26714466 13646.97363629
0.18200001 410112.19589354 12383.33833997
0.18300001 403714.22593288 12256.76447832
0.18400001 397376.04109380 13232.62279354
0.18500001 391100.58898649 16367.56042232
0.18600001 384886.81563996 11875.68325762
0.18700001 378734.53245805 10680.31431991
0.18800001 372643.97441672 13733.79432600
0.18900001 366617.64518023 14628.04473383
0.19000001 360649.39364095 13432.38730082
0.19100001 354748.75351084 13281.79395901
0.19200001 348906.46176600 12121.01105448
0.19300001 343129.45131812 10983.57425570
0.19400001 337413.85623688 11843.22691355
0.19500001 331761.25817073 12679.91588648
0.19600001 326169.94886778 17348.98040013
0.19700001 320641.96707456 13332.29362101
0.19800001 315176.41563675 14112.02467705
0.19900001 309774.18954237 11151.87135056
0.20000001 304432.32886966 12850.08920890
0.20100001 299154.64851493 9064.38627841
0.20200001 293937.70727953 10740.48433163
0.20300001 288783.89511162 11487.82389051
0.20400001 283691.96450705 13085.29248137
0.20500001 278661.21192813 10332.75822669
0.20600001 273693.08512725 9347.98776438
0.20700001 268785.86309405 10901.95512242
0.20800001 263940.17909829 14894.14501057
0.20900001 259158.14011034 8163.48179937
0.21000001 254434.31016085 10468.70018645
0.21100001 249771.95400640 8737.02336417
0.21200001 245170.14125125 9399.82365994
0.21300001 240628.92260048 10041.44541483
0.21400001 236148.34888488 11423.67691738
0.21500001 231728.80644384 9760.41778886
0.21600001 227367.52527610 8880.97595716
0.21700001 223066.46036222 7294.27359871
0.21800001 218824.60851867 8626.06647565
0.21900001 214640.70032029 7791.45779002
0.22000001 210515.31567168 9770.01626227
0.22100001 206450.43976297 7562.27996609
0.22200001 202442.78377456 8803.22486869
0.22300001 198492.71984411 10670.96912340
0.22400001 194598.39264389 9194.77448721
0.22500001 190764.55286605 7760.30237755
0.22600001 186985.13388253 7640.21293173
0.22700001 183263.74287246 7521.14436315
0.22800001 179597.52986581 6786.09298689
0.22900001 175986.80690013 7285.85415022
0.23000001 172431.67959264 6572.23377849
0.23100001 168933.06687271 7642.53230676
0.23200001 165487.14718988 8097.28649495
0.23300001 162096.65406278 7965.42995737
0.23400001 158760.23266077 6715.55815917
0.23500001 155475.81517022 8255.76617601
0.23600001 152245.67470370 7036.03418922
0.23700001 149068.03437418 6386.07489464
0.23800001 145942.38128061 7324.84846293
0.23900001 142868.99241265 6171.94076416
0.24000001 139846.63299046 7077.63843042
0.24100001 136876.71534080 5465.48750208
0.24200001 133956.58752806 5370.98963100
0.24300001 131086.81217734 5757.33306317
0.24400001 128266.14266416 6127.91525565
0.24500001 125495.38743970 6020.01402026
0.24600001 122773.42291226 8187.75996134
0.24700001 120100.76084936 5808.07306943
0.24800001 117474.87187736 5703.99267384
0.24900001 114896.62038837 6032.07285575
0.25000001 112366.05576873 5076.69863980
0.25100001 109881.51885616 6230.28241389
0.25200001 107444.36461830 6116.27074526
0.25300001 105052.95029871 5203.27287446
0.25400001 102705.93936817 4714.20284003
0.25500001 100403.88921612 4241.06048114
0.25600001 98146.69767986  5675.33306185
0.25700001 95933.14572467  4455.13549824
0.25800001 93762.89106340  4006.95733918
0.25900001 91636.14891425  3931.19097442
0.26000001 89552.51482640  4908.37356988
0.26100001 87508.57094972  4126.90440126
0.26200001 85508.65642149  3373.31665544
0.26300001 83548.53886132  4631.93121364
0.26400001 81629.10661625  3893.70856984
0.26500001 79750.65070537  3500.25622509
0.26600001 77910.86926819  4368.46264658
0.26700001 76111.57800298  3977.59125466
0.26800001 74350.81858130  3600.06680607
0.26900001 72627.82276138  3235.56965713
0.27000001 70943.32841283  3749.00036739
0.27100001 69295.97187815  3392.73094371
0.27200001 67685.87318760  5266.29961258
0.27300001 66111.67773156  2988.90909169
0.27400001 64572.59712939  2663.61975764
0.27500001 63071.14315489  3916.71817528
0.27600001 61602.56413594  3839.37999147
0.27700001 60170.57376604  2509.11304479
0.27800001 58771.52056209  2705.54707712
0.27900001 57406.90643809  2893.30822141
0.28000001 56074.92869403  3072.62586321
0.28100001 54775.74386362  3475.52111264
0.28200001 53509.21664572  2952.90626035
0.28300001 52274.58738661  2672.27703368
0.28400001 51071.50360000  2401.63757046
0.28500001 49899.48994624  3425.10115202
0.28600001 48757.33958794  2099.00356861
0.28700001 47645.87243752  2058.30178673
0.28800001 46563.19656625  2422.21760003
0.28900001 45511.22800576  2573.66006555
0.29000001 44486.70602665  2330.21377197
0.29100001 43492.06994712  2857.42913078
0.29200001 42524.18019424  2803.40671201
0.29300001 41584.00623774  2017.24023808
0.29400001 40670.76822412  1799.68157911
0.29500001 39785.41612907  2119.76707170
0.29600001 38924.79806128  1907.50981929
0.29700001 38090.03267077  2383.67435738
0.29800001 37281.22824203  2675.30106529
0.29900001 36497.32817444  1642.37984560
0.30000001 35737.84987104  2097.63319748
0.30100001 35003.21935136  1902.77509402
0.30200001 34291.21388736  2493.65719194
0.30300001 33603.20912915  1838.76769060
0.30400001 32938.76838006  1506.94872473
0.30500001 32295.77176792  1482.37599433
0.30600001 31675.25393909  1896.23916684
0.30700001 31076.92369245  2010.05551959
0.30800001 30499.65851293  1837.75701070
0.30900001 29943.46341453  2367.03089498
0.31000001 29408.72327389  1371.91700568
0.31100001 28892.56044543  1487.38908215
0.31200001 28397.54984363  1866.57103960
0.31300001 27921.15902038  1972.62997819
0.31400001 27465.54654123  1557.29656262
0.31500001 27028.02602723  1537.35419322
0.31600002 26608.56310295  1265.23723545
0.31700002 26206.89383934  1500.08267439
0.31800002 25823.56633700  1853.48656160
0.31900002 25457.74004085  1466.36589578
0.32000002 25108.53306550  1329.87351678
0.32100002 24776.63622160  1316.38274478
0.32200002 24461.17368164  1422.17270519
0.32300002 24160.91987497  1526.48698998
0.32400002 23876.73806206  1163.99103564
0.32500002 23607.62816449  1385.29568629
0.32600002 23354.05458714  1145.51643174
0.32700002 23115.00566677  1364.70999919
0.32800002 22891.02629326  1694.50830160
0.32900002 22679.99070385  1571.72343020
0.33000002 22484.17117003  1339.60698175
0.33100002 22299.63643983  1221.57414202
0.33200002 22130.76063808  1215.97470084
0.33300002 21973.37538145  1651.29923811
0.33400002 21829.40057946  1206.62017417
0.33500002 21697.16305662  1202.89077682
0.33600002 21577.02554217  1308.86243137
0.33700002 21467.71405031  1414.93710006
0.33800002 21371.33076466  1195.40544293
0.33900002 21284.79612098  1519.73451501
0.34000002 21209.90829512  1410.35291888
0.34100002 21145.43145896  1627.14102783
0.34200002 21091.99416939  1302.21978169
0.34300002 21047.44503186  1303.25785809
0.34400002 21013.53905726  1196.19576749
0.34500002 20988.70788845  1416.10818830
0.34600002 20974.46277563  1200.89292309
0.34700002 20967.06312018  1203.92882138
0.34800002 20969.99618026  1317.33522243
0.34900002 20981.05945630  1211.65624099
0.35000002 21000.59447122  1326.81762153
0.35100002 21028.24398775  1332.34960217
0.35200002 21063.09009497  1115.29067335
0.35300002 21105.78933684  1232.78921355
0.35400002 21156.27406265  1464.54314135
0.35500002 21213.68445400  1585.93512490
0.35600002 21277.39069508  1139.40432569
0.35700002 21348.06676990  1719.58685976
0.35800002 21425.75125794  1499.90978786
0.35900002 21509.21522976  1161.49767742
0.36000002 21599.56086813  1286.57790405
0.36100002 21694.74995174  1649.23496945
0.36200002 21796.80863976  2017.62168731
0.36300002 21902.44917155  2272.16018468
0.36400002 22014.35508535  1205.28599801
0.36500002 22130.68477566  2065.45690795
0.36600002 22252.50208183  1715.00041668
0.36700002 22378.46881548  1729.40815198
0.36800002 22510.38070641  1370.54459423
0.36900002 22645.56439515  1382.51177181
0.37000002 22783.95604613  1394.71993543
0.37100002 22926.72154882  1407.24223533
0.37200002 23073.62036329  1420.06603253
0.37300002 23223.63419554  1693.69972211
0.37400002 23377.93468230  1578.01066581
0.37500002 23534.51677087  1460.08148963
0.37600002 23695.09685399  1473.95356963
0.37700002 23857.33183089  1352.71077889
0.37800002 24023.45651206  1775.45363763
0.37900002 24191.74806136  2068.39455723
0.38000002 24362.67306508  1531.55951479
0.38100002 24535.35301704  2108.81369172
0.38200002 24710.49253008  1703.54143573
0.38300002 24887.35234811  1576.86271948
0.38400002 25066.74455982  1592.36502360
0.38500002 25246.60050746  1607.95606250
0.38600002 25429.44959818  1623.79758102
0.38700002 25612.60315371  2086.91500383
0.38800002 25797.12790848  2257.89372716
0.38900002 25982.81477463  1519.99473633
0.39000002 26170.34186157  1841.86874748
0.39100002 26357.82588288  1704.82425887
0.39200002 26546.62408756  1877.90827692
0.39300002 26735.79766921  1738.09428882
0.39400002 26926.35133605  1754.92503147
0.39500002 27116.42297464  1610.71560101
0.39600002 27306.88156955  1951.34984941
0.39700002 27497.10385734  2298.20804928
0.39800002 27688.56252224  2320.02476366
0.39900002 27879.10536840  1840.02104149
0.40000002 28069.59346360  2363.74057756
0.40100002 28259.47886484  2044.85598754
0.40200002 28450.48346207  2407.76452947
0.40300002 28639.81169321  2603.35900626
0.40400002 28828.63690246  2276.74170724
0.40500002 29016.94580748  2120.55850008
0.40600002 29204.89182880  2496.14222288
0.40700002 29391.77686770  2338.40987839
0.40800002 29578.17351943  1996.08313454
0.40900002 29762.59028422  1830.39938921
0.41000002 29946.98195448  3138.59359245
0.41100002 30129.80938681  2234.42677000
0.41200002 30310.86786196  3755.51670604
0.41300002 30491.10034204  3029.59587354
0.41400002 30669.76418895  2291.03149347
0.41500002 30847.53078876  2502.35181615
0.41600002 31022.50260062  1940.45762961
0.41700002 31196.81300526  2738.45637536
0.41800002 31370.17658908  2957.42353807
0.41900002 31539.81534845  2384.41015333
0.42000002 31708.49571894  3203.82655925
0.42100002 31875.94105283  2017.74716425
0.42200002 32041.22630439  2439.61908642
0.42300002 32204.01269160  2048.17530424
0.42400002 32364.88269930  2682.23978080
0.42500002 32523.99301241  2078.28325197
0.42600002 32679.66138319  2930.38537509
0.42700002 32834.47214607  2951.16249633
0.42800002 32986.43732813  2334.94507692
0.42900002 33136.71435374  2351.04999481
0.43000002 33284.51529671  2797.39722067
0.43100002 33428.53096094  2599.40269070
0.43200002 33571.12022390  3052.62210662
0.43300002 33710.80278094  2414.03070154
0.43400002 33848.32195647  3312.90466848
0.43500002 33982.90127521  2444.73003359
0.43600002 34115.71777376  2236.28540604
0.43700002 34244.87679326  2474.87736313
0.43800002 34370.78277630  2489.64776838
0.43900002 34495.04949473  2732.00804945
0.44000002 34615.72640068  2518.81345091
0.44100002 34734.35736151  2763.46560264
0.44200002 34849.82663558  3242.07952555
0.44300002 34962.75438359  3027.07541799
0.44400002 35072.26424094  3745.71799844
0.44500002 35178.01026860  2588.74989835
0.44600002 35281.73321626  2365.64032426
0.44700002 35382.59693646  2615.48168949
0.44800002 35479.59238804  3345.37092481
0.44900002 35574.77881282  2881.55722040
0.45000002 35666.72359794  2654.13936233
0.45100002 35754.26906023  2666.55351289
0.45200002 35839.76684394  2678.84349971
0.45300002 35921.61932756  2690.88863136
0.45400002 36001.06458248  3194.19460646
0.45500002 36077.12811459  3454.74595198
0.45600002 36149.72732969  2725.87031848
0.45700002 36219.28783599  3981.22430762
0.45800002 36285.12844157  2997.87745392
0.45900002 36347.98815970  3009.61356226
0.46000002 36408.59277021  3524.71603314
0.46100002 36464.74019628  4295.91124613
0.46200002 36518.44015033  2789.82636751
0.46300002 36568.43499751  2799.67951610
0.46400002 36614.92674376  3575.44776599
0.46500002 36659.05546735  3074.96171834
0.46600002 36699.23975462  3084.93823999
0.46700002 36736.18063457  3094.65600333
0.46800002 36770.51373134  2586.80576360
0.46900002 36800.96763940  2853.91517570
0.47000002 36827.84192605  4683.39687971
0.47100002 36851.98110458  2870.03242446
0.47200002 36872.70969416  2616.11887680
0.47300002 36890.58439014  2885.21274190
0.47400002 36904.09395463  2892.35850078
0.47500002 36915.40405185  3953.63996135
0.47600002 36923.76394337  2906.08497891
0.47700002 36927.87267789  4765.91147370
