# SAXS profile: number of points = 501, q_min = 0, q_max = 0.5, delta_q = 0.001
#    q    intensity    error
0.00000000 1628779.37420970 268.74859674
0.00100000 1628712.38928781 537.47510123
0.00200000 1628511.37661744 732.83014268
0.00300000 1628176.50960724 1367.66831679
0.00400000 1627707.66275316 1342.85887280
0.00500000 1627105.23893483 2050.15268221
0.00600000 1626369.06820079 1878.45635025
0.00700000 1625499.67721806 2340.71963247
0.00800000 1624496.61008111 2193.07051620
0.00900000 1623361.16685129 2435.04185437
0.01000000 1622092.53341808 3479.38863442
0.01100000 1620691.92454544 4667.59294591
0.01200000 1619158.76375787 3473.09570053
0.01300000 1617494.41944414 3736.41227371
0.01400000 1615698.30821542 5452.98203196
0.01500000 1613771.87799865 3873.05267966
0.01600000 1611714.23110470 4109.87147304
0.01700000 1609527.39104479 6084.01381107
0.01800000 1607210.94744223 6870.82710949
0.01900000 1604765.59621162 6258.58610763
0.02000000 1602191.83930366 5551.59497432
0.02100000 1599491.35285502 5806.15387411
0.02200000 1596662.36811542 5508.48542026
0.02300000 1593707.88726768 8032.28811745
0.02400000 1590627.51235970 6561.33878766
0.02500000 1587422.62242232 9905.51761631
0.02600000 1584093.61674090 8981.81121773
0.02700000 1580641.10803720 8630.30084516
0.02800000 1577065.19230132 8232.28068134
0.02900000 1573368.61024249 7788.17497829
0.03000000 1569551.24661794 9487.93772192
0.03100000 1565613.56345331 8266.43999540
0.03200000 1561556.49946993 10821.58703975
0.03300000 1557382.80679849 11119.71375317
0.03400000 1553090.37821631 8969.09734804
0.03500000 1548682.73196868 9199.17585269
0.03600000 1544159.52941575 12855.12867647
0.03700000 1539522.29783905 14917.97175598
0.03800000 1534772.80834554 15263.31628538
0.03900000 1529911.65632695 9179.47036306
0.04000000 1524938.25182862 11254.04482000
0.04100000 1519856.29867268 10532.60463816
0.04200000 1514666.21903925 9769.59756604
0.04300000 1509367.91268888 9961.82868615
0.04400000 1503965.05739208 18273.17629596
0.04500000 1498457.25400088 11373.29108633
0.04600000 1492844.89178692 15786.83546453
0.04700000 1487130.86446573 11778.07699434
0.04800000 1481315.67028326 11976.43775148
0.04900000 1475401.82393751 13278.61703352
0.05000000 1469388.62522918 14613.07055838
0.05100000 1463279.87572943 15979.01698733
0.05200000 1457073.32261238 13900.48014550
0.05300000 1450774.74857615 18802.04161806
0.05400000 1444381.96580743 11916.15177361
0.05500000 1437899.37693946 15701.86192866
0.05600000 1431325.16928491 20804.31230637
0.05700000 1424664.27348897 12394.57975791
0.05800000 1417915.32071385 18822.82676136
0.05900000 1411080.64010739 13969.69898953
0.06000000 1404162.43331038 15417.70423804
0.06100000 1397162.07633295 12993.60791711
0.06200000 1390080.39585705 19704.39053233
0.06300000 1382920.44765695 18586.45168552
0.06400000 1375680.23918205 17436.74784709
0.06500000 1368366.14755110 13546.82549445
0.06600000 1360975.76068289 17781.14914528
0.06700000 1353512.12783284 16566.98921999
0.06800000 1345977.97885642 16717.04727991
0.06900000 1338374.38601391 21079.39756663
0.07000000 1330700.42604910 21257.94030161
0.07100000 1322961.38612705 14287.98363939
0.07200000 1315155.59237419 15841.04985225
0.07300000 1307288.02721623 17413.07733842
0.07400000 1299358.41235482 14617.78282404
0.07500000 1291368.19519431 20610.23736135
0.07600000 1283318.16198215 23715.72074524
0.07700000 1275213.40582750 17903.99705731
0.07800000 1267052.63533614 19518.94676272
0.07900000 1258836.90507102 21148.46099713
0.08000000 1250571.23411775 18233.32944878
0.08100000 1242254.85953764 22919.60323382
0.08200000 1233888.95334348 16898.11000899
0.08300000 1225476.22945500 18529.20145897
0.08400000 1217018.12568025 20172.07638000
0.08500000 1208517.91767136 21825.83461776
0.08600000 1199974.59703110 21923.53691710
0.08700000 1191392.14499229 23589.56557856
0.08800000 1182768.53623607 20526.94891040
0.08900000 1174110.33083596 23775.73531617
0.09000000 1165416.29884312 15907.93322649
0.09100000 1156688.75184817 19154.76663052
0.09200000 1147928.43249111 19216.32286281
0.09300000 1139139.22289251 17668.05017732
0.09400000 1130319.21213611 19328.45943592
0.09500000 1121472.70354554 17764.12845912
0.09600000 1112600.56299056 17807.17284774
0.09700000 1103705.98548514 21091.82237421
0.09800000 1094789.21743307 17883.38270760
0.09900000 1085852.83107394 22802.91052480
0.10000000 1076895.67705197 19577.96432950
0.10100000 1067921.21235443 24508.79297623
0.10200000 1058931.53488018 19632.59158012
0.10300000 1049927.11192065 18016.75008808
0.10400000 1040910.97223318 18033.78344234
0.10500000 1031885.57773779 19688.37774956
0.10600001 1022847.18095065 24625.04704008
0.10700001 1013803.81806661 18065.98488809
0.10800001 1004752.12982851 24641.54714372
0.10900001 995696.44976789 27929.28673050
0.11000001 986636.98659756 18070.25726009
0.11100001 977575.94860969 18065.60438072
0.11200001 968515.67475700 21341.24389795
0.11300001 959454.74692058 16406.67694478
0.11400001 950397.78527054 19673.23508140
0.11500001 941344.69625177 19655.27818326
0.11600001 932296.90937883 24542.71729515
0.11700001 923256.88128715 19609.97708207
0.11800001 914223.42020262 16318.88881921
0.11900001 905200.53267754 19552.33242678
0.12000001 896188.30619673 17892.40037604
0.12100001 887189.88599976 25976.92108580
0.12200001 878204.23051498 22684.01634288
0.12300001 869234.14371835 29101.96050281
0.12400001 860279.97154482 25808.40036237
0.12500001 851343.42768671 30571.74392879
0.12600001 842427.63381649 16048.24718045
0.12700001 833531.95112332 20804.95848050
0.12800001 824656.50769604 19148.52501116
0.12900001 815804.49759424 17499.00729816
0.13000001 806976.00255036 17442.78711729
0.13100001 798172.26603018 23705.71741853
0.13200001 789395.90672023 18898.13889775
0.13300001 780648.19060167 21967.44111914
0.13400001 771927.38268368 21884.14233082
0.13500001 763237.58599824 18684.05698616
0.13600001 754577.39987385 23259.84944783
0.13700001 745950.42256391 21617.64426524
0.13800001 737355.14349503 18448.62656020
0.13900001 728796.07190979 21426.60552459
0.14000001 720271.10915183 22850.60201549
0.14100001 711782.22783778 25773.63568557
0.14200001 703329.86320447 19612.35416048
0.14300001 694917.87949643 19513.29497666
0.14400001 686541.47963471 20905.18904097
0.14500001 678208.66294860 14852.77041921
0.14600001 669914.05967277 20680.24799768
0.14700001 661664.50879499 17626.74334587
0.14800001 653454.92771870 26288.49298238
0.14900001 645289.20403808 14519.00777588
0.15000001 637168.00184359 14431.85592269
0.15100001 629092.65398431 17211.97582516
0.15200001 621063.42765256 15678.74697092
0.15300001 613081.20621851 18410.82949153
0.15400001 605144.89377001 16883.54333293
0.15500001 597258.69908164 19566.19590530
0.15600001 589418.76476139 15268.89382176
0.15700001 581632.92953748 13784.70108063
0.15800001 573892.52034093 15056.07098177
0.15900001 566206.11992954 16306.73702366
0.16000001 558568.89361331 14838.38335925
0.16100001 550987.02927547 14727.88398775
0.16200001 543455.71944367 18602.49015471
0.16300001 535979.36068023 13185.09289517
0.16400001 528556.27715862 14389.94532499
0.16500001 521187.66353546 19466.36015208
0.16600001 513874.33101085 20596.08415932
0.16700001 506615.38777277 14043.37921212
0.16800001 499411.98324649 13926.10381037
0.16900001 492266.87127858 13808.08639136
0.17000001 485177.45117435 16178.24287334
0.17100001 478145.66644018 18504.23816503
0.17200001 471171.63973726 12226.90462857
0.17300001 464255.26887159 15752.18201670
0.17400001 457398.38034001 12006.70805095
0.17500001 450599.65503479 13085.41460020
0.17600001 443858.00445821 17676.64586240
0.17700001 437178.56857803 15174.46883204
0.17800001 430557.25786533 18496.74067153
0.17900001 423995.82574126 16027.04297003
0.18000001 417495.48724169 12468.50331542
0.18100001 411056.51173821 13466.21196064
0.18200001 404675.21199753 16662.50264110
0.18300001 398357.28202806 10994.66150335
0.18400001 392099.07289278 10880.74978679
0.18500001 385902.78869185 13996.69480709
0.18600001 379767.78114398 11717.73544078
0.18700001 373693.56233244 11591.97485121
0.18800001 367680.96272794 13550.88252157
0.18900001 361731.75570605 12371.22662966
0.19000001 355840.06808001 17331.19133471
0.19100001 350015.64353398 15120.67651512
0.19200001 344248.55448305 9965.99612319
0.19300001 338546.58485064 16747.90034394
0.19400001 332905.41109309 11684.98048153
0.19500001 327326.61996328 15397.44493068
0.19600001 321808.43388050 12362.27157172
0.19700001 316353.30493209 11274.83232060
0.19800001 310959.68395249 10210.36170511
0.19900001 305628.90316189 11002.64103381
0.20000001 300357.98415711 11772.53174542
0.20100001 295150.64682060 10731.67802560
0.20200001 290003.39838201 11479.78506753
0.20300001 284918.56738268 11334.06114618
0.20400001 279895.02837149 10328.12703507
0.20500001 274932.09243217 11044.02267502
0.20600001 270031.24832001 15092.04718198
0.20700001 265190.47277792 10756.12608430
0.20800001 260410.97006737 12245.82644628
0.20900001 255694.17090901 12886.98682300
0.21000001 251034.92374751 11123.35799708
0.21100001 246436.55343357 8620.35104662
0.21200001 241898.14245946 8501.51061864
0.21300001 237419.64149057 8383.28793736
0.21400001 233001.15105732 8265.71622453
0.21500001 228642.99835442 11112.05024538
0.21600001 224342.71979487 10223.29822440
0.21700001 220101.58088669 12955.17966351
0.21800001 215919.30264631 7802.24437002
0.21900001 211794.25449532 9085.97394745
0.22000001 207726.87907956 7574.76100379
0.22100001 203719.46143134 10854.17341828
0.22200001 199768.57155733 7350.48493802
0.22300001 195874.51962907 7897.66100489
0.22400001 192035.76172380 7777.44871758
0.22500001 188256.80940828 7020.09675480
0.22600001 184531.31353634 10053.26643686
0.22700001 180863.41410179 6804.08196027
0.22800001 177249.92516934 6697.38873924
0.22900001 173691.27594438 7790.05409450
0.23000001 170187.56841718 10024.89919171
0.23100001 166739.68220553 6382.79533669
0.23200001 163343.86089234 11417.73641636
0.23300001 160002.68437039 6177.70393571
0.23400001 156714.88855787 7733.88011611
0.23500001 153478.49949076 8149.70870841
0.23600001 150295.75367796 6945.91858475
0.23700001 147164.76313105 6304.53875073
0.23800001 144084.87526814 5681.98732495
0.23900001 141056.81299540 6093.65460963
0.24000001 138079.05114345 4991.55793494
0.24100001 135153.11290472 7849.69316881
0.24200001 132276.23340898 5303.61582940
0.24300001 129448.99769155 6632.96695547
0.24400001 126670.23208263 6982.69687386
0.24500001 123940.59186504 4573.40805616
0.24600001 121259.44707731 6289.72781744
0.24700001 118626.45022310 5295.48498847
0.24800001 116039.81061419 5200.90455777
0.24900001 113500.07848467 7661.25566015
0.25000001 111007.45861240 5015.31721737
0.25100001 108560.01873570 4513.92579258
0.25200001 106159.39553345 4834.49910131
0.25300001 103803.98847654 3954.93214807
0.25400001 101492.03574708 5046.69171629
0.25500001 99224.74969864  4572.27668244
0.25600001 97001.35193385  4487.28275277
0.25700001 94821.13867782  4036.53606450
0.25800001 92683.47483177  4320.90380110
0.25900001 90588.74350560  3532.96116388
0.26000001 88536.49256014  3812.82423251
0.26100001 86523.30396199  5780.62221122
0.26200001 84553.28547970  4002.75272401
0.26300001 82622.57271396  6216.52266515
0.26400001 80732.07349747  3209.10007337
0.26500001 78881.71533922  3462.11865006
0.26600001 77069.50851339  3395.29735822
0.26700001 75297.19116022  3935.03139624
0.26800001 73562.69116177  3265.08020172
0.26900001 71865.37440288  3492.65736126
0.27000001 70206.06966116  3139.26455346
0.27100001 68583.17089460  4197.29025738
0.27200001 66997.06417881  3017.88289875
0.27300001 65446.10620643  2958.81860162
0.27400001 63929.73045035  3428.23195764
0.27500001 62450.35524125  2843.98931228
0.27600001 61003.38280133  3041.62881042
0.27700001 59592.41938547  2485.00400598
0.27800001 58213.72163717  2923.49323898
0.27900001 56868.90500076  3582.74118461
0.28000001 55556.15205259  2575.86111183
0.28100001 54275.62977534  2984.61702261
0.28200001 53027.34138560  3151.41504770
0.28300001 51810.35406099  2869.25754370
0.28400001 50624.36467026  2164.19169209
0.28500001 49468.83567440  2758.87709614
0.28600001 48342.64551851  3746.07177854
0.28700001 47246.59895513  2449.26380576
0.28800001 46178.90003555  2202.04095242
0.28900001 45141.20912705  1963.64268997
0.29000001 44130.62794919  2311.56240139
0.29100001 43149.47131583  2456.93101302
0.29200001 42194.33544337  2781.66169578
0.29300001 41266.62977480  2365.81599698
0.29400001 40365.29185543  2322.01352390
0.29500001 39491.44535550  2104.10430814
0.29600001 38641.68136435  1893.63568490
0.29700001 37817.44605176  2028.52790224
0.29800001 37018.59300540  2656.45435982
0.29900001 36244.27706122  1630.99254496
0.30000001 35493.79704505  1602.54501245
0.30100001 34767.69360835  3937.44148754
0.30200001 34063.98994450  2012.67094115
0.30300001 33383.74251899  1674.52860403
0.30400001 32726.50842722  1796.68539771
0.30500001 32090.41061944  2062.12988403
0.30600001 31476.45737585  1594.44002386
0.30700001 30884.14004338  1712.21680507
0.30800001 30312.56313159  1685.98484120
0.30900001 29761.49173291  2214.25508976
0.31000001 29231.74930763  1636.39340372
0.31100001 28719.92192331  1881.72937351
0.31200001 28229.03961603  1590.42416727
0.31300001 27756.27258103  1960.98075069
0.31400001 27303.98221986  1677.14718726
0.31500001 26869.49765673  1910.42137385
0.31600002 26452.52056283  1509.38089478
0.31700002 26053.16665565  1491.28332998
0.31800002 25671.69317495  1596.90774956
0.31900002 25307.45795047  1700.66125480
0.32000002 24959.45852748  1562.33738050
0.32100002 24628.35070709  1308.50433503
0.32200002 24313.59746130  1295.79323806
0.32300002 24013.64872792  1517.18239847
0.32400002 23729.43694854  1272.49111662
0.32500002 23459.98078392  1376.63173759
0.32600002 23205.72924012  1821.18571700
0.32700002 22965.79169507  1355.90040588
0.32800002 22740.59049668  2020.04674948
0.32900002 22528.08114765  1449.68209050
0.33000002 22330.47548998  1330.44979270
0.33100002 22144.01066010  1543.88049633
0.33200002 21972.73976448  1317.04608385
0.33300002 21813.02150429  1202.11567203
0.33400002 21666.28868575  1197.60416382
0.33500002 21530.98825490  1193.67804538
0.33600002 21407.68372443  1190.37430987
0.33700002 21294.87900058  1511.51058304
0.33800002 21194.89612145  1293.31262258
0.33900002 21104.39056948  1506.85355802
0.34000002 21025.58745821  1075.45884942
0.34100002 20956.75931382  1290.09816446
0.34200002 20898.86131923  1290.29575896
0.34300002 20849.60177709  1075.83950265
0.34400002 20810.84529649  1400.04968363
0.34500002 20781.01581819  1941.36258968
0.34600002 20761.61315765  1620.96302405
0.34700002 20748.90055328  1191.40192620
0.34800002 20746.27304014  1520.49442312
0.34900002 20751.79664870  1416.31018835
0.35000002 20765.52204928  1202.63526644
0.35100002 20787.20275130  1317.07722870
0.35200002 20816.08454306  1102.21172876
0.35300002 20852.48344359  1107.26692330
0.35400002 20896.68817955  1335.29843792
0.35500002 20947.70395282  1230.46818847
0.35600002 21004.93592248  1687.22155789
0.35700002 21068.91741480  1131.40091876
0.35800002 21139.89322643  1593.73662583
0.35900002 21216.54276628  1374.83203637
0.36000002 21300.05599587  1268.73789549
0.36100002 21388.19962372  1509.79308295
0.36200002 21483.25342831  1169.76320458
0.36300002 21581.70888426  1296.19749699
0.36400002 21686.40265682  1187.33060170
0.36500002 21795.51891147  1316.23144941
0.36600002 21910.06752906  1326.76420207
0.36700002 22028.62268089  1580.77403846
0.36800002 22153.12920917  1594.02848775
0.36900002 22280.95945335  1483.91196988
0.37000002 22411.82457853  2619.15800344
0.37100002 22547.15704062  1258.13142246
0.37200002 22686.54999725  1523.17503897
0.37300002 22828.99648676  1536.84811629
0.37400002 22975.76476595  1421.62551224
0.37500002 23124.85165206  1434.66586446
0.37600002 23277.84331745  1447.99831216
0.37700002 23432.51168348  1594.34817047
0.37800002 23591.17904082  1609.39031040
0.37900002 23751.91628298  1895.40300917
0.38000002 23915.29961266  1913.46321265
0.38100002 24080.57072951  1793.76179862
0.38200002 24248.13472557  1532.36094658
0.38300002 24417.56020917  1547.09668814
0.38400002 24589.64435805  1704.06243474
0.38500002 24761.96786844  1433.71800750
0.38600002 24937.60987199  2605.73097897
0.38700002 25113.45493846  2338.56503466
0.38800002 25290.76342107  1770.85933864
0.38900002 25469.24447808  2234.92630883
0.39000002 25649.71204940  1504.35568297
0.39100002 25830.15978826  1974.45750776
0.39200002 26011.96056181  2453.44823643
0.39300002 26194.24017889  2167.31153508
0.39400002 26377.89367438  1719.17930168
0.39500002 26561.23581102  2682.15371927
0.39600002 26744.94666385  1751.92781422
0.39700002 26928.65064526  2411.46077953
0.39800002 27113.48940619  1785.01665963
0.39900002 27297.55935280  2129.20973040
0.40000002 27481.83824880  2148.94244368
0.40100002 27665.42256872  2669.16009589
0.40200002 27850.28131810  2188.61446108
0.40300002 28033.62400746  2038.60523441
0.40400002 28216.37898031  2399.80314598
0.40500002 28398.96820080  2075.39669445
0.40600002 28581.11703461  2442.82818869
0.40700002 28762.39423020  1936.28447132
0.40800002 28943.36687851  2663.51346320
0.40900002 29122.45591514  2149.23734837
0.41000002 29301.50721854  1806.43800562
0.41100002 29479.20867918  2186.17821923
0.41200002 29655.28897933  2020.85976325
0.41300002 29830.64862746  2963.97338807
0.41400002 30004.61818919  2801.68135617
0.41500002 30177.78607880  3012.95030487
0.41600002 30348.24637772  1898.28290087
0.41700002 30518.23715233  2104.84291613
0.41800002 30687.34061509  2700.17922867
0.41900002 30853.00496799  2526.86122661
0.42000002 31017.67142775  2938.14906522
0.42100002 31181.40152004  1973.78280975
0.42200002 31343.01480318  2187.58582185
0.42300002 31502.41055660  3005.33010951
0.42400002 31659.84332239  2018.31510744
0.42500002 31815.78335886  2033.02865297
0.42600002 31968.46830907  2457.09659067
0.42700002 32120.41201104  2268.34360371
0.42800002 32269.62150804  2491.86029093
0.42900002 32417.36025473  2300.01181906
0.43000002 32562.72020832  3368.28793796
0.43100002 32704.43279720  2119.24734568
0.43200002 32844.95391308  3413.24777239
0.43300002 32982.71874223  2361.89260106
0.43400002 33118.43550897  2377.07582130
0.43500002 33251.43956378  2609.57310063
0.43600002 33382.77115804  2188.24075311
0.43700002 33510.65630103  2862.14529031
0.43800002 33635.37619823  3100.84547866
0.43900002 33758.72605409  2228.07602516
0.44000002 33878.53515609  2465.17172746
0.44100002 33996.54267979  2704.76506378
0.44200002 34111.52828897  2946.72451089
0.44300002 34224.13108917  2507.25996241
0.44400002 34333.53073738  2291.76328533
0.44500002 34439.30137104  2534.38830800
0.44600002 34543.13068796  3937.39893807
0.44700002 34644.33684580  2793.71945564
0.44800002 34741.92978922  2807.84289863
0.44900002 34837.68888704  2821.85293358
0.45000002 34930.41155647  2599.34669916
0.45100002 35018.98923866  2611.71634119
0.45200002 35105.57963630  2862.50909921
0.45300002 35188.88817742  2875.63607814
0.45400002 35269.71223625  3370.02116389
0.45500002 35347.43306350  3384.87035058
0.45600002 35421.71219296  4127.86942604
0.45700002 35493.28353012  2682.22756349
0.45800002 35561.27895857  3182.91242404
0.45900002 35626.40343349  4178.97732081
0.46000002 35689.44723310  2714.71793245
0.46100002 35748.24111121  3963.76516227
0.46200002 35804.68998477  2983.96300476
0.46300002 35857.49761559  2994.81834279
0.46400002 35907.06173029  3255.87297671
0.46500002 35954.37197257  3267.17393600
0.46600002 35997.89121862  2521.65239938
0.46700002 36038.39397456  3288.86399000
0.46800002 36076.27519997  2791.76268867
0.46900002 36110.56126294  4073.27150352
0.47000002 36141.47778217  2553.39552633
0.47100002 36169.67724962  3329.05725184
0.47200002 36194.64521350  3081.61223954
0.47300002 36216.84775513  3090.02159693
0.47400002 36234.91176153  2839.91134391
0.47500002 36250.89115935  3364.80787689
0.47600002 36264.02237648  2854.16001642
0.47700002 36273.08857824  3641.09280406
