# SAXS profile: number of points = 501, q_min = 0, q_max = 0.5, delta_q = 0.001
#    q    intensity    error
0.00000000 1646666.22097351 321.09991309
0.00100000 1646598.66876809 790.36737978
0.00200000 1646395.96053361 1037.22948798
0.00300000 1646058.25942729 987.63499084
0.00400000 1645585.44766533 2468.37826529
0.00500000 1644977.94314279 2072.67229040
0.00600000 1644235.53777541 1899.09212345
0.00700000 1643358.79739251 2169.23370271
0.00800000 1642347.25488501 2882.31955401
0.00900000 1641202.20437875 2707.98375299
0.01000000 1639922.83684540 2705.87279763
0.01100000 1638510.37852940 3244.25069074
0.01200000 1636964.24180643 5107.32865836
0.01300000 1635285.80956306 4120.92042185
0.01400000 1633474.45703701 4777.91299864
0.01500000 1631531.72091016 5481.94682636
0.01600000 1629456.64301128 5817.16047560
0.01700000 1627251.26810611 6151.01006937
0.01800000 1624915.13308176 6483.41167273
0.01900000 1622449.00295393 5354.08195134
0.02000000 1619853.38489182 6633.29991119
0.02100000 1617129.95362461 7471.14072448
0.02200000 1614276.95232205 6126.18131239
0.02300000 1611297.31909479 6380.73767406
0.02400000 1608190.67566350 9046.07296309
0.02500000 1604958.50854122 8137.14000993
0.02600000 1601601.09739015 6486.48474111
0.02700000 1598119.15402157 6712.10075431
0.02800000 1594512.76865077 9710.58320641
0.02900000 1590784.55458106 10737.79623644
0.03000000 1586934.53611137 8855.09511853
0.03100000 1582963.17586538 8358.04595315
0.03200000 1578871.34130098 8596.95484934
0.03300000 1574661.87201862 8833.85350927
0.03400000 1570332.66575248 9893.09625071
0.03500000 1565887.16557132 14374.84484375
0.03600000 1561325.01199110 11264.96048211
0.03700000 1556647.87145156 8872.89327762
0.03800000 1551857.43404855 10894.03969119
0.03900000 1546954.42020880 12994.41773153
0.04000000 1541938.09823526 11379.50369229
0.04100000 1536812.25074867 13554.68468009
0.04200000 1531577.24849047 13830.14319549
0.04300000 1526233.08776352 11080.45273150
0.04400000 1520783.31255552 14371.40297109
0.04500000 1515227.63465890 10455.07116494
0.04600000 1509566.53154532 11706.68899634
0.04700000 1503802.75827348 15158.33250838
0.04800000 1497936.95615453 16514.75571000
0.04900000 1491971.47168315 15665.70118187
0.05000000 1485905.77038683 14777.33357462
0.05100000 1479743.56280590 13850.40039307
0.05200000 1473482.69149402 14057.02553193
0.05300000 1467128.73669277 16637.24064969
0.05400000 1460679.86434156 16870.85321990
0.05500000 1454140.25072886 18322.16801390
0.05600000 1447508.10761751 16089.05336695
0.05700000 1440788.37489966 17548.80322543
0.05800000 1433979.80460656 13959.79404966
0.05900000 1427084.57678282 16696.89032820
0.06000000 1420105.02178739 15592.75386770
0.06100000 1413042.58256780 17083.68562159
0.06200000 1405897.85584492 14614.30889463
0.06300000 1398674.11138476 18798.18093593
0.06400000 1391369.30566520 16279.02163760
0.06500000 1383989.80406221 16441.79964137
0.06600000 1376533.18847937 17984.40694895
0.06700000 1369002.59040415 13963.82707561
0.06800000 1361400.79805269 21135.74837911
0.06900000 1353728.70654602 17056.98250107
0.07000000 1345985.56674931 15768.22165287
0.07100000 1338176.49547078 17342.76819360
0.07200000 1330300.00559151 18936.82146672
0.07300000 1322361.12637399 17613.85102861
0.07400000 1314359.37479077 17743.85239123
0.07500000 1306296.38579359 31272.73694173
0.07600000 1298172.91093022 16493.28760658
0.07700000 1289994.06306841 16602.22437014
0.07800000 1281758.39118985 15188.83764790
0.07900000 1273467.21271651 15281.60726936
0.08000000 1265125.52615652 15371.27586388
0.08100000 1256732.50120439 20095.15363709
0.08200000 1248289.30794863 15541.20261323
0.08300000 1239798.86192530 17183.61303275
0.08400000 1231262.26348025 18838.31351549
0.08500000 1222682.81211744 15772.60901676
0.08600000 1214059.97294437 20596.52840804
0.08700000 1205397.11539181 17502.36693736
0.08800000 1196692.87590029 15975.85064355
0.08900000 1187953.40504589 19244.84606567
0.09000000 1179177.60095854 17705.35251011
0.09100000 1170367.72271620 25841.72053165
0.09200000 1161524.67074506 29165.88585282
0.09300000 1152652.10285741 21128.11403823
0.09400000 1143748.41562063 19558.09882629
0.09500000 1134817.60969140 19609.64921717
0.09600000 1125860.75282499 19657.52966838
0.09700000 1116881.05165633 19701.78267745
0.09800000 1107878.80397689 18097.20111385
0.09900000 1098856.29980027 23075.98338090
0.10000000 1089812.91216667 23114.93295409
0.10100000 1080751.76141173 19842.60327275
0.10200000 1071674.94890296 18213.11661328
0.10300000 1062583.04140861 21549.18509346
0.10400000 1053479.14663492 18251.52707409
0.10500000 1044365.51393240 18265.95369808
0.10600001 1035238.65918309 19938.69751405
0.10700001 1026106.33676630 21609.80046920
0.10800001 1016965.62436419 19952.86648904
0.10900001 1007820.44021774 23280.65326475
0.11000001 998671.44083684 21616.24435438
0.11100001 989520.41241738 23273.52119562
0.11200001 980369.84015192 18278.99653015
0.11300001 971218.38600105 18268.61870078
0.11400001 962070.66578485 23234.00767266
0.11500001 952926.70374269 18239.01796847
0.11600001 943787.80514073 26501.56281635
0.11700001 934656.54288806 26469.47454117
0.11800001 925531.59246902 16520.73970367
0.11900001 916417.09064813 18145.05924950
0.12000001 907312.93209550 26348.36878919
0.12100001 898222.68477276 19724.97108682
0.12200001 889144.77563991 24607.08282511
0.12300001 880082.65681722 24554.30728206
0.12400001 871036.06082016 26131.08305584
0.12500001 862007.06670139 16291.93432834
0.12600001 852998.75075476 17874.58966438
0.12700001 844010.41334018 19446.00083978
0.12800001 835042.32806928 17773.87679062
0.12900001 826097.42011759 25774.24072246
0.13000001 817176.41945783 17663.26913914
0.13100001 808279.83636346 20805.12396870
0.13200001 799410.62273276 20732.71547792
0.13300001 790570.06394726 15890.45903446
0.13400001 781756.64343544 22162.80188627
0.13500001 772973.93035379 15768.66892268
0.13600001 764221.11590533 15704.74467235
0.13700001 755501.44335438 17202.76867635
0.13800001 746813.43883522 20242.37921417
0.13900001 738161.85690043 20151.81964370
0.14000001 729544.29526479 18515.83508704
0.14100001 720963.00479430 18427.81527165
0.14200001 712418.38160741 25978.33751059
0.14300001 703914.33993120 22806.82568951
0.14400001 695445.72506648 18151.13428042
0.14500001 687020.95992841 19559.48765182
0.14600001 678634.59671132 14963.89356340
0.14700001 670293.23852114 14880.51059718
0.14800001 661992.27917929 17754.63376523
0.14900001 653735.05525022 19121.75126825
0.15000001 645522.83364561 16083.20215913
0.15100001 637356.45555564 24703.93738299
0.15200001 629236.62731971 20217.37378978
0.15300001 621163.81679661 21523.32726767
0.15400001 613137.03631893 15680.98044386
0.15500001 605160.81156522 21241.14548837
0.15600001 597231.22856000 16877.75531565
0.15700001 589355.57651292 16761.27338711
0.15800001 581526.03588641 18030.21559366
0.15900001 573750.48164682 22032.01953516
0.16000001 566024.50102819 19137.28928309
0.16100001 558354.27321531 18995.21327144
0.16200001 550734.76866854 13465.46572960
0.16300001 543170.50749334 16034.39413815
0.16400001 535659.84772307 15909.09822844
0.16500001 528204.21736266 18413.19988657
0.16600001 520803.84775836 13046.13700229
0.16700001 513458.48842210 14233.06997107
0.16800001 506168.82288501 19247.07039898
0.16900001 498937.90366176 17812.08400178
0.17000001 491763.32269770 16397.84876966
0.17100001 484646.45075298 13754.26692186
0.17200001 477587.70741427 13632.74175192
0.17300001 470587.02590721 18423.48293431
0.17400001 463646.37877267 18256.07702634
0.17500001 456764.29393524 14470.29351527
0.17600001 449939.65905375 14335.07821449
0.17700001 443177.48521806 14199.40729703
0.17800001 436474.12176283 18750.92915658
0.17900001 429831.01369719 15087.06929339
0.18000001 423249.43929100 13789.46738345
0.18100001 416729.60058995 14789.73422355
0.18200001 410267.90598267 12388.04000633
0.18300001 403870.23489135 15605.54661340
0.18400001 397532.54463701 19856.75154267
0.18500001 391257.53659930 10916.08578682
0.18600001 385044.01537368 12960.58216978
0.18700001 378892.02375675 10684.75557474
0.18800001 372801.86737586 14796.50681523
0.18900001 366775.68809150 16724.97216718
0.19000001 360807.72581472 11370.85601631
0.19100001 354907.31377776 10221.33111976
0.19200001 349065.14034874 12126.52354871
0.19300001 343288.34202892 12986.59859260
0.19400001 337572.92525401 10861.40938329
0.19500001 331920.45232601 10734.30793547
0.19600001 326329.18007125 13500.23881752
0.19700001 320801.29036422 12386.13840630
0.19800001 315335.73532553 11295.32657316
0.19900001 309933.53346614 14876.81030945
0.20000001 304591.70786819 14693.50468199
0.20100001 299313.96570494 13603.82038424
0.20200001 294096.96709214 9850.77837833
0.20300001 288943.02187584 13262.48533095
0.20400001 283850.97268885 8728.41782274
0.20500001 278820.07666527 11200.20300904
0.20600001 273851.74604410 9353.40682825
0.20700001 268944.32648482 8391.06338296
0.20800001 264098.41049820 14903.07400888
0.20900001 259316.06041866 8985.30191825
0.21000001 254591.95692040 12086.75372617
0.21100001 249929.23961484 9537.30023456
0.21200001 245327.12271634 8622.02213547
0.21300001 240785.45190589 10047.97738306
0.21400001 236304.56471106 11431.23385833
0.21500001 231884.50937487 7513.05845894
0.21600001 227522.84913818 10368.21672542
0.21700001 223221.15204284 8029.26521860
0.21800001 218978.88887158 8632.14820745
0.21900001 214794.40812018 10632.32370466
0.22000001 210668.37502776 9777.11974733
0.22100001 206602.94273384 10319.81747751
0.22200001 202594.50473063 6776.78650368
0.22300001 198643.75014241 7341.87335243
0.22400001 194748.72602008 6572.76981398
0.22500001 190914.21387764 7119.19137214
0.22600001 187134.01224127 10195.06146901
0.22700001 183411.81763176 6899.95290560
0.22800001 179744.77337224 9261.34988597
0.22900001 176133.17527486 6684.25431779
0.23000001 172577.20593756 8371.72065595
0.23100001 169077.65853412 10002.63475193
0.23200001 165630.80535933 6946.55630530
0.23300001 162239.33649236 7402.98127427
0.23400001 158901.84808828 7841.80657404
0.23500001 155616.45312006 6059.70497110
0.23600001 152385.25868337 6500.75544290
0.23700001 149206.46622083 5859.33820563
0.23800001 146079.70579516 6284.34924055
0.23900001 143005.08975208 5148.18347458
0.24000001 139981.54832901 8096.53313832
0.24100001 137010.43944675 4973.47918717
0.24200001 134089.05905481 4887.54643374
0.24300001 131217.93365541 7203.86489844
0.24400001 128396.01769936 4718.55387366
0.24500001 125623.85184146 5562.62442268
0.24600001 122900.65927228 6830.20446216
0.24700001 120226.51689417 5814.15463205
0.24800001 117599.26744200 4392.33284675
0.24900001 115019.49383765 4313.23122296
0.25000001 112487.45639148 4235.15293350
0.25100001 110001.39429518 5405.46877139
0.25200001 107562.65096281 5714.80391602
0.25300001 105169.72850966 6010.45026868
0.25400001 102821.06045448 4719.48689814
0.25500001 100517.44481863 4631.84407638
0.25600001 98258.59549184  4166.65593897
0.25700001 96043.35921353  4831.94163065
0.25800001 93871.42115277  6199.73830337
0.25900001 91742.90816413  5009.16302277
0.26000001 89657.53016110  3861.10171908
0.26100001 87611.84255122  4820.40380525
0.26200001 85610.06534188  4052.78068505
0.26300001 83648.15386416  3643.71375473
0.26400001 81726.84590688  3898.37073422
0.26500001 79846.42482705  3823.04700162
0.26600001 78004.82466582  3436.50271327
0.26700001 76203.56530610  3063.38347027
0.26800001 74440.79340805  3304.05477177
0.26900001 72715.80155851  3533.98812298
0.27000001 71029.36465546  3176.07819087
0.27100001 69380.00454979  3396.84518351
0.27200001 67767.83301922  3607.62076150
0.27300001 66191.56873678  4352.75776612
0.27400001 64650.30872009  4266.92057746
0.27500001 63146.73094679  3137.12974190
0.27600001 61676.12722673  3587.70049057
0.27700001 60241.93583304  2512.08884313
0.27800001 58840.67524800  2708.73061324
0.27900001 57473.78692697  3138.06891473
0.28000001 56139.60246962  2839.54122730
0.28100001 54838.11247608  3711.44362804
0.28200001 53569.35105568  3183.62668392
0.28300001 52332.49782042  3121.11031773
0.28400001 51127.11369812  3497.09474247
0.28500001 49952.72441803  2142.97197896
0.28600001 48808.25587398  2311.31506631
0.28700001 47694.43874064  2472.47982134
0.28800001 46609.41526882  2626.67372180
0.28900001 45555.04084613  2972.46655591
0.29000001 44528.07026907  2332.38043110
0.29100001 43531.02318132  1906.65890559
0.29200001 42560.64031800  2431.70229967
0.29300001 41618.05161713  2202.42739583
0.29400001 40702.37210256  1981.18805587
0.29500001 39814.53194472  2474.87142284
0.29600001 38951.44039912  2776.45880308
0.29700001 38114.14468879  1874.07258306
0.29800001 37302.86893505  2509.55062640
0.29900001 36516.41506687  2629.18200928
0.30000001 35754.38703263  2421.46597642
0.30100001 35017.20092397  1903.53513234
0.30200001 34302.69581273  1870.86911819
0.30300001 33612.12414181  2299.06940014
0.30400001 32945.06425489  2110.13146542
0.30500001 32299.48337955  1630.80099304
0.30600001 31676.37931079  1896.30653722
0.30700001 31075.38855761  1722.81962320
0.30800001 30495.58750845  1696.16465752
0.30900001 29936.71661943  1392.05738871
0.31000001 29399.40682137  1645.77887178
0.31100001 28880.62973477  2027.42030337
0.31200001 28382.94608120  1332.57938160
0.31300001 27903.93560523  1445.70297216
0.31400001 27445.71229686  1685.85295765
0.31500001 27005.50898089  1408.06730493
0.31600002 26583.37426013  1516.84740710
0.31700002 26179.09991378  1498.49175002
0.31800002 25793.10450903  1604.46014195
0.31900002 25424.71695430  1586.50241307
0.32000002 25072.85242267  1690.16106184
0.32100002 24738.27677198  1194.85882466
0.32200002 24420.21066752  1301.47518915
0.32300002 24117.30843129  2344.20249052
0.32400002 23830.51598211  1277.91148005
0.32500002 23558.69204535  1382.42411468
0.32600002 23302.50816717  1714.48211958
0.32700002 23060.82574015  1248.05194816
0.32800002 22834.20231557  1577.61511269
0.32900002 22620.56741718  1679.57721026
0.33000002 22422.15800762  1335.91223735
0.33100002 22235.01741944  1107.30391992
0.33200002 22063.46951566  1542.89849629
0.33300002 21903.59978752  1316.84448159
0.33400002 21757.06581281  1202.62186975
0.33500002 21622.20719135  1198.73522346
0.33600002 21499.52047251  1521.52113589
0.33700002 21387.64087546  1409.65947686
0.33800002 21288.73025855  1407.29158039
0.33900002 21199.64853952  1189.30033939
0.34000002 21122.30518412  1296.48715360
0.34100002 21055.22189533  1404.17281470
0.34200002 20999.36576882  1404.54264597
0.34300002 20952.27313484  1081.13734496
0.34400002 20915.94120167  1298.88001014
0.34500002 20888.67850394  1626.18369855
0.34600002 20871.96723702  1303.66313537
0.34700002 20862.18025025  1306.80703277
0.34800002 20862.66712291  1201.37674317
0.34900002 20871.39064570  1534.04728511
0.35000002 20888.58467386  1319.74084220
0.35100002 20913.86485123  1104.25211645
0.35200002 20946.38794993  1220.02242393
0.35300002 20986.71436943  1225.83404438
0.35400002 21034.92624566  1344.13185076
0.35500002 21090.07032956  1801.93569430
0.35600002 21151.60258892  1359.20204674
0.35700002 21219.97944554  1253.46424522
0.35800002 21295.50352403  1146.76291909
0.35900002 21376.78001481  1500.65002812
0.36000002 21464.94726485  1627.25772923
0.36100002 21558.01681712  1404.72044234
0.36200002 21658.01417295  1415.13471309
0.36300002 21761.52615810  1306.99732296
0.36400002 21871.40482709  1317.20541810
0.36500002 21985.71054956  1448.41867961
0.36600002 22105.49560549  1216.90759072
0.36700002 22229.49394525  1840.60218585
0.36800002 22359.42693041  1485.11320707
0.36900002 22492.68763741  1622.84748991
0.37000002 22629.19793951  1259.31492499
0.37100002 22770.08463015  2032.91325208
0.37200002 22915.22060472  1923.15998035
0.37300002 23063.36158592  1552.62557551
0.37400002 23215.89252616  1567.07281975
0.37500002 23370.71754271  2108.97365096
0.37600002 23529.57008069  1330.59725110
0.37700002 23690.09234989  2149.16527979
0.37800002 23854.59224052  1491.74699643
0.37900002 24021.31665852  1643.05813728
0.38000002 24190.60672400  1520.74256375
0.38100002 24361.75480468  1395.92861644
0.38200002 24535.33610431  1409.55512597
0.38300002 24710.67851717  2419.66975503
0.38400002 24888.68930029  2012.25062526
0.38500002 25067.11264986  1741.66306942
0.38600002 25248.60471845  1465.68157334
0.38700002 25430.41019001  2072.06992045
0.38800002 25613.58088010  2092.37352122
0.38900002 25798.00355051  1811.01993504
0.39000002 25984.30491493  1828.77546655
0.39100002 26170.61217751  1692.71527584
0.39200002 26358.26944589  1864.58406894
0.39300002 26546.32120386  2353.33148622
0.39400002 26735.72883996  1742.50120970
0.39500002 26924.77847769  1759.26510908
0.39600002 27114.17142825  2099.04368057
0.39700002 27303.43730380  2119.01986954
0.39800002 27493.95538609  1810.06463860
0.39900002 27683.56795136  1993.21698693
0.40000002 27873.18129608  1844.22912783
0.40100002 28062.30227270  2538.23536083
0.40200002 28252.49727690  2391.00895783
0.40300002 28441.13126343  1895.88589985
0.40400002 28629.20200485  2608.83615630
0.40500002 28816.90105243  2105.93922869
0.40600002 29004.13122899  2478.98321360
0.40700002 29190.47542680  1786.45718076
0.40800002 29376.33993270  2162.68624832
0.40900002 29560.32363807  2181.55198785
0.41000002 29744.16145761  2200.47316890
0.41100002 29926.57170682  2589.24710676
0.41200002 30107.24516433  2797.71588946
0.41300002 30287.12166660  2445.07944800
0.41400002 30465.54852360  2275.77658255
0.41500002 30643.05396112  2676.97732089
0.41600002 30817.80371517  1927.65371372
0.41700002 30991.92284798  1943.19365464
0.41800002 31165.13616196  2154.60179065
0.41900002 31334.70507285  2368.90381576
0.42000002 31503.33764857  1989.43586678
0.42100002 31670.77117647  3007.13986570
0.42200002 31836.07677671  2423.99900064
0.42300002 31999.00880311  2442.16446758
0.42400002 32159.93478169  2255.21553343
0.42500002 32319.19506771  2271.71632896
0.42600002 32475.07600353  2912.04020323
0.42700002 32630.13037816  2723.31081041
0.42800002 32782.37677192  2109.54604524
0.42900002 32932.97119357  2973.84743970
0.43000002 33081.14216167  2780.30472473
0.43100002 33225.53930628  3229.52257361
0.43200002 33368.56190515  2384.01701829
0.43300002 33508.75155639  2835.84577860
0.43400002 33646.79468653  2854.08949454
0.43500002 33781.90845752  2430.27060960
0.43600002 33915.32354593  2890.09443292
0.43700002 34045.21294475  2684.12471576
0.43800002 34171.71042323  4050.37302841
0.43900002 34296.75171325  2716.30286441
0.44000002 34418.17787841  2276.76257455
0.44100002 34537.60322276  2518.82752240
0.44200002 34653.89952085  2533.02690552
0.44300002 34767.68073478  2547.08041134
0.44400002 34878.11924263  2793.73748373
0.44500002 34984.85366114  2574.53550293
0.44600002 35089.56554939  3529.13322238
0.44700002 35191.48263453  3074.32806865
0.44800002 35289.54562510  3089.77631364
0.44900002 35385.79869749  2627.39567781
0.45000002 35478.86074574  2640.15954752
0.45100002 35567.58774127  2652.63081946
0.45200002 35654.33038984  3391.79661073
0.45300002 35737.47831917  2920.46686665
0.45400002 35818.13175915  2444.58760842
0.45500002 35895.54668891  3682.88326483
0.45600002 35969.46478333  2958.84831331
0.45700002 36040.40077041  3218.76834535
0.45800002 36107.70088465  3977.62451797
0.45900002 36172.03776523  3494.21901373
0.46000002 36234.13159728  3257.26741431
0.46100002 36291.76661810  2766.52150042
0.46200002 36347.08312647  3281.59655560
0.46300002 36398.58337118  3040.00982724
0.46400002 36446.72381492  3304.80683855
0.46500002 36492.49380996  3571.15561350
0.46600002 36534.34044876  2815.15373671
0.46700002 36573.01492225  4107.88123076
0.46800002 36609.02791966  3348.07880708
0.46900002 36641.26459843  2841.53020429
0.47000002 36669.96212916  2849.80624194
0.47100002 36695.89730718  3897.10447873
0.47200002 36718.46684491  4168.28055380
0.47300002 36738.24138405  2873.29799483
0.47400002 36753.65259222  2880.56765845
0.47500002 36766.93598255  3675.22309501
0.47600002 36777.22402580  2894.55155415
0.47700002 36783.30151597  3428.57169681
