# SAXS profile: number of points = 501, q_min = 0, q_max = 0.5, delta_q = 0.001
#    q    intensity    error
0.00000000 1646666.22097351 321.09991309
0.00100000 1646598.50521424 543.37751963
0.00200000 1646395.30217371 889.05349133
0.00300000 1646056.78011559 1185.16092390
0.00400000 1645582.81548568 1481.02459021
0.00500000 1644973.83833581 1480.47651310
0.00600000 1644229.61931924 2071.72940469
0.00700000 1643350.75813051 2169.22309089
0.00800000 1642336.75308793 2882.30112336
0.00900000 1641188.93879991 2707.96186478
0.01000000 1639906.44858414 4058.76863550
0.01100000 1638490.57551223 3244.21148077
0.01200000 1636940.69346351 5426.45863675
0.01300000 1635258.20048826 3777.44660973
0.01400000 1633442.46897331 4777.81943355
0.01500000 1631495.08237814 5873.38255810
0.01600000 1629414.96556708 6232.51252191
0.01700000 1627204.25478221 5711.48719050
0.01800000 1624862.52931957 6020.11594202
0.01900000 1622390.45844852 5353.88875446
0.02000000 1619788.66946426 5612.56799358
0.02100000 1617058.71679510 6403.55280884
0.02200000 1614198.85228943 6125.88492275
0.02300000 1611212.13612185 8120.50953569
0.02400000 1608098.15496700 7839.47886293
0.02500000 1604858.32706015 8762.52686594
0.02600000 1601492.96545659 11026.27957149
0.02700000 1598002.75922121 10738.57903381
0.02800000 1594387.82716423 10403.38104934
0.02900000 1590650.83903088 9305.30783558
0.03000000 1586791.81926625 11067.87344812
0.03100000 1582811.12029202 9116.99247238
0.03200000 1578709.77746759 7814.61375839
0.03300000 1574490.48555836 9635.88221584
0.03400000 1570151.21700806 12364.94140446
0.03500000 1565695.37990364 10145.70653028
0.03600000 1561122.75501288 9530.65485980
0.03700000 1556434.93217254 9758.84747604
0.03800000 1551633.48944662 9984.76196668
0.03900000 1546719.19751639 10208.34717636
0.04000000 1541691.42220557 13273.96376029
0.04100000 1536553.96111261 13552.40656539
0.04200000 1531307.18643044 12840.01135390
0.04300000 1525950.91142899 13092.65942780
0.04400000 1520489.01618716 13342.29173668
0.04500000 1514920.96150110 15679.43268008
0.04600000 1509247.14602759 11704.21216154
0.04700000 1503470.64023879 11907.48802448
0.04800000 1497591.80349030 12108.03029458
0.04900000 1491613.28963685 15661.94027021
0.05000000 1485534.31765128 18182.94089476
0.05100000 1479358.67640357 11538.99821348
0.05200000 1473084.28217687 12882.12264796
0.05300000 1466716.66574143 16632.56776488
0.05400000 1460253.99232028 15661.22479798
0.05500000 1453700.43080407 23201.05995795
0.05600000 1447054.17844316 18558.47070455
0.05700000 1440320.33598307 15036.94500957
0.05800000 1433497.54728153 19029.68082870
0.05900000 1426587.89730587 17975.00834559
0.06000000 1419593.77696842 16886.06876594
0.06100000 1412516.86964537 14450.04825174
0.06200000 1405357.58794692 19920.94474032
0.06300000 1398119.16908018 16106.33358086
0.06400000 1390799.66747273 18984.41634884
0.06500000 1383405.13609901 13695.71148804
0.06600000 1375933.79511226 17976.57587424
0.06700000 1368388.35961220 20936.34288187
0.06800000 1360771.55050507 14083.98620699
0.06900000 1353084.62422588 15628.12814150
0.07000000 1345326.44857786 21491.59102245
0.07100000 1337502.45797705 15889.52994500
0.07200000 1329611.07084350 14559.24190779
0.07300000 1321657.07157830 22005.59127286
0.07400000 1313640.37663358 14778.45492971
0.07500000 1305562.56292162 16371.75530642
0.07600000 1297424.06745914 16483.77354984
0.07700000 1289230.33647727 18100.79477286
0.07800000 1280979.87326628 22769.41831511
0.07900000 1272673.91333133 18326.50521155
0.08000000 1264317.49308268 18433.74991389
0.08100000 1255909.60418883 20081.99551319
0.08200000 1247451.84675223 20190.00908710
0.08300000 1238946.77167519 18732.87606690
0.08400000 1230395.55851652 15687.54410744
0.08500000 1221801.95917321 18913.49521590
0.08600000 1213164.66310320 20581.33947587
0.08700000 1204487.81906205 22258.93594150
0.08800000 1195769.52325516 19156.22866220
0.08900000 1187016.08576062 16024.71791044
0.09000000 1178226.28734895 16082.78957781
0.09100000 1169402.63597821 19365.30856160
0.09200000 1160546.06542587 16189.61837339
0.09300000 1151660.15782705 24357.61348266
0.09400000 1142743.08521734 17912.49870262
0.09500000 1133799.19405423 22857.39282649
0.09600000 1124829.41433289 16366.26874789
0.09700000 1115836.98626690 16402.80446926
0.09800000 1106822.09326001 18079.93974348
0.09900000 1097787.13374801 19760.16933664
0.10000000 1088731.53368862 21442.56856438
0.10100000 1079658.27659921 24778.15861331
0.10200000 1070569.54922014 26464.48050151
0.10300000 1061465.97320636 21526.53094925
0.10400000 1052350.56326612 16574.52215119
0.10500000 1043225.68627673 16587.28919222
0.10600001 1034087.80992974 23235.95418246
0.10700001 1024944.72375981 24906.15795939
0.10800001 1015793.28911822 23251.50948217
0.10900001 1006637.93336031 19931.43201862
0.11000001 997478.73318359 18268.82385816
0.11100001 988317.84521992 28226.35898819
0.11200001 979157.72146011 23235.41382410
0.11300001 969996.91393911 18245.64281021
0.11400001 960840.21856993 19889.39346088
0.11500001 951687.35446668 16559.36074747
0.11600001 942539.90115723 19849.89125313
0.11700001 933400.48528127 18173.30830430
0.11800001 924267.31381589 19797.80679438
0.11900001 915145.14298866 16472.61334968
0.12000001 906033.68181812 29600.12177931
0.12100001 896936.18940891 18055.32634335
0.12200001 887851.53562889 16380.86160408
0.12300001 878782.62366443 16345.35757026
0.12400001 869729.84055615 21199.66586243
0.12500001 860695.05956224 19520.56487069
0.12600001 851680.96167702 22714.33231830
0.12700001 842687.18020878 25887.35139599
0.12800001 833714.05177296 20972.07796075
0.12900001 824764.53772362 16082.90924363
0.13000001 815839.19405768 17634.36501075
0.13100001 806938.57155210 22368.33825781
0.13200001 798065.59864147 17513.55038778
0.13300001 789221.57625381 15863.35443055
0.13400001 780404.85424485 18963.83885221
0.13500001 771619.40610768 18889.24395211
0.13600001 762864.05412288 17244.54275654
0.13700001 754142.29824179 17171.82094067
0.13800001 745452.29339041 21759.75347016
0.13900001 736799.30524542 21661.90059575
0.14000001 728180.70618041 18481.22719444
0.14100001 719598.67128167 19925.68814754
0.14200001 711053.39129676 19827.72475149
0.14300001 702549.20363641 19727.58256861
0.14400001 694080.72316748 22644.38466147
0.14500001 685656.60191575 22523.82043543
0.14600001 677271.15581240 19413.97859720
0.14700001 668930.95376816 16335.29466166
0.14800001 660631.48293328 16241.62577417
0.14900001 652376.08845111 14678.46268269
0.15000001 644166.22348779 16049.40221546
0.15100001 636002.16187568 15950.93497249
0.15200001 627885.29444997 15850.96500635
0.15300001 619815.67583537 17181.29134492
0.15400001 611792.52708749 18491.43000385
0.15500001 603820.05442488 14129.38994035
0.15600001 595894.73683333 18243.31822914
0.15700001 588023.70582097 20904.24372855
0.15800001 580198.79497518 15221.51610461
0.15900001 572428.56923077 17859.77220299
0.16000001 564708.01415093 17729.00894112
0.16100001 557043.64375905 18950.62565523
0.16200001 549430.33203193 18807.00115326
0.16300001 541872.60421119 14663.07336217
0.16400001 534368.74197791 18515.87778366
0.16500001 526920.10717802 14432.34241698
0.16600001 519527.12266058 13014.15503709
0.16700001 512189.49903577 16779.32878064
0.16800001 504907.97126367 19199.12651381
0.16900001 497685.35734220 17767.36809606
0.17000001 490519.21774287 13840.00038214
0.17100001 483411.28699123 12472.01179332
0.17200001 476361.83320699 13597.74917102
0.17300001 469370.70297124 14700.69111129
0.17400001 462439.77394312 13352.94910321
0.17500001 455567.61073330 15635.08113877
0.17600001 448753.35181093 14297.28246394
0.17700001 442001.89726953 21242.61218608
0.17800001 435309.38961137 12856.86342943
0.17900001 428677.53200080 16204.01147500
0.18000001 422107.31531883 19482.36405879
0.18100001 415599.22086257 14749.61704513
0.18200001 409149.53054183 15723.61720147
0.18300001 402763.98062620 16674.42958561
0.18400001 396438.75540447 11001.17598218
0.18500001 390176.33453928 11974.51227271
0.18600001 383975.81691416 14001.67882526
0.18700001 377836.90357984 10655.00118434
0.18800001 371760.15169940 13701.22103821
0.18900001 365747.69971225 10423.80993430
0.19000001 359793.44685171 12369.69928721
0.19100001 353907.07107239 11211.77654133
0.19200001 348079.25288135 14107.65278589
0.19300001 342316.82813969 17930.55630522
0.19400001 336615.96755470 13784.42452273
0.19500001 330978.21103534 14596.13979640
0.19600001 325401.91314127 9615.62698772
0.19700001 319889.43379939 12350.93162267
0.19800001 314439.20722161 13140.41509079
0.19900001 309052.46306576 12980.20406221
0.20000001 303726.34740385 11904.55474912
0.20100001 298464.47192266 10852.16871201
0.20200001 293263.42603074 10715.84609363
0.20300001 288125.72757722 11461.64198475
0.20400001 283049.94710027 8703.78628472
0.20500001 278035.41075673 9450.42405831
0.20600001 273083.74308993 9327.17568611
0.20700001 268192.96740639 8367.62097861
0.20800001 263363.89256429 11559.04179104
0.20900001 258598.38256112 8960.43437931
0.21000001 253891.32995382 10446.35926477
0.21100001 249245.75556440 11889.02310246
0.21200001 244660.86609363 10943.68105772
0.21300001 240136.48564637 10020.89601977
0.21400001 235672.98820904 8360.49965197
0.21500001 231270.43953398 7493.16259516
0.21600001 226926.27087024 13295.61083889
0.21700001 222642.15261910 8008.43860834
0.21800001 218417.50789252 7892.51702086
0.21900001 214250.82155935 8484.33293490
0.22000001 210142.48578142 6966.22373303
0.22100001 206094.84337552 7549.25446980
0.22200001 202104.40241618 8788.51035463
0.22300001 198171.36199664 8656.12550132
0.22400001 194294.31576135 7868.92016043
0.22500001 190477.61997623 8394.34910930
0.22600001 186715.32058414 8264.95405649
0.22700001 183011.03249477 6884.87536803
0.22800001 179361.92151779 6777.19052504
0.22900001 175768.23715847 7276.80536249
0.23000001 172230.15825801 7161.33031904
0.23100001 168748.44949681 7634.18021628
0.23200001 165319.45134389 6933.49811727
0.23300001 161945.86401875 6252.73010548
0.23400001 158626.17286473 6709.88742952
0.23500001 155358.48873872 8249.53614220
0.23600001 152145.07802763 5949.63355767
0.23700001 148983.84964810 7446.21315760
0.23800001 145874.56576524 5752.56377304
0.23900001 142817.54546008 6169.71825570
0.24000001 139811.49780431 6570.44165010
0.24100001 136857.76981684 5464.73100727
0.24200001 133953.71864080 5370.87460296
0.24300001 131099.76430158 5757.90192049
0.24400001 128294.99830447 4714.84141072
0.24500001 125539.89154965 5558.90666078
0.24600001 122833.77148160 5006.09059355
0.24700001 120176.30949611 5811.72660216
0.24800001 117565.82003801 4830.19194476
0.24900001 115002.71913095 5175.12260571
0.25000001 112487.09085461 4658.65308814
0.25100001 110017.41550283 4990.39020330
0.25200001 107594.88081508 4491.54851212
0.25300001 105218.14235463 6414.09826139
0.25400001 102885.42837051 5509.51494990
0.25500001 100597.72536074 6180.72453859
0.25600001 98354.42470197  3791.56325165
0.25700001 96154.84622765  4465.43127009
0.25800001 93998.30311282  5477.75137307
0.25900001 91885.07062690  3941.86971640
0.26000001 89814.68659985  4571.11869078
0.26100001 87783.91577887  3794.89885868
0.26200001 85796.92192098  3723.15760293
0.26300001 83849.55823545  3984.53119589
0.26400001 81942.62980492  3908.66362665
0.26500001 80076.46947641  4792.57692494
0.26600001 78248.87620268  3447.25440423
0.26700001 76461.47065638  5225.37715192
0.26800001 74712.33805572  3919.03587816
0.26900001 73000.84750163  5913.06892745
0.27000001 71327.57841281  3479.35943963
0.27100001 69691.29291822  5402.46928268
0.27200001 68092.05020776  4461.39134074
0.27300001 66528.44688821  3828.04701511
0.27400001 64999.64223603  3753.72951677
0.27500001 63508.30851581  3680.94173578
0.27600001 62049.72376509  2578.16614445
0.27700001 60627.42878845  3792.24585019
0.27800001 59237.68218981  2727.00682867
0.27900001 57882.27483359  2917.26678968
0.28000001 56559.28656266  3337.56365802
0.28100001 55268.74206969  2571.65469022
0.28200001 54010.69862206  2522.02969152
0.28300001 52784.33630782  3148.05796640
0.28400001 51589.26274204  2205.44108661
0.28500001 50424.97184505  2379.55453400
0.28600001 49290.26947122  3395.11392187
0.28700001 48185.95434837  2081.63332638
0.28800001 47110.34394561  2859.12690939
0.28900001 46065.12613342  2404.59969798
0.29000001 45047.09038610  2556.19726495
0.29100001 44058.60086286  2894.65021371
0.29200001 43096.74053486  2651.74257063
0.29300001 42162.36962198  2231.23270601
0.29400001 41254.63085689  2008.06925201
0.29500001 40374.42925642  1971.88721823
0.29600001 39518.86510175  1760.56552362
0.29700001 38688.87678617  1902.33216163
0.29800001 37884.58409935  2208.86078048
0.29900001 37104.85597023  2838.52161610
0.30000001 36349.25959912  2297.63680803
0.30100001 35618.40201123  1774.86505624
0.30200001 34909.97407836  2062.65591607
0.30300001 34225.19036163  2028.86938069
0.30400001 33563.69826221  1996.20104865
0.30500001 32923.41608285  1511.18486975
0.30600001 32305.46949575  1785.20032885
0.30700001 31709.30229628  1904.46078608
0.30800001 31134.18831815  1875.99060593
0.30900001 30579.67948021  1848.54171210
0.31000001 30046.48009760  1541.83519921
0.31100001 29531.61099091  1382.07945981
0.31200001 29037.66601524  1499.65033236
0.31300001 28562.09202450  2017.91189707
0.31400001 28107.11217868  1859.28555865
0.31500001 27669.80878471  1311.54899849
0.31600002 27250.58930520  1554.91869938
0.31700002 26848.88637901  1280.69194092
0.31800002 26465.11120194  1646.26232026
0.31900002 26098.80998679  1879.11440802
0.32000002 25748.86362652  1735.73097925
0.32100002 25415.90777458  1718.62376509
0.32200002 25099.25124106  1459.27053625
0.32300002 24797.60770753  1928.26206664
0.32400002 24511.85907116  1194.95318630
0.32500002 24240.82105883  1422.45144709
0.32600002 23985.16084400  1176.47219511
0.32700002 23743.88385393  1869.11862549
0.32800002 23517.46603328  1624.82180518
0.32900002 23303.72470934  1614.94819883
0.33000002 23105.11748896  1606.03679271
0.33100002 22917.54401788  1255.42312075
0.33200002 22745.33901889  1704.19460669
0.33300002 22584.67798170  1357.79090456
0.33400002 22437.08273164  1240.20980672
0.33500002 22300.97577870  1348.76307897
0.33600002 22176.88844079  1121.04176377
0.33700002 22063.42423472  2013.50819101
0.33800002 21962.74932273  1228.48644154
0.33900002 21871.69412146  1561.63903423
0.34000002 21792.27004604  1560.54453190
0.34100002 21722.84701035  1337.25852529
0.34200002 21664.53526784  1560.49654925
0.34300002 21614.77937921  1672.98400318
0.34400002 21575.60378686  1451.49881350
0.34500002 21545.35953267  1789.12674033
0.34600002 21525.56581415  1120.40575369
0.34700002 21512.47581992  1347.54154918
0.34800002 21509.53153845  1238.62643230
0.34900002 21514.67811366  1920.18511259
0.35000002 21528.11468043  1473.49187909
0.35100002 21549.38797457  1251.58851284
0.35200002 21577.92161175  1142.55100346
0.35300002 21614.12627032  1377.25219118
0.35400002 21657.98740682  1729.93182606
0.35500002 21708.66898497  1738.86446806
0.35600002 21765.61712065  1398.65862242
0.35700002 21829.27370427  1641.12487482
0.35800002 21899.97036510  1651.03884403
0.35900002 21976.32532683  1424.06594863
0.36000002 22059.47169449  1672.32862837
0.36100002 22147.29262893  1683.63726540
0.36200002 22242.02837505  1695.50990334
0.36300002 22340.10292199  1585.70058051
0.36400002 22444.42419640  1843.24842444
0.36500002 22553.02596984  1733.42565815
0.36600002 22667.22261155  1372.61373026
0.36700002 22785.35703204  1257.75176775
0.36800002 22909.39461910  1394.83855746
0.36900002 23036.62162133  1278.53256055
0.37000002 23167.03460270  1418.17009038
0.37100002 23301.80020568  1820.33671830
0.37200002 23440.68093574  2098.40985677
0.37300002 23582.44054495  1587.56997269
0.37400002 23728.63658356  1334.73587105
0.37500002 23876.95004379  1615.99205552
0.37600002 24029.24972380  2581.82285888
0.37700002 24183.15788699  1371.18511715
0.37800002 24340.94947567  1383.78304324
0.37900002 24500.89925674  1955.17185331
0.38000002 24663.38969286  1691.41534526
0.38100002 24827.72129069  1849.41704656
0.38200002 24994.34182360  1866.70250753
0.38300002 25162.78237502  1884.18923350
0.38400002 25333.80684403  2487.14660474
0.38500002 25505.17210491  1919.77439528
0.38600002 25679.58716585  1937.91013728
0.38700002 25854.23222950  1956.13130316
0.38800002 26030.24340887  1670.75125235
0.38900002 26207.52797238  1993.08259672
0.39000002 26386.55826953  2011.84323057
0.39100002 26565.66581583  1718.26734637
0.39200002 26746.09140625  1892.01859572
0.39300002 26926.77855741  1750.50995695
0.39400002 27108.86777653  1606.20049186
0.39500002 27290.58083514  2269.48480977
0.39600002 27472.64706370  1799.59583117
0.39700002 27654.62257461  2146.27535970
0.39800002 27837.75656241  1666.08980920
0.39900002 28019.91500666  2185.55347407
0.40000002 28202.24149549  2205.27437822
0.40100002 28383.95516787  2738.48412434
0.40200002 28566.74431727  2417.60368612
0.40300002 28747.99993210  2264.76754196
0.40400002 28928.68791553  1933.15966155
0.40500002 29109.06082240  1950.01607689
0.40600002 29288.93780017  1966.89871116
0.40700002 29467.88970681  1983.77842906
0.40800002 29646.40674078  2546.32999561
0.40900002 29823.10538768  2567.76949554
0.41000002 29999.64435740  2219.37379472
0.41100002 30174.76452238  2051.28058943
0.41200002 30348.22542117  2444.09445010
0.41300002 30520.83421711  2463.94706310
0.41400002 30692.02796644  2292.69459773
0.41500002 30862.34312129  2696.13442283
0.41600002 31029.93732261  2135.01493865
0.41700002 31196.91271419  2151.65117185
0.41800002 31363.01875093  2956.74873285
0.41900002 31525.57337104  3773.61131132
0.42000002 31687.15830962  2001.04414207
0.42100002 31847.54046389  2217.54434758
0.42200002 32005.89697960  2233.85168554
0.42300002 32161.94570517  3068.24976566
0.42400002 32315.90731525  2266.15310786
0.42500002 32468.36390123  2697.14711708
0.42600002 32617.43295486  2715.89068368
0.42700002 32765.72200005  2524.27134250
0.42800002 32911.25098698  2117.83910137
0.42900002 33055.11087479  2132.05475246
0.43000002 33196.68546088  2790.01556177
0.43100002 33334.50007923  2376.08327824
0.43200002 33471.06112870  2391.34007566
0.43300002 33604.69316677  3281.49844324
0.43400002 33736.30263535  2861.68200665
0.43500002 33865.08826403  2657.73225291
0.43600002 33992.21409112  4010.74153067
0.43700002 34115.80197509  2465.54912558
0.43800002 34236.06452231  2930.77844232
0.43900002 34354.94015745  2947.65400520
0.44000002 34470.28364287  2964.27218234
0.44100002 34583.65161159  2751.47545261
0.44200002 34693.99095518  2766.49896987
0.44300002 34801.87162893  2549.58523636
0.44400002 34906.37500537  3961.00109145
0.44500002 35007.32726189  2576.18933529
0.44600002 35106.27304076  2353.87571894
0.44700002 35202.46748272  2838.72711234
0.44800002 35294.94461406  3090.24902214
0.44900002 35385.63330347  2388.53036118
0.45000002 35473.16518123  2639.73571206
0.45100002 35556.50438057  2892.87733350
0.45200002 35637.79448158  2421.58824979
0.45300002 35715.63333452  2918.68169442
0.45400002 35791.02286892  3175.55865454
0.45500002 35863.23053444  2698.34959330
0.45600002 35932.01632301  2709.45381925
0.45700002 35997.93005694  2720.36370333
0.45800002 36060.20075670  3475.84291567
0.45900002 36119.59230516  4486.05357691
0.46000002 36176.79054042  2501.62518443
0.46100002 36229.63099693  2510.71354708
0.46200002 36280.17574908  3023.58999023
0.46300002 36327.05026968  3034.03538232
0.46400002 36370.55462277  3044.21556621
0.46500002 36411.74110132  2799.69890597
0.46600002 36449.11283742  3829.89071291
0.46700002 36483.34829931  3073.35740640
0.46800002 36515.00640161  2568.83082211
0.46900002 36542.91254947  3091.53054821
0.47000002 36567.40453916  3100.18470377
0.47100002 36589.21109385  3626.72277552
0.47200002 36607.61490337  3636.23456070
0.47300002 36623.40107816  3645.49351611
0.47400002 36634.82459419  2610.23137605
0.47500002 36644.18993917  2878.03481423
0.47600002 36650.61524442  3409.05713854
0.47700002 36652.87087179  2628.01096607
