# SAXS profile: number of points = 501, q_min = 0, q_max = 0.5, delta_q = 0.001
#    q    intensity    error
0.00000000 1646666.22097351 296.39991978
0.00100000 1646598.51047242 642.17343434
0.00200000 1646395.32672873 814.96571254
0.00300000 1646056.83117873 1086.39754728
0.00400000 1645582.90851426 1727.86211960
0.00500000 1644973.98404105 2072.66730193
0.00600000 1644229.82369462 2417.01793923
0.00700000 1643351.02885468 1972.02131658
0.00800000 1642337.11446679 2438.87071795
0.00900000 1641189.39506371 3446.49787696
0.01000000 1639907.00947465 2705.84668247
0.01100000 1638491.25807108 3244.21283223
0.01200000 1636941.49413980 4468.85047493
0.01300000 1635259.15951943 3777.44882509
0.01400000 1633443.57624041 5145.34749326
0.01500000 1631496.34635294 4307.15054616
0.01600000 1629416.41207892 4986.01444385
0.01700000 1627205.88634827 5272.14730827
0.01800000 1624864.36019709 5557.03636193
0.01900000 1622392.48253269 5840.61320066
0.02000000 1619790.91137125 6633.04408212
0.02100000 1617061.18807605 6403.56259511
0.02200000 1614201.56406832 10581.09173319
0.02300000 1611215.08133421 7540.48692387
0.02400000 1608101.38620952 8442.53266256
0.02500000 1604861.79687847 7510.75355241
0.02600000 1601496.73260591 7134.66827009
0.02700000 1598006.80588963 8053.95467056
0.02800000 1594392.16907350 9709.84875495
0.02900000 1590655.51949260 7873.74518301
0.03000000 1586796.79200598 9592.18704858
0.03100000 1582816.46450287 10636.52713088
0.03200000 1578715.44325564 7814.64180404
0.03300000 1574496.45318929 8029.93228145
0.03400000 1570157.55254693 9067.66028434
0.03500000 1565702.10792571 10991.22930519
0.03600000 1561129.84665922 10397.12525924
0.03700000 1556442.41183795 9758.89437355
0.03800000 1551641.37804142 9984.81272979
0.03900000 1546727.49460800 11136.43847691
0.04000000 1541700.15765226 15170.33025428
0.04100000 1536563.11394053 11616.41768000
0.04200000 1531316.75310422 11852.39221889
0.04300000 1525960.85971965 12085.61056997
0.04400000 1520499.42347768 10263.37158513
0.04500000 1514931.89324729 15679.54582366
0.04600000 1509258.50950727 18088.46407732
0.04700000 1503482.53400269 10825.07474827
0.04800000 1497604.14462378 17611.82556022
0.04900000 1491626.00852882 16780.79337705
0.05000000 1485547.62552508 11364.43986446
0.05100000 1479372.43001220 15000.83713912
0.05200000 1473098.54830214 14053.36080571
0.05300000 1466731.46257893 16632.73556103
0.05400000 1460269.30620999 13251.94457184
0.05500000 1453716.25023942 17095.70390032
0.05600000 1447070.56958528 14846.94473677
0.05700000 1440337.18215572 15037.12088362
0.05800000 1433514.97436331 13955.26892703
0.05900000 1426605.93998795 14123.39946553
0.06000000 1419612.34969647 14288.39896723
0.06100000 1412535.86513918 15763.90099162
0.06200000 1405377.20531545 17265.05977433
0.06300000 1398139.37589444 14764.35249976
0.06400000 1390820.41312387 18984.69952699
0.06500000 1383426.53597059 15065.51568145
0.06600000 1375955.77780491 15211.19183534
0.06700000 1368410.88969569 15353.57090092
0.06800000 1360794.66108854 14084.22540154
0.06900000 1353108.34233953 14207.63825975
0.07000000 1345350.84369023 25790.37688127
0.07100000 1337527.41305761 17334.35608513
0.07200000 1329636.66591011 23295.23547805
0.07300000 1321683.22297785 14670.68446246
0.07400000 1313667.25650880 16256.63306115
0.07500000 1305589.92589459 25302.33394982
0.07600000 1297452.07434734 14985.57216124
0.07700000 1289259.06625743 16592.76496074
0.07800000 1281009.14617748 24287.93455054
0.07900000 1272703.69295483 21381.42304451
0.08000000 1264347.95095812 16898.01115726
0.08100000 1255940.80855472 23172.10900503
0.08200000 1247483.66892565 18637.40688831
0.08300000 1238979.23628936 20294.48084288
0.08400000 1230428.52515523 18825.55731852
0.08500000 1221835.69348922 22066.35366032
0.08600000 1213198.94390441 22165.14574582
0.08700000 1204522.72342932 17489.67076547
0.08800000 1195805.08340001 22349.59805837
0.08900000 1187052.27754946 17627.72714958
0.09000000 1178263.09260931 20908.27956053
0.09100000 1169440.10838854 20979.75653014
0.09200000 1160584.12239956 19428.17912184
0.09300000 1151698.97871756 19486.74763563
0.09400000 1142782.35981529 21170.04421052
0.09500000 1133839.21062806 19592.74248056
0.09600000 1124870.03478757 22913.60368574
0.09700000 1115878.14754856 26245.45526421
0.09800000 1106863.99840963 18080.62426413
0.09900000 1097829.62880643 26347.91233030
0.10000000 1088774.61536404 23092.91067787
0.10100000 1079701.96064183 18171.38485223
0.10200000 1070613.84603934 18195.08316927
0.10300000 1061510.90563920 21527.44217903
0.10400000 1052396.16368916 19890.28842947
0.10500000 1043271.80370071 19905.62695116
0.10600001 1034134.52140190 28216.36174413
0.10700001 1024992.11881559 18265.36041682
0.10800001 1015841.22373429 16609.00478970
0.10900001 1006686.40392504 19932.39173585
0.11000001 997527.84381658 16608.83938132
0.11100001 988367.50467183 18265.03234613
0.11200001 979208.05945345 26556.12382256
0.11300001 970047.61198580 21564.15942970
0.11400001 960891.57177863 19890.45647235
0.11500001 951739.27656769 18216.29061127
0.11600001 942592.31703609 21505.24472589
0.11700001 933453.46709690 18174.33986030
0.11800001 924320.88400324 21448.86712350
0.11900001 915199.18564308 16473.58611751
0.12000001 906088.29160758 21379.15424754
0.12100001 896991.36768767 21339.42564255
0.12200001 887907.18226325 19658.26594143
0.12300001 878838.73461499 19615.68148079
0.12400001 869786.54933926 22831.89799594
0.12500001 860752.18884470 16268.21713573
0.12600001 851738.67443353 16225.62251257
0.12700001 842745.26371770 17798.78080851
0.12800001 833772.59620695 19360.20059636
0.12900001 824823.52979454 17692.46554798
0.13000001 815898.73805908 16032.41095855
0.13100001 806998.39271155 20772.13960754
0.13200001 798125.89241160 20699.39599547
0.13300001 789282.30446037 15864.57506756
0.13400001 780466.04759724 17384.88202985
0.13500001 771680.96876491 15742.29250503
0.13600001 762926.09179453 23517.19788842
0.13700001 754204.71691336 20295.64988914
0.13800001 745515.15942204 20207.18934902
0.13900001 736862.49784458 21663.75845825
0.14000001 728244.19597325 16942.60201834
0.14100001 719662.56698782 16861.69473977
0.14200001 711117.57015537 16778.81985919
0.14300001 702613.84207426 16694.10567511
0.14400001 694145.58120140 15097.66710329
0.14500001 685721.79988084 19522.50056353
0.14600001 677336.57348259 16428.79936484
0.14700001 668996.65175652 16336.89900661
0.14800001 660697.46369577 20673.22461438
0.14900001 652442.42934900 14679.95535296
0.15000001 644232.81484566 17510.24873369
0.15100001 636069.01242396 15952.61158432
0.15200001 627952.34270584 18734.95902868
0.15300001 619882.94633410 17183.15608324
0.15400001 611860.03656826 18493.47047800
0.15500001 603887.78255412 19783.36469011
0.15600001 595962.62399228 16841.90454887
0.15700001 588091.72480479 13937.77453569
0.15800001 580267.04191434 16607.24352343
0.15900001 572496.89797567 13739.92619995
0.16000001 564776.63693053 20459.03463852
0.16100001 557112.25591308 16245.39414928
0.16200001 549499.17165118 13435.25538110
0.16300001 541941.44611158 13331.76020371
0.16400001 534437.65181637 15872.79900829
0.16500001 526989.09566166 14434.23201163
0.16600001 519596.30894840 16920.65459978
0.16700001 512258.63291933 16781.59360678
0.16800001 504977.20531689 15361.40731105
0.16900001 497754.69680798 13962.01990472
0.17000001 490588.38009805 15100.31105245
0.17100001 483480.50048985 17463.31650233
0.17200001 476431.14571393 12363.38881511
0.17300001 469439.86654014 15928.09542390
0.17400001 462508.98137723 13354.94746797
0.17500001 455636.77274498 15637.45477913
0.17600001 448822.54683840 14299.48701762
0.17700001 442070.98228360 18885.27325512
0.17800001 435378.46843431 16365.87740144
0.17900001 428746.35987369 13891.38271605
0.18000001 422176.13764592 17193.12401775
0.18100001 415667.94721166 14752.05614338
0.18200001 409218.00233382 12356.33816416
0.18300001 402832.32588471 13341.80726356
0.18400001 396507.03858586 13203.68500866
0.18500001 390244.40475348 11976.60134768
0.18600001 384043.70064118 11849.66894310
0.18700001 377904.59934066 14919.67428685
0.18800001 371827.57898916 13703.70607109
0.18900001 365814.88904310 16681.15972851
0.19000001 359860.46773129 15465.00433145
0.19100001 353973.78757413 14272.22378935
0.19200001 348145.66991031 11086.69938216
0.19300001 342383.08869112 13948.68769239
0.19400001 336681.95767556 16741.51113652
0.19500001 331043.89830701 13625.76749820
0.19600001 325467.32163647 12502.82775150
0.19700001 319954.53797551 10452.91524964
0.19800001 314503.87227139 10326.73513406
0.19900001 309116.78669597 14837.60646263
0.20000001 303790.33648822 16486.70234040
0.20100001 298528.04550099 11759.02026804
0.20200001 293326.59127795 9824.97463922
0.20300001 288188.49830640 11464.13900448
0.20400001 283112.30876983 8705.70390615
0.20500001 278097.36856966 8593.20909498
0.20600001 273145.24210426 10177.39220187
0.20700001 268254.05892279 10880.38514421
0.20800001 263424.50233039 10735.86609996
0.20900001 258658.59563136 8147.74614754
0.21000001 253950.99356109 8841.30425878
0.21100001 249305.01579746 9513.47985257
0.21200001 244719.58285184 9382.54925009
0.21300001 240194.63810787 13107.42202121
0.21400001 235730.54279895 8362.54140114
0.21500001 231327.39976348 9743.51053869
0.21600001 226982.72815337 8865.94578084
0.21700001 222698.19930423 8010.45460770
0.21800001 218472.93971962 9329.88733185
0.21900001 214305.62783510 8486.50326352
0.22000001 210196.71626285 9058.42791565
0.22100001 206148.58787478 8237.69796098
0.22200001 202157.42202486 8114.59930377
0.22300001 198223.74635236 7326.35001161
0.22400001 194346.01931194 9838.76769291
0.22500001 190528.72826418 10980.17112909
0.22600001 186765.77073290 6995.31227360
0.22700001 183060.86038148 7512.81806533
0.22800001 179411.06239339 6779.04731312
0.22900001 175816.64658657 6065.67459409
0.23000001 172277.88238700 7163.31468842
0.23100001 168795.48300486 6461.49139501
0.23200001 165365.72205412 8091.34516278
0.23300001 161991.43720566 6823.07965780
0.23400001 158671.04279371 6711.78542761
0.23500001 155402.54928269 7701.75070671
0.23600001 152188.36415558 5410.29660162
0.23700001 149026.44949582 6916.31784823
0.23800001 145916.46087186 6277.32644362
0.23900001 142858.66904759 9257.24219215
0.24000001 139851.87317335 5055.64545435
0.24100001 136897.32625991 6460.18513178
0.24200001 133992.41597856 5372.42617279
0.24300001 131137.72938639 5759.56934709
0.24400001 128332.21944540 6602.69300280
0.24500001 125576.22721049 6487.26820457
0.24600001 122869.18637943 5462.76428485
0.24700001 120210.98530319 5813.40352427
0.24800001 117599.59074288 5270.81390644
0.24900001 115035.67266235 6039.37310048
0.25000001 112519.25364578 6778.16016028
0.25100001 110048.75079438 4159.84297683
0.25200001 107625.36002371 4084.38260613
0.25300001 105247.72008654 4811.92599001
0.25400001 102914.15444266 5117.40657177
0.25500001 100625.46255465 4250.41973940
0.25600001 98381.38856478  4551.12325033
0.25700001 96180.92097728  5211.08254510
0.25800001 94023.45836631  3652.81153036
0.25900001 91909.32600083  3942.91027199
0.26000001 89838.06635215  4572.30860333
0.26100001 87806.35648530  5176.18495973
0.26200001 85818.44254354  4062.64526224
0.26300001 83870.15658847  3321.25835806
0.26400001 81962.40761081  4235.40761370
0.26500001 80095.29563124  5752.44440443
0.26600001 78266.75822001  3761.50057805
0.26700001 76478.43309624  3689.31978714
0.26800001 74728.49121114  3015.29476306
0.26900001 73016.08720447  4140.01234041
0.27000001 71341.87478137  4060.06628594
0.27100001 69704.59274888  3128.34227061
0.27200001 68104.40571212  2788.87554589
0.27300001 66539.86421475  4102.18282297
0.27400001 65010.22093191  2949.83891439
0.27500001 63517.91610721  3944.46277693
0.27600001 62058.28761627  3609.93076148
0.27700001 60635.05718981  3034.17840538
0.27800001 59244.48797017  2727.32013278
0.27900001 57888.17387498  2674.43375960
0.28000001 56564.17717201  2861.01621677
0.28100001 55272.79029016  2571.84305392
0.28200001 54013.74833877  3210.03721570
0.28300001 52786.39915025  2698.44085228
0.28400001 51590.44952253  2426.04100362
0.28500001 50425.20576319  2379.56557259
0.28600001 49289.59886490  2334.10906473
0.28700001 48184.38015192  3122.34798163
0.28800001 47107.78671848  2246.33491600
0.28900001 46061.63882721  2604.78579897
0.29000001 45042.64404505  2162.72265619
0.29100001 44053.30426018  1929.53481793
0.29200001 43090.52673597  2461.97736160
0.29300001 42155.18648734  2044.94819330
0.29400001 41246.52385851  2190.19052056
0.29500001 40365.45266333  2688.33927464
0.29600001 39508.98350556  2640.18794774
0.29700001 38678.03446808  2074.68986708
0.29800001 37872.86106189  2208.17726875
0.29900001 37092.18144717  2002.97789297
0.30000001 36335.83430912  2296.78819541
0.30100001 35604.07771735  1774.15127664
0.30200001 34894.74709040  1744.56296337
0.30300001 34209.04725342  1715.92589147
0.30400001 33546.69620080  1841.71370861
0.30500001 32905.59066179  1510.36668288
0.30600001 32286.70010218  1784.16313211
0.30700001 31689.71791956  1903.28454836
0.30800001 31113.72810563  1442.12136597
0.30900001 30558.39074039  1563.06176037
0.31000001 30024.32485228  1820.82526687
0.31100001 29508.66394036  2623.91052181
0.31200001 29013.89223471  1907.08322688
0.31300001 28537.51014595  1478.52847066
0.31400001 28081.67535784  1857.60291287
0.31500001 27643.61864617  1572.36910304
0.31600002 27223.54220195  1553.37539159
0.31700002 26821.02111912  1535.23532155
0.31800002 26436.51234710  1517.98461084
0.31900002 26069.38429918  1251.33050561
0.32000002 25718.67616428  1238.35431595
0.32100002 25385.05751441  1716.53767040
0.32200002 25067.56754568  1457.42844612
0.32300002 24765.20827510  1444.30701499
0.32400002 24478.64711326  1551.33433426
0.32500002 24206.94670437  1657.20764985
0.32600002 23950.61894375  1174.77791482
0.32700002 23708.60967715  1749.69547703
0.32800002 23481.46104724  1390.57218907
0.32900002 23267.05173227  1727.57867293
0.33000002 23067.71198333  1374.37434505
0.33100002 22879.45912190  1367.27654187
0.33200002 22706.70258541  1247.61983264
0.33300002 22545.25435565  1355.42075605
0.33400002 22397.06468000  1800.72408555
0.33500002 22260.37311185  1121.92285797
0.33600002 22135.61998424  1230.85120751
0.33700002 22021.55226104  1228.14202776
0.33800002 21920.29119143  1114.64685987
0.33900002 21828.63569678  1224.58652058
0.34000002 21748.64476901  1557.42052567
0.34100002 21678.67410796  1334.53924129
0.34200002 21619.72246789  1557.26868311
0.34300002 21569.50394299  1780.77832987
0.34400002 21529.69982684  1448.41062445
0.34500002 21498.96896892  1562.11515926
0.34600002 21478.67482937  1900.54063229
0.34700002 21465.04248774  1344.57032511
0.34800002 21461.61859066  1685.27367965
0.34900002 21466.24851919  1577.76934089
0.35000002 21479.21473510  1357.05685124
0.35100002 21500.09717038  1135.20518436
0.35200002 21528.19883946  1253.91000079
0.35300002 21563.98151900  1145.04747289
0.35400002 21607.42674419  1265.65508149
0.35500002 21657.67971605  1272.17216678
0.35600002 21714.19159540  1627.91302101
0.35700002 21777.52861454  1286.39867619
0.35800002 21847.78600685  1411.80399863
0.35900002 21923.82934597  1539.05289299
0.36000002 22006.57480776  1787.48412343
0.36100002 22094.09743409  1199.70954750
0.36200002 22188.50228220  1933.06241039
0.36300002 22286.31955203  1946.93296829
0.36400002 22390.31702412  1593.63088968
0.36500002 22498.65681933  1852.76447683
0.36600002 22612.54812815  1369.30291676
0.36700002 22730.44998848  1505.66507856
0.36800002 22854.28774864  1897.47733021
0.36900002 22981.32952541  1530.55661889
0.37000002 23111.46770063  1414.76856231
0.37100002 23246.00715754  1297.12726084
0.37200002 23384.68626839  1439.21058456
0.37300002 23526.31459009  1583.79157323
0.37400002 23672.29860679  1997.35028956
0.37500002 23820.50007474  1880.86677500
0.37600002 23972.67942002  1762.35161105
0.37700002 24126.46676273  1641.56487630
0.37800002 24284.17837225  1794.72228762
0.37900002 24444.01115666  1671.97044232
0.38000002 24606.45204876  1687.51056145
0.38100002 24770.69834602  1561.29719071
0.38200002 24937.32679668  1575.91444157
0.38300002 25105.66058584  1879.91195373
0.38400002 25276.62784227  1459.72532704
0.38500002 25448.00304277  2062.81522437
0.38600002 25622.41430002  1636.11934264
0.38700002 25797.12717675  1801.67144738
0.38800002 25973.16754068  2121.74815692
0.38900002 26150.43812471  1835.76084332
0.39000002 26329.55055045  1544.22821294
0.39100002 26508.71151941  1714.58354231
0.39200002 26689.15872183  1887.99117743
0.39300002 26870.00424825  1746.81905894
0.39400002 27052.21192923  1763.12799602
0.39500002 27234.03752091  2264.78266754
0.39600002 27416.27220199  1632.63908698
0.39700002 27598.29382466  2471.42732909
0.39800002 27781.64003240  1662.73123472
0.39900002 27964.03634321  1677.84226009
0.40000002 28146.52334728  1693.01345955
0.40100002 28328.37457715  2049.84128152
0.40200002 28511.41151324  2240.56937993
0.40300002 28692.87877512  2608.18280423
0.40400002 28873.85788589  1929.49564464
0.40500002 29054.41523767  2477.17956053
0.40600002 29234.59151569  2141.72627592
0.40700002 29413.81341372  1980.13801283
0.40800002 29592.63025902  2360.16033814
0.40900002 29769.58202241  2196.99525735
0.41000002 29946.48720145  1846.20102345
0.41100002 30121.89036410  2978.45266033
0.41200002 30295.67275772  2815.22552440
0.41300002 30468.62869010  1892.10193131
0.41400002 30640.20727052  2288.82359156
0.41500002 30810.90713495  2307.12083558
0.41600002 30978.86162032  2325.27346340
0.41700002 31146.26899869  2343.44539050
0.41800002 31312.76166656  1968.00716400
0.41900002 31475.67838337  2181.26461533
0.42000002 31637.71612484  2197.71405475
0.42100002 31798.59071981  2817.99124312
0.42200002 31957.36418961  2230.46433930
0.42300002 32113.87003301  2859.41912323
0.42400002 32268.33751486  3291.37058248
0.42500002 32421.23741168  2486.06060253
0.42600002 32570.79020878  2086.15921173
0.42700002 32719.61890430  3150.89944979
0.42800002 32865.63335719  2326.39396743
0.42900002 33010.05248286  2980.80788045
0.43000002 33152.15277118  2571.94413387
0.43100002 33290.50024686  2588.66942187
0.43200002 33427.62143025  2822.46134921
0.43300002 33561.79833087  2184.87317488
0.43400002 33693.98323719  2638.23901249
0.43500002 33823.38615038  2433.25451497
0.43600002 33951.08141358  2893.14153976
0.43700002 34075.20365919  4253.60787435
0.43800002 34196.16134781  2702.18079776
0.43900002 34315.62492168  2264.83135216
0.44000002 34431.59400972  2505.41505685
0.44100002 34545.57540546  2977.48328530
0.44200002 34656.57650511  2763.51554148
0.44300002 34765.10340908  3009.96279580
0.44400002 34870.29546919  2560.35156616
0.44500002 34971.88125464  3509.42845022
0.44600002 35071.50281920  2351.54437547
0.44700002 35168.37431370  2835.97783906
0.44800002 35261.52070924  2612.34988555
0.44900002 35352.92449344  4534.01278116
0.45000002 35441.20318810  4075.91576581
0.45100002 35525.18670982  2649.46855038
0.45200002 35607.23835553  2661.46315702
0.45300002 35685.76200855  3645.30076193
0.45400002 35761.91605996  2684.82597544
0.45500002 35834.83108212  2941.32307462
0.45600002 35904.39173625  2953.49540420
0.45700002 35971.06496947  2965.45473663
0.45800002 36034.03823527  2729.03801509
0.45900002 36094.15179387  3237.64556936
0.46000002 36152.15493393  2749.91379538
0.46100002 36205.76929995  2509.05993140
0.46200002 36257.06684689  3021.66409423
0.46300002 36304.72630352  3284.85179163
0.46400002 36348.99545566  2788.87680852
0.46500002 36390.92421626  2543.72572328
0.46600002 36429.15007998  2807.04829246
0.46700002 36464.17676112  3583.69946194
0.46800002 36496.65046207  2824.29342987
0.46900002 36525.34668615  5150.07412684
0.47000002 36550.62262919  3356.99209449
0.47100002 36573.23392686  3884.07762713
0.47200002 36592.44666737  2855.85763551
0.47300002 36608.97036608  2863.18770804
0.47400002 36621.25520999  3392.04392460
0.47500002 36631.38956501  2877.02947280
0.47600002 36638.64301916  3670.09304518
0.47700002 36641.77198575  3415.37972867
