# SAXS profile: number of points = 501, q_min = 0, q_max = 0.5, delta_q = 0.001
#    q    intensity    error
0.00000000 1664650.74656091 299.63713438
0.00100000 1664582.46718984 798.99960323
0.00200000 1664377.58031577 898.76392183
0.00300000 1664036.24333897 1198.10613788
0.00400000 1663558.34273044 1372.43568490
0.00500000 1662944.31898839 1496.64994633
0.00600000 1662193.90135110 2268.89476772
0.00700000 1661307.72854571 2192.92629282
0.00800000 1660285.30651723 2465.52378427
0.00900000 1659127.95083482 3235.29964243
0.01000000 1657834.78997881 3829.59853021
0.01100000 1656407.15080519 4472.29950189
0.01200000 1654844.36965704 5163.11465970
0.01300000 1653147.88307529 4860.25499060
0.01400000 1651317.01773469 6687.83421830
0.01500000 1649353.42972497 4354.29324837
0.01600000 1647255.98325673 4200.50294508
0.01700000 1645026.86040195 4441.57272233
0.01800000 1642665.58361968 6086.07626117
0.01900000 1640172.84843111 5412.57064405
0.02000000 1637549.35200384 7221.59296901
0.02100000 1634796.60262865 7013.27774325
0.02200000 1631912.87287475 7319.12956737
0.02300000 1628901.13590972 7036.85322744
0.02400000 1625761.07537970 7925.58560386
0.02500000 1622494.13314023 6960.50014906
0.02600000 1619100.55721411 8524.56482363
0.02700000 1615581.08890177 7463.98497258
0.02800000 1611935.88252814 7713.11355162
0.02900000 1608167.49009348 7236.75403769
0.03000000 1604275.96241994 9697.84863859
0.03100000 1600261.83562816 8449.38288090
0.03200000 1596125.95245178 11061.15335995
0.03300000 1591871.05450639 12989.66840360
0.03400000 1587495.23244627 10001.22042587
0.03500000 1583001.78333253 10257.85202968
0.03600000 1578390.45264772 10512.08090044
0.03700000 1573662.96563110 9866.86725083
0.03800000 1568820.83979810 11930.88303882
0.03900000 1563864.93826176 9383.19006411
0.04000000 1558794.50442654 10545.24531110
0.04100000 1553613.43175187 17617.97713295
0.04200000 1548321.99080360 14980.01595599
0.04300000 1542920.07573579 13238.25486431
0.04400000 1537411.56225049 12453.03423257
0.04500000 1531796.00054185 11626.33218433
0.04600000 1526073.69787487 20441.75813331
0.04700000 1520247.76116586 10945.78438946
0.04800000 1514318.54542151 13356.29019206
0.04900000 1508288.64760860 14705.81499870
0.05000000 1502157.55195100 14938.95754980
0.05100000 1495928.72245356 12835.06903656
0.05200000 1489600.33937488 15395.02022487
0.05300000 1483177.65961323 13215.11356321
0.05400000 1476659.21400294 13400.68299200
0.05500000 1470048.90618693 13583.25252682
0.05600000 1463345.09592036 17516.24161555
0.05700000 1456552.65788552 17740.81220116
0.05800000 1449670.63253661 14112.54426669
0.05900000 1442700.76821239 14282.73827239
0.06000000 1435645.65694690 14449.77421225
0.06100000 1428506.83990359 14613.62565513
0.06200000 1421284.91647292 18803.60032388
0.06300000 1413983.04749180 20361.35683588
0.06400000 1406599.29072938 16457.21247118
0.06500000 1399139.74258974 16621.78091950
0.06600000 1391602.49588914 15384.16631186
0.06700000 1383990.37317136 14116.70246699
0.06800000 1376306.27990470 15669.24773018
0.06900000 1368551.24280771 24428.64082784
0.07000000 1360724.25623326 15940.88540826
0.07100000 1352830.60975610 16071.62839666
0.07200000 1344868.81685752 20616.83992826
0.07300000 1336843.84235897 17806.76081457
0.07400000 1328755.45559764 16443.34953362
0.07500000 1320605.04154281 18065.87781510
0.07600000 1312393.55581994 16673.96090838
0.07700000 1304126.07377290 16784.10335644
0.07800000 1295801.01089251 15355.24269918
0.07900000 1287419.87554876 24718.46276992
0.08000000 1278987.80074563 18647.64300965
0.08100000 1270503.72622498 20315.35553550
0.08200000 1261968.99822946 17282.66624174
0.08300000 1253386.46832472 22109.73833890
0.08400000 1244757.05788592 19044.78387959
0.08500000 1236084.68553905 17540.04251122
0.08600000 1227368.07432028 17618.86953410
0.08700000 1218611.19548478 24128.50280362
0.08800000 1209812.64894340 19381.19954629
0.08900000 1200978.25746654 19455.84868479
0.09000000 1192106.99690116 22781.16578094
0.09100000 1183201.32816878 22859.45073418
0.09200000 1174262.23036246 18019.05477157
0.09300000 1165293.38111026 21359.82867950
0.09400000 1156292.83226312 23068.04308779
0.09500000 1147265.06495691 18172.67948308
0.09600000 1138210.83150375 24841.45256531
0.09700000 1129133.60076577 19917.91765390
0.09800000 1120033.53394052 21622.24838935
0.09900000 1110912.74546131 19996.43035859
0.10000000 1101771.11973992 23368.56654864
0.10100000 1092611.38827301 18388.65052949
0.10200000 1083435.85359931 21760.81014309
0.10300000 1074245.06086986 26813.15798062
0.10400000 1065042.19247106 21806.73991674
0.10500000 1055829.30670017 23502.76147294
0.10600001 1046603.26068035 25196.97468649
0.10700001 1037371.46471617 20166.50222307
0.10800001 1028131.21289403 16809.94612192
0.10900001 1018886.51861411 18492.79118322
0.11000001 1009638.06243166 20172.56943690
0.11100001 1000387.39794570 20167.81089195
0.11200001 991137.20484994 21839.70933702
0.11300001 981885.94575151 28543.42578684
0.11400001 972638.79962977 25167.03012540
0.11500001 963395.22702218 23468.30883534
0.11600001 954156.83004857 21769.08910270
0.11700001 944926.33000244 25087.79524307
0.11800001 935701.91783919 16702.28002008
0.11900001 926488.20671834 23347.50390901
0.12000001 917284.94806829 16648.72259168
0.12100001 908095.83177550 19941.78540521
0.12200001 898919.12723930 16585.05867891
0.12300001 889758.18642496 24824.25457084
0.12400001 880613.18664618 16511.49802760
0.12500001 871485.99542750 21412.41191662
0.12600001 862379.57104605 24642.49740388
0.12700001 853293.13394487 18021.55183821
0.12800001 844227.46645214 21236.54291947
0.12900001 835185.14760923 17914.72226058
0.13000001 826167.35641035 16234.18931866
0.13100001 817173.79917079 21034.05458215
0.13200001 808208.13729399 19348.50371891
0.13300001 799271.31275203 22491.49580116
0.13400001 790361.98012527 24007.24627814
0.13500001 781483.56942332 20724.94523825
0.13600001 772635.54772200 22228.72575606
0.13700001 763821.16548968 18973.31864542
0.13800001 755038.46341181 18891.06324539
0.13900001 746292.86798253 21941.01135338
0.14000001 737581.63938946 26519.74909494
0.14100001 728907.24037315 21736.01493306
0.14200001 720269.57483816 16994.76141987
0.14300001 711673.30018594 15372.14400908
0.14400001 703112.42344691 27526.85267638
0.14500001 694596.28234711 15211.65930097
0.14600001 686118.93798257 22693.38494432
0.14700001 677686.80867991 21062.50700743
0.14800001 669295.80907366 14958.76203853
0.14900001 660948.89819554 16358.48600215
0.15000001 652647.85902694 14782.47470444
0.15100001 644392.54020483 17630.58073190
0.15200001 636184.83806693 16060.48699485
0.15300001 628024.47408313 17408.83924309
0.15400001 619910.74558382 17295.51061798
0.15500001 611847.93447029 15748.96657651
0.15600001 603832.82879741 14220.26378930
0.15700001 595871.74215576 24007.67362454
0.15800001 587957.36633216 14022.78384888
0.15900001 580097.67548373 13922.34486875
0.16000001 572288.30782927 16584.91594374
0.16100001 564535.05473255 16461.84297307
0.16200001 556833.40563852 13614.57741055
0.16300001 549187.34766854 20265.01408564
0.16400001 541595.62197507 13404.49227670
0.16500001 534059.61285943 15957.70198562
0.16600001 526579.32734940 14509.89405017
0.16700001 519154.89277577 14390.97430721
0.16800001 511786.70542658 18163.31103320
0.16900001 504477.99475056 16723.44631563
0.17000001 497226.04189634 15304.61829225
0.17100001 490032.70768226 17699.98223730
0.17200001 482898.23173473 12531.20970528
0.17300001 475822.32410729 16144.65221938
0.17400001 468807.16924308 13536.80765118
0.17500001 461851.13154962 20727.87976287
0.17600001 454953.44361628 15702.71884804
0.17700001 448118.86099371 13161.25156900
0.17800001 441343.76669630 15405.10490415
0.17900001 434629.68494298 15255.50266207
0.18000001 427977.69130449 13943.51384132
0.18100001 421388.22693755 16105.45879432
0.18200001 414857.52680097 15942.97550807
0.18300001 408391.67672925 13525.93297223
0.18400001 401986.56942844 13386.15339434
0.18500001 395644.71522233 18765.42972951
0.18600001 389365.11480836 13106.03038362
0.18700001 383147.79347430 12965.72194373
0.18800001 376992.82527420 11756.52181163
0.18900001 370902.80890723 12684.87666396
0.19000001 364871.63529699 14635.00198325
0.19100001 358908.62695611 17572.16720606
0.19200001 353005.00770469 12263.39454712
0.19300001 347167.09858633 11112.81935086
0.19400001 341391.30893685 13979.97476157
0.19500001 335679.13916632 11842.76058942
0.19600001 330029.09094638 13653.30413766
0.19700001 324443.16573122 9635.96247759
0.19800001 318920.16678584 10471.74417129
0.19900001 313461.15409187 14105.75260077
0.20000001 308063.35003463 12074.54357526
0.20100001 302730.33449305 9172.72956866
0.20200001 297458.76643282 10869.14383917
0.20300001 292251.16243103 12520.04039030
0.20400001 287106.04590935 10594.21359480
0.20500001 282022.80372921 10457.40605657
0.20600001 277002.71362648 12041.30853051
0.20700001 272044.46966566 8487.78785478
0.20800001 267148.24322509 10050.11738520
0.20900001 262316.33890782 10741.85458606
0.21000001 257543.42617289 8966.37480607
0.21100001 252832.67679909 11256.11130321
0.21200001 248183.10544513 9515.34071260
0.21300001 243594.67663552 10165.20633657
0.21400001 239067.76842151 8480.92948570
0.21500001 234602.39327303 10641.56506197
0.21600001 230195.92642809 10490.02886328
0.21700001 225850.38329432 8862.36945948
0.21800001 221564.71338905 8734.08141475
0.21900001 217337.66884639 10041.00077546
0.22000001 213169.64935079 7773.23163111
0.22100001 209063.08685837 8354.16134587
0.22200001 205014.10115633 10286.58301191
0.22300001 201023.34882710 7429.82332397
0.22400001 197089.02609773 6651.75494534
0.22500001 193215.65277923 9825.01640842
0.22600001 189397.68041439 8383.68871999
0.22700001 185638.05884862 6983.70410414
0.22800001 181934.33181850 7499.33351220
0.22900001 178286.62402605 6765.97770176
0.23000001 174695.22373660 6658.50876761
0.23100001 171160.70360522 7743.31059730
0.23200001 167679.64539816 8790.60582574
0.23300001 164254.67188494 6918.40710700
0.23400001 160884.21702835 6805.40270216
0.23500001 157566.42869797 5577.85183972
0.23600001 154303.37410042 6582.58225046
0.23700001 151093.24199486 6472.83479321
0.23800001 147936.00167963 5833.85650217
0.23900001 144831.30862699 7299.49830006
0.24000001 141778.44523904 5125.29103782
0.24100001 138778.36074566 6548.95115336
0.24200001 135828.63214878 5941.14465122
0.24300001 132929.67777704 6324.79436781
0.24400001 130080.58797583 7648.73893479
0.24500001 127281.70175035 7514.71202682
0.24600001 124532.30545603 5075.31434895
0.24700001 121832.58340055 4532.17231690
0.24800001 119180.31450074 4896.52345290
0.24900001 116575.97804237 6557.39907510
0.25000001 114019.78344122 5151.41405958
0.25100001 111510.30016773 5479.61640948
0.25200001 109048.48566934 5379.90729502
0.25300001 106632.99258973 6906.61925679
0.25400001 104262.30477992 4785.64001581
0.25500001 101937.08174064 6654.45301086
0.25600001 99657.14332137  5762.67458521
0.25700001 97421.37477863  4901.26959701
0.25800001 95229.25937592  3699.65690180
0.25900001 93081.07469114  4356.19450166
0.26000001 90976.38596605  4274.07081491
0.26100001 88911.79168669  7687.31387297
0.26200001 86891.82821300  4456.24762076
0.26300001 84911.95273382  3362.51348737
0.26400001 82973.17867109  5936.73121483
0.26500001 81075.64484478  3558.41022062
0.26600001 79217.40863095  3489.92310238
0.26700001 77399.82153995  4044.91486508
0.26800001 75621.27483659  3356.45044245
0.26900001 73880.88401006  3291.39353840
0.27000001 72179.24897079  3520.90393141
0.27100001 70515.19124931  3452.42392694
0.27200001 68888.72798468  4231.49031671
0.27300001 67298.52398135  3319.16335984
0.27400001 65743.67812690  4339.08296172
0.27500001 64226.89454562  2658.99356003
0.27600001 62743.38434463  2606.98774290
0.27700001 61296.61995479  2811.67609039
0.27800001 59883.23561085  3257.94758760
0.27900001 58504.46309506  2457.18756629
0.28000001 57158.77860530  3613.86394836
0.28100001 55846.12114411  2598.52013982
0.28200001 54566.31865936  3011.24243774
0.28300001 53318.88735262  2498.52317960
0.28400001 52103.23617994  3341.12017818
0.28500001 50918.90746234  3276.63185029
0.28600001 49764.70114573  3427.79277716
0.28700001 48641.39273845  2311.43909234
0.28800001 47547.24814974  2473.40796582
0.28900001 46484.09370085  2830.88144038
0.29000001 45448.44772529  2578.97228825
0.29100001 44443.01374374  2530.58532235
0.29200001 43464.72559895  2292.32973660
0.29300001 42514.27315383  2249.85544180
0.29400001 41590.96908020  2024.44051581
0.29500001 40695.63887386  1806.88645153
0.29600001 39825.56790823  1774.22913430
0.29700001 38981.37744719  2439.45471612
0.29800001 38163.52932902  1711.63437143
0.29900001 37370.47320075  2354.33992310
0.30000001 36602.19452136  1817.84807696
0.30100001 35859.11379927  1949.30151841
0.30200001 35138.86722889  1916.47390939
0.30300001 34442.58663017  2355.87303703
0.30400001 33770.11785570  1853.97955805
0.30500001 33119.28084889  2280.26259440
0.30600001 32491.03330717  1496.21215463
0.30700001 31885.12882463  1620.40232358
0.30800001 31300.67394330  1595.86493655
0.30900001 30737.36512529  2572.71758279
0.31000001 30195.57089314  1549.48579374
0.31100001 29672.58358638  1388.67697759
0.31200001 29170.84051423  2054.35654048
0.31300001 28687.98369790  2026.80614422
0.31400001 28226.00533600  1467.04669680
0.31500001 27782.07841944  1316.87057943
0.31600002 27356.59126899  1430.88657407
0.31700002 26949.01900207  1671.10874744
0.31800002 26559.68479178  1525.05717295
0.31900002 26188.11242682  1508.43534721
0.32000002 25833.38777035  1368.26544804
0.32100002 25496.01927088  1847.18668364
0.32200002 25175.09105897  1585.65318543
0.32300002 24869.58025537  1571.26015493
0.32400002 24580.29009500  1437.94703865
0.32500002 24306.03721934  1307.42180394
0.32600002 24047.47420691  1651.34013198
0.32700002 23803.57465204  1522.47670684
0.32800002 23574.85387972  2443.18009752
0.32900002 23359.11023426  1156.27601135
0.33000002 23158.77107679  1839.73286146
0.33100002 22969.66602886  1372.66730689
0.33200002 22796.36012299  1480.28171469
0.33300002 22634.65904603  1587.59506067
0.33400002 22486.47586064  1242.94001206
0.33500002 22349.98864002  1126.43948080
0.33600002 22225.70548973  1348.21135885
0.33700002 22112.42047969  1569.53967998
0.33800002 22012.00591473  1231.24160915
0.33900002 21921.59255514  1453.40165524
0.34000002 21842.90774186  1340.71774069
0.34100002 21774.56547364  1340.44231404
0.34200002 21717.48355665  1229.10104010
0.34300002 21669.21336317  1229.94460874
0.34400002 21631.74875058  1231.38735595
0.34500002 21603.32724053  1233.33401057
0.34600002 21585.61996880  1235.88472985
0.34700002 21574.72867876  1238.82097941
0.34800002 21574.29877219  1581.18043190
0.34900002 21581.99906190  1359.66600530
0.35000002 21598.25309905  1250.86288747
0.35100002 21622.54592756  1255.83752695
0.35200002 21654.15851356  1605.22284664
0.35300002 21693.71652115  1267.13004202
0.35400002 21741.02518863  1157.70964613
0.35500002 21795.26285351  1978.57405555
0.35600002 21855.94110474  1170.38570159
0.35700002 21923.48921113  1295.02056904
0.35800002 21998.19387259  1539.98363499
0.35900002 22078.68555643  1311.47398417
0.36000002 22166.00438872  1320.31811395
0.36100002 22258.31648555  1329.48930665
0.36200002 22357.47237479  1339.10087132
0.36300002 22460.26612819  1348.96364756
0.36400002 22569.24544670  1977.06599478
0.36500002 22682.67682882  1245.27901689
0.36600002 22801.69907836  1757.32703121
0.36700002 22924.89992245  1645.09089636
0.36800002 23054.05049693  1403.64593099
0.36900002 23186.40594383  1544.21470901
0.37000002 23322.02409217  1557.44484265
0.37100002 23462.03175572  1571.01772078
0.37200002 23606.29326981  1452.84938811
0.37300002 23753.48481995  1732.34172998
0.37400002 23905.13353546  1479.13020757
0.37500002 24059.02772027  1628.31507324
0.37600002 24216.90158218  1917.25218908
0.37700002 24376.45799754  1382.14523394
0.37800002 24539.87296079  1813.61939708
0.37900002 24705.55095055  1689.85976507
0.38000002 24873.79553949  1847.99872715
0.38100002 25043.88464102  1578.51612370
0.38200002 25216.32182948  2173.01663660
0.38300002 25390.48474905  1754.99038900
0.38400002 25567.32046832  1476.51282699
0.38500002 25744.66974326  2086.86302825
0.38600002 25924.80957926  2257.40290106
0.38700002 26105.36639825  1671.26563599
0.38800002 26287.20990160  1533.85877043
0.38900002 26470.31795600  1858.21640855
0.39000002 26655.15462298  2657.65231759
0.39100002 26840.05473586  1578.19529324
0.39200002 27026.35835826  1593.20390070
0.39300002 27212.82902961  1608.27827185
0.39400002 27400.70492233  1948.19021228
0.39500002 27588.10091352  2130.35325347
0.39600002 27775.91506864  2811.89489520
0.39700002 27963.48235378  2504.12996342
0.39800002 28152.39422042  2358.88922349
0.39900002 28340.25529568  1870.45693813
0.40000002 28528.01573713  1887.55625068
0.40100002 28715.27717633  2077.83755493
0.40200002 28903.57782941  1921.94349883
0.40300002 29090.24587830  1939.15588212
0.40400002 29276.40879071  1956.39611013
0.40500002 29462.06873103  2332.51209195
0.40600002 29647.27967617  2533.95311398
0.40700002 29831.41483918  2373.38747706
0.40800002 30015.05104310  2209.70816249
0.40900002 30196.83642757  2228.52663395
0.41000002 30378.43089607  2060.11338883
0.41100002 30558.52212676  2077.36843261
0.41200002 30736.78207901  2665.80123602
0.41300002 30914.25791744  1919.77550764
0.41400002 31090.11985137  2128.89605770
0.41500002 31265.11957748  2536.22662030
0.41600002 31437.33420287  2556.32695183
0.41700002 31608.77511739  2774.61841128
0.41800002 31779.29334989  3794.92449520
0.41900002 31946.13491357  2012.60659492
0.42000002 32111.96542219  2230.65778375
0.42100002 32276.51608933  3064.65534790
0.42200002 32438.91062139  2264.07387410
0.42300002 32598.89332853  2487.94765673
0.42400002 32756.72880824  2088.24156048
0.42500002 32912.90984088  2103.13503849
0.42600002 33065.59795593  2117.85164943
0.42700002 33217.43907688  2132.55968979
0.42800002 33366.48438701  2361.84670925
0.42900002 33513.69857039  2377.79702625
0.43000002 33658.51849167  3046.43265304
0.43100002 33799.50660239  2190.20813162
0.43200002 33939.06363797  2645.21074529
0.43300002 34075.63713611  3327.48612402
0.43400002 34210.06648058  2455.42763800
0.43500002 34341.51424759  2695.12216587
0.43600002 34471.25499315  3389.38630782
0.43700002 34597.32772688  2727.65344725
0.43800002 34719.98266109  2743.57315990
0.43900002 34841.11337034  3909.17310541
0.44000002 34958.61676046  2543.76386912
0.44100002 35073.96660531  2790.48491536
0.44200002 35186.24496960  2338.12608903
0.44300002 35295.89380473  2820.84796656
0.44400002 35402.10067457  2835.70839842
0.44500002 35504.58456862  3800.41091233
0.44600002 35604.99169385  2864.77776745
0.44700002 35702.58188162  3598.82042422
0.44800002 35796.12364006  3857.39046626
0.44900002 35887.97012326  2664.68190794
0.45000002 35976.54145508  3650.71971717
0.45100002 36060.69442446  2933.89823742
0.45200002 36142.75551414  2701.49038893
0.45300002 36221.08602858  3699.98411317
0.45400002 36297.03136422  3963.63601282
0.45500002 36369.58794661  2487.67993345
0.45600002 36438.75843583  2497.87700916
0.45700002 36504.74081440  3009.45097537
0.45800002 36566.96253719  3021.16258801
0.45900002 36626.25988305  3032.65446205
0.46000002 36683.21804166  2536.64464780
0.46100002 36735.69046483  3054.94016384
0.46200002 36785.78799827  2810.25040732
0.46300002 36832.10738134  3588.92071334
0.46400002 36874.93645326  2829.22963347
0.46500002 36915.27243118  4128.60426438
0.46600002 36951.72594564  2847.31537769
0.46700002 36984.91931891  3634.87804294
0.46800002 37015.43643919  3124.84329230
0.46900002 37042.09992913  3917.20225317
0.47000002 37065.10270289  3142.37955609
0.47100002 37085.38068889  3413.33860039
0.47200002 37102.16413225  2895.63853695
0.47300002 37116.27475653  3166.76071232
0.47400002 37125.80644992  3438.77798541
0.47500002 37133.23782678  3711.83862910
0.47600002 37137.63922523  3188.63785501
0.47700002 37137.67616810  3195.32580896
