# SAXS profile: number of points = 501, q_min = 0, q_max = 0.5, delta_q = 0.001
#    q    intensity    error
0.00000000 1682732.95097189 353.37391970
0.00100000 1682664.02631223 656.23898585
0.00200000 1682457.20189483 832.81634131
0.00300000 1682112.63277244 1816.68170811
0.00400000 1681630.20666615 1639.58951380
0.00500000 1681010.38718980 2269.36411253
0.00600000 1680252.86246347 2999.25148160
0.00700000 1679358.30924825 3224.36808776
0.00800000 1678326.20469760 4304.90689680
0.00900000 1677157.91939182 3522.03178128
0.01000000 1675852.50122126 3594.70377034
0.01100000 1674411.32574173 3013.94051756
0.01200000 1672833.78374515 3588.22862345
0.01300000 1671121.20342155 3509.35468196
0.01400000 1669272.97432212 4507.03723047
0.01500000 1667290.78193926 4801.79766580
0.01600000 1665173.47380042 4246.19254801
0.01700000 1662923.20843286 6285.85000985
0.01800000 1660539.51764178 5679.04540588
0.01900000 1658023.12637210 6466.29048463
0.02000000 1655374.72538040 6778.75980707
0.02100000 1652595.84074821 7089.63647824
0.02200000 1649684.76047881 8537.11902334
0.02300000 1646644.41579984 6520.71218338
0.02400000 1643474.43151057 7395.63527902
0.02500000 1640176.48831503 9595.03289485
0.02600000 1636750.59346658 7954.60824808
0.02700000 1633197.68087887 8917.25974602
0.02800000 1629517.79185306 9214.92353552
0.02900000 1625713.37502468 8047.28157586
0.03000000 1621784.88587863 8295.43007257
0.03100000 1617732.36927769 10871.16202176
0.03200000 1613557.06735145 8785.81863639
0.03300000 1609261.53864971 10669.40449311
0.03400000 1604843.96346701 10110.51743635
0.03500000 1600307.52512791 9505.82713822
0.03600000 1595652.19445147 10627.04410616
0.03700000 1590879.38030069 11788.41675321
0.03800000 1585990.87087608 13917.07053601
0.03900000 1580987.46286703 12331.70278144
0.04000000 1575868.40033496 12599.06844451
0.04100000 1570637.66626624 11874.02130753
0.04200000 1565295.38446412 15144.23354727
0.04300000 1559841.56679493 11324.45030059
0.04400000 1554280.05771613 10491.39087682
0.04500000 1548610.37768800 12822.49452305
0.04600000 1542832.97759971 14140.06489703
0.04700000 1536950.89025040 13279.25630935
0.04800000 1530964.51818320 13503.10767865
0.04900000 1524876.36337872 14867.54523499
0.05000000 1518686.18750901 15103.33483808
0.05100000 1512397.00428791 12976.36690128
0.05200000 1506007.38576300 13170.03520224
0.05300000 1499522.39922980 13360.74519999
0.05400000 1492940.81247879 12316.76227733
0.05500000 1486266.37994728 14981.56580875
0.05600000 1479497.33560966 15179.64337170
0.05700000 1472638.94776896 16655.54727672
0.05800000 1465689.83722264 16862.76236461
0.05900000 1458651.98514697 13127.86847947
0.06000000 1451528.07822054 14609.63078983
0.06100000 1444319.73958738 14775.39162645
0.06200000 1437027.30269923 14937.89950981
0.06300000 1429653.82445825 17842.08056345
0.06400000 1422197.80268119 20799.64383694
0.06500000 1414664.93731894 16806.22024151
0.06600000 1407053.84299064 15554.98096206
0.06700000 1399366.90125878 15700.89736691
0.06800000 1391607.32562081 14403.13649437
0.06900000 1383775.81283159 15982.61138649
0.07000000 1375871.58536888 16118.33637739
0.07100000 1367900.02761862 19205.31728730
0.07200000 1359859.47162353 23824.73905896
0.07300000 1351755.23746965 16504.93222285
0.07400000 1343586.58596562 22673.02470072
0.07500000 1335355.47276038 18267.66372361
0.07600000 1327062.28641390 22991.35518997
0.07700000 1318712.75583105 20057.62195666
0.07800000 1310304.71749676 17079.82279355
0.07900000 1301840.01696776 15622.08093635
0.08000000 1293323.84281033 23570.82814095
0.08100000 1284754.91169771 17382.73477084
0.08200000 1276134.63090534 19065.45228038
0.08300000 1267466.37822018 17567.08482659
0.08400000 1258750.37320149 24073.60201746
0.08500000 1249990.57385376 19349.85499164
0.08600000 1241186.37266051 21056.72780083
0.08700000 1232341.11176816 17893.59378312
0.08800000 1223453.95835529 24499.66666666
0.08900000 1214530.33233336 19675.39230795
0.09000000 1205569.16543587 26329.63180997
0.09100000 1196573.26884817 23117.79664025
0.09200000 1187543.54125871 18222.85649685
0.09300000 1178483.50700260 18278.28005255
0.09400000 1169391.50565133 19996.59568643
0.09500000 1160271.60861071 25061.86792397
0.09600000 1151124.79128725 21773.52645072
0.09700000 1141954.82112167 20144.08399162
0.09800000 1132761.77697037 20185.81581470
0.09900000 1123547.27742789 18538.53094929
0.10000000 1114311.75007859 18570.00618835
0.10100000 1105057.69749219 23670.33699354
0.10200000 1095787.66570488 22008.89630090
0.10300000 1086502.31354300 23729.21164402
0.10400000 1077204.09722227 23752.35146118
0.10500000 1067895.91900664 16979.54591108
0.10600001 1058574.26698343 20388.14134144
0.10700001 1049246.35351421 18697.57089949
0.10800001 1039910.15183449 17002.53178266
0.10900001 1030569.25808142 25506.59033800
0.11000001 1021224.18403207 27205.41354316
0.11100001 1011876.91108333 16999.53290643
0.11200001 1002529.68926914 18692.16693640
0.11300001 993181.58039692 16983.40582438
0.11400001 983837.19312385 18668.31161851
0.11500001 974496.49852244 20347.48784727
0.11600001 965160.79792409 16938.57280123
0.11700001 955832.76693633 21993.71300300
0.11800001 946510.80007464 20274.26229248
0.11900001 937199.60889597 32052.22813395
0.12000001 927898.62232760 25262.04118283
0.12100001 918612.07530013 18491.66194690
0.12200001 909337.40585327 28521.36907827
0.12300001 900078.74458700 25112.19815712
0.12400001 890835.98363965 18373.49302828
0.12500001 881611.23736994 21661.18912287
0.12600001 872407.06071777 19943.22634780
0.12700001 863223.07369524 18231.27217562
0.12800001 854059.60407056 24789.08117644
0.12900001 844920.05361650 24713.91273310
0.13000001 835804.93139990 21350.63797897
0.13100001 826714.13249596 19642.72871402
0.13200001 817651.48307944 17943.36264203
0.13300001 808617.42416176 21129.17428944
0.13400001 799611.02678132 16192.12405571
0.13500001 790636.17693823 19354.77452399
0.13600001 781691.60124774 17670.13947937
0.13700001 772780.74159432 22395.18694741
0.13800001 763901.97886855 15927.35701048
0.13900001 755060.37688495 19027.52239480
0.14000001 746253.18609437 18939.90675629
0.14100001 737483.50595579 18850.07930126
0.14200001 728750.60375992 17194.87130672
0.14300001 720059.31494013 17108.61012995
0.14400001 711403.74791136 18567.63869632
0.14500001 702792.95696322 21547.63307694
0.14600001 694221.58070637 19899.86254971
0.14700001 685695.44799363 18266.92759632
0.14800001 677211.16029676 25730.63924941
0.14900001 668771.00929402 18056.81810287
0.15000001 660377.03420822 16453.29458361
0.15100001 652029.13534563 25272.65047849
0.15200001 643729.42296142 17728.30914490
0.15300001 635477.23383171 19083.38223249
0.15400001 627271.95368760 20417.70305606
0.15500001 619118.04816157 15936.09931175
0.15600001 611012.58615400 21584.02062455
0.15700001 602961.20038650 15719.19923597
0.15800001 594956.87903186 15608.69445811
0.15900001 587008.06128603 18314.65237659
0.16000001 579109.58509712 13985.49714025
0.16100001 571268.01955286 16658.17623650
0.16200001 563478.39823610 17910.16173340
0.16300001 555744.86676838 15038.45680469
0.16400001 548066.04618970 14921.09881193
0.16500001 540443.47304402 14802.74742553
0.16600001 532876.98801451 17353.13993399
0.16700001 525367.23193568 17211.03133083
0.16800001 517913.61814153 13129.11083980
0.16900001 510520.68976804 20829.24512605
0.17000001 503184.84762679 16778.69953640
0.17100001 495907.97928254 16632.75441056
0.17200001 488690.49758674 17754.12661573
0.17300001 481532.55651358 13824.80035037
0.17400001 474435.46515873 14944.71785828
0.17500001 467398.16876057 16041.10590945
0.17600001 460419.88214874 13446.56329322
0.17700001 453505.09802099 14530.30402687
0.17800001 446650.81033515 11992.57482393
0.17900001 439857.79908771 19001.85781811
0.18000001 433127.59338724 11759.41471592
0.18100001 426460.25075409 16299.31155374
0.18200001 419852.73351310 11524.95807935
0.18300001 413310.62523407 14829.58593394
0.18400001 406829.45446560 12418.46968422
0.18500001 400412.52566030 14522.96299179
0.18600001 394058.43392263 13264.00751247
0.18700001 387767.28161822 10935.03785826
0.18800001 381538.94146213 11898.29245165
0.18900001 375376.34860904 11768.04908490
0.19000001 369273.44967370 12695.62179963
0.19100001 363239.01566077 16738.05463252
0.19200001 357265.17454400 13445.67547929
0.19300001 351357.16409657 10224.49395834
0.19400001 345512.15939161 11116.85425374
0.19500001 339731.31175215 12984.53134875
0.19600001 334013.53833804 11844.12062918
0.19700001 328360.25705061 11702.76011433
0.19800001 322770.87782187 16379.00896912
0.19900001 317246.19575124 11420.86358679
0.20000001 311783.03874105 12220.33678100
0.20100001 306385.77219924 10211.83827004
0.20200001 301050.55241325 12833.78565595
0.20300001 295779.79687617 9955.94843342
0.20400001 290572.50374626 9828.61540377
0.20500001 285427.63321271 13229.57142473
0.20600001 280346.58412539 10445.71421826
0.20700001 275328.23136133 11167.31359188
0.20800001 270372.37353828 13561.87889775
0.20900001 265481.77834852 12544.01461994
0.21000001 260650.91733659 9899.52230842
0.21100001 255882.90282759 9764.49203350
0.21200001 251176.77447220 12037.64748565
0.21300001 246532.44214967 9496.43012055
0.21400001 241950.51246197 8583.19483537
0.21500001 237430.75967812 12308.41116363
0.21600001 232970.38165786 12133.09805038
0.21700001 228571.85172532 8969.15988576
0.21800001 224233.83385392 8102.68996941
0.21900001 219955.20065020 7984.37416112
0.22000001 215736.40043259 8581.99441499
0.22100001 211579.75725885 9159.28812482
0.22200001 207481.34011558 8328.30138604
0.22300001 203442.13004327 10253.48383902
0.22400001 199459.72100953 6731.76590239
0.22500001 195539.07015180 9280.28470824
0.22600001 191674.70702303 9789.78612414
0.22700001 187869.16233949 8352.66335260
0.22800001 184120.31339620 7589.43967710
0.22900001 180428.09562276 6847.24655270
0.23000001 176793.06199791 7351.05586552
0.23100001 173215.63126816 6630.69467853
0.23200001 169692.36784105 7116.89824384
0.23300001 166225.77659270 5834.52503434
0.23400001 162814.43849506 6313.13015123
0.23500001 159456.44111167 6773.70993879
0.23600001 156153.90961420 7216.65327415
0.23700001 152905.12048949 7096.32697756
0.23800001 149709.73882206 5903.80382969
0.23900001 146567.72533384 6859.36987007
0.24000001 143478.02828189 7780.09645159
0.24100001 140441.81284113 8156.86087564
0.24200001 137456.84671018 6012.36275950
0.24300001 134523.28746643 6400.61832042
0.24400001 131640.11029345 6289.10656677
0.24500001 128807.96946881 5228.31572806
0.24600001 126025.66241856 5603.10121618
0.24700001 123294.12508583 7338.46667226
0.24800001 120610.40635624 4504.79889051
0.24900001 117975.55079951 6193.71670998
0.25000001 115389.20842572 6516.60585413
0.25100001 112850.28058790 5972.03713124
0.25200001 110359.70491991 4188.15099985
0.25300001 107915.97781286 4111.59894919
0.25400001 105517.96502628 5246.88105917
0.25500001 103165.70064037 6338.50094723
0.25600001 100859.59161823 7776.27488168
0.25700001 98598.16913995  5342.04905675
0.25800001 96380.97560764  3744.40107952
0.25900001 94208.43886646  6613.43272134
0.26000001 92079.83428134  5407.38852402
0.26100001 89992.03589872  4597.69333161
0.26200001 87949.48539079  4857.45030797
0.26300001 85947.64986187  4084.23251469
0.26400001 83987.24040527  3672.34226049
0.26500001 82068.87213844  3929.45778393
0.26600001 80190.32954888  3211.62285041
0.26700001 78352.96891053  4724.68424888
0.26800001 76555.30875579  3089.00685447
0.26900001 74796.28728129  3635.09973389
0.27000001 73076.39620869  5049.94459898
0.27100001 71394.84375060  4951.94659688
0.27200001 69751.35503152  4284.47718557
0.27300001 68144.71067899  3360.89728974
0.27400001 66573.91960384  3295.40917634
0.27500001 65041.67936040  3769.81591414
0.27600001 63543.25976259  3960.33385213
0.27700001 62081.98362081  3624.34637531
0.27800001 60654.76305917  3553.76273583
0.27900001 59262.42292119  3733.53282073
0.28000001 57903.89126701  3172.84387214
0.28100001 56578.73351404  3111.26470319
0.28200001 55286.98177632  3051.01223373
0.28300001 54027.96164729  2531.75040262
0.28400001 52801.16864694  3160.15009309
0.28500001 51606.47170136  2656.70128893
0.28600001 50441.87150836  2605.82720546
0.28700001 49308.90443467  3195.21715860
0.28800001 48205.44123751  2298.67657421
0.28900001 47133.66949826  2870.44060831
0.29000001 46089.53785828  3017.71263411
0.29100001 45075.94665599  2566.62452408
0.29200001 44090.15500261  2131.53864450
0.29300001 43132.52949222  2663.00249691
0.29400001 42202.39233586  1867.45594926
0.29500001 41300.64245450  2750.62291768
0.29600001 40424.57404237  2881.46377414
0.29700001 39574.73174781  1945.88965215
0.29800001 38751.50573621  1738.00511454
0.29900001 37953.65321968  1878.70592331
0.30000001 37180.74859489  2518.06631779
0.30100001 36433.54732558  2640.70363517
0.30200001 35709.33908489  2434.48430736
0.30300001 35009.52711791  1915.72141458
0.30400001 34333.88989496  2356.16330559
0.30500001 33680.11749614  1855.10095951
0.30600001 33049.40920812  1978.50297591
0.30700001 32441.36020745  1798.54909505
0.30800001 31854.84098839  2067.06072960
0.30900001 31289.90060393  2036.97262575
0.31000001 30746.73810380  1434.33540045
0.31100001 30222.69765416  1555.86454890
0.31200001 29720.10603666  1674.43085338
0.31300001 29236.80784499  1514.75908617
0.31400001 28774.56276898  1631.51778625
0.31500001 28330.48645180  2014.29768209
0.31600002 27905.44797440  1592.28493681
0.31700002 27498.33650593  1705.17192747
0.31800002 27109.75507649  1426.92202601
0.31900002 26739.11520593  1540.17310879
0.32000002 26385.64426545  1270.46883154
0.32100002 26049.70012962  1887.30086375
0.32200002 25730.32875114  1371.29793572
0.32300002 25426.62761130  1359.30757646
0.32400002 25139.31369832  1593.20408107
0.32500002 24867.35085468  1337.61486581
0.32600002 24611.13904480  1327.89407004
0.32700002 24369.85739238  1318.89674453
0.32800002 24143.90966566  1429.80239811
0.32900002 23931.13659891  1776.88697661
0.33000002 23733.89429659  1531.90427992
0.33100002 23548.02314224  1289.96076882
0.33200002 23378.18486584  1401.28846722
0.33300002 23219.96868775  1512.31663225
0.33400002 23075.38985220  1275.49223448
0.33500002 22942.83884252  1965.74252512
0.33600002 22822.39484571  1499.77374831
0.33700002 22713.26029794  2072.81223295
0.33800002 22616.93281612  1380.08530580
0.33900002 22530.95336320  1723.61801391
0.34000002 22456.52772183  1378.38173684
0.34100002 22392.78471007  1263.62490103
0.34200002 22340.30562956  1494.23141280
0.34300002 22296.70120731  1380.61180414
0.34400002 22264.05764335  1497.81454889
0.34500002 22240.37062993  1500.55787747
0.34600002 22227.58789879  1156.94600493
0.34700002 22221.69593157  1275.96984082
0.34800002 22226.37919988  1163.55100622
0.34900002 22239.10332449  1284.30827782
0.35000002 22260.50980168  1406.41907588
0.35100002 22290.04613686  1765.37173765
0.35200002 22326.77917519  1300.42331465
0.35300002 22371.67426744  1425.52315184
0.35400002 22424.30216207  1313.50356136
0.35500002 22483.71781862  1440.75670606
0.35600002 22549.87017486  1569.80928658
0.35700002 22622.76981855  2065.23275455
0.35800002 22702.88992043  1344.80574813
0.35900002 22788.73232675  1968.94656629
0.36000002 22881.40135725  1362.93073640
0.36100002 22979.16749528  1996.43016655
0.36200002 23083.60002537  1508.28249710
0.36300002 23191.86246193  1519.53090048
0.36400002 23306.12591936  1276.01045453
0.36500002 23424.99256043  1414.63536773
0.36600002 23549.31678327  1685.30693542
0.36700002 23677.81476201  1307.01543677
0.36800002 23812.21195736  1581.60719313
0.36900002 23949.78537730  1462.13446654
0.37000002 24090.59184946  1340.64149993
0.37100002 24235.78202673  1487.59237127
0.37200002 24385.08767597  1500.78029211
0.37300002 24537.37507136  1651.85616805
0.37400002 24694.07717193  1805.75447874
0.37500002 24852.84039850  1401.70026488
0.37600002 25015.59679207  1697.55847873
0.37700002 25180.04736219  1570.47962838
0.37800002 25348.12123318  2017.45706452
0.37900002 25518.44406882  1600.00651891
0.38000002 25691.40422071  1761.91658492
0.38100002 25865.91172670  1630.32849337
0.38200002 26042.90308094  1496.16485288
0.38300002 26221.51832559  2114.50333795
0.38400002 26402.49209494  1982.16718793
0.38500002 26584.18057592  2000.99136675
0.38600002 26768.32909631  2486.24252425
0.38700002 26952.91632168  1882.39176508
0.38800002 27138.60472045  1583.53766046
0.38900002 27325.57044077  1918.25513582
0.39000002 27514.19622408  1775.07845349
0.39100002 27702.63909596  2280.48135842
0.39200002 27892.56506485  1808.69346732
0.39300002 28082.33394338  1825.63261615
0.39400002 28273.56986192  1842.73000305
0.39500002 28464.04264438  2197.99347713
0.39600002 28654.99559674  2047.68608236
0.39700002 28845.50054537  2066.49175698
0.39800002 29037.30502225  2085.45934550
0.39900002 29227.90149531  2104.40900737
0.40000002 29418.11615544  2123.39972470
0.40100002 29607.97183732  2856.57725821
0.40200002 29798.58985044  2521.85477853
0.40300002 29987.38536957  2362.40633135
0.40400002 30175.76781709  2383.13137627
0.40500002 30363.32937165  1849.12684635
0.40600002 30550.43103152  2424.63507370
0.40700002 30736.18531436  2633.47648251
0.40800002 30921.30886992  2086.72462796
0.40900002 31104.48493463  1912.92591412
0.41000002 31287.44468470  3471.96790117
0.41100002 31468.66975697  2528.19304807
0.41200002 31647.92859669  3136.94283114
0.41300002 31826.29771893  2766.97845479
0.41400002 32002.76497234  2191.38943532
0.41500002 32178.41651664  2007.93328578
0.41600002 32351.04408647  2630.62527454
0.41700002 32522.81135960  3058.77055331
0.41800002 32693.50866398  2465.74454027
0.41900002 32860.31460623  2691.25989377
0.42000002 33026.04795331  2502.71403249
0.42100002 33190.31834819  2311.04197609
0.42200002 33352.24458802  2116.20001939
0.42300002 33511.58791016  2983.87192891
0.42400002 33668.78160930  2575.66191516
0.42500002 33824.12062628  2593.63369252
0.42600002 33975.69870654  2611.37232633
0.42700002 34126.39538424  3505.46349998
0.42800002 34274.15805773  3308.31326329
0.42900002 34419.81282714  3552.12485209
0.43000002 34563.05693931  2681.40208442
0.43100002 34702.31965917  3148.19458866
0.43200002 34839.86028015  2941.70374216
0.43300002 34974.42575263  2504.51874683
0.43400002 35106.69072905  2519.78284649
0.43500002 35235.72403641  2534.85810730
0.43600002 35362.98057051  2781.65218350
0.43700002 35486.39066519  3730.32956350
0.43800002 35606.27599892  2813.60806277
0.43900002 35724.42770171  2829.37480806
0.44000002 35838.84777312  2844.88787105
0.44100002 35951.00857855  3336.97277440
0.44200002 36059.87581825  2396.17886168
0.44300002 36166.00764641  2890.38746808
0.44400002 36268.52512243  2663.01658332
0.44500002 36367.16895723  2676.26009039
0.44600002 36463.68350696  2444.89009501
0.44700002 36557.15159818  2947.96884459
0.44800002 36646.39423438  4195.82910671
0.44900002 36733.91758978  3719.30933223
0.45000002 36818.03042579  3237.96183925
0.45100002 36897.47444699  3001.97866328
0.45200002 36974.81728710  2763.68284910
0.45300002 37048.11705219  4036.76302532
0.45400002 37119.06252155  4053.40181946
0.45500002 37186.42979393  3815.32787768
0.45600002 37250.34134170  3064.21322399
0.45700002 37310.82042537  2819.57883318
0.45800002 37367.46790961  2830.02531626
0.45900002 37421.05153349  4131.28428510
0.46000002 37472.13815574  3368.55801916
0.46100002 37518.60210713  3120.04709910
0.46200002 37562.56921450  2869.59261115
0.46300002 37602.81874879  3664.01883254
0.46400002 37639.22713051  3150.40346014
0.46500002 37673.29514361  3160.03614642
0.46600002 37703.05664140  2641.09924291
0.46700002 37729.56734569  4237.78520512
0.46800002 37753.34845846  3452.73264691
0.46900002 37773.10992576  3461.90568878
0.47000002 37789.01772075  2936.77365136
0.47100002 37802.14481587  2676.39197982
0.47200002 37811.74152265  3755.84046346
0.47300002 37818.60077675  3495.57343548
0.47400002 37820.55266153  3503.12885631
0.47500002 37820.48115840  3510.49722751
0.47600002 37817.27663562  2976.40889868
0.47700002 37809.47087616  2710.93919031
