# SAXS profile: number of points = 501, q_min = 0, q_max = 0.5, delta_q = 0.001
#    q    intensity    error
0.00000000 1682732.95097189 277.65093691
0.00100000 1682664.03416869 605.75906669
0.00200000 1682457.23292374 984.23751243
0.00300000 1682112.70729294 1009.26766033
0.00400000 1681630.33863308 1639.58964247
0.00500000 1681010.58596970 1664.20054598
0.00600000 1680253.15102128 2293.54564452
0.00700000 1679358.70314195 2216.75358028
0.00800000 1678326.71791828 2492.31528133
0.00900000 1677158.56254835 3018.88554164
0.01000000 1675853.30432100 4147.73710729
0.01100000 1674412.29981299 3315.33649798
0.01200000 1672834.94116260 4893.04241743
0.01300000 1671122.56733173 4562.16481003
0.01400000 1669274.55437751 4507.04149662
0.01500000 1667292.58477884 5201.95309615
0.01600000 1665175.53909967 6793.91650324
0.01700000 1662925.53648436 4938.88906491
0.01800000 1660542.12558530 4732.54527087
0.01900000 1658026.02954790 7461.11746963
0.02000000 1655377.93168482 5214.44072069
0.02100000 1652599.38376020 8725.72514186
0.02200000 1649688.65174993 6829.71132853
0.02300000 1646648.64062374 5927.93537608
0.02400000 1643479.03562110 8628.26533044
0.02500000 1640181.46303252 7676.04959756
0.02600000 1636756.00510721 7291.74833626
0.02700000 1633203.47041566 6859.45488992
0.02800000 1629524.05109418 7088.42994733
0.02900000 1625720.12401359 9510.46316214
0.03000000 1621792.04123879 10557.86667376
0.03100000 1617740.04795942 9318.18310501
0.03200000 1613565.21656208 9584.57782783
0.03300000 1609270.19205775 10669.46186521
0.03400000 1604853.11924913 10953.12304426
0.03500000 1600317.27157159 11234.22776521
0.03600000 1595662.43043632 13283.89034728
0.03700000 1590890.21816010 9974.88212918
0.03800000 1586002.26580440 12061.54778965
0.03900000 1580999.49777654 12331.79665374
0.04000000 1575881.05100814 10660.83580408
0.04100000 1570650.91577120 10884.61135098
0.04200000 1565309.29857838 11105.86998865
0.04300000 1559856.16436351 11324.55627894
0.04400000 1554295.29878973 13638.94188030
0.04500000 1548626.27964936 10685.52182608
0.04600000 1542849.62493523 16315.63554215
0.04700000 1536968.22660437 12172.78892084
0.04800000 1530982.57029587 11252.72241524
0.04900000 1524895.16193669 18298.74279500
0.05000000 1518705.66886159 12779.90879858
0.05100000 1512417.28859172 12976.54094062
0.05200000 1506028.46408366 13170.21953216
0.05300000 1499544.23559264 12146.30887454
0.05400000 1492963.46962914 13548.64411871
0.05500000 1486289.83909595 13733.31875390
0.05600000 1479521.66223406 18974.86620360
0.05700000 1472664.07742405 17937.04930030
0.05800000 1465715.82199460 20754.53700852
0.05900000 1458678.88253305 18379.35477834
0.06000000 1451555.84617168 14609.91027428
0.06100000 1444348.33633377 17462.17220231
0.06200000 1437056.75145672 19012.26171047
0.06300000 1429684.24956087 16469.96332500
0.06400000 1422229.14375648 15253.40828014
0.06500000 1414697.25928190 15406.05387424
0.06600000 1407087.01511782 16969.47019630
0.06700000 1399401.04877841 15701.28050210
0.06800000 1391642.42150285 17284.19968412
0.06900000 1383811.90196174 18889.03334614
0.07000000 1375908.70758963 20514.79979084
0.07100000 1367938.11116951 17728.47875112
0.07200000 1359898.59873467 20847.24649523
0.07300000 1351795.32896490 16505.42174003
0.07400000 1343627.74166742 16627.39408236
0.07500000 1335397.54332694 19790.59251974
0.07600000 1327105.53611596 18393.68359287
0.07700000 1318757.02984099 23144.18695891
0.07800000 1310350.00364755 18633.17792569
0.07900000 1301886.37295786 29683.01069568
0.08000000 1293371.25072221 17285.90757680
0.08100000 1284803.41895220 18963.69935348
0.08200000 1276184.35496641 17477.34556139
0.08300000 1267517.08909844 20761.93089383
0.08400000 1258802.22242700 20864.64781609
0.08500000 1250043.58623865 17738.11932145
0.08600000 1241240.40228535 21057.64441346
0.08700000 1232396.38999615 19521.15973421
0.08800000 1223510.27007493 22867.40802164
0.08900000 1214587.82918979 22955.71104991
0.09000000 1205627.85559329 23039.54940268
0.09100000 1196633.09153836 23118.95241468
0.09200000 1187604.39514003 23193.91492689
0.09300000 1178545.62104602 19940.99284517
0.09400000 1169454.73326903 19997.67687874
0.09500000 1160336.08133355 18379.72439222
0.09600000 1151190.46883147 20099.78653064
0.09700000 1142021.66330973 18466.49116388
0.09800000 1132829.75661693 21869.27947973
0.09900000 1123616.45869314 16854.24767293
0.10000000 1114382.17948086 21947.75805702
0.10100000 1105129.35085497 20290.17583598
0.10200000 1095860.46325061 18624.14944896
0.10300000 1086576.22234805 20340.70783920
0.10400000 1077279.32338525 23754.01019815
0.10500000 1067972.34987712 20376.91339438
0.10600001 1058651.90300010 22088.77299545
0.10700001 1049325.23713037 18698.97660559
0.10800001 1039990.23596003 22104.99350563
0.10900001 1030650.49485275 18706.30736200
0.11000001 1021306.76427555 25507.13763839
0.11100001 1011960.68642660 25501.41049839
0.11200001 1002614.66601096 18693.75132782
0.11300001 993267.75665242 27175.80710147
0.11400001 983924.57289897 20367.23961799
0.11500001 974585.07347472 16957.78107697
0.11600001 965250.55020313 22022.19233994
0.11700001 955923.71065244 21995.80561800
0.11800001 946603.00989007 20276.23742682
0.11900001 937293.03483415 20245.53050602
0.12000001 927993.19211310 20211.69267629
0.12100001 918707.84579186 23537.29611799
0.12200001 909434.44474925 25168.59944416
0.12300001 900177.06702555 20091.95308263
0.12400001 890935.48713622 20046.04940508
0.12500001 881711.91062514 19997.22707526
0.12600001 872508.95762645 21607.68535385
0.12700001 863326.13110071 26521.37999727
0.12800001 854163.89279205 18180.87931493
0.12900001 845025.44826197 26364.79522840
0.13000001 835911.56248183 19710.79557239
0.13100001 826821.86290067 29467.93258283
0.13200001 817760.38192482 17945.75242731
0.13300001 808727.46651619 19506.50741197
0.13400001 799722.34958353 16194.37834256
0.13500001 790748.48529404 20970.65081873
0.13600001 781805.08897215 19279.31440309
0.13700001 772895.39966972 15998.93552757
0.13800001 764017.68771535 25487.63126407
0.13900001 755177.25498774 17444.59541287
0.14000001 746371.20969208 15785.75182945
0.14100001 737602.57216846 20424.21618661
0.14200001 728870.75884012 18761.13421742
0.14300001 720180.56590280 15555.90095723
0.14400001 711525.97837602 17023.25983563
0.14500001 702916.28569049 16933.25412106
0.14600001 694346.02699178 22965.49592614
0.14700001 685820.92300354 16747.74772985
0.14800001 677337.56211468 16652.34475023
0.14900001 668898.48266513 18060.25988406
0.15000001 660505.52892914 20944.63131057
0.15100001 652158.57328648 19329.98102430
0.15200001 643859.84606606 17731.90099737
0.15300001 635608.60930763 17619.07148143
0.15400001 627404.27464847 16045.86508136
0.15500001 619251.32672820 15939.52990222
0.15600001 611146.75551786 15831.75744887
0.15700001 603096.25675049 15722.72015555
0.15800001 595092.93957159 15612.26400654
0.15900001 587144.84259759 14091.47688747
0.16000001 579247.36417764 15387.70695572
0.16100001 571406.60956419 15273.69939463
0.16200001 563617.81407491 15158.50182512
0.16300001 555884.98944827 17777.20280178
0.16400001 548206.97243903 21708.99713346
0.16500001 540585.36219427 18844.80661578
0.16600001 533019.62984803 16022.57082971
0.16700001 525510.54549812 21188.58619490
0.16800001 518057.75572543 13132.76472772
0.16900001 510665.48347649 18230.75862093
0.17000001 503330.32341939 14201.46574587
0.17100001 496054.20132169 16637.65869798
0.17200001 488837.38873360 16490.93008768
0.17300001 481679.98304862 13829.03296639
0.17400001 474583.58745962 14949.38371098
0.17500001 467546.95931483 14811.88837062
0.17600001 460569.17438668 14673.73458899
0.17700001 453655.03875866 14535.10812833
0.17800001 446801.17411032 14395.93450978
0.17900001 440008.69207766 15444.30582142
0.18000001 433279.01761707 16468.93623754
0.18100001 426612.24478487 18634.42373243
0.18200001 420005.07783119 11529.13993108
0.18300001 413463.36049556 21682.01964863
0.18400001 406982.75570114 12423.14920466
0.18500001 400566.18581908 13410.95653478
0.18600001 394212.41754024 13269.19060129
0.18700001 387921.63540679 13127.26876236
0.18800001 381693.62280355 17313.62354837
0.18900001 375531.32924788 10702.64338924
0.19000001 369428.66091783 13759.37112600
0.19100001 363394.53007567 12558.91555282
0.19200001 357420.79962938 14486.26569347
0.19300001 351513.09945254 10229.03167742
0.19400001 345668.26285695 14155.11603288
0.19500001 339887.57104049 14989.04259119
0.19600001 334169.92396789 9874.72171989
0.19700001 328516.78270346 10732.64379812
0.19800001 322927.44103998 10603.32302765
0.19900001 317402.75859840 13330.91649115
0.20000001 311939.72038296 14107.47452105
0.20100001 306542.34413690 13932.35019950
0.20200001 301207.11724357 9171.75715356
0.20300001 295936.37515065 12677.91491067
0.20400001 290729.03075688 12515.88536566
0.20500001 285584.09525481 9707.00385653
0.20600001 280502.85176859 10451.53675092
0.20700001 275484.32814148 10314.13373316
0.20800001 270528.37235121 10177.27784893
0.20900001 265637.50002491 10877.85614023
0.21000001 260806.38268470 10730.87912284
0.21100001 256038.11529831 13027.21992222
0.21200001 251331.69446950 9636.05762150
0.21300001 246687.02626882 7918.65391759
0.21400001 242104.69743298 9369.45223361
0.21500001 237584.55622235 10776.83597975
0.21600001 233123.84740802 9105.81791027
0.21700001 228724.84980461 8975.16353067
0.21800001 224386.42066022 8108.20369392
0.21900001 220107.29600177 8716.24933379
0.22000001 215887.96447388 8588.02363283
0.22100001 211730.82794984 9165.82797534
0.22200001 207631.76470607 6945.28285782
0.22300001 203591.94350008 8892.89651259
0.22400001 199608.85119422 6736.79904636
0.22500001 195687.55098952 7297.18912146
0.22600001 191822.49811482 9144.17891755
0.22700001 188016.29329735 9645.23630227
0.22800001 184266.68417885 7595.47308104
0.22900001 180573.73695831 6229.79421967
0.23000001 176937.88272777 9196.34688969
0.23100001 173359.61362625 6636.20632346
0.23200001 169835.47303808 6529.32506974
0.23300001 166367.99836244 7007.42042244
0.23400001 162955.73932797 8041.86611618
0.23500001 159596.84781079 6214.70154768
0.23600001 156293.28381741 8334.33975375
0.23700001 153043.38342236 6010.01395126
0.23800001 149847.08630738 5909.22012803
0.23900001 146703.90996988 5281.34100872
0.24000001 143613.22686670 6229.94207616
0.24100001 140575.91344445 6633.77766923
0.24200001 137589.74862774 6519.69054712
0.24300001 134654.96270420 9363.90654939
0.24400001 131770.63300853 8232.37068663
0.24500001 128937.20054051 5709.33951001
0.24600001 126153.71535270 6076.19398740
0.24700001 123420.81270279 5509.50533968
0.24800001 120735.88279671 5411.38252294
0.24900001 118099.53146104 5757.35243109
0.25000001 115511.87984534 5218.82697831
0.25100001 112971.58999887 5978.45682558
0.25200001 110479.59340231 4611.97084477
0.25300001 108034.41218000 4116.11129879
0.25400001 105634.86029834 5252.69367685
0.25500001 103281.14278188 5552.39449865
0.25600001 100973.49177029 6617.29809625
0.25700001 98710.51249502  4584.11641716
0.25800001 96491.75302778  5248.18669549
0.25900001 94317.57913655  5885.41721659
0.26000001 92187.33626696  5052.78813987
0.26100001 90097.88911123  3894.93193057
0.26200001 88053.67674765  3821.08948327
0.26300001 86050.09912472  4089.10090389
0.26400001 84088.02729350  4345.24901600
0.26500001 82167.85084698  4589.89636550
0.26600001 80287.57133957  4501.72433803
0.26700001 78448.37730956  3153.62491707
0.26800001 76648.87843888  3092.78239136
0.26900001 74888.00230357  3336.26066050
0.27000001 73166.28536631  3569.05156906
0.27100001 71482.82364054  2916.49934255
0.27200001 69837.45184889  3717.79692511
0.27300001 68228.81778019  3925.88636086
0.27400001 66656.05735616  2749.56249606
0.27500001 65121.86192684  3235.25425363
0.27600001 63621.46833775  3172.16656145
0.27700001 62158.15134541  2591.99503377
0.27800001 60728.90241159  4066.40749793
0.27900001 59334.49886899  2990.45888453
0.28000001 57973.89284673  2443.59969914
0.28100001 56646.58948539  2635.76593350
0.28200001 55352.74410573  3524.58614775
0.28300001 54091.62107065  3456.45475001
0.28400001 52862.68777119  3841.79601561
0.28500001 51665.72946297  2438.10588876
0.28600001 50499.10263386  2608.78376554
0.28700001 49363.83765345  2345.76967632
0.28800001 48258.25034018  2719.59382665
0.28900001 47184.15037818  2668.26383018
0.29000001 46137.78487116  2416.69728594
0.29100001 45121.94974483  2371.60979085
0.29200001 44133.91027612  2715.55962783
0.29300001 43173.98664135  2284.76748121
0.29400001 42241.54562080  2429.94502686
0.29500001 41337.43368032  2018.92035652
0.29600001 40459.12615004  1982.69957084
0.29700001 39606.89268230  3186.77073607
0.29800001 38781.35747333  3130.81913703
0.29900001 37981.11876699  2221.89555305
0.30000001 37205.87595548  2015.81445470
0.30100001 36456.28884958  1816.61695937
0.30200001 35729.75183536  1948.70075735
0.30300001 35027.50151101  1756.97955897
0.30400001 34349.47923848  1728.63762451
0.30500001 33693.30522717  1701.17506146
0.30600001 33060.11176558  1979.14368454
0.30700001 32449.57243335  1799.00438088
0.30800001 31860.71755936  1919.76762743
0.30900001 31293.33292679  1746.16805999
0.31000001 30747.74253409  2151.57338569
0.31100001 30221.24636332  1838.66071580
0.31200001 29716.21662633  1674.21172399
0.31300001 29230.47672499  2478.15993408
0.31400001 28765.78447664  2582.44842366
0.31500001 28319.25835936  1476.56620077
0.31600002 27891.71959336  2122.00212713
0.31700002 27482.14129247  1441.98802189
0.31800002 27091.09494350  1425.93984987
0.31900002 26718.01918429  1923.69747235
0.32000002 26362.08906118  2157.86890228
0.32100002 26023.70084353  1634.02825334
0.32200002 25701.87330220  1369.78140250
0.32300002 25395.69877903  1604.50032483
0.32400002 25105.98330729  1713.48344186
0.32500002 24831.53271629  2428.52401465
0.32600002 24572.91665958  1687.42226692
0.32700002 24329.14329627  1316.69329754
0.32800002 24100.77958872  1308.31088193
0.32900002 23885.56499136  1773.50328459
0.33000002 23685.93467837  1528.80872621
0.33100002 23497.59832579  1287.19849724
0.33200002 23325.37350410  1165.10246170
0.33300002 23164.78027986  1276.61110168
0.33400002 23017.84855444  1387.97633356
0.33500002 22882.83846770  1268.62462473
0.33600002 22760.09044035  1380.62715149
0.33700002 22648.55109326  1492.76607325
0.33800002 22549.93407075  1375.99704216
0.33900002 22461.57599056  1489.20255870
0.34000002 22384.86425173  1373.98303284
0.34100002 22318.74209819  1259.44667625
0.34200002 22263.99006007  1260.03057712
0.34300002 22218.08126566  1375.74365712
0.34400002 22183.16894037  1262.77695174
0.34500002 22157.26546466  1379.95455849
0.34600002 22142.24172450  1383.00448361
0.34700002 22134.09952423  1386.48005986
0.34800002 22136.55358401  1738.27295251
0.34900002 22147.09650704  1278.99488386
0.35000002 22166.39412599  1283.76677661
0.35100002 22193.72533887  1992.10888077
0.35200002 22228.35491057  1530.08888274
0.35300002 22271.11760978  2128.67352196
0.35400002 22321.65134491  1188.62799041
0.35500002 22379.00871775  1195.03912213
0.35600002 22443.07804247  1562.37495193
0.35700002 22513.94690954  1813.49850946
0.35800002 22592.06343265  1824.87401021
0.35900002 22675.92995530  1591.85035826
0.36000002 22766.64623878  1602.65813789
0.36100002 22862.41795075  1241.42935353
0.36200002 22964.98390715  1375.48777627
0.36300002 23071.33827512  1259.69512949
0.36400002 23183.77487344  2157.82994856
0.36500002 23300.74515305  1535.05316339
0.36600002 23423.25686815  1547.34042200
0.36700002 23549.99236417  2079.93542413
0.36800002 23682.63178449  1573.00047764
0.36900002 23818.40445728  1718.49796300
0.37000002 23957.53716869  1733.20810857
0.37100002 24101.02205888  2151.73935134
0.37200002 24248.75540582  1356.71792922
0.37300002 24399.36605132  1779.44585042
0.37400002 24554.45657185  1657.42589711
0.37500002 24711.68798191  1672.48712184
0.37600002 24872.93889422  1687.87771332
0.37700002 25035.83871954  1703.43854717
0.37800002 25202.48806248  1862.58996849
0.37900002 25371.40478732  1590.78715552
0.38000002 25542.91334764  2043.68859376
0.38100002 25716.06972874  2210.29629789
0.38200002 25891.72034196  1784.97528494
0.38300002 26068.96781418  1651.72987896
0.38400002 26248.74885501  2273.79797728
0.38500002 26429.16532057  1530.24874456
0.38600002 26612.16410876  1853.80343964
0.38700002 26795.52383950  1871.39947361
0.38800002 26980.11085077  2361.43431409
0.38900002 27165.99800557  1748.13205448
0.39000002 27353.50668497  1925.13989169
0.39100002 27540.93489889  1781.34775365
0.39200002 27729.87487406  2288.54668178
0.39300002 27918.70824182  1814.99530879
0.39400002 28109.03182040  1832.00623569
0.39500002 28298.60920511  2521.40619963
0.39600002 28488.70295550  1696.50234138
0.39700002 28678.39010734  1883.30996758
0.39800002 28869.45997908  1727.83726161
0.39900002 29059.28947511  2092.26894134
0.40000002 29248.84791695  2287.11377123
0.40100002 29438.04556785  1952.62565503
0.40200002 29627.98429794  2686.51760350
0.40300002 29816.24761640  2168.23762940
0.40400002 30004.03641500  2369.56888815
0.40500002 30191.14531944  2941.82533931
0.40600002 30377.72364080  2040.01612776
0.40700002 30563.14256678  2057.51085508
0.40800002 30747.82624667  2640.93092146
0.40900002 30930.72375528  2282.68752130
0.41000002 31113.31647764  2493.57686725
0.41100002 31294.30824841  2900.98251208
0.41200002 31473.28856454  2729.67844654
0.41300002 31651.47572522  1965.55673567
0.41400002 31827.85155798  2377.54062404
0.41500002 32003.35912669  2396.41164496
0.41600002 32175.93272773  2213.86515623
0.41700002 32347.65562899  2433.83772485
0.41800002 32518.36069021  2861.29069271
0.41900002 32685.21654998  2882.83623631
0.42000002 32851.05370483  2489.45296771
0.42100002 33015.44081892  2716.84075373
0.42200002 33177.53899177  2526.13793853
0.42300002 33337.13220530  2120.24170873
0.42400002 33494.51235535  2562.33031660
0.42500002 33650.15468500  3440.39197802
0.42600002 33802.06646752  2165.02245984
0.42700002 33953.11897848  2397.76937588
0.42800002 34101.28276631  2852.74294500
0.42900002 34247.44256028  2429.85616480
0.43000002 34391.13064945  2445.72537203
0.43100002 34530.94411734  2237.60528484
0.43200002 34669.05039716  2702.10591600
0.43300002 34804.20239860  2492.32905187
0.43400002 34937.10285728  2735.57528336
0.43500002 35066.83045242  3210.71914837
0.43600002 35194.76491721  3460.52542447
0.43700002 35318.97629097  2784.54822274
0.43800002 35439.62519114  3033.80925826
0.43900002 35558.61211005  3520.30276572
0.44000002 35673.93089115  3067.77983237
0.44100002 35786.95552125  2372.67526350
0.44200002 35896.79609212  2862.41065604
0.44300002 36003.90184675  2637.64597429
0.44400002 36107.39827902  3374.23652908
0.44500002 36207.16713978  3148.93747538
0.44600002 36304.72072433  2921.07796791
0.44700002 36399.35554991  3424.45153242
0.44800002 36489.73743653  2949.10071938
0.44900002 36578.43554987  2962.85341995
0.45000002 36663.74402254  2976.36288081
0.45100002 36744.51811939  2740.40629122
0.45200002 36823.13674603  3002.55871257
0.45300002 36897.78586393  3015.28720370
0.45400002 36970.07216597  3532.49056287
0.45500002 37038.83941336  3546.83943032
0.45600002 37104.18423474  4323.93631472
0.45700002 37166.13312477  3063.97616002
0.45800002 37224.25617608  2819.17917511
0.45900002 37279.39675296  3601.18989701
0.46000002 37332.03443819  3097.81236450
0.46100002 37380.08669937  3108.52815725
0.46200002 37425.67622159  3638.89867149
0.46300002 37467.53667217  2868.51474358
0.46400002 37505.66480468  3139.22429294
0.46500002 37541.37658714  3148.97081738
0.46600002 37572.91596499  3421.57775452
0.46700002 37601.17771044  2639.60280038
0.46800002 37626.72564210  3441.15235670
0.46900002 37648.29982243  3715.88736859
0.47000002 37666.06196747  5056.10406784
0.47100002 37681.08688998  2667.82107826
0.47200002 37692.53962860  3209.14297608
0.47300002 37701.31974902  3216.67675345
0.47400002 37705.25021948  3223.79904657
0.47500002 37707.14354732  3499.97722995
0.47600002 37705.89014710  2697.85656790
0.47700002 37700.14102927  2973.41026391
