# SAXS profile: number of points = 501, q_min = 0, q_max = 0.5, delta_q = 0.001
#    q    intensity    error
0.00000000 1664650.74656091 399.51617917
0.00100000 1664582.39335332 699.12462181
0.00200000 1664377.27613164 823.86677777
0.00300000 1664035.56611346 1098.26351276
0.00400000 1663557.13445174 1996.26863720
0.00500000 1662942.43209875 1646.31307294
0.00600000 1662191.19219303 2268.89106971
0.00700000 1661304.05915527 2192.92144922
0.00800000 1660280.49634571 2241.37876470
0.00900000 1659121.87999354 3235.28780429
0.01000000 1657827.29343802 3829.58121320
0.01100000 1656398.05942576 3577.81996414
0.01200000 1654833.59984565 6131.15875624
0.01300000 1653135.22526262 3818.74253878
0.01400000 1651302.35018748 4086.97349789
0.01500000 1649336.58762104 5145.93038252
0.01600000 1647236.86681868 5880.63587743
0.01700000 1645005.27835612 6662.27167620
0.01800000 1642641.43538973 6554.13962213
0.01900000 1640146.00579600 5412.48206335
0.02000000 1637519.61367428 5674.00571805
0.02100000 1634763.86319267 6473.66519175
0.02200000 1631877.00094975 6192.97349997
0.02300000 1628862.00888895 11141.41664794
0.02400000 1625718.50864755 6096.44468541
0.02500000 1622448.05940996 7593.05726482
0.02600000 1619050.81273944 8524.30291896
0.02700000 1615527.54766251 11534.86721862
0.02800000 1611878.40820461 7011.67139724
0.02900000 1608105.88468172 9407.41985732
0.03000000 1604210.32557136 9697.45186382
0.03100000 1600191.77427560 9985.19713093
0.03200000 1596051.49212021 11850.68287481
0.03300000 1591792.05485295 8118.13985400
0.03400000 1587411.54713111 8333.91100697
0.03500000 1582913.33970728 10257.27891496
0.03600000 1578297.20379635 10511.45986306
0.03700000 1573564.65608282 15247.84222262
0.03800000 1568717.40544194 11930.09642051
0.03900000 1563756.25380703 11259.04554882
0.04000000 1558680.48131538 9585.88540429
0.04100000 1553493.97471699 10765.71374396
0.04200000 1548197.02574566 10984.45840727
0.04300000 1542789.50146104 13237.13453698
0.04400000 1537275.29588033 14527.25222074
0.04500000 1531653.81692771 12682.09419343
0.04600000 1525925.63765225 15060.88674376
0.04700000 1520093.68270366 12039.14252693
0.04800000 1514158.43057576 14467.78447731
0.04900000 1508122.40219896 14704.19410588
0.05000000 1501985.04952659 12639.20478033
0.05100000 1495749.86019763 16333.58923424
0.05200000 1489415.06071482 14209.02034138
0.05300000 1482985.87169002 16817.06056894
0.05400000 1476460.93903573 15835.04430961
0.05500000 1469844.05160340 16050.69779226
0.05600000 1463133.42679380 13760.77052113
0.05700000 1456334.44602730 15204.13232623
0.05800000 1449445.44361445 14110.35205243
0.05900000 1442468.72729639 14280.44106721
0.06000000 1435406.70209242 13133.97193775
0.06100000 1428261.13547820 14611.11209874
0.06200000 1421032.19711986 18800.25684669
0.06300000 1413723.16212087 17643.26588818
0.06400000 1406332.30498367 17825.26279930
0.06500000 1398865.46774357 15233.64565632
0.06600000 1391321.16341721 19575.88968521
0.06700000 1383701.86689753 19759.26358401
0.06800000 1376010.54336957 19938.39370672
0.06900000 1368248.15190344 15803.26689438
0.07000000 1360413.80220406 17386.08920633
0.07100000 1352512.88706169 23371.42378309
0.07200000 1344543.77143468 19139.58148300
0.07300000 1336511.49372458 16318.80610300
0.07400000 1328415.66663043 16439.14464496
0.07500000 1320258.04736194 18061.13093448
0.07600000 1312039.06971896 21215.67275196
0.07700000 1303764.33966814 16779.44783829
0.07800000 1295431.92177793 18421.04279156
0.07900000 1287043.48290409 18533.42702311
0.08000000 1278603.99670167 17088.54321756
0.08100000 1270112.40906754 21871.33671031
0.08200000 1261570.34071125 23559.82721833
0.08300000 1252980.55701519 23681.33363900
0.08400000 1244343.90798898 17451.92412872
0.08500000 1235664.05715590 23910.10062843
0.08600000 1226940.20480166 16011.57042443
0.08700000 1218176.19543816 24119.88980229
0.08800000 1209370.42446035 20988.62470221
0.08900000 1200528.95024619 17827.85574852
0.09000000 1191650.44316059 17892.63224457
0.09100000 1182737.74068107 19586.13790586
0.09200000 1173791.58405194 16374.39336690
0.09300000 1164815.77606386 18066.29353572
0.09400000 1155808.39431752 21411.35151101
0.09500000 1146773.63688513 19816.24937679
0.09600000 1137712.50952215 23175.20490838
0.09700000 1128628.52837435 26545.34423534
0.09800000 1119521.83618838 26599.84007850
0.09900000 1110394.38183810 19987.09981293
0.10000000 1101246.09642968 21689.04288916
0.10100000 1092079.79753144 26734.11470092
0.10200000 1082897.75696836 18403.84824533
0.10300000 1073700.74444369 20099.67888149
0.10400000 1064491.37486858 16765.73994293
0.10500000 1055272.42470991 23490.36527925
0.10600001 1046040.15823658 23504.52346155
0.10700001 1036802.23705425 18475.81673374
0.10800001 1027556.07326992 21840.70536521
0.10900001 1018305.69630451 21842.65821377
0.11000001 1009051.26643156 16800.70437689
0.11100001 999794.92786789 18476.21113674
0.11200001 990539.05015393 21826.52899767
0.11300001 981282.59403814 20135.91977768
0.11400001 972029.92574204 23474.52381195
0.11500001 962781.17499621 20102.87188052
0.11600001 953537.65046863 20081.50386454
0.11700001 944301.89970386 21728.38773548
0.11800001 935072.53677788 20029.25468113
0.11900001 925854.07512134 18331.91155087
0.12000001 916646.06939812 21628.26502625
0.12100001 907452.39712403 21588.29354456
0.12200001 898271.02657611 26516.96195378
0.12300001 889105.76840596 21498.57849295
0.12400001 879956.44956251 23098.85788938
0.12500001 870825.30746507 19750.31890395
0.12600001 861714.67940982 22981.93158285
0.12700001 852624.51114788 21281.50880117
0.12800001 843554.87868550 17955.06643903
0.12900001 834509.24663474 17900.22418399
0.13000001 825487.91241601 24331.25736531
0.13100001 816491.13562720 22633.13534646
0.13200001 807522.40613471 17721.08003800
0.13300001 798582.33432338 28892.71021791
0.13400001 789669.89429416 22387.14255869
0.13500001 780788.95953420 27077.76239331
0.13600001 771938.34364407 23795.00056478
0.13700001 763121.25573634 15796.61073860
0.13800001 754336.31566978 22019.07809273
0.13900001 745588.56749431 20354.56885248
0.14000001 736875.12031343 17143.40048258
0.14100001 728198.89452883 20163.82834049
0.14200001 719559.51985286 16978.00767170
0.14300001 710961.51289539 19963.80022375
0.14400001 702399.32929774 15277.18613285
0.14500001 693881.65176709 15196.00889053
0.14600001 685403.39391205 21158.40376820
0.14700001 676970.23075028 22543.10974749
0.14800001 668578.43894351 20919.82034151
0.14900001 660230.90049457 17826.23515441
0.15000001 651929.22201833 20672.67660560
0.15100001 643673.56696140 20546.06122687
0.15200001 635465.66718338 16042.33152503
0.15300001 627305.22177581 17388.90156819
0.15400001 619191.56274432 17275.44541581
0.15500001 611128.96310246 14300.41841148
0.15600001 603114.24856151 17044.00946874
0.15700001 595153.81687996 14105.14612577
0.15800001 587239.98095388 19607.94388952
0.15900001 579381.40886013 13905.15446897
0.16000001 571572.86349060 19324.87942680
0.16100001 563820.98840468 16441.02079797
0.16200001 556120.62636101 16316.57994767
0.16300001 548476.13373584 18889.51893760
0.16400001 540886.09006756 21419.09017786
0.16500001 533351.83385254 18592.64580588
0.16600001 525873.50719276 14490.44517483
0.16700001 518451.22677812 13064.97153167
0.16800001 511085.14863557 16842.81186854
0.16900001 503779.06944968 14131.00356530
0.17000001 496529.74344994 21651.18048550
0.17100001 489339.07898483 13887.44371737
0.17200001 482207.41933385 15015.93974715
0.17300001 475134.77213750 16121.32357995
0.17400001 468122.65517024 14745.86433425
0.17500001 461169.95748466 20697.30866940
0.17600001 454275.73111888 15679.32760009
0.17700001 447444.69592812 17920.16091830
0.17800001 440673.54408641 15381.71078285
0.17900001 433963.32746561 11717.01039501
0.18000001 427315.48074731 17402.42377544
0.18100001 420730.08689373 16080.30468066
0.18200001 414203.99055224 14780.87010107
0.18300001 407742.69770917 15755.17858375
0.18400001 401341.99167032 11137.24079498
0.18500001 395004.90076397 12122.70097715
0.18600001 388730.32322600 10903.88608163
0.18700001 382517.97137466 15101.81022335
0.18800001 376368.22631632 10670.03972019
0.18900001 370283.62964394 11608.39233780
0.19000001 364257.88978423 13566.78574603
0.19100001 358300.43438793 11350.95829774
0.19200001 352402.59178557 15303.08327138
0.19300001 346570.45153803 12102.24073957
0.19400001 340800.58190375 16946.30973594
0.19500001 335094.37087577 14777.66245394
0.19600001 329450.55592693 12655.84370400
0.19700001 323870.94479368 10580.86426644
0.19800001 318354.41301002 11403.45561293
0.19900001 312902.06897363 13141.88751798
0.20000001 307510.79142723 11125.74095965
0.20100001 302184.63280815 10987.43376820
0.20200001 296919.91483731 11753.57538435
0.20300001 291719.17218950 9819.26780000
0.20400001 286581.20998654 8812.37262361
0.20500001 281505.06442567 13047.76035286
0.20600001 276492.32061558 9443.59565700
0.20700001 271541.39578114 13555.34711814
0.20800001 266652.54636604 8359.55772373
0.20900001 261828.21367340 8247.58912059
0.21000001 257063.02060061 8949.64948528
0.21100001 252360.02274740 16050.09820548
0.21200001 247718.35766293 10288.98247194
0.21300001 243137.83381999 9365.66980151
0.21400001 238618.89111290 9234.55152265
0.21500001 234161.67373383 9862.89016396
0.21600001 229763.28238385 10470.31327325
0.21700001 225425.94897143 9582.85754385
0.21800001 221148.50535199 16708.87611187
0.21900001 216929.85815704 10022.15992072
0.22000001 212770.22652840 11285.33334867
0.22100001 208672.07505527 7643.65847069
0.22200001 204631.77990199 7529.42669752
0.22300001 200649.73941538 6741.83156315
0.22400001 196724.00582777 7967.32261277
0.22500001 192859.38572981 7191.72683394
0.22600001 189050.14241874 7724.58918451
0.22700001 185299.31891263 8872.13180909
0.22800001 181604.37302537 6238.11050842
0.22900001 177965.62727901 7981.75876093
0.23000001 174383.13085784 7855.08850097
0.23100001 170857.69396514 7729.60244054
0.23200001 167385.62514161 8190.17902552
0.23300001 163969.65864918 10359.60352341
0.23400001 160608.31798970 7359.87651997
0.23500001 157299.60330776 7795.76870864
0.23600001 154045.71558505 6571.59053768
0.23700001 150844.88061723 7000.71124056
0.23800001 147696.55378439 9001.36689614
0.23900001 144601.23576957 6246.77368071
0.24000001 141557.41373320 7164.22104791
0.24100001 138566.55586299 5532.96283732
0.24200001 135626.16719368 5932.28883366
0.24300001 132736.45737092 8258.86276829
0.24400001 129896.53702939 8115.28653479
0.24500001 127106.96874979 5159.27210561
0.24600001 124366.72802205 4607.78749119
0.24700001 121676.34619550 5884.26838038
0.24800001 119033.15958335 4890.47759283
0.24900001 116438.21381711 4803.07654718
0.25000001 113891.20576672 6003.20573996
0.25100001 111390.85959808 4631.63216121
0.25200001 108938.22602618 4961.04704794
0.25300001 106531.87495155 6494.18340429
0.25400001 104170.39563665 4781.42138594
0.25500001 101854.25785965 5866.80553029
0.25600001 99583.32239428  5374.51216390
0.25700001 97356.62590859  4521.24192111
0.25800001 95173.54253705  4436.99076301
0.25900001 93034.42594122  3991.17706172
0.26000001 90938.62213695  4628.32139265
0.26100001 88883.00239401  4541.03280717
0.26200001 86871.95677000  4112.51862808
0.26300001 84900.92042692  3362.07660799
0.26400001 82970.83676488  3957.70910096
0.26500001 81082.18707810  5499.80500975
0.26600001 79232.53704052  4759.89488795
0.26700001 77423.65156792  4046.16022240
0.26800001 75653.65657019  3663.15022447
0.26900001 73921.81535824  3592.60039642
0.27000001 72228.63592327  3816.92244599
0.27100001 70572.98384617  3743.19124034
0.27200001 68954.88922074  3670.81370138
0.27300001 67373.00707547  3045.93379403
0.27400001 65826.39813517  2715.33905158
0.27500001 64317.80814007  3727.86033622
0.27600001 62842.35564735  2872.21000079
0.27700001 61403.63850721  3072.63821632
0.27800001 59998.14917674  3515.29172663
0.27900001 58627.25824029  2462.34496263
0.28000001 57289.39228208  2656.22279887
0.28100001 55984.45005630  2841.77081936
0.28200001 54712.37042926  2554.79425811
0.28300001 53472.39916026  2733.50917445
0.28400001 52264.20825235  2904.58351110
0.28500001 51087.36934325  2849.14272313
0.28600001 49940.33108791  3009.90389713
0.28700001 48824.24182007  2531.04881575
0.28800001 47737.19311810  3517.99261336
0.28900001 46681.17912861  2030.63138821
0.29000001 45652.50882238  2391.27852531
0.29100001 44653.81234863  2738.17190283
0.29200001 43682.24184453  2687.76846792
0.29300001 42738.56019833  2827.15589095
0.29400001 41821.75864292  2035.67419831
0.29500001 40932.95844980  2726.13516180
0.29600001 40069.15798413  2142.09728723
0.29700001 39231.29925912  1753.63915990
0.29800001 38419.46297281  1895.42429549
0.29900001 37632.59909796  1862.81374353
0.30000001 36870.22610367  1664.69078739
0.30100001 36132.99091844  2291.55439253
0.30200001 35418.36035711  1770.74100988
0.30300001 34727.73138563  2058.66001400
0.30400001 34060.78401193  2337.42141348
0.30500001 33415.34633435  1533.76446936
0.30600001 32792.54795057  1510.09690462
0.30700001 32191.90020432  2379.62537576
0.30800001 31612.39916491  2344.37563306
0.30900001 31054.05290764  1732.81623428
0.31000001 30517.17646947  1850.71425461
0.31100001 29998.88002836  1965.52671252
0.31200001 29501.78210777  1662.13048265
0.31300001 29023.42232208  1367.00325609
0.31400001 28565.79289941  2969.41431249
0.31500001 28126.16075476  1599.81609948
0.31600002 27704.92445885  1449.10614243
0.31700002 27301.41842910  1823.18880902
0.31800002 26916.04234566  1545.51922467
0.31900002 26548.27791967  1529.18088058
0.32000002 26197.29869930  1261.39999210
0.32100002 25863.47202527  1623.96748536
0.32200002 25546.01626251  1856.55681979
0.32300002 25243.87170785  1840.27833464
0.32400002 24957.74325593  1216.69004134
0.32500002 24686.69340703  1448.61523772
0.32600002 24431.10630380  1438.01498513
0.32700002 24190.12884485  1190.15439552
0.32800002 23964.20088681  1537.42338069
0.32900002 23751.11198901  1175.68009913
0.33000002 23553.31594472  1169.42219203
0.33100002 23366.65436276  1396.39133084
0.33200002 23195.70024161  1274.48781013
0.33300002 23036.15672909  1384.93380814
0.33400002 22890.01955236  1265.24589067
0.33500002 22755.58481114  1835.01044607
0.33600002 22633.07647878  1601.74289826
0.33700002 22521.54502937  1370.21086448
0.33800002 22422.78241047  1140.19853957
0.33900002 22333.87011932  1366.83291603
0.34000002 22256.56909444  1252.26591940
0.34100002 22189.60291292  1365.99202001
0.34200002 22133.66775451  1594.28816386
0.34300002 22086.49212123  1367.59565691
0.34400002 22049.96762622  1255.19446657
0.34500002 22022.38003267  1257.25773561
0.34600002 22005.40991265  1374.45796824
0.34700002 21995.16371261  1148.14760018
0.34800002 21995.33312254  1266.60131785
0.34900002 22003.41929878  1270.69752469
0.35000002 22019.94907190  1854.96059767
0.35100002 22044.48023195  1396.73833365
0.35200002 22076.15510651  1636.50545556
0.35300002 22115.75522751  1526.65065566
0.35400002 22162.94657222  1770.26544130
0.35500002 22216.93056356  1305.02256311
0.35600002 22277.33580754  1670.13194460
0.35700002 22344.51976011  1319.89084475
0.35800002 22418.72392086  1931.59734451
0.35900002 22498.60485366  1457.90966357
0.36000002 22585.24705959  1956.78589793
0.36100002 22676.76206465  1723.88753381
0.36200002 22774.97832242  1488.11715407
0.36300002 22876.83505789  1998.52040532
0.36400002 22984.69335638  1384.25322296
0.36500002 23097.01740831  1775.23684209
0.36600002 23214.82228926  1405.77363031
0.36700002 23336.63323459  1803.45510180
0.36800002 23464.34559899  1688.37706755
0.36900002 23595.20791726  1964.30115216
0.37000002 23729.21044209  1584.63674839
0.37100002 23867.61571005  1731.35692562
0.37200002 24010.01991462  1746.36888122
0.37300002 24155.40507919  1490.63011805
0.37400002 24305.18274202  1640.59991280
0.37500002 24457.04412599  2069.06603107
0.37600002 24612.85247152  1809.41393516
0.37700002 24770.31065042  1544.92434845
0.37800002 24931.39426540  2409.49471292
0.37900002 25094.72483448  1573.43932166
0.38000002 25260.66639066  2454.20015945
0.38100002 25428.27343900  1602.74415079
0.38200002 25598.24370514  1764.74300463
0.38300002 25769.91114745  1632.78164765
0.38400002 25943.95927707  1947.74283500
0.38500002 26118.62237812  1814.72196880
0.38600002 26295.96445551  1679.12888985
0.38700002 26473.66896210  2157.07464922
0.38800002 26652.56596740  2954.83686596
0.38900002 26832.74162575  1883.65855137
0.39000002 27014.62435413  1742.84857278
0.39100002 27196.39694767  1759.06303791
0.39200002 27379.57680389  1936.83135487
0.39300002 27562.78786437  2280.54517594
0.39400002 27747.51589394  2137.25251299
0.39500002 27931.55749300  2488.70189053
0.39600002 28116.06861639  2009.17435852
0.39700002 28300.28159540  2027.43226955
0.39800002 28485.74057747  1875.35881977
0.39900002 28670.07319063  1892.22492023
0.40000002 28854.32721642  2256.26422359
0.40100002 29038.07622200  2451.39451081
0.40200002 29222.75014578  2473.12146201
0.40300002 29405.72998921  1960.18605395
0.40400002 29588.25152937  1977.23500213
0.40500002 29770.14715064  1813.00204737
0.40600002 29951.63278578  2011.40199503
0.40700002 30131.91244761  2950.51700667
0.40800002 30311.74642806  2231.55087777
0.40900002 30489.59835721  2062.62142660
0.41000002 30667.39517850  2268.77400280
0.41100002 30843.53237505  2287.35646931
0.41200002 31017.86564508  2498.02392809
0.41300002 31191.36464944  3099.17413842
0.41400002 31363.19050257  2733.30218181
0.41500002 31534.23773968  2164.51018101
0.41600002 31702.36832926  2181.28155625
0.41700002 31869.74862085  2797.52666650
0.41800002 32036.23199613  2214.82500400
0.41900002 32198.94151151  2231.38675248
0.42000002 32360.67288603  3269.72254334
0.42100002 32521.10354853  2676.16173782
0.42200002 32679.33377773  2073.50382645
0.42300002 32835.09456846  2923.63695891
0.42400002 32988.80066561  2733.94698471
0.42500002 33140.83918502  2541.23966913
0.42600002 33289.32630818  2345.39959618
0.42700002 33436.99253600  2361.32052479
0.42800002 33581.83055719  2377.08998863
0.42900002 33724.80782458  2392.77522854
0.43000002 33865.38743257  3284.09610190
0.43100002 34002.16258348  2644.00828778
0.43200002 34137.45075922  2882.39579145
0.43300002 34269.84675639  3123.35398139
0.43400002 34400.09936040  2917.98856652
0.43500002 34527.31833406  2935.51274387
0.43600002 34652.82376032  3180.08978719
0.43700002 34774.65138502  2284.69470426
0.43800002 34893.13250501  2757.25546121
0.43900002 35010.02488380  4159.19115330
0.44000002 35123.33097147  2555.74929926
0.44100002 35234.53435627  2569.65471238
0.44200002 35342.61756417  3522.77557265
0.44300002 35448.07665534  2596.92621884
0.44400002 35550.12512657  3084.86225405
0.44500002 35648.44514423  2861.85731181
0.44600002 35744.72619543  2636.35240548
0.44700002 35838.10563473  2649.15289407
0.44800002 35927.57940324  2903.66710498
0.44900002 36015.34811552  3160.34694691
0.45000002 36099.85738052  2686.37101428
0.45100002 36179.86436638  2943.59390435
0.45200002 36257.93524675  4681.08095188
0.45300002 36332.17041486  3463.90929152
0.45400002 36404.11812446  2733.03929772
0.45500002 36472.71263376  2494.73366238
0.45600002 36537.88675514  3757.00838366
0.45700002 36599.89739109  2514.41306994
0.45800002 36658.23212151  3785.87910178
0.45900002 36713.59001314  2786.56161406
0.46000002 36766.64511768  4067.86180861
0.46100002 36815.26555499  2806.42782627
0.46200002 36861.46835745  3328.03782838
0.46300002 36904.06123254  2825.37506187
0.46400002 36943.04089575  3607.48811445
0.46500002 36979.74039316  2843.37237359
0.46600002 37012.38712049  2851.98962474
0.46700002 37041.86868112  3900.50895699
0.46800002 37068.75854943  2868.56601631
0.46900002 37091.73626922  2614.96753092
0.47000002 37111.16377487  2621.90384496
0.47100002 37127.83257356  3154.38080496
0.47200002 37141.10646226  3689.22627975
0.47300002 37151.69601861  2905.63428333
0.47400002 37157.68608168  3176.98231056
0.47500002 37161.64421116  3184.00982693
0.47600002 37162.65205433  3722.58303273
0.47700002 37159.27288920  3730.04798941
