# SAXS profile: number of points = 501, q_min = 0, q_max = 0.5, delta_q = 0.001
#    q    intensity    error
0.00000000 1664650.74656091 324.60689558
0.00100000 1664582.39891380 699.12462415
0.00200000 1664377.30055650 898.76377076
0.00300000 1664035.61641925 998.42140542
0.00400000 1663557.22520827 1372.43476295
0.00500000 1662942.57466998 1646.31321409
0.00600000 1662191.39592473 2967.01176252
0.00700000 1661304.32645904 2591.63485699
0.00800000 1660280.85357880 2689.65509635
0.00900000 1659122.33391509 2737.55196798
0.01000000 1657827.84859457 4103.12410244
0.01100000 1656398.73714823 3279.66964235
0.01200000 1654834.39371448 5163.08353476
0.01300000 1653136.17118672 4860.22055765
0.01400000 1651303.44612698 5573.14937774
0.01500000 1649337.84016710 4750.09319120
0.01600000 1647238.29506345 4620.50362421
0.01700000 1645006.89093529 7106.43008763
0.01800000 1642643.24341266 6554.14683614
0.01900000 1640148.00516256 6888.62193252
0.02000000 1637521.84069750 7221.47164414
0.02100000 1634766.30795493 5934.20196692
0.02200000 1631879.69374050 7318.98075894
0.02300000 1628864.93211709 10555.04524057
0.02400000 1625721.69741552 6096.45664329
0.02500000 1622451.49734163 7593.07335434
0.02600000 1619054.54516272 8524.32257017
0.02700000 1615531.55628224 8142.27941659
0.02800000 1611882.71328510 7011.69012434
0.02900000 1608110.52058051 7236.49767487
0.03000000 1604215.24952043 8951.52150378
0.03100000 1600197.04502184 12289.51387125
0.03200000 1596057.09657853 10270.62788953
0.03300000 1591797.97722404 10553.62107552
0.03400000 1587417.83302515 11667.52161108
0.03500000 1582919.98325837 9402.54513475
0.03600000 1578304.22177819 9635.54771925
0.03700000 1573572.08123737 9866.29740565
0.03800000 1568725.20673479 11930.15574934
0.03900000 1563764.46222832 10320.84592867
0.04000000 1558689.11878100 12461.72008212
0.04100000 1553503.02008338 11744.48337638
0.04200000 1548206.48549541 14978.89844208
0.04300000 1542799.38179875 12218.97167103
0.04400000 1537285.61310833 10376.67837039
0.04500000 1531664.61668515 13739.03225005
0.04600000 1525936.88782329 11833.64111518
0.04700000 1520105.43981944 13133.71161086
0.04800000 1514170.62843956 12242.07010053
0.04900000 1508135.01055685 11311.01310568
0.05000000 1501998.21189329 13788.34422725
0.05100000 1495763.48316335 17500.43356825
0.05200000 1489429.17337200 14209.15497613
0.05300000 1483000.51981921 13213.53524758
0.05400000 1476476.10009986 18271.39259080
0.05500000 1469859.70965051 16050.86877815
0.05600000 1463149.66865636 17513.90235109
0.05700000 1456351.13719295 17738.35767901
0.05800000 1449462.72742995 17958.84403140
0.05900000 1442486.59982351 12982.38000476
0.06000000 1435425.08234329 14447.55412876
0.06100000 1428279.94168380 17267.90530191
0.06200000 1421051.64402205 17457.62026284
0.06300000 1413743.15822993 16286.32194428
0.06400000 1406352.86566641 16454.32929781
0.06500000 1398886.64990337 15233.87633005
0.06600000 1391342.92205844 13982.99702093
0.06700000 1383724.18207131 15525.38604941
0.06800000 1376033.45664212 18514.53102577
0.06900000 1368271.66435248 20113.59440768
0.07000000 1360437.96907263 14488.66504911
0.07100000 1352537.59185302 23371.85068191
0.07200000 1344569.13500093 23556.85234878
0.07300000 1336537.38254919 14835.56564143
0.07400000 1328442.26890939 16439.47384818
0.07500000 1320285.16951537 16556.37680176
0.07600000 1312066.80420684 16669.80952894
0.07700000 1303792.75571327 19830.68874423
0.07800000 1295460.92165127 15351.21264148
0.07900000 1287072.96959840 20078.33926748
0.08000000 1278634.15883588 18642.48691037
0.08100000 1270143.29094006 20309.59217502
0.08200000 1261601.85644833 17277.63823482
0.08300000 1253012.69188091 25260.73705386
0.08400000 1244376.55878029 20625.54242992
0.08500000 1235697.48810441 19128.59801385
0.08600000 1226974.12234567 17613.21435324
0.08700000 1218210.81027179 27336.65186617
0.08800000 1209405.64516515 22603.79256970
0.08900000 1200564.78014817 17828.38782259
0.09000000 1191686.91210830 22773.13796017
0.09100000 1182774.86155704 19586.75262759
0.09200000 1173829.27719147 16374.91918622
0.09300000 1164854.16579168 16424.44450948
0.09400000 1155847.30816220 21412.07239002
0.09500000 1146813.26245578 18165.52293113
0.09600000 1137752.75614393 19865.16405609
0.09700000 1128669.29430769 18250.58334697
0.09800000 1119563.34623805 16625.51647333
0.09900000 1110436.45547512 16656.54761536
0.10000000 1101288.80123515 16684.52612334
0.10100000 1092123.07606022 23393.27738944
0.10200000 1082941.64382664 23424.02885775
0.10300000 1073745.25293876 18425.46940718
0.10400000 1064536.55064474 23473.03204601
0.10500000 1055318.09752932 18457.51439420
0.10600001 1046086.46632284 18468.65743195
0.10700001 1036849.16732277 23515.74022148
0.10800001 1027603.53435228 18481.45043509
0.10900001 1018353.70895376 23523.97178400
0.11000001 1009099.90703685 21841.96851590
0.11100001 999844.17763258 20156.85956992
0.11200001 990588.92254206 18469.53133029
0.11300001 981332.84199975 16780.79238825
0.11400001 972080.79519882 18445.23395738
0.11500001 962832.62266541 21779.27495023
0.11600001 953589.56091867 20082.59709867
0.11700001 944354.39546026 16715.07358684
0.11800001 935125.55686667 16691.99197623
0.11900001 925907.61649816 23332.87303477
0.12000001 916700.15232604 18301.91940330
0.12100001 907507.04072457 18268.11759036
0.12200001 898326.20622050 31490.82664263
0.12300001 889161.36735596 18192.24243322
0.12400001 880012.62536370 23100.33250423
0.12500001 870881.91775380 16459.66902113
0.12600001 861771.88241966 16416.75513371
0.12700001 852682.07352133 21282.94555808
0.12800001 843612.96224985 19588.69390664
0.12900001 834567.75102995 21156.29348575
0.13000001 825546.91784043 17844.19747020
0.13100001 816550.49097750 17784.47053181
0.13200001 807582.18607433 19333.51844601
0.13300001 798642.54158082 16052.71584255
0.13400001 789730.54346051 19190.45311084
0.13500001 780850.00494495 23894.01127788
0.13600001 771999.80676042 17451.05645465
0.13700001 763183.18540385 18957.47121934
0.13800001 754398.63623039 18875.05476855
0.13900001 745651.18344533 15658.67559079
0.14000001 736938.09868820 15586.24152231
0.14100001 728262.29601622 15511.98763674
0.14200001 719623.20154211 21610.28576157
0.14300001 711025.59830934 16893.96901268
0.14400001 702463.62277613 18334.30141928
0.14500001 693946.35007453 16717.16836188
0.14600001 685468.31708042 19648.95023604
0.14700001 677035.40035847 15030.18659703
0.14800001 668643.87441633 22416.28694738
0.14900001 660296.72546347 23770.68323820
0.15000001 651995.27827480 22151.54062456
0.15100001 643739.86154632 19080.45039654
0.15200001 635532.23835772 17502.55867027
0.15300001 627371.99281560 18839.98183329
0.15400001 619258.54582951 20156.86661797
0.15500001 611196.15330306 15732.18972847
0.15600001 603181.63783080 17045.91388958
0.15700001 595221.35422518 19749.44546530
0.15800001 587307.76825788 19610.20730771
0.15900001 579449.28039770 16688.14006314
0.16000001 571640.99956213 26229.74850302
0.16100001 563889.07650868 21924.00832956
0.16200001 556188.95316782 14958.70260159
0.16300001 548544.51654335 14843.61531840
0.16400001 540954.53537142 20082.93807377
0.16500001 533420.35860658 14610.38431201
0.16600001 525942.20807732 17127.30881467
0.16700001 518519.95737140 15680.04425124
0.16800001 511154.00245505 14253.53003146
0.16900001 503847.93552735 17987.37214766
0.17000001 496598.50767737 14011.52755574
0.17100001 489407.90953669 18940.08699345
0.17200001 482276.29722065 18772.60575581
0.17300001 475203.57307639 18604.22076452
0.17400001 468191.46815149 15977.03460520
0.17500001 461238.73895764 14612.04394027
0.17600001 454344.50332682 12062.84713304
0.17700001 447513.43064864 15533.19191146
0.17800001 440742.21586712 13017.32196047
0.17900001 434031.81861305 16406.40351851
0.18000001 427383.94154580 15084.51692938
0.18100001 420798.47913641 11487.79902307
0.18200001 414272.13995439 13646.12493471
0.18300001 407810.65589324 12381.13209779
0.18400001 401409.98304174 20050.42960013
0.18500001 395072.67446130 14329.28657966
0.18600001 388797.94296449 10905.78281538
0.18700001 382585.41537769 14025.58199038
0.18800001 376435.42682532 16007.91728206
0.18900001 370350.53605365 12665.98893147
0.19000001 364324.67350167 16700.64382240
0.19100001 358366.95415844 11353.06564417
0.19200001 352468.82415276 17346.75400034
0.19300001 346636.50937072 12104.54747920
0.19400001 340866.41461198 11964.41171825
0.19500001 335159.85307526 10839.07016066
0.19600001 329515.76121456 11684.62944484
0.19700001 323935.89013953 10582.98603098
0.19800001 318418.95696692 9504.80631465
0.19900001 312966.26425773 10327.88720860
0.20000001 307574.68237467 10200.71482305
0.20100001 302248.10718006 11905.55350451
0.20200001 296983.03357450 14469.01407961
0.20300001 291781.92635310 12499.93831577
0.20400001 286643.56505678 9695.71904632
0.20500001 281567.03936086 11310.54850574
0.20600001 276553.80797691 12880.49421536
0.20700001 271602.51158001 9321.39863804
0.20800001 266713.24346693 10869.89875132
0.20900001 261888.44940287 10724.33251000
0.21000001 257122.80766030 8137.93724715
0.21100001 252419.35692992 13645.79108071
0.21200001 247777.17170353 10291.42531323
0.21300001 243196.08132323 10148.57295340
0.21400001 238676.69400896 10006.52086940
0.21500001 234218.88590789 10624.16916707
0.21600001 229820.00746710 7480.64159673
0.21700001 225482.15990645 7373.26697755
0.21800001 221204.19940444 7993.21412340
0.21900001 216984.95449902 7876.55422073
0.22000001 212824.78001527 11288.22686575
0.22100001 208726.15229669 6950.58120013
0.22200001 204685.09570921 8216.06013026
0.22300001 200702.40577562 11464.12195999
0.22400001 196776.05128859 10625.90727204
0.22500001 192910.86883054 7193.64663886
0.22600001 189101.00948312 9014.44554834
0.22700001 185349.56487874 6972.85096048
0.22800001 181654.00846633 9359.72322885
0.22900001 178014.50375927 7369.80080416
0.23000001 174431.38802279 6648.45266891
0.23100001 170905.24366171 7137.00331284
0.23200001 167432.54411636 5851.76769362
0.23300001 164015.85891196 6332.65261209
0.23400001 160653.84082658 6795.65778837
0.23500001 157344.37472717 6683.98935454
0.23600001 154089.75247944 6025.68005571
0.23700001 150888.15026239 7541.39010681
0.23800001 147739.21613356 8474.32183825
0.23900001 144643.06500548 7290.01082109
0.24000001 141598.53665762 8190.05974767
0.24100001 138606.92582920 8553.43379751
0.24200001 135665.73331128 6428.52107704
0.24300001 132775.23449365 6317.44595604
0.24400001 129934.60236072 5252.60654890
0.24500001 127144.23259286 5629.94688553
0.24600001 124403.22096301 5530.96746566
0.24700001 121711.97138950 4980.45410486
0.24800001 119068.03503577 5336.62958276
0.24900001 116472.24653501 5678.02228719
0.25000001 113924.41660548 5147.10538574
0.25100001 111423.29824907 4632.98096038
0.25200001 108969.82008886 4135.40486802
0.25300001 106562.60916015 5684.04984152
0.25400001 104200.34039784 6377.06113405
0.25500001 101883.28456553 4303.55014366
0.25600001 99611.56686781  4608.03130132
0.25700001 97384.04961230  3768.76289831
0.25800001 95200.07575495  4808.08005349
0.25900001 93060.08326645  3629.34341911
0.26000001 90963.43696564  3917.34059828
0.26100001 88906.96931570  4891.66168320
0.26200001 86894.97807045  4456.40916121
0.26300001 84923.09843480  4708.13680000
0.26400001 82992.18383606  4948.40919537
0.26500001 81102.58169526  3883.19179532
0.26600001 79252.12525033  3808.85731976
0.26700001 77442.32113018  3735.81774810
0.26800001 75671.52675571  3969.35012380
0.26900001 73938.79667657  3892.87782924
0.27000001 72244.67984160  3524.09564944
0.27100001 70588.11891573  3167.99492686
0.27200001 68969.15074377  4236.43028492
0.27300001 67386.30884557  3877.40839447
0.27400001 65838.87179246  2987.43894896
0.27500001 64329.34930430  2929.55870596
0.27600001 62852.98093542  3133.84977775
0.27700001 61413.35526334  2817.03073925
0.27800001 60007.04600118  2511.29499400
0.27900001 58635.25903120  3201.48529462
0.28000001 57296.51644480  2898.05793894
0.28100001 55990.62477008  2368.40353987
0.28200001 54717.63541209  2787.31647981
0.28300001 53476.79604817  2505.92278142
0.28400001 52267.68156100  3575.10958799
0.28500001 51089.94549058  2630.11051834
0.28600001 49942.07402378  3440.01022158
0.28700001 48825.09136221  2742.01726069
0.28800001 47737.15551015  2483.28694718
0.28900001 46680.22302653  2233.64877755
0.29000001 45650.66935763  2391.18217414
0.29100001 44651.08605983  1955.71766199
0.29200001 43678.70939830  2111.64730582
0.29300001 42734.06438750  2638.40126018
0.29400001 41816.43300219  2405.49042232
0.29500001 40926.75630735  2180.57767928
0.29600001 40062.15497811  1784.76908876
0.29700001 39223.31983079  1753.28247943
0.29800001 38410.71885393  2239.53706879
0.29900001 37622.92443721  2031.63801579
0.30000001 36859.75609517  1830.63987313
0.30100001 36121.64664271  1799.94173742
0.30200001 35406.22902360  1770.13450383
0.30300001 34714.77571612  1582.99384760
0.30400001 34046.98986311  1713.41484598
0.30500001 33400.70722977  2146.32954820
0.30600001 32777.04903233  1811.25981528
0.30700001 32175.56579887  1783.81345234
0.30800001 31595.35844613  1757.33391997
0.30900001 31036.13259168  1731.81628061
0.31000001 30498.42678546  1849.57717997
0.31100001 29979.42843262  1403.03731707
0.31200001 29481.53040572  1799.40529351
0.31300001 29002.41024289  1912.41902196
0.31400001 28544.05543998  1753.31868841
0.31500001 28103.58062063  1998.16467673
0.31600002 27681.61513727  2106.01737936
0.31700002 27277.30272407  1301.12740154
0.31800002 26891.22093023  1544.09397892
0.31900002 26522.75014677  1273.09206732
0.32000002 26171.03034982  1638.17572231
0.32100002 25836.53338960  1622.27600835
0.32200002 25518.34415212  1730.90936580
0.32300002 25215.48731060  1715.66183785
0.32400002 24928.70124361  1458.32909181
0.32500002 24656.97153115  1326.29856146
0.32600002 24400.71450591  1675.59714446
0.32700002 24159.09736046  1188.62764642
0.32800002 23932.44819425  1535.38628661
0.32900002 23718.73493297  1174.07743478
0.33000002 23520.29602396  1985.23067991
0.33100002 23333.01452492  1278.18259620
0.33200002 23161.44949283  1735.37168543
0.33300002 23001.31465639  1728.54887828
0.33400002 22854.57441303  1263.28666050
0.33500002 22719.53755031  1603.09064547
0.33600002 22596.46702593  1370.70175470
0.33700002 22484.36853483  1253.95329257
0.33800002 22385.08868721  1593.59453911
0.33900002 22295.63245738  1364.49277101
0.34000002 22217.82764627  1363.73032551
0.34100002 22150.24754609  1363.56930351
0.34200002 22093.82823511  1818.76402645
0.34300002 22046.15388126  1706.37239122
0.34400002 22009.09725072  1252.86792033
0.34500002 21981.06251550  1368.98063830
0.34600002 21963.63483049  1143.20724707
0.34700002 21952.94686155  1489.72704458
0.34800002 21952.61588373  1149.21949594
0.34900002 21960.28718950  1614.08118487
0.35000002 21976.45438836  1157.06037835
0.35100002 22000.53359699  1510.11669762
0.35200002 22031.82197171  1283.24353152
0.35300002 22071.06097253  1757.96008972
0.35400002 22117.85857626  1295.55362747
0.35500002 22171.48907751  1657.54060194
0.35600002 22231.58047715  1547.65154822
0.35700002 22298.37908632  1317.16531502
0.35800002 22372.26407557  1686.64506855
0.35900002 22451.88706279  1212.40195882
0.36000002 22538.22011813  1464.53361264
0.36100002 22629.41170576  1843.16567074
0.36200002 22727.42283578  1361.25905523
0.36300002 22828.98585639  1994.34029888
0.36400002 22936.63767104  1758.09336076
0.36500002 23048.68240035  2024.59635795
0.36600002 23166.29351737  1530.36542225
0.36700002 23287.89963461  1285.49212072
0.36800002 23415.42627991  1425.64829658
0.36900002 23546.08012654  1568.16901071
0.37000002 23679.95143909  1844.90510401
0.37100002 23818.16514732  1594.86441381
0.37200002 23960.47978174  1608.70668875
0.37300002 24105.72588426  1352.33128617
0.37400002 24255.36512301  1637.23722336
0.37500002 24407.09950074  1376.56047705
0.37600002 24562.84193387  1527.93165488
0.37700002 24720.17833992  1401.63417827
0.37800002 24881.27227031  1980.30055381
0.37900002 25044.56473406  1570.29428321
0.38000002 25210.44916058  1728.93268534
0.38100002 25378.01109366  1890.40813592
0.38200002 25547.99101951  1908.05179968
0.38300002 25719.61624835  2222.17494913
0.38400002 25893.74415749  1794.43655512
0.38500002 26068.41405821  1509.36124548
0.38600002 26245.84485567  1828.28563926
0.38700002 26423.56611516  1845.42194491
0.38800002 26602.56487532  2638.84154782
0.38900002 26782.79106136  1723.47268645
0.39000002 26964.79169809  2055.93064042
0.39100002 27146.68496010  2234.71521179
0.39200002 27329.97863189  1611.10231668
0.39300002 27513.35720349  1626.03948776
0.39400002 27698.20708016  1805.23073198
0.39500002 27882.43139565  1821.83815371
0.39600002 28067.12563167  2172.81663372
0.39700002 28251.50999295  2698.58436238
0.39800002 28437.16874378  2042.35755594
0.39900002 28621.72896731  1889.03420134
0.40000002 28806.21095722  1905.96303829
0.40100002 28990.19550671  2971.78508219
0.40200002 29175.09348390  2469.08827853
0.40300002 29358.36479165  2134.94038880
0.40400002 29541.13917331  2512.47400573
0.40500002 29723.34602511  1810.15185869
0.40600002 29905.09695575  2008.27688122
0.40700002 30085.74637521  3130.12120119
0.40800002 30265.85514594  2042.49133130
0.40900002 30444.11890106  2059.54474124
0.41000002 30622.23336563  2076.64685409
0.41100002 30798.72076642  2284.03324026
0.41200002 30973.41949923  2110.68377178
0.41300002 31147.27154191  3288.21761248
0.41400002 31319.56607538  2534.53600474
0.41500002 31490.96229074  2358.04336806
0.41600002 31659.51546999  2178.33306513
0.41700002 31827.35769664  2394.69050656
0.41800002 31994.25740048  2614.09092477
0.41900002 32157.42640539  3241.46873526
0.42000002 32319.63788318  2245.08375194
0.42100002 32480.52323923  2467.22066216
0.42200002 32639.25138684  2278.05665849
0.42300002 32795.55606513  2294.37721104
0.42400002 32949.73030239  2100.54540631
0.42500002 33102.28809237  2115.23630933
0.42600002 33251.29652475  3407.59302933
0.42700002 33399.52158863  3216.37408140
0.42800002 33544.88266002  2590.33596175
0.42900002 33688.38337657  2390.19091383
0.43000002 33829.57531060  2843.20679171
0.43100002 33966.93471213  2861.37471574
0.43200002 34102.81760292  2657.97372993
0.43300002 34235.77263219  2674.49868477
0.43400002 34366.60305209  2690.90514650
0.43500002 34494.46900708  3609.50140795
0.43600002 34620.58916957  2496.31770037
0.43700002 34743.05354378  2282.61872600
0.43800002 34862.18584949  2525.24255168
0.43900002 34979.70262658  3232.12467587
0.44000002 35093.68872655  2785.73714313
0.44100002 35205.51014103  2800.95051956
0.44200002 35314.27286881  3050.62360634
0.44300002 35420.44433720  2830.80204558
0.44400002 35523.16181701  2371.17116366
0.44500002 35622.18123295  2621.43644117
0.44600002 35719.16512261  3352.95818896
0.44700002 35813.26749118  2406.65168946
0.44800002 35903.44730884  2901.71674902
0.44900002 35991.91690447  2915.34540743
0.45000002 36077.12702468  3172.80308655
0.45100002 36157.91092880  2941.80777259
0.45200002 36236.71681060  2462.28502397
0.45300002 36311.73898310  2472.82954194
0.45400002 36384.42414718  2979.88447888
0.45500002 36453.73959998  2992.12308817
0.45600002 36519.66124830  3755.13434583
0.45700002 36582.49474379  3015.86100961
0.45800002 36641.57266767  2775.04963751
0.45900002 36697.71044492  4051.42742513
0.46000002 36751.57481280  3303.78297438
0.46100002 36800.96568311  4845.58338115
0.46200002 36847.95911823  2814.99997025
0.46300002 36891.33463189  3081.16441449
0.46400002 36931.11472341  4636.70167328
0.46500002 36968.58541168  2842.51466703
0.46600002 37002.09756496  3887.99558591
0.46700002 37032.37561209  3639.54204766
0.46800002 37060.05603288  2867.89257203
0.46900002 37083.84252904  3398.73432887
0.47000002 37104.08996778  3407.82530461
0.47100002 37121.59788791  3679.49295705
0.47200002 37135.67817231  3425.20943857
0.47300002 37147.04528490  3169.38605393
0.47400002 37153.92952112  3970.82640578
0.47500002 37158.70388649  3183.75789990
0.47600002 37160.52335988  3456.48624415
0.47700002 37157.99424904  2664.22831394
