# SAXS profile: number of points = 501, q_min = 0, q_max = 0.5, delta_q = 0.001
#    q    intensity    error
0.00000000 1682732.95097188 378.61491397
0.00100000 1682664.06029057 656.23899910
0.00200000 1682457.33338991 984.23757120
0.00300000 1682112.93913838 1312.04813927
0.00400000 1681630.75039913 2270.20159930
0.00500000 1681011.22924853 1966.78321607
0.00600000 1680254.06661104 2117.12021012
0.00700000 1679359.96043466 2216.75523990
0.00800000 1678328.36269077 2718.89206235
0.00900000 1677160.62431351 3522.03746162
0.01000000 1675855.86081465 3318.19474769
0.01100000 1674415.39937177 3315.34263510
0.01200000 1672838.60751345 3262.03542767
0.01300000 1671126.89315803 4562.17661954
0.01400000 1669279.55792020 4882.64292337
0.01500000 1667298.33749552 4801.81942581
0.01600000 1665182.06083595 4670.83588945
0.01700000 1662932.89887076 5836.89473687
0.01800000 1660550.37479615 5205.82565924
0.01900000 1658035.22528820 5471.51649034
0.02000000 1655388.11832208 6257.36737031
0.02100000 1652610.62627108 8725.78450233
0.02200000 1649700.96288264 6260.61543857
0.02300000 1646662.05078006 11263.16894002
0.02400000 1643493.65913310 9244.65225416
0.02500000 1640197.32517271 7676.12383238
0.02600000 1636773.09178699 7291.82445743
0.02700000 1633221.91989763 8917.39209107
0.02800000 1629543.85488536 10632.77414074
0.02900000 1625741.36119884 10242.17104581
0.03000000 1621814.69726776 7541.43868894
0.03100000 1617764.26720458 9318.32260786
0.03200000 1613590.95262358 10383.45825838
0.03300000 1609297.53221419 9028.15957192
0.03400000 1604882.11827136 10110.75781162
0.03500000 1600347.97124125 12962.81916565
0.03600000 1595694.78512335 8856.10646671
0.03700000 1590924.41392610 10881.92349452
0.03800000 1586038.26052128 11133.98910414
0.03900000 1581037.38278808 11383.46968324
0.04000000 1575920.83396101 10661.10493577
0.04100000 1570692.62967729 10884.90042836
0.04200000 1565353.00512077 11106.18008658
0.04300000 1559901.94129698 15443.02993567
0.04400000 1554343.12465846 12590.17989445
0.04500000 1548676.23960141 13891.62651470
0.04600000 1542901.74748512 14140.69517306
0.04700000 1537022.49931733 14386.53126270
0.04800000 1531039.10176224 14629.07929800
0.04900000 1524953.99359571 12580.87103277
0.05000000 1518766.66460307 12780.42207777
0.05100000 1512480.73594886 12977.08531897
0.05200000 1506094.32413490 17960.17565228
0.05300000 1499612.47348767 13361.54776166
0.05400000 1493034.12391688 20939.80456444
0.05500000 1486362.98146544 13733.99458942
0.05600000 1479597.33658665 16445.72516359
0.05700000 1472742.28797985 14094.14435386
0.05800000 1465796.66826634 18161.22156781
0.05900000 1458762.34042459 18380.40634782
0.06000000 1451641.95284048 17267.28183574
0.06100000 1444437.11115760 17463.24548998
0.06200000 1437148.19831294 14939.15621977
0.06300000 1429778.42810575 15098.46090673
0.06400000 1422326.17742025 16641.21705407
0.06500000 1414797.13208178 14006.49226280
0.06600000 1407189.65190512 16970.70799601
0.06700000 1399506.51868906 15702.46387455
0.06800000 1391750.75313622 15845.08306615
0.06900000 1383923.15649191 18890.55197055
0.07000000 1376022.91006272 16120.10914626
0.07100000 1368055.19389939 17729.99614337
0.07200000 1360018.76366319 17870.64739172
0.07300000 1351918.46274839 24010.07302342
0.07400000 1343753.95792681 15117.23273513
0.07500000 1335526.78067433 24360.00962131
0.07600000 1327237.88746649 19928.47781457
0.07700000 1318892.32589129 18517.24912376
0.07800000 1310488.41445259 18635.14612743
0.07900000 1302028.01419803 17186.77059354
0.08000000 1293515.95083380 15716.21953990
0.08100000 1284951.35798521 20546.37317818
0.08200000 1276335.47725084 17479.41518118
0.08300000 1267671.42311865 23958.99102139
0.08400000 1258959.62007323 17656.90950032
0.08500000 1250204.28093039 16127.63598112
0.08600000 1241404.35354507 19440.39308927
0.08700000 1232563.61877551 16269.84053183
0.08800000 1223680.65545282 17969.75126925
0.08900000 1214761.45407635 19679.13648036
0.09000000 1205804.84414458 18105.16058533
0.09100000 1196813.31914026 21470.83195410
0.09200000 1187787.82060406 16569.64087598
0.09300000 1178732.43479665 21606.16654514
0.09400000 1169644.80627164 16667.43927270
0.09500000 1160529.49202281 16711.62547062
0.09600000 1151387.16620592 20103.22086696
0.09700000 1142221.63205714 21827.85641480
0.09800000 1133032.94289586 25238.30998965
0.09900000 1123823.11027439 18543.08219147
0.10000000 1114592.08743986 20263.28510258
0.10100000 1105342.62274681 16911.74292342
0.10200000 1096077.13351642 18627.83176030
0.10300000 1086796.05989107 16954.01933183
0.10400000 1077502.48642313 18667.73145551
0.10500000 1068198.78062637 18682.79755217
0.10600001 1058881.73708664 35689.61062783
0.10700001 1049558.33179622 18703.13035273
0.10800001 1040226.62546409 25511.55919012
0.10900001 1030890.12398191 18710.65663090
0.11000001 1021549.74442759 18709.68444985
0.11100001 1012206.86535738 20406.09136619
0.11200001 1002864.14883045 20398.25774750
0.11300001 993520.42119277 18688.12000249
0.11400001 984180.51224425 16977.11463557
0.11500001 974844.08239938 27139.66053195
0.11600001 965512.70295061 18639.22360821
0.11700001 956189.16299152 22001.91367661
0.11800001 946871.66127179 18591.82594472
0.11900001 937564.77496702 21939.01676759
0.12000001 928268.08561677 21902.48651184
0.12100001 918985.75761116 16817.44015652
0.12200001 909715.50543031 18462.67705251
0.12300001 900461.28097255 18423.43867671
0.12400001 891222.81907997 20052.51437412
0.12500001 882002.20032254 16669.84237159
0.12600001 872802.35687492 18289.57425018
0.12700001 863622.47347674 21556.01795384
0.12800001 854463.29959595 24800.79843962
0.12900001 845327.65364060 26374.22403666
0.13000001 836216.69331408 19717.99055775
0.13100001 827129.88067276 19652.60689116
0.13200001 818071.15881017 21216.67650390
0.13300001 809041.18240059 17887.90138617
0.13400001 800038.85534412 21061.02385987
0.13500001 791067.67358274 25820.45008313
0.13600001 782126.99175339 17679.98148221
0.13700001 773220.03944326 24008.48335679
0.13800001 764344.93982700 19123.91129627
0.13900001 755507.14795162 17452.21594070
0.14000001 746703.70737400 23689.17623364
0.14100001 737937.67028090 15718.07311829
0.14200001 729208.34083664 23462.27947302
0.14300001 720520.72022254 17119.57311998
0.14400001 711868.54614276 15483.14160894
0.14500001 703261.15507979 27722.55604098
0.14600001 694693.32794221 18381.58632449
0.14700001 686170.61038514 18279.58592303
0.14800001 677689.50690861 22719.54179099
0.14900001 669252.54445265 16564.00125671
0.15000001 660861.82940026 14968.52114217
0.15100001 652517.04562128 20828.34507902
0.15200001 644220.41816375 22177.28894177
0.15300001 635971.23500849 16160.02984414
0.15400001 627768.91931766 17514.75367550
0.15500001 619617.97545987 15948.96744102
0.15600001 611515.27947205 23041.89681797
0.15700001 603466.62719940 20023.02363550
0.15800001 595465.17321141 17042.21406168
0.15900001 587518.83931579 18330.58865187
0.16000001 579623.12451417 18197.26885308
0.16100001 571784.03898034 18062.65864402
0.16200001 563996.80573296 13789.72255113
0.16300001 556265.51556124 15052.54556169
0.16400001 548589.05923244 14935.33784269
0.16500001 540968.87431097 14817.13816691
0.16600001 533404.53352400 14697.96261519
0.16700001 525896.77280741 21204.15888074
0.16800001 518445.46410477 21028.14901696
0.16900001 511054.23097218 15638.26020616
0.17000001 503720.28730171 14212.46857733
0.17100001 496445.29328485 17931.60484020
0.17200001 489229.50728123 16504.15820751
0.17300001 482073.01496270 13840.31691318
0.17400001 474977.64790171 18702.24576936
0.17500001 467941.90994741 18530.50050907
0.17600001 460964.99080497 14686.34530067
0.17700001 454051.57047240 16972.44850588
0.17800001 447198.38344912 15609.46031156
0.17900001 440406.47576306 11890.97540726
0.18000001 433677.42076219 18838.94804777
0.18100001 427011.26170782 15154.63039386
0.18200001 420404.37134563 13848.12064628
0.18300001 413863.02008061 15991.66785135
0.18400001 407382.83907804 11304.87431847
0.18500001 400966.55869382 14543.05777087
0.18600001 394613.00897671 12175.78496720
0.18700001 388322.32389547 10950.69005122
0.18800001 382094.30497317 11915.61146355
0.18900001 375932.09035597 12856.87809763
0.19000001 369829.21402617 11655.16823073
0.19100001 363795.05575873 12572.75772109
0.19200001 357821.02520732 14502.48683691
0.19300001 351913.09083603 15361.00714084
0.19400001 346067.95568387 10122.48818208
0.19500001 340286.90155007 13005.76599183
0.19600001 334568.72014437 11863.80737696
0.19700001 328915.05901698 13676.28880023
0.19800001 323325.00159283 11581.50210438
0.19900001 317799.73649977 11440.79105468
0.20000001 312335.97287357 10358.62302991
0.20100001 306937.75633297 11160.25734773
0.20200001 301601.61261970 10102.14649216
0.20300001 296329.99127988 15415.08687497
0.20400001 291121.47379469 17903.97148462
0.20500001 285975.57588827 9720.31028389
0.20600001 280893.17594943 10466.08023059
0.20700001 275873.54541922 8607.25502394
0.20800001 270916.23508210 11041.19168269
0.20900001 266023.93035177 10055.70504264
0.21000001 261191.47920499 8266.71070762
0.21100001 256421.67501034 13046.73544129
0.21200001 251713.71795235 11259.15513628
0.21300001 247067.30400720 10310.11908364
0.21400001 242483.39419241 9384.10779889
0.21500001 237961.43152249 10793.93104417
0.21600001 233498.88906703 8360.42811831
0.21700001 229098.07525114 9738.95963938
0.21800001 224757.67154900 10336.60580326
0.21900001 220476.48012847 10913.58628237
0.22000001 216255.03885813 10036.39682795
0.22100001 212095.74134933 8475.34622506
0.22200001 207994.44834698 8348.89755142
0.22300001 203952.22293801 7538.07451623
0.22400001 199966.87854088 6748.88246988
0.22500001 196043.12568785 6645.86227508
0.22600001 192175.54491719 7197.93537525
0.22700001 188366.83678642 7730.57534729
0.22800001 184614.63089122 6975.66415810
0.22900001 180919.01655003 7490.04763938
0.23000001 177280.43220834 7985.59744648
0.23100001 173699.27964637 7253.68226108
0.23200001 170172.21631584 5947.51924152
0.23300001 166701.79498565 6436.35660880
0.23400001 163286.60914237 5755.85324449
0.23500001 159924.65096109 7359.73278532
0.23600001 156617.95832560 6124.54555000
0.23700001 153364.79248157 6570.14802066
0.23800001 150165.34546191 9151.82741205
0.23900001 147018.79638946 5292.67692036
0.24000001 143924.86050613 6243.46074407
0.24100001 140884.07370166 5114.09211727
0.24200001 137894.46369267 6031.50412722
0.24300001 134956.10472484 6421.21176655
0.24400001 132068.20912905 6309.55898960
0.24500001 129231.11795817 5245.49132606
0.24600001 126443.91685673 5621.69680939
0.24700001 123707.28004471 5062.10213890
0.24800001 121018.53371052 5424.05093750
0.24900001 118378.25255878 4439.18468096
0.25000001 115786.73178563 6103.11892115
0.25100001 113242.49894643 5136.67999522
0.25200001 110746.49302719 6304.24441382
0.25300001 108297.28138365 5776.57726230
0.25400001 105893.56273175 4050.42896612
0.25500001 103535.72665250 4373.34930071
0.25600001 101223.84370671 4682.61523142
0.25700001 98956.66615511  5361.47242595
0.25800001 96733.58225203  4133.90983313
0.25900001 94554.99765472  6268.99664112
0.26000001 92420.40599528  4341.91087910
0.26100001 90326.53218025  4259.79945918
0.26200001 88277.80984551  4875.58366846
0.26300001 86269.69753268  5466.04829431
0.26400001 84303.12857752  3351.04951952
0.26500001 82378.33720977  4272.96455326
0.26600001 80493.39375145  3223.76057229
0.26700001 78649.60885730  3794.05731081
0.26800001 76845.29533615  4030.92015760
0.26900001 75079.70429614  3344.80098467
0.27000001 73353.29060526  3876.35482547
0.27100001 71665.01628535  3216.32608309
0.27200001 70014.81419710  3440.52813246
0.27300001 68401.27949107  3654.68053616
0.27400001 66823.57920960  3583.41460470
0.27500001 65284.49096939  3783.88927566
0.27600001 63779.15702098  3975.03614945
0.27700001 62310.85993061  3118.03557849
0.27800001 60876.61204447  3311.99223503
0.27900001 59477.16353251  3747.06147989
0.28000001 58111.49936368  3429.15973975
0.28100001 56779.04738542  2882.10458169
0.28200001 55480.08013087  2826.15541563
0.28300001 54213.93730054  2309.51383831
0.28400001 52979.77887860  3397.32848139
0.28500001 51777.61018670  2665.51149857
0.28600001 50605.87960609  2396.44154217
0.28700001 49465.42704641  2136.90654955
0.28800001 48354.67343123  2934.64526945
0.28900001 47275.22721823  2879.06147387
0.29000001 46223.67283597  2622.96243923
0.29100001 45202.65844544  2375.85184035
0.29200001 44209.27581281  2331.59731673
0.29300001 43244.10880070  2288.47834606
0.29400001 42306.38535101  1872.05764040
0.29500001 41396.99373226  2940.84257395
0.29600001 40513.33870516  2526.81705465
0.29700001 39655.80484269  1949.87601642
0.29800001 38825.08587768  2089.56622085
0.29900001 38019.48276745  2224.13984718
0.30000001 37238.90569783  2522.00500778
0.30100001 36483.98721209  1983.26963874
0.30200001 35752.20318947  1949.92525426
0.30300001 35044.69707757  2077.44974111
0.30400001 34361.38247711  1886.43998730
0.30500001 33699.89722528  1546.82535587
0.30600001 33061.34518346  1826.97002133
0.30700001 32445.53376883  1498.98373109
0.30800001 31851.50184417  1623.94889841
0.30900001 31278.80564996  1745.35743790
0.31000001 30727.98951075  1576.80685640
0.31100001 30196.22820182  1554.50190143
0.31200001 29685.97277554  1533.13213658
0.31300001 29195.04770684  1650.10417452
0.31400001 28725.17812624  1900.17062302
0.31500001 28273.47993259  1742.21191593
0.31600002 27840.74607183  1456.21029224
0.31700002 27426.03863695  2093.15536788
0.31800002 27029.86922758  1422.71723416
0.31900002 26651.69703138  1407.20966989
0.32000002 26290.68085624  1645.66524612
0.32100002 25947.18783974  1629.22400160
0.32200002 25620.42518821  1861.96448872
0.32300002 25309.25798096  1476.03599534
0.32400002 25014.56947968  1707.24444783
0.32500002 24735.14952015  1330.50375569
0.32600002 24471.58752709  1680.46399506
0.32700002 24222.98888149  1430.12533128
0.32800002 23989.72173256  1302.28210592
0.32900002 23769.66650303  1647.23796666
0.33000002 23565.28440124  1989.02792408
0.33100002 23372.16473837  1396.72063091
0.33200002 23195.20537713  1622.04078883
0.33300002 23029.94317780  1615.32029098
0.33400002 22878.37074146  1149.63818420
0.33500002 22738.77155109  1375.24096854
0.33600002 22611.43821273  1257.30908136
0.33700002 22495.36436666  1254.56653014
0.33800002 22392.29113456  1252.51286393
0.33900002 22299.44587670  1592.18051100
0.34000002 22218.37483282  1818.35188243
0.34100002 22147.83231036  1477.03900673
0.34200002 22088.80177735  1136.46890527
0.34300002 22038.58637447  1250.91022186
0.34400002 21999.51682458  1252.32255455
0.34500002 21969.45032830  1482.27888385
0.34600002 21950.27775992  1371.01441382
0.34700002 21938.06383206  1832.26717803
0.34800002 21936.51252556  1378.05178212
0.34900002 21943.10276630  1497.61683473
0.35000002 21958.43434152  1734.16743426
0.35100002 21981.90116946  1160.64443672
0.35200002 22012.74673714  1282.13249443
0.35300002 22051.75974473  1288.04334770
0.35400002 22098.55826398  1176.74828329
0.35500002 22152.34851794  1301.22901358
0.35600002 22212.77325490  1427.39287697
0.35700002 22280.12526005  1316.08706145
0.35800002 22354.78260352  1564.94663028
0.35900002 22435.23106423  1211.50253485
0.36000002 22522.62669198  1585.48038108
0.36100002 22615.08440006  2333.19836807
0.36200002 22714.47518460  1484.16387886
0.36300002 22817.61586179  1370.42607357
0.36400002 22927.00980625  1255.25384635
0.36500002 23040.86429847  1391.43786089
0.36600002 23160.40203873  2677.45840451
0.36700002 23284.21736627  1670.87551735
0.36800002 23414.02964712  1295.96660236
0.36900002 23547.01197236  1568.23107164
0.37000002 23683.45397816  1449.78270395
0.37100002 23824.24994668  1595.27185200
0.37200002 23969.44781575  1743.41786946
0.37300002 24117.53662795  1758.89202960
0.37400002 24270.15319723  1501.71580022
0.37500002 24425.03065195  2341.87204985
0.37600002 24583.94665246  1529.24447396
0.37700002 24744.57910887  1683.62124232
0.37800002 24909.07732632  1699.29733570
0.37900002 25075.91610564  1429.32728573
0.38000002 25245.36602050  1442.77273642
0.38100002 25416.56689082  2184.55402775
0.38200002 25590.31171051  1911.21252064
0.38300002 25765.72867907  1929.33785489
0.38400002 25943.76125167  2097.55319657
0.38500002 26122.49066294  1966.23996535
0.38600002 26303.90739210  2443.10703432
0.38700002 26485.71872104  1695.61579285
0.38800002 26668.88966582  2645.42063573
0.38900002 26853.37392406  1570.92244898
0.39000002 27039.55116411  1903.04370109
0.39100002 27225.71895664  1600.87235049
0.39200002 27413.45202019  2262.43230241
0.39300002 27601.19478670  1957.47682701
0.39400002 27790.49738149  1975.90445744
0.39500002 27979.12656442  2492.94029500
0.39600002 28168.34034616  1677.42474709
0.39700002 28357.20934084  1862.21802564
0.39800002 28547.52145677  1708.56924014
0.39900002 28736.74064585  2241.46587657
0.40000002 28925.68979580  2783.80851784
0.40100002 29114.35611976  1755.59575720
0.40200002 29303.84550351  2657.12631692
0.40300002 29491.73342760  2502.07878255
0.40400002 29679.20086200  2524.21615291
0.40500002 29866.12050680  2182.61619005
0.40600002 30052.50095489  2935.52843236
0.40700002 30237.83154358  2775.83306722
0.40800002 30422.50158473  2426.34672885
0.40900002 30605.47436089  2635.13146733
0.41000002 30788.18753736  2467.51940710
0.41100002 30969.37381923  1913.90739271
0.41200002 31148.59269560  2122.62094982
0.41300002 31327.15340856  2334.49958262
0.41400002 31503.95749658  2549.45788121
0.41500002 31679.88468354  2174.50738771
0.41600002 31853.04078649  2390.88935472
0.41700002 32025.36234922  2409.58837733
0.41800002 32196.75464146  2225.92273761
0.41900002 32364.39789122  2854.54002927
0.42000002 32531.01410650  2465.20036580
0.42100002 32696.29425526  2276.64307687
0.42200002 32859.37521614  2918.89843876
0.42300002 33020.02366179  2730.09568572
0.42400002 33178.45083548  3384.20214558
0.42500002 33335.24012237  3195.18291714
0.42600002 33488.38148964  3002.90331047
0.42700002 33640.70265471  2591.67985533
0.42800002 33790.19390200  2391.83898869
0.42900002 33937.77468979  2845.68254259
0.43000002 34082.92998815  2203.46152815
0.43100002 34224.27447570  2883.05301845
0.43200002 34364.01455241  2678.33142113
0.43300002 34500.80327140  2470.60263934
0.43400002 34635.45119442  2259.96329753
0.43500002 34766.92179223  2273.75679296
0.43600002 34896.72052956  3202.47219476
0.43700002 35022.85230651  2991.30195725
0.43800002 35145.42798032  2545.75919640
0.43900002 35266.45905538  2327.58640796
0.44000002 35383.83270263  2808.76877304
0.44100002 35498.94916389  3295.01261754
0.44200002 35610.98607871  2602.98515078
0.44300002 35720.30981701  3092.66457052
0.44400002 35826.12334609  2630.53323135
0.44500002 35928.23005599  3845.75792745
0.44600002 36028.15063943  2657.25637634
0.44700002 36125.28164186  3398.66665793
0.44800002 36218.13951037  2683.22099279
0.44900002 36309.38891436  2695.97225466
0.45000002 36397.28683079  3447.18719911
0.45100002 36480.72418222  3462.75050348
0.45200002 36561.97687764  2484.38644658
0.45300002 36639.39024045  4491.25666853
0.45400002 36714.46137624  3006.91452922
0.45500002 36786.05881156  2516.16654196
0.45600002 36854.26296110  2778.99583029
0.45700002 36919.12808223  3550.88190724
0.45800002 36980.19959084  2800.69554875
0.45900002 37038.37902563  4344.60206561
0.46000002 37094.03876331  3334.56877267
0.46100002 37145.15498400  3088.99123487
0.46200002 37193.91695769  3616.36471719
0.46300002 37238.88051670  2591.82620680
0.46400002 37280.21818751  3120.35441018
0.46500002 37319.15325016  3130.33072299
0.46600002 37353.96057206  2878.30956830
0.46700002 37385.52195965  4461.58840213
0.46800002 37414.41935089  3421.73588391
0.46900002 37439.34842129  3959.21128320
0.47000002 37460.51171288  3969.87791693
0.47100002 37478.94402981  3449.56217200
0.47200002 37493.82053099  2926.20536203
0.47300002 37506.13074863  2933.35462488
0.47400002 37513.55737563  3207.40930764
0.47500002 37518.95332330  2678.85339426
0.47600002 37521.30068883  3221.57902984
