# SAXS profile: number of points = 501, q_min = 0, q_max = 0.5, delta_q = 0.001
#    q    intensity    error
0.00000000 1664650.74656091 349.57665678
0.00100000 1664582.42019796 649.18715929
0.00200000 1664377.38050503 898.76381393
0.00300000 1664035.80614474 1098.26367118
0.00400000 1663557.56037235 1497.20186123
0.00500000 1662943.09487222 1945.64349801
0.00600000 1662192.13912770 2617.95272571
0.00700000 1661305.35605817 3389.06306721
0.00800000 1660282.19130054 2689.65726346
0.00900000 1659124.01011823 2737.55473372
0.01000000 1657829.93481906 3556.04536374
0.01100000 1656401.25412452 3577.82686469
0.01200000 1654837.39058760 3549.62635844
0.01300000 1653139.69143573 4165.91220615
0.01400000 1651307.50986788 4086.98626810
0.01500000 1649342.52327763 4354.26445534
0.01600000 1647243.60598255 5040.56565964
0.01700000 1645012.88578168 4885.68848994
0.01800000 1642649.94740116 5617.86307290
0.01900000 1640155.50229846 5412.51340181
0.02000000 1637530.13073836 6189.86417419
0.02100000 1634775.47770673 5934.23525312
0.02200000 1631889.72039220 7319.02572848
0.02300000 1628875.86195394 7623.13938094
0.02400000 1625733.60319116 6096.50128995
0.02500000 1622464.42252378 6327.61153683
0.02600000 1619068.46083501 11147.28686271
0.02700000 1615546.58853981 6785.29598264
0.02800000 1611898.86397840 9816.46453181
0.02900000 1608127.82280821 10131.20574886
0.03000000 1604233.72107121 7459.68714587
0.03100000 1600216.77334393 8449.14495203
0.03200000 1596078.07126492 8690.64549831
0.03300000 1591820.30239053 12989.25426632
0.03400000 1587441.51158644 10834.28881648
0.03500000 1582945.04557390 8547.90364082
0.03600000 1578330.62444630 9635.70890755
0.03700000 1573599.99492422 8969.52038589
0.03800000 1568754.59630277 11930.37925702
0.03900000 1563795.38597143 10321.05002538
0.04000000 1558721.58244116 10544.75199385
0.04100000 1553537.05031614 13702.19741911
0.04200000 1548242.16151041 12982.01112654
0.04300000 1542836.81654872 14255.81284664
0.04400000 1537324.70022554 12452.33065014
0.04500000 1531705.41209734 14796.27496837
0.04600000 1525979.48787638 12909.78706757
0.04700000 1520149.75142367 15323.11020700
0.04800000 1514216.84427061 11129.49432322
0.04900000 1508183.17555663 12442.51177751
0.05000000 1502048.12339460 14937.86928276
0.05100000 1495815.42785056 15167.56914497
0.05200000 1489483.10982740 17762.08691243
0.05300000 1483056.41455020 14415.30902144
0.05400000 1476533.93468831 17053.96774094
0.05500000 1469919.61053303 14816.79036537
0.05600000 1463211.63706433 13761.50608876
0.05700000 1456415.28053741 12670.81353213
0.05800000 1449528.99966499 16676.83191983
0.05900000 1442555.00433471 18176.19390355
0.06000000 1435495.71871485 18388.70101584
0.06100000 1428352.89542164 14612.05080300
0.06200000 1421126.75150341 21487.43748713
0.06300000 1413820.55892469 17644.48140035
0.06400000 1406432.62148678 15083.99057087
0.06500000 1398968.73656564 15234.77025385
0.06600000 1391427.29220666 15382.22943506
0.06700000 1383810.95767602 18349.33415751
0.06800000 1376122.57921467 15667.15629772
0.06900000 1368363.20719228 17241.37721785
0.07000000 1360531.91787039 18836.56528500
0.07100000 1352633.97389724 17530.13712278
0.07200000 1344668.08498535 20613.76270851
0.07300000 1336638.88231982 17804.03074672
0.07400000 1328546.21536384 17935.37474794
0.07500000 1320391.73586123 19568.20644267
0.07600000 1312175.96716687 21217.88638380
0.07700000 1303904.32435666 24409.09009646
0.07800000 1295575.14285395 19958.33601164
0.07900000 1287190.02598754 21624.79345087
0.08000000 1278753.79065601 26412.66078505
0.08100000 1270265.50230977 23436.39961721
0.08200000 1261726.76875112 21991.89861131
0.08300000 1253140.27614122 20526.43868654
0.08400000 1244506.84098834 20627.70185762
0.08500000 1235830.41225177 20724.87698639
0.08600000 1227109.95692870 17615.16425877
0.08700000 1218349.34229842 16082.21207352
0.08800000 1209546.83056158 17762.19604098
0.08900000 1200708.69657569 19451.48179816
0.09000000 1191833.74748665 19522.23770090
0.09100000 1182924.38022491 19589.22865685
0.09200000 1173981.58244856 19652.45261359
0.09300000 1165009.29430173 18069.29500373
0.09400000 1156005.30589127 26356.92221303
0.09500000 1146974.01627348 23122.99725492
0.09600000 1137916.27579892 18212.35085028
0.09700000 1128835.73253737 16593.88604842
0.09800000 1119732.37914449 18290.82927332
0.09900000 1110608.51375705 16659.12848971
0.10000000 1101463.66516344 18355.89284317
0.10100000 1092300.89557192 25068.30673238
0.10200000 1083122.37848303 20081.08984162
0.10300000 1073928.69464781 20103.94610951
0.10400000 1064722.73111631 16769.38380400
0.10500000 1055507.23943812 23495.59225535
0.10600001 1046278.45864581 18472.04705657
0.10700001 1037043.99419206 26880.18159438
0.10800001 1027801.23526803 18485.00608623
0.10900001 1018554.24773900 16806.14587869
0.11000001 1009303.37208120 23526.86271061
0.11100001 1000050.39879078 21841.10173772
0.11200001 990797.98465532 20152.83195663
0.11300001 981544.79731655 20141.30018920
0.11400001 972295.62683139 21803.73045831
0.11500001 963049.98533622 23459.89874747
0.11600001 953809.78699036 20087.23505995
0.11700001 944577.47442720 23406.63091864
0.11800001 935351.44321016 23374.43366672
0.11900001 926136.22581535 26672.72455981
0.12000001 916931.57622212 21635.00156008
0.12100001 907741.04489385 23256.32666574
0.12200001 898563.03803562 21552.03548263
0.12300001 889401.05363881 16542.86037709
0.12400001 880255.00264706 16504.78207730
0.12500001 871126.98413531 21403.59100875
0.12600001 862019.61764075 16421.47448989
0.12700001 852932.59037781 21289.19845911
0.12800001 843866.18149079 16328.81138141
0.12900001 834823.50124052 19534.87084975
0.13000001 825805.23341987 16227.07360156
0.13100001 816811.51065310 16172.86867328
0.13200001 807845.62567471 16116.52099195
0.13300001 798908.70031188 17663.87219662
0.13400001 789999.25843494 15997.48573752
0.13500001 781121.14643844 22308.82099410
0.13600001 772273.40148240 15870.21914876
0.13700001 763459.24495976 17383.96782744
0.13800001 754677.07474999 17308.51952559
0.13900001 745932.07208009 17231.03167763
0.14000001 737221.53508705 15592.23620243
0.14100001 728548.00311394 18621.68783785
0.14200001 719911.19485883 18530.51502966
0.14300001 711315.97636591 16900.86839563
0.14400001 702756.37107013 18341.94215012
0.14500001 694241.20220831 16724.27135012
0.14600001 685765.47660271 18145.35536690
0.14700001 677334.90567258 18044.20273838
0.14800001 668945.46866703 19436.21150910
0.14900001 660600.25610683 16349.85711004
0.15000001 652300.98932054 22161.92715783
0.15100001 644047.64458594 17621.14438732
0.15200001 635842.06999485 18970.34905345
0.15300001 627683.83446121 20299.29616438
0.15400001 619572.31363500 17286.06836616
0.15500001 611511.91307063 21464.06916173
0.15600001 603499.25037292 19897.37122385
0.15700001 595540.80174617 18348.61296780
0.15800001 587629.12530268 18219.44188994
0.15900001 579772.39413754 15305.99192768
0.16000001 571965.71628423 20719.45905040
0.16100001 564215.75910252 17823.57667140
0.16200001 556517.03880524 16328.21068934
0.16300001 548874.27734461 14852.53864610
0.16400001 541285.88451924 16076.19152917
0.16500001 533753.32366321 15948.55006401
0.16600001 526276.49533964 21093.16292908
0.16700001 518855.71905032 22227.78005359
0.16800001 511491.33202952 12966.30587917
0.16900001 504186.41221708 20570.80658977
0.17000001 496938.55708391 19119.71188663
0.17100001 489749.12172560 17689.73911206
0.17200001 482618.63332652 15028.74495149
0.17300001 475547.09874140 14894.13583595
0.17400001 468536.21493679 17218.70671210
0.17500001 461584.54205040 14622.99898277
0.17600001 454691.32487867 13279.26077025
0.17700001 447861.21477000 16741.05299879
0.17800001 441090.85264731 15396.27693885
0.17900001 434381.37275159 12901.12738009
0.18000001 427734.32736361 11612.98753646
0.18100001 421149.73506835 16096.34363465
0.18200001 414624.07459953 11381.43138539
0.18300001 408163.24509236 14644.89792573
0.18400001 401763.12757323 13378.71278021
0.18500001 395426.54578129 17651.84183759
0.18600001 389152.25495307 15282.00977398
0.18700001 382940.18962769 11878.80524346
0.18800001 376790.69172528 10682.01661510
0.18900001 370706.22784648 16904.20478848
0.19000001 364680.49021629 17761.76411521
0.19100001 358723.13777541 17563.08565534
0.19200001 352825.13624783 15321.43226552
0.19300001 346992.91462227 12116.99315117
0.19400001 341222.96357084 10978.84937168
0.19500001 335516.50931835 11837.02300811
0.19600001 329872.28330500 13646.81700523
0.19700001 324292.29032922 11557.77777353
0.19800001 318775.28010482 11418.53107298
0.19900001 313322.45226489 10339.64141339
0.20000001 307930.63105422 9284.10896506
0.20100001 302603.73855875 12836.45119634
0.20200001 297338.33821053 15391.71980493
0.20300001 292136.87475880 14303.02206422
0.20400001 286997.90917785 10590.22334922
0.20500001 281920.85195757 13938.16757960
0.20600001 276907.12672102 13756.74670575
0.20700001 271955.14595442 11030.50124131
0.20800001 267065.20482231 8372.49456695
0.20900001 262239.57362411 12390.82043947
0.21000001 257473.14235936 10593.73294317
0.21100001 252768.75638846 8038.04683314
0.21200001 248125.69973533 18233.51790703
0.21300001 243543.58105057 10163.07411770
0.21400001 239023.23611681 10021.04964796
0.21500001 234564.29197787 9879.84844520
0.21600001 230164.29394916 8990.21774670
0.21700001 225825.09500772 9599.82524265
0.21800001 221545.98007821 10188.90010553
0.21900001 217325.37706854 8606.08533882
0.22000001 213163.80505660 7773.01851892
0.22100001 209063.65445964 6961.82002269
0.22200001 205021.12607500 6857.95699148
0.22300001 201036.79094161 6754.83649504
0.22400001 197108.93237431 10643.88285152
0.22500001 193242.05265856 9826.35884235
0.22600001 189430.35833274 9030.14560874
0.22700001 185677.18182298 6985.17591050
0.22800001 181979.78096578 8751.40808050
0.22900001 178338.44863035 9229.01515307
0.23000001 174753.38614377 6055.20511624
0.23100001 171225.27368682 8937.95970915
0.23200001 167750.40406528 6449.16458929
0.23300001 164331.62536623 6344.84435547
0.23400001 160967.39767434 6241.51114002
0.23500001 157655.70912107 7255.31607690
0.23600001 154398.90357549 7135.54566623
0.23700001 151194.82995988 7556.71795881
0.23800001 148043.54781920 7961.04216052
0.23900001 144944.86521305 5218.01539448
0.24000001 141897.93010316 7694.41562379
0.24100001 138903.68128004 5042.20386897
0.24200001 135959.93744901 6442.46194076
0.24300001 133066.78558348 7305.36687410
0.24400001 130223.42613967 5742.85336442
0.24500001 127430.31696353 7523.48626942
0.24600001 124686.59882250 4619.63870491
0.24700001 121992.37514494 4538.11657007
0.24800001 119345.62729497 5349.07126841
0.24900001 116746.76319491 4815.80420961
0.25000001 114195.96442538 4299.47826402
0.25100001 111691.73510650 5066.33734411
0.25200001 109235.22108594 4560.02451997
0.25300001 106824.93393728 6105.04526335
0.25400001 104459.38757165 5593.80046911
0.25500001 102139.25921521 4314.36251337
0.25600001 99864.18390148  5004.69381301
0.25700001 97633.32032526  4156.25064289
0.25800001 95446.08189790  4449.69654861
0.25900001 93302.62417326  4730.44326940
0.26000001 91202.47953735  4998.80813996
0.26100001 89142.58922394  6305.94706007
0.26200001 87127.13829285  4812.03207560
0.26300001 85151.64495478  3709.20582974
0.26400001 83217.09591710  4300.24363500
0.26500001 81323.85824136  4218.26872658
0.26600001 79469.72213415  4137.59127870
0.26700001 77656.26739983  3433.96030692
0.26800001 75881.56501748  3980.36768135
0.26900001 74145.04145738  3303.16175324
0.27000001 72447.16703156  2944.97747920
0.27100001 70786.85320787  3465.72449707
0.27200001 69163.97931453  3965.17112175
0.27300001 67577.27448738  4999.36700317
0.27400001 66025.74626331  4085.34324338
0.27500001 64512.28057113  4273.29366727
0.27600001 63032.03681528  4190.37000579
0.27700001 61588.38252514  3338.70637470
0.27800001 60177.87517894  3273.97745406
0.27900001 58802.00617331  2469.68437616
0.28000001 57459.18501826  3390.66666840
0.28100001 56149.05388445  3087.63661924
0.28200001 54871.97736890  2795.17865947
0.28300001 53627.02125352  2284.51121353
0.28400001 52413.67778344  2240.68483130
0.28500001 51231.63962147  2197.83744379
0.28600001 50079.58216947  2371.51872588
0.28700001 48958.25897707  2114.99688792
0.28800001 47866.18852381  2489.99924487
0.28900001 46804.84295483  2239.61184140
0.29000001 45771.04726646  2397.48756930
0.29100001 44767.10715201  2549.03920189
0.29200001 43790.32038212  2117.04313908
0.29300001 42841.34530410  2267.16410081
0.29400001 41919.33256657  2411.40972004
0.29500001 41025.19573467  1821.51877684
0.29600001 40156.24311003  1967.85678676
0.29700001 39313.01465870  2635.93775765
0.29800001 38495.99586249  2071.85459540
0.29900001 37703.83752054  2205.67459937
0.30000001 36936.11229870  1834.43210416
0.30100001 36193.59020304  1803.52668520
0.30200001 35473.75874108  2095.96713444
0.30300001 34777.82443973  1744.45575648
0.30400001 34105.61646037  2028.43163501
0.30500001 33454.85723674  1842.69362384
0.30600001 32826.71664953  1814.00444793
0.30700001 32220.75159860  1786.31855320
0.30800001 31636.15661575  1759.60311427
0.30900001 31072.43700796  1444.86838928
0.31000001 30530.32951091  1424.23993911
0.31100001 30006.80194628  1825.61391685
0.31200001 29504.47091774  2216.37596028
0.31300001 29020.92909502  1503.57440760
0.31400001 28558.17358075  1484.31114214
0.31500001 28113.25162977  1732.33864745
0.31600002 27686.85817393  1711.46321906
0.31700002 27278.15692345  1431.28496154
0.31800002 26887.64061706  1672.54576378
0.31900002 26514.86979792  1781.79933479
0.32000002 26158.75082315  1259.54391177
0.32100002 25819.84766112  1745.93818151
0.32200002 25497.39255055  1729.48821860
0.32300002 25190.22735085  1836.36766083
0.32400002 24899.13785813  2184.89945051
0.32500002 24622.99198707  1324.47080170
0.32600002 24362.52079749  1194.98170170
0.32700002 24116.59670302  2254.41956655
0.32800002 23885.76647730  1886.02021036
0.32900002 23667.76242415  1640.17601366
0.33000002 23465.26150045  1747.57543300
0.33100002 23273.73010924  1274.93499576
0.33200002 23097.99912944  1384.49413338
0.33300002 22933.83327368  1378.78212171
0.33400002 22783.00323137  1602.78435323
0.33500002 22643.84886211  1255.37504036
0.33600002 22516.80350519  1252.04691820
0.33700002 22400.62491297  1589.99643162
0.33800002 22297.35994545  1360.58496830
0.33900002 22203.97573977  1132.40281636
0.34000002 22122.21077586  1471.01647521
0.34100002 22050.73988396  1131.20300962
0.34200002 21990.53727228  1131.41319624
0.34300002 21938.92680457  1245.25354440
0.34400002 21898.19276839  1473.20098826
0.34500002 21866.44391032  1588.81588977
0.34600002 21845.25399254  2046.68194349
0.34700002 21830.89695652  1253.53016261
0.34800002 21826.87103599  1371.16410342
0.34900002 21830.99200593  1260.73984805
0.35000002 21843.56445772  1495.08284012
0.35100002 21864.07202010  1616.19228027
0.35200002 21891.94753037  1159.17867664
0.35300002 21927.67170728  1397.23130737
0.35400002 21971.08096584  1520.94815190
0.35500002 22021.38981664  1646.31918067
0.35600002 22078.12974700  1773.42585593
0.35700002 22141.69178060  1189.00890494
0.35800002 22212.35483167  1674.58951008
0.35900002 22288.73479445  1323.95090950
0.36000002 22371.96264062  1574.87438468
0.36100002 22460.03774378  1463.49612870
0.36200002 22555.04259789  1719.37097868
0.36300002 22653.58166732  1360.57417939
0.36400002 22758.34556896  1246.01947892
0.36500002 22867.41481580  1380.96324614
0.36600002 22982.16112844  1771.23524207
0.36700002 23101.00883213  2422.83392108
0.36800002 23225.72431349  1542.65268198
0.36900002 23353.64746239  1555.35299467
0.37000002 23484.91230005  1306.93543141
0.37100002 23620.50182095  1449.82647045
0.37200002 23760.36952253  1462.33201154
0.37300002 23903.08417670  1609.15570300
0.37400002 24050.26852906  2029.24150327
0.37500002 24199.60443270  1910.80085652
0.37600002 24353.00867517  2065.74405873
0.37700002 24508.02902197  1528.56584251
0.37800002 24666.92205048  1963.24041900
0.37900002 24828.08484262  1981.28126430
0.38000002 24991.82516045  1999.59602581
0.38100002 25157.30545093  2306.42187300
0.38200002 25325.27388006  1891.41816934
0.38300002 25494.97510420  1762.21276269
0.38400002 25667.23427395  1926.96770441
0.38500002 25840.06135515  1795.36754801
0.38600002 26015.74487019  1661.23546739
0.38700002 26191.67571441  2134.09783831
0.38800002 26369.01697403  2307.94831999
0.38900002 26547.76999539  2795.48031295
0.39000002 26728.11407282  1724.36436110
0.39100002 26908.53275921  2373.33270180
0.39200002 27090.39040780  2235.77002628
0.39300002 27272.39132485  2095.33792476
0.39400002 27455.93389391  2277.46982440
0.39500002 27638.89828727  2134.27582686
0.39600002 27822.36683659  1656.82202362
0.39700002 28005.63769264  2340.71130925
0.39800002 28190.24041098  2024.62316224
0.39900002 28373.73436882  2213.15138562
0.40000002 28557.26088287  2061.26318819
0.40100002 28740.38887214  2599.56829665
0.40200002 28924.40241870  2098.17625086
0.40300002 29106.91072227  2293.04253534
0.40400002 29288.88930030  1957.23012023
0.40500002 29470.54512936  1974.23191176
0.40600002 29651.59400355  2896.36783950
0.40700002 29831.76437719  2008.27447303
0.40800002 30011.32363765  2025.31427165
0.40900002 30189.21298884  2227.96402414
0.41000002 30366.86830912  1872.11751996
0.41100002 30543.11301051  2453.83381553
0.41200002 30717.53445948  2473.83675491
0.41300002 30891.17205901  2110.17606334
0.41400002 31063.38337345  4060.76098390
0.41500002 31234.62451142  2533.75286042
0.41600002 31403.16129578  2357.12139855
0.41700002 31571.02202968  2573.35412757
0.41800002 31737.98487407  2593.15217701
0.41900002 31901.30866909  2612.71730380
0.42000002 32063.74882185  2834.75616766
0.42100002 32224.83853878  2651.78208901
0.42200002 32383.84165536  2671.18130552
0.42300002 32540.57180290  2069.58046473
0.42400002 32695.12681027  2084.31443292
0.42500002 32848.19733865  2728.69988222
0.42600002 32997.68022569  2747.55197419
0.42700002 33146.47579621  2553.60461635
0.42800002 33292.44321785  3642.02699840
0.42900002 33436.68895847  3019.33315603
0.43000002 33578.58058485  2387.94087145
0.43100002 33716.74411036  2184.84512189
0.43200002 33853.47025713  2198.78299740
0.43300002 33987.29899940  2212.57326971
0.43400002 34119.13221697  2894.15552745
0.43500002 34247.92312691  2463.79570651
0.43600002 34375.11192658  3154.60417099
0.43700002 34498.73929995  2719.88073530
0.43800002 34618.89023095  3191.51564163
0.43900002 34737.65967293  3439.02847059
0.44000002 34852.86627556  3458.27582008
0.44100002 34966.00380943  2550.07077867
0.44200002 35076.09223433  3496.20965914
0.44300002 35183.63145467  2811.87595911
0.44400002 35287.67607457  2355.45248960
0.44500002 35388.27466380  3077.71839337
0.44600002 35486.70923029  2855.26075998
0.44700002 35582.45050561  2630.25486603
0.44800002 35674.22675673  3123.45707171
0.44900002 35764.30542822  3138.31795006
0.45000002 35851.15287438  3152.92978896
0.45100002 35933.74727851  3654.46227142
0.45200002 36014.24705324  2691.88502357
0.45300002 36091.14302000  2457.80695614
0.45400002 36165.62275335  2715.13425689
0.45500002 36236.84837061  2726.46060062
0.45600002 36304.68112124  2986.42321057
0.45700002 36369.44704399  3997.72980854
0.45800002 36430.53178668  3511.53912534
0.45900002 36488.79399995  3021.27228639
0.46000002 36544.68995205  3032.47851594
0.46100002 36596.12502129  3296.94505943
0.46200002 36645.34722524  2545.01948541
0.46300002 36690.82227042  2553.68135105
0.46400002 36732.85403120  3586.96336615
0.46500002 36772.56783713  2827.44287501
0.46600002 36808.28689479  2836.26268110
0.46700002 36840.89084904  2844.85372620
0.46800002 36870.93874730  3112.64479657
0.46900002 36897.07050130  2601.24359363
0.47000002 36919.69727092  4434.24045089
0.47100002 36939.64861601  2615.32724597
0.47200002 36956.12214339  3933.05548553
0.47300002 36970.08693648  3154.28796693
0.47400002 36979.39578797  3161.73848973
0.47500002 36986.72827144  3169.02302850
0.47600002 36991.03806053  4234.73423789
0.47700002 36991.10820818  3447.94135951
