# SAXS profile: number of points = 501, q_min = 0, q_max = 0.5, delta_q = 0.001
#    q    intensity    error
0.00000000 1646666.22097351 345.79990640
0.00100000 1646598.49352295 839.76525164
0.00200000 1646395.25486985 740.87788815
0.00300000 1646056.67526754 1481.45106051
0.00400000 1645582.63388134 1727.86183123
0.00500000 1644973.54959977 1924.61912921
0.00600000 1644229.20593744 2762.30517843
0.00700000 1643350.20192714 1972.02032427
0.00800000 1642336.01334470 2438.86908279
0.00900000 1641188.00105048 2707.96031749
0.01000000 1639905.29476087 3247.01262383
0.01100000 1638489.16886879 3539.13675885
0.01200000 1636939.03928833 4468.84377319
0.01300000 1635256.26997291 4807.65364576
0.01400000 1633440.20789847 3675.24063070
0.01500000 1631492.46998210 4698.69852278
0.01600000 1629412.02901735 4155.00085974
0.01700000 1627200.94397340 7029.50839330
0.01800000 1624858.83137283 5093.93266557
0.01900000 1622386.33863813 4867.15923553
0.02000000 1619784.09545602 6122.78415779
0.02100000 1617053.69291391 6937.16065712
0.02200000 1614193.36192994 6682.76082200
0.02300000 1611206.10297691 7540.44490516
0.02400000 1608091.60291560 9045.51567885
0.02500000 1604851.20558417 6884.81198639
0.02600000 1601485.29116678 8431.82044365
0.02700000 1597994.49666413 8053.89263206
0.02800000 1594378.99136346 9016.21360964
0.02900000 1590641.33947282 8589.46362753
0.03000000 1586781.70676633 8116.38880318
0.03100000 1582800.34427509 9876.67460273
0.03200000 1578698.29781380 8596.01262751
0.03300000 1574478.26327067 8832.82346415
0.03400000 1570138.25329556 10716.19407319
0.03500000 1565681.74540223 13527.49090495
0.03600000 1561108.35365290 9530.56693949
0.03700000 1556419.73059334 13307.38931201
0.03800000 1551617.49683523 9076.96277656
0.03900000 1546702.43100443 10208.23651737
0.04000000 1541673.84655989 10429.42405527
0.04100000 1536535.53000248 12584.22657421
0.04200000 1531287.87177836 9876.80723118
0.04300000 1525930.72225429 13092.48620467
0.04400000 1520467.90436116 16421.05412973
0.04500000 1514898.96779908 14633.92470890
0.04600000 1509224.23277040 11704.03446922
0.04700000 1503446.85337569 12989.78141729
0.04800000 1497567.07863291 12107.83039410
0.04900000 1491587.50111766 12305.59745702
0.05000000 1485507.63977508 12500.54737081
0.05100000 1479330.93768585 11538.78185147
0.05200000 1473055.53153232 15224.02962785
0.05300000 1466686.88803130 13068.18078157
0.05400000 1460223.24799659 16865.57930087
0.05500000 1453668.64088272 15874.06229895
0.05600000 1447021.34328627 17320.84628740
0.05700000 1440286.40682301 18795.73848640
0.05800000 1433462.49241905 13954.75801528
0.05900000 1426551.78785383 20542.34670454
0.06000000 1419556.64378534 19483.41584620
0.06100000 1412478.58918732 18390.47209063
0.06200000 1405318.27059584 17264.33576127
0.06300000 1398078.65765277 16105.86688919
0.06400000 1390758.02795678 17627.85882875
0.06500000 1383362.44164170 13695.28881289
0.06600000 1375889.93919112 15210.46398943
0.06700000 1368343.28627451 16748.52260781
0.06800000 1360725.32354468 16900.20930951
0.06900000 1353037.15050024 15627.57981994
0.07000000 1345277.90645070 21490.81556193
0.07100000 1337452.65001575 21666.73394508
0.07200000 1329560.11623361 16014.55235026
0.07300000 1321604.99624851 20537.74260401
0.07400000 1313587.13165126 14777.85592363
0.07500000 1305508.04924078 19347.63019662
0.07600000 1297368.42252006 22476.90897389
0.07700000 1289173.61793628 15083.33203709
0.07800000 1280921.83824044 19732.60184348
0.07900000 1272614.68232224 16798.51459457
0.08000000 1264256.96266554 18432.86738037
0.08100000 1255847.97361025 18536.31696018
0.08200000 1247389.06606168 17082.99406134
0.08300000 1238882.80833954 18731.90894122
0.08400000 1230330.35217719 21961.39781720
0.08500000 1221735.52127137 17336.42786070
0.08600000 1213096.97642787 18997.09954280
0.08700000 1204418.96527924 20667.83041471
0.08800000 1195699.47562545 19155.10649912
0.08900000 1186944.90119397 17626.13261062
0.09000000 1178153.89974986 19298.16178444
0.09100000 1169329.15320664 25818.78891580
0.09200000 1160471.25782914 21045.14724957
0.09300000 1151584.32975342 19484.80777506
0.09400000 1142665.98419730 21167.88835209
0.09500000 1133721.00083003 27753.49140481
0.09600000 1124749.98910000 27820.69228818
0.09700000 1115756.39528312 21322.10571627
0.09800000 1106740.42135065 19722.11523576
0.09900000 1097704.40087531 21405.23682360
0.10000000 1088647.56970401 21440.91489363
0.10100000 1079573.15442052 19820.96404738
0.10200000 1070483.27998136 24808.45118047
0.10300000 1061378.70390148 21524.76112766
0.10400000 1052262.17863130 18230.44310244
0.10500000 1043136.26694712 18244.45416730
0.10600001 1033997.24799492 18255.22227232
0.10700001 1024853.14121538 21583.40816966
0.10800001 1015700.70067874 18267.37796140
0.10900001 1006544.27722473 24911.97203381
0.11000001 997384.09838269 21588.37982565
0.11100001 988222.09954882 18262.34525933
0.11200001 979060.94739303 16595.08383956
0.11300001 969899.21705173 23219.38834941
0.11400001 960741.47878516 18230.07041830
0.11500001 951587.77458778 18213.39086324
0.11600001 942439.33023275 21501.75433181
0.11700001 933298.91797528 24779.08743921
0.11800001 924164.94752767 16496.34509032
0.11900001 915041.83412292 28000.28144302
0.12000001 905929.43901391 18086.88210189
0.12100001 896831.15712277 18053.21204333
0.12200001 887745.51134467 22930.46763832
0.12300001 878675.79063169 21246.38161848
0.12400001 869622.19226753 22827.58362260
0.12500001 860586.57148264 19518.10436093
0.12600001 851571.71587578 24333.66292784
0.12700001 842577.16710427 17795.23060787
0.12800001 833603.14876078 25808.35470196
0.12900001 824652.98802409 17688.80742683
0.13000001 815726.95554214 20837.74606151
0.13100001 806825.54026138 22365.20503029
0.13200001 797951.92648704 17511.05585223
0.13300001 789107.23387442 17447.16176347
0.13400001 780289.85953215 18961.04448056
0.13500001 771503.79328988 15738.67812516
0.13600001 762747.93354409 20376.81200541
0.13700001 754025.45932810 29655.82271374
0.13800001 745335.04654702 21756.33103464
0.13900001 736681.48391320 21658.43664842
0.14000001 728062.20997927 18478.21976072
0.14100001 719479.80864569 21454.88890569
0.14200001 710934.08577692 18299.44423100
0.14300001 702429.43924896 19724.21958445
0.14400001 693960.42135736 18112.36785179
0.14500001 685535.70856600 16514.55599838
0.14600001 677149.92961239 20903.61931325
0.14700001 668809.43951468 19301.84133499
0.14800001 660509.61452542 16238.62963922
0.14900001 652254.05514870 17610.86031991
0.15000001 644043.77150304 17505.11053539
0.15100001 635879.48289297 17397.66347286
0.15200001 627762.27623837 21610.71737925
0.15300001 619692.45442304 14314.89637268
0.15400001 611669.10437936 15643.43808273
0.15500001 603696.43993413 22602.39577781
0.15600001 595770.91426839 16836.48683182
0.15700001 587899.73462473 20899.83655232
0.15800001 580074.65032054 15218.25916944
0.15900001 572304.36711770 16482.36655097
0.16000001 564583.83517864 13634.70026316
0.16100001 556919.32475440 13533.14023035
0.16200001 549306.06977153 17459.69425189
0.16300001 541748.17830847 14659.70639708
0.16400001 534244.29956869 17189.31115012
0.16500001 526795.81065969 19675.82445706
0.16600001 519402.94697415 20817.67109759
0.16700001 512065.45022600 12904.04995496
0.16800001 504783.86138945 14075.89863946
0.16900001 497561.51111890 12687.81913263
0.17000001 490395.43956863 12578.64361890
0.17100001 483287.69178908 14962.58764434
0.17200001 476238.52218367 14830.06828112
0.17300001 469247.71199842 18371.04879230
0.17400001 462316.95380678 16990.14885478
0.17500001 455445.08871164 19238.00145574
0.17600001 448631.17009786 14293.38975438
0.17700001 441879.94853833 12978.01470153
0.17800001 435187.87489580 14021.75399142
0.17900001 428556.22848257 12728.12058713
0.18000001 421986.53186726 16039.70883391
0.18100001 415478.83089670 15879.60166697
0.18200001 409029.53353725 14596.21959377
0.18300001 402644.54570375 13335.58798367
0.18400001 396319.81516829 15397.02554665
0.18500001 390057.83317705 10882.61405976
0.18600001 383857.84816129 12920.65577953
0.18700001 377719.48164637 13847.19685136
0.18800001 371643.29546970 11589.69671679
0.18900001 365631.45072466 11462.54652179
0.19000001 359677.83049493 12365.72439668
0.19100001 353792.13217690 11208.13527695
0.19200001 347964.94357739 10073.58559256
0.19300001 342203.21998067 11949.73700638
0.19400001 336503.13384273 12795.53226901
0.19500001 330866.03000683 12645.70026444
0.19600001 325290.55195826 9612.33626461
0.19700001 319778.82751695 11396.91795129
0.19800001 314329.36262879 9382.73191789
0.19900001 308943.42988458 12975.62466838
0.20000001 303618.09083059 13731.12880676
0.20100001 298357.02257122 13560.32731675
0.20200001 293156.91575711 10711.95420805
0.20300001 288020.07802169 10576.09776483
0.20400001 282945.23115545 11310.73615005
0.20500001 277931.61909546 9446.89617958
0.20600001 272980.80346976 12714.08152257
0.20700001 268091.04543629 10873.77331689
0.20800001 263262.97255797 9078.62403781
0.20900001 258498.50915382 8956.97376559
0.21000001 253792.41540095 8835.78335987
0.21100001 249147.93864755 8715.19530589
0.21200001 244564.04768978 9376.58603170
0.21300001 240040.68425824 8475.83696186
0.21400001 235578.25415870 9876.61877254
0.21500001 231176.76908496 9737.16597421
0.21600001 226833.72337997 8860.12565412
0.21700001 222550.87550921 8732.89676787
0.21800001 218327.31589797 7889.25793298
0.21900001 214161.75883978 10601.00756380
0.22000001 210054.58135249 7659.64067119
0.22100001 206008.17854270 8918.09447079
0.22200001 202018.88916386 7433.28537826
0.22300001 198087.12824263 10649.16451787
0.22400001 194211.21564437 7865.55460553
0.22500001 190395.82903654 8390.74458242
0.22600001 186634.74769310 8261.38749730
0.22700001 182931.76416198 7507.51995623
0.22800001 179283.91604720 7390.08336894
0.22900001 175691.51771884 6061.35764795
0.23000001 172154.68078689 8947.73995705
0.23100001 168674.34903414 8217.81467359
0.23200001 165246.59998736 5775.36894270
0.23300001 161874.32815820 7386.32594319
0.23400001 158556.01531834 8942.55968690
0.23500001 155289.65669741 6596.70492851
0.23600001 152077.52758701 6487.62763371
0.23700001 148917.77735801 6911.27437407
0.23800001 145809.85426958 5750.01187509
0.23900001 142754.26764431 6166.98465393
0.24000001 139749.60040107 7072.72761084
0.24100001 136797.22821730 5462.31358109
0.24200001 133894.56343919 5368.50277504
0.24300001 131042.07213263 7673.82410708
0.24400001 128238.74680643 5184.05158487
0.24500001 125485.00279813 6482.55555120
0.24600001 122780.18513619 5458.80728938
0.24700001 120124.25223748 4915.48463409
0.24800001 117515.10492023 4389.18937641
0.24900001 114953.49162841 4741.83175400
0.25000001 112439.43552976 4233.34494797
0.25100001 109971.17584149 4156.91064347
0.25200001 107550.10325642 4897.83193401
0.25300001 105174.71841316 4407.87265723
0.25400001 102843.50390108 5113.89347343
0.25500001 100557.17974316 5019.81465028
0.25600001 98315.45664290  4927.07934277
0.25700001 96117.33076025  4463.68905170
0.25800001 93962.16719009  5110.60251527
0.25900001 91850.40424212  3940.38252843
0.26000001 89781.45416264  3866.43850646
0.26100001 87752.13607200  4138.39093297
0.26200001 85766.66187289  4398.54346228
0.26300001 83820.67546741  3983.15868668
0.26400001 81915.29595263  3256.13316819
0.26500001 80050.61902180  4152.22580514
0.26600001 78224.36588692  3759.46320242
0.26700001 76438.43859568  4609.23806543
0.26800001 74690.81883317  4822.03949205
0.26900001 72980.77270023  3546.86572107
0.27000001 71308.98711067  3478.45255587
0.27100001 69674.04932853  4264.05202069
0.27200001 68076.26313687  3066.49541812
0.27300001 66514.08880162  3007.10209703
0.27400001 64986.75468353  3216.84450907
0.27500001 63496.82589145  3154.52245958
0.27600001 62039.61678187  2835.52081921
0.27700001 60618.72047345  3286.14099239
0.27800001 59230.49682109  2974.55569113
0.27900001 57876.44092285  2673.89169719
0.28000001 56554.77655900  2622.16233926
0.28100001 55265.66697028  2571.51160583
0.28200001 54009.01082813  2292.68261817
0.28300001 52783.93971567  3148.03431364
0.28400001 51590.24735817  2867.12813263
0.28500001 50427.31680054  2595.99839176
0.28600001 49293.95998824  3183.15761691
0.28700001 48191.02187719  2081.85224363
0.28800001 47116.72248059  2451.01201945
0.28900001 46072.79150598  3006.24978806
0.29000001 45056.03696197  2360.03532778
0.29100001 44068.91353739  2123.24035473
0.29200001 43108.31627314  2084.07164888
0.29300001 42175.22104924  2231.91280358
0.29400001 41268.69355244  2191.36773137
0.29500001 40389.78826447  1793.30668383
0.29600001 39535.46291009  2113.56594722
0.29700001 38706.66387625  2595.28193576
0.29800001 37903.56161061  2379.96474619
0.29900001 37125.06731702  2840.06778420
0.30000001 36370.73163220  1806.35247203
0.30100001 35641.03719750  1937.44687378
0.30200001 34933.77415394  2064.06214360
0.30300001 34250.11311208  2342.70784777
0.30400001 33589.80126459  1690.40682867
0.30500001 32950.63058160  1966.16421989
0.30600001 32333.74411789  2084.55658197
0.30700001 31738.77684326  1759.59787150
0.30800001 31164.68330601  2022.27639547
0.30900001 30611.27388230  1423.42430292
0.31000001 30079.17415883  1683.83224913
0.31100001 29565.30087493  1660.38737575
0.31200001 29072.41023732  1774.43464285
0.31300001 28597.88490654  1346.96044287
0.31400001 28143.82075618  1861.71383117
0.31500001 27707.62356602  1838.67798690
0.31600002 27289.27870075  1557.12631639
0.31700002 26888.53675728  1282.58326405
0.31800002 26505.76087268  1648.79093315
0.31900002 26140.28965212  1380.20735898
0.32000002 25791.26920095  1366.03463791
0.32100002 25459.20576189  1475.61563583
0.32200002 25143.42023777  1949.11802912
0.32300002 24842.63980957  1207.35235191
0.32400002 24557.66062059  1915.49761911
0.32500002 24287.51901986  1306.42570994
0.32600002 24032.69291010  1650.32510028
0.32700002 23792.18401786  1638.80571275
0.32800002 23566.51782102  1279.30848049
0.32900002 23353.53642545  1965.20018326
0.33000002 23155.64580207  1494.58122907
0.33100002 22968.76792953  1258.22916676
0.33200002 22797.35625095  1480.34639826
0.33300002 22637.29516213  1587.77995786
0.33400002 22490.38590988  1356.17033459
0.33500002 22354.98122240  1126.69110696
0.33600002 22231.46675003  1685.70104615
0.33700002 22118.62596902  1345.69726768
0.33800002 22018.59050249  1231.60991808
0.33900002 21928.06099580  1453.83051287
0.34000002 21849.19706040  1229.34513082
0.34100002 21780.42315894  1229.06933707
0.34200002 21722.52149559  1341.14854065
0.34300002 21673.34656383  1565.68262992
0.34400002 21634.61271078  1231.55038689
0.34500002 21604.86154454  1457.68007745
0.34600002 21585.53334666  1572.93788947
0.34700002 21572.84364612  1351.32298999
0.34800002 21570.31659476  1693.80919082
0.34900002 21575.87340659  1246.00674824
0.35000002 21589.62179648  1477.70173385
0.35100002 21611.34518854  1711.61862000
0.35200002 21640.19347798  1833.35727829
0.35300002 21676.78015731  1381.24449704
0.35400002 21720.91472598  1387.96651673
0.35500002 21771.85324777  1278.87872035
0.35600002 21829.05154536  1168.94576562
0.35700002 21893.03915345  1293.22188405
0.35800002 21963.91437836  1182.75684530
0.35900002 22040.52381151  1190.18834220
0.36000002 22123.81797370  1317.80528002
0.36100002 22211.85934379  1326.71442145
0.36200002 22306.68834665  1700.43893321
0.36300002 22405.01650482  1712.63954275
0.36400002 22509.39460272  1848.58411931
0.36500002 22618.16420652  1241.73727376
0.36600002 22732.43103316  1501.70446518
0.36700002 22850.64052566  1387.49095844
0.36800002 22974.76402563  1525.98389887
0.36900002 23102.08746592  1410.38250660
0.37000002 23232.44375939  1422.17411210
0.37100002 23367.24599642  1564.67086604
0.37200002 23506.06260420  1709.71354451
0.37300002 23647.85154749  1989.96680199
0.37400002 23793.95292003  2141.45586425
0.37500002 23942.28508143  1755.44842533
0.37600002 24094.52077117  1635.05425699
0.37700002 24248.38147781  1649.85995391
0.37800002 24406.03844594  2774.96670276
0.37900002 24565.84901435  1680.30415218
0.38000002 24728.27442937  1837.18723576
0.38100002 24892.41941042  1568.96926977
0.38200002 25058.94441596  1439.63642490
0.38300002 25227.14383876  2324.93368632
0.38400002 25397.90531482  1613.40201156
0.38500002 25569.08709049  1628.49523394
0.38600002 25743.27099671  2391.03512345
0.38700002 25917.67216519  1960.93116892
0.38800002 26093.45884680  2283.83009376
0.38900002 26270.44532579  2151.54957411
0.39000002 26449.22963957  2171.74634859
0.39100002 26627.97540407  2192.01503911
0.39200002 26808.08049398  2212.47098799
0.39300002 26988.44638081  2233.02415934
0.39400002 27170.28158746  2414.75889049
0.39500002 27351.55732279  1787.15084014
0.39600002 27533.29242220  2623.37222628
0.39700002 27714.87197985  1654.57793559
0.39800002 27897.65019591  1669.67444333
0.39900002 28079.41919816  1684.76523171
0.40000002 28261.33327193  2209.89505990
0.40100002 28442.57716907  2572.63122683
0.40200002 28624.95232661  2941.64336522
0.40300002 28805.71072141  2094.75138291
0.40400002 28985.95504650  1936.98653776
0.40500002 29165.82960627  2309.05883933
0.40600002 29345.23865369  2508.13766657
0.40700002 29523.68563345  1806.84964638
0.40800002 29701.68587147  2186.63821746
0.40900002 29877.79505244  2204.98137935
0.41000002 30053.87201017  2223.38555666
0.41100002 30228.44643293  2054.92988588
0.41200002 30401.27838938  2636.70299964
0.41300002 30573.35360449  2278.32641856
0.41400002 30743.99856284  2105.19540134
0.41500002 30913.77152045  2507.72526456
0.41600002 31080.74186262  3304.97084256
0.41700002 31247.11394161  3526.54944655
0.41800002 31412.58831901  2171.70939634
0.41900002 31574.50331346  3182.71008481
0.42000002 31735.44144642  2404.91186677
0.42100002 31895.26424591  2018.97032243
0.42200002 32052.94191293  3660.76666934
0.42300002 32208.27871027  2253.29128534
0.42400002 32361.58016976  2063.05083358
0.42500002 32513.36935529  2285.36484028
0.42600002 32661.75405455  2510.38253559
0.42700002 32809.37249980  2106.36181430
0.42800002 32954.20644134  3392.96525598
0.42900002 33097.41363142  2775.21826450
0.43000002 33238.21152753  3008.39066792
0.43100002 33375.34236648  2595.26674540
0.43200002 33511.15071463  4353.09868411
0.43300002 33644.08244281  3066.32181914
0.43400002 33774.97543898  2203.81725183
0.43500002 33903.04049331  2882.43663934
0.43600002 34029.37187697  3122.87560514
0.43700002 34152.16683882  2468.17721441
0.43800002 34271.74175923  3159.51202251
0.43900002 34389.85292810  2269.73040082
0.44000002 34504.39204189  2510.71220591
0.44100002 34617.01240131  2295.10803097
0.44200002 34726.61646549  2769.10052819
0.44300002 34833.69245597  3015.90123576
0.44400002 34937.45644685  3031.69792685
0.44500002 35037.60653912  2578.41758741
0.44600002 35135.70292359  2827.01879121
0.44700002 35231.14299091  2604.28621331
0.44800002 35322.80073903  2854.78889102
0.44900002 35412.71694924  2629.39435809
0.45000002 35499.48061896  3362.15596876
0.45100002 35581.96111918  2653.70278603
0.45200002 35662.50207733  2423.26713100
0.45300002 35739.48500607  3407.40266197
0.45400002 35814.08829555  2444.31164201
0.45500002 35885.48667468  3436.39436683
0.45600002 35953.47600163  2957.53307606
0.45700002 36018.59244760  3711.71612764
0.45800002 36079.99296661  3229.33992353
0.45900002 36138.54055167  2493.55941625
0.46000002 36194.93580826  2502.87992976
0.46100002 36246.98991598  2763.10817225
0.46200002 36296.68830510  3277.04665894
0.46300002 36342.77811751  3288.29471992
0.46400002 36385.44880619  2537.88517452
0.46500002 36425.82791549  3310.01513956
0.46600002 36462.37457021  2809.60840567
0.46700002 36495.82370041  3074.40833424
0.46800002 36526.70927138  3083.58494284
0.46900002 36553.77746144  3865.56214976
0.47000002 36577.46984306  2584.19836689
0.47100002 36598.40545049  2850.28395158
0.47200002 36616.04395014  2857.69928553
0.47300002 36630.98056376  3646.24797814
0.47400002 36641.61866894  2871.78699929
0.47500002 36650.13393678  3401.86559325
0.47600002 36655.80225899  2884.99505354
0.47700002 36657.29050529  2628.32785381
