# SAXS profile: number of points = 501, q_min = 0, q_max = 0.5, delta_q = 0.001
#    q    intensity    error
0.00000000 1646666.22097351 296.39991978
0.00100000 1646598.48773555 592.77546966
0.00200000 1646395.23089559 1185.40460378
0.00300000 1646056.62500601 1678.97781732
0.00400000 1645582.54082775 1604.44303827
0.00500000 1644973.40514828 1924.61896020
0.00600000 1644228.99878952 1726.44051902
0.00700000 1643349.93172742 2366.42400004
0.00800000 1642335.65601977 2882.29919801
0.00900000 1641187.54206707 2954.13770200
0.01000000 1639904.73493114 2705.84292947
0.01100000 1638488.48268631 5308.70291504
0.01200000 1636938.23752382 3511.23267343
0.01300000 1635255.31439244 4464.24720519
0.01400000 1633439.10002423 4777.80957938
0.01500000 1631491.20453639 4698.69487829
0.01600000 1629410.59102296 5401.49635071
0.01700000 1627199.31413950 5711.46984884
0.01800000 1624857.00276102 4630.84266625
0.01900000 1622384.32344370 5353.86850894
0.02000000 1619781.85160074 7143.23828869
0.02100000 1617051.22735583 5869.89622143
0.02200000 1614190.64223941 7239.64535936
0.02300000 1611203.15292436 6960.39793746
0.02400000 1608088.38634180 7839.43124088
0.02500000 1604847.73725556 6884.79710726
0.02600000 1601481.52926443 7783.20058822
0.02700000 1597990.45278962 8725.02827185
0.02800000 1594374.64669920 9709.74204368
0.02900000 1590636.64731219 11452.58438648
0.03000000 1586776.73773906 8854.21460357
0.03100000 1582795.02074010 8357.15809405
0.03200000 1578692.63380563 8595.98178699
0.03300000 1574472.28889925 8832.78994792
0.03400000 1570131.92472137 8243.19298513
0.03500000 1565675.03090936 10991.03922453
0.03600000 1561101.26603713 9530.52366960
0.03700000 1556412.24751950 11533.01528749
0.03800000 1551609.63622054 9076.91679197
0.03900000 1546694.14385716 12064.21488078
0.04000000 1541665.13528269 10429.36512347
0.04100000 1536526.40551623 10648.12848394
0.04200000 1531278.30353504 14815.11827402
0.04300000 1525920.75809979 11078.18521803
0.04400000 1520457.49702133 14368.32401414
0.04500000 1514888.05859996 14633.81932603
0.04600000 1509212.87604717 11703.94639783
0.04700000 1503434.99762122 14072.15223220
0.04800000 1497554.76049326 11007.02800176
0.04900000 1491574.76615146 16780.21690028
0.05000000 1485494.35386216 12500.43556985
0.05100000 1479317.18333278 12692.54202427
0.05200000 1473041.27473095 15223.88228380
0.05300000 1466672.10796034 20196.07586811
0.05400000 1460207.94858830 16865.40259269
0.05500000 1453652.83218431 13431.75279596
0.05600000 1447004.95441232 13609.08223130
0.05700000 1440269.54942096 12530.34566486
0.05800000 1433445.06749781 16491.78627160
0.05900000 1426533.75612545 20542.08704764
0.06000000 1419538.07768959 12988.77401768
0.06100000 1412459.60615236 19703.81242661
0.06200000 1405298.65448907 18592.10206795
0.06300000 1398058.45935519 17447.77038853
0.06400000 1390737.26539885 13559.68897178
0.06500000 1383341.05033835 15064.58474287
0.06600000 1375867.98522440 13827.47389847
0.06700000 1368320.76288357 18143.93416495
0.06800000 1360702.20053471 14083.26843476
0.06900000 1353013.42081416 15627.30574206
0.07000000 1345253.52495684 17192.34085404
0.07100000 1337427.69849826 18777.48576641
0.07200000 1329534.52802901 18925.92489311
0.07300000 1321578.85698367 16136.47859985
0.07400000 1313560.27254325 23644.08601384
0.07500000 1305480.66612794 16370.72832058
0.07600000 1297340.41157709 19479.56719304
0.07700000 1289144.95345638 19607.89566146
0.07800000 1280892.56417193 19732.15087643
0.07900000 1272584.92216420 22906.52967336
0.08000000 1264226.52100270 18432.42354090
0.08100000 1255816.78689527 24714.47552566
0.08200000 1247357.24978904 24847.35758176
0.08300000 1238850.37381768 24975.22470830
0.08400000 1230297.40944684 23529.43906011
0.08500000 1221701.77661406 18911.94438981
0.08600000 1213062.74202508 22162.65733737
0.08700000 1204384.03813737 17487.65705493
0.08800000 1195663.93639227 15962.11430048
0.08900000 1186908.69587386 17625.59496160
0.09000000 1178117.06571886 17689.42857274
0.09100000 1169291.69660287 20977.09402258
0.09200000 1160433.19349668 22663.26133386
0.09300000 1151545.57954308 17860.47277802
0.09400000 1142626.71158823 19538.91768644
0.09500000 1133680.98883788 17957.50770724
0.09600000 1124709.37391464 21273.87880763
0.09700000 1115715.21544541 21321.31876954
0.09800000 1106698.50662383 18077.92095568
0.09900000 1097661.92285717 21404.40850220
0.10000000 1088604.46448756 19790.83009509
0.10100000 1079529.46681651 19820.16194293
0.10200000 1070438.97555673 21499.76783533
0.10300000 1061333.77831529 18212.48849262
0.10400000 1052216.60974426 21544.13609806
0.10500000 1043090.15401432 21560.67449789
0.10600001 1033950.47155078 16594.90584924
0.10700001 1024805.78259021 26562.96713473
0.10800001 1015652.76589667 24908.88525587
0.10900001 1006495.82896868 18267.90015557
0.11000001 997334.99902322 23247.87992150
0.11100001 988172.37130175 23241.81526709
0.11200001 979010.60346765 18253.65356098
0.11300001 969848.46581606 19901.29145551
0.11400001 960690.13432187 18229.09615706
0.11500001 951535.83576458 21523.74161850
0.11600001 942386.92638979 23154.44787177
0.11700001 933245.92128505 24777.68037702
0.11800001 924111.39408977 16495.38916141
0.11900001 914987.78946771 19763.73718341
0.12000001 905874.86284708 21374.11839570
0.12100001 896775.96744354 18052.10107504
0.12200001 887689.77789202 21291.24032580
0.12300001 878619.65542502 19610.79163304
0.12400001 869565.45766602 17934.78840940
0.12500001 860529.42710584 17890.40763254
0.12600001 851513.96945004 29198.41538837
0.12700001 842519.06775861 19411.64023596
0.12800001 833544.52789403 27419.44853733
0.12900001 824593.96668700 20903.45804074
0.13000001 815667.40138581 20836.22475051
0.13100001 806765.64643356 27155.73293901
0.13200001 797891.52942639 19101.52411492
0.13300001 789046.44976378 20617.78470431
0.13400001 780228.64177785 20539.51996315
0.13500001 771442.15807540 26753.61530344
0.13600001 762685.90674831 20375.15495949
0.13700001 753962.94176973 17167.73699361
0.13800001 745272.14056619 18646.70983627
0.13900001 736618.26654080 18562.78119222
0.14000001 727998.66646468 20016.32427843
0.14100001 719415.78726690 18388.26838979
0.14200001 710869.79028154 16772.97349280
0.14300001 702364.71552425 18205.29428509
0.14400001 693895.54076057 16601.45159579
0.14500001 685470.37955456 18014.16242446
0.14600001 677084.39095640 17915.65382987
0.14700001 668743.66420633 14846.11004577
0.14800001 660443.57107103 16237.00596082
0.14900001 652187.58231713 16141.64342392
0.15000001 643977.08251958 21879.12241092
0.15100001 635812.52156234 14496.52617564
0.15200001 627695.11116409 25930.08626575
0.15300001 619625.00800422 17176.00603240
0.15400001 611601.48974133 18485.65589979
0.15500001 603628.58494653 18362.38242065
0.15600001 595702.83768618 14028.80248960
0.15700001 587831.51147457 15324.76822742
0.15800001 580006.21433468 19366.40841070
0.15900001 572235.86972180 15107.02767372
0.16000001 564515.04017987 14996.34275024
0.16100001 556850.57254487 16237.76346190
0.16200001 549237.10365835 14771.73260021
0.16300001 541679.13765810 13325.30741545
0.16400001 534175.18345250 15865.00369752
0.16500001 526726.59973515 17050.14083839
0.16600001 519333.59697294 14310.23794022
0.16700001 511996.05161222 14192.53122079
0.16800001 504714.34082750 16632.86188731
0.16900001 497491.95801412 19029.06829256
0.17000001 490326.05094351 15092.23656069
0.17100001 483218.19758682 16207.13911238
0.17200001 476168.97570162 12356.58550297
0.17300001 469178.23902974 17143.77366375
0.17400001 462247.48479380 14560.79645865
0.17500001 455375.65164344 16830.68487961
0.17600001 448561.79110608 15482.11095123
0.17700001 441810.55725965 15335.24516678
0.17800001 435118.56243581 16356.10753450
0.17900001 428487.13023109 15039.89898150
0.18000001 421917.42497454 14891.57621788
0.18100001 415409.79453053 11340.68792638
0.18200001 408960.74118615 13471.16745102
0.18300001 402575.96476205 19999.97487416
0.18400001 396251.22659661 12095.56926326
0.18500001 389989.48261452 18497.20203425
0.18600001 383789.61291057 15071.41881102
0.18700001 377651.41186131 13844.70141293
0.18800001 371575.51220274 12640.99952238
0.18900001 365563.92000928 11460.42943377
0.19000001 359610.47552211 10302.84061051
0.19100001 353725.00231146 13243.46471230
0.19200001 347898.10114338 15107.47575600
0.19300001 342136.55320231 10951.79158551
0.19400001 336436.76453810 9840.77582775
0.19500001 330799.97675748 11670.62373150
0.19600001 325224.76867656 12493.51007911
0.19700001 319713.31873829 15192.77762442
0.19800001 314264.25636892 11256.94619512
0.19900001 308878.71459210 9266.36187569
0.20000001 303553.73939348 12813.00394536
0.20100001 298293.05951836 10845.93615669
0.20200001 293093.26147226 9817.15925701
0.20300001 287956.80027258 11454.92205626
0.20400001 282882.36574699 9568.49647365
0.20500001 277869.14427008 11162.00405292
0.20600001 272918.76230381 11016.36636111
0.20700001 268029.42429766 10035.02212005
0.20800001 263201.75106989 9076.51281469
0.20900001 258437.72707545 8954.86766647
0.21000001 253732.14368964 9636.74727288
0.21100001 249088.12060013 8713.10287049
0.21200001 244504.76004850 11717.89117928
0.21300001 239981.97954617 7703.42190762
0.21400001 235520.05096588 10633.73080384
0.21500001 231119.17619549 10483.56632786
0.21600001 226776.57272451 9596.05112853
0.21700001 222494.26855605 10185.78809608
0.21800001 218271.21812125 7887.23083972
0.21900001 214106.28113887 7772.05837282
0.22000001 209999.71642055 9746.08729990
0.22100001 205953.80575365 10287.39308382
0.22200001 201965.24698411 7431.31161417
0.22300001 198034.07095549 9980.91764811
0.22400001 194158.81953557 6552.86046919
0.22500001 190344.02843784 8388.46172992
0.22600001 186583.56777534 8259.12201813
0.22700001 182881.27808881 6879.99400705
0.22800001 179234.04400915 8003.69661372
0.22900001 175642.39324056 6059.66285337
0.23000001 172106.21963394 8945.22118851
0.23100001 168626.60473518 5868.20612231
0.23200001 165199.50238491 5773.72288141
0.23300001 161827.93928742 6816.19312515
0.23400001 158510.32829024 6146.23827014
0.23500001 155244.77546212 7144.36490467
0.23600001 152033.33751915 5945.26394488
0.23700001 148874.42172453 7972.22566042
0.23800001 145767.13030977 5748.32705565
0.23900001 142712.39004360 5651.41091304
0.24000001 139708.35392252 6060.54867982
0.24100001 136756.77931561 5460.69845637
0.24200001 133854.97426804 5854.81685143
0.24300001 131003.28188434 6712.60848128
0.24400001 128200.66501393 5182.51212834
0.24500001 125447.76105496 6017.72938247
0.24600001 122743.77304567 4547.65700647
0.24700001 120088.69795433 5807.48970780
0.24800001 117480.33407668 5704.25789094
0.24900001 114919.58925096 4309.48480078
0.25000001 112406.29363170 6348.14573317
0.25100001 109938.88223796 6649.10391231
0.25200001 107518.66443513 4080.33350835
0.25300001 105144.16585563 5207.79078121
0.25400001 102813.77381890 6685.46595887
0.25500001 100528.40099051 3860.29078067
0.25600001 98287.43544559  4925.67506040
0.25700001 96090.11899343  4834.29411529
0.25800001 93935.93216333  5839.05781954
0.25900001 91825.04605031  5371.76544811
0.26000001 89756.93914284  4216.78120045
0.26100001 87728.55357439  4137.27878233
0.26200001 85744.04443974  3382.60271320
0.26300001 83798.94622249  3650.28227017
0.26400001 81894.34597542  4882.95060984
0.26500001 80030.65098598  3193.22312544
0.26600001 78205.25841831  3132.12074786
0.26700001 76420.29356704  3379.30554144
0.26800001 74673.46837343  3916.99696888
0.26900001 72964.36739983  3841.57412539
0.27000001 71293.51541475  3477.69784650
0.27100001 69659.49587188  3694.73983589
0.27200001 68062.60922971  2787.16397985
0.27300001 66501.45094310  3826.49366835
0.27400001 64974.95134660  3484.28193085
0.27500001 63485.98113305  3416.81566628
0.27600001 62029.69472328  2835.06733150
0.27700001 60609.76829488  2780.17020326
0.27800001 59222.35464293  2726.30122502
0.27900001 57869.27443874  4374.91735462
0.28000001 56548.53311220  2383.52078349
0.28100001 55260.34755922  2805.01537486
0.28200001 54004.62228859  2292.49632465
0.28300001 52780.43933991  2698.13618676
0.28400001 51587.72453127  2646.45039371
0.28500001 50425.71216305  2379.58946960
0.28600001 49293.25857250  2122.07488199
0.28700001 48191.22340632  3330.97751951
0.28800001 47117.80163379  2451.06815701
0.28900001 46074.85775891  2004.25640738
0.29000001 45059.06427663  2163.51107365
0.29100001 44072.76139951  2123.42574474
0.29200001 43113.04333688  2084.30017878
0.29300001 42180.90946284  2232.21383444
0.29400001 41275.27210415  2557.00322789
0.29500001 40397.31077656  1793.64068338
0.29600001 39543.78484067  2642.51354707
0.29700001 38715.98609333  3115.08838853
0.29800001 37913.71511046  2040.51624384
0.29900001 37136.16561724  2506.69129783
0.30000001 36382.68088971  2299.74936791
0.30100001 35653.89619998  1938.14588918
0.30200001 34947.43919617  1747.19730533
0.30300001 34264.65474849  1874.96199660
0.30400001 33605.19100618  1844.92507358
0.30500001 32966.92881107  1815.81852488
0.30600001 32350.91322244  1936.68751175
0.30700001 31756.79879878  1760.59700876
0.30800001 31183.44803938  2023.49403908
0.30900001 30630.97527211  1709.20850110
0.31000001 30099.69419265  2106.22620085
0.31100001 29586.61409106  1523.11896552
0.31200001 29094.54576219  1912.38458349
0.31300001 28620.82263717  1482.84489104
0.31400001 28167.51423289  1863.28115473
0.31500001 27732.14189684  1577.40430578
0.31600002 27314.59320541  1558.57076210
0.31700002 26914.66932992  1668.97872417
0.31800002 26532.64097050  1523.50431666
0.31900002 26167.95696495  1256.06199379
0.32000002 25819.69713228  1243.21847579
0.32100002 25488.42052306  1231.09076956
0.32200002 25173.33690285  1951.43716911
0.32300002 24873.31462452  1208.84314799
0.32400002 24589.01346220  1438.45735565
0.32500002 24319.60183320  1783.84287893
0.32600002 24065.49523838  1534.53637654
0.32700002 23825.66769311  1523.88977781
0.32800002 23600.72869976  1630.57442308
0.32900002 23388.42912078  1389.27275556
0.33000002 23191.21690855  1842.31035846
0.33100002 23005.03403050  1145.65074897
0.33200002 22834.25834960  1368.68551029
0.33300002 22674.80800772  1590.41110898
0.33400002 22528.53089113  1471.67635016
0.33500002 22393.78742571  1241.51163367
0.33600002 22270.87396064  1238.37200523
0.33700002 22158.70568803  1235.79107474
0.33800002 22059.15645828  1346.04979083
0.33900002 21969.23994493  1680.64693538
0.34000002 21890.92282933  1231.69283132
0.34100002 21822.73644485  1791.21029222
0.34200002 21765.40479294  1343.79615556
0.34300002 21716.79825760  1904.99763338
0.34400002 21678.60765016  1458.42839874
0.34500002 21649.35795774  1460.68225059
0.34600002 21630.49304113  1238.45393772
0.34700002 21618.31060667  1354.17104054
0.34800002 21616.34648492  1131.61579208
0.34900002 21622.33776323  1362.20734360
0.35000002 21636.51005749  1139.16230848
0.35100002 21658.71263970  1486.65410600
0.35200002 21687.98097904  1492.89224140
0.35300002 21724.98894526  1499.67605792
0.35400002 21769.54991493  1159.22858788
0.35500002 21820.90028113  1398.28335624
0.35600002 21878.47188137  1171.59222474
0.35700002 21942.85592903  1413.99770304
0.35800002 22014.10521924  1541.09750887
0.35900002 22091.04865693  2147.25003116
0.36000002 22174.66647130  1801.13736944
0.36100002 22263.07258863  1208.88489882
0.36200002 22358.18970221  1460.88418434
0.36300002 22456.80889575  1471.37018854
0.36400002 22561.48616863  2099.91042461
0.36500002 22670.57202420  1617.99880201
0.36600002 22785.03824103  1630.61133896
0.36700002 22903.52745975  1390.70225323
0.36800002 23027.85353889  1274.59175375
0.36900002 23155.41484058  1285.12558453
0.37000002 23285.97520940  1425.45103997
0.37100002 23421.02041743  1698.96090156
0.37200002 23560.00539058  1581.81883685
0.37300002 23701.97261331  1595.61687191
0.37400002 23848.25566819  1475.61088937
0.37500002 23996.71310120  1353.41468302
0.37600002 24149.06310322  1502.19254150
0.37700002 24303.08736033  1377.98511861
0.37800002 24460.80436608  2224.95487054
0.37900002 24620.69159410  2105.06923102
0.38000002 24783.21914971  1557.99714565
0.38100002 24947.42250512  1429.48737726
0.38200002 25114.01346039  1875.64018414
0.38300002 25282.30474626  2038.76515132
0.38400002 25453.01196717  1910.88496396
0.38500002 25624.26666162  2373.83217599
0.38600002 25798.41895748  1647.35812057
0.38700002 25972.85581054  2116.26839170
0.38800002 26148.56117802  1830.92234043
0.38900002 26325.55651003  2310.06769320
0.39000002 26504.25218054  2331.71169605
0.39100002 26682.93629242  2196.53941966
0.39200002 26862.94048314  2058.64154146
0.39300002 27043.22965567  2237.55692772
0.39400002 27224.97140518  2097.00352183
0.39500002 27406.11021957  1790.71532659
0.39600002 27587.74201869  1807.13512655
0.39700002 27769.13511949  1989.38093421
0.39800002 27951.75347974  1672.91252502
0.39900002 28133.37880698  2363.20393175
0.40000002 28315.07316803  2214.09725128
0.40100002 28496.14253802  2233.81271939
0.40200002 28678.31037648  2947.12670547
0.40300002 28858.86476031  2623.27093100
0.40400002 29038.92157663  1940.52602630
0.40500002 29218.53566083  2491.17246848
0.40600002 29397.67945734  1794.72841591
0.40700002 29575.83670142  2715.06193783
0.40800002 29753.58937049  2007.92107381
0.40900002 29929.35170238  2760.98282536
0.41000002 30105.13161626  2412.77588771
0.41100002 30279.38290463  2432.64573782
0.41200002 30451.97186463  3207.04956888
0.41300002 30623.67399214  2091.90326952
0.41400002 30793.89042639  2108.61174686
0.41500002 30963.35619260  1932.11351797
0.41600002 31129.92739673  1947.17705093
0.41700002 31295.92439793  2943.38182909
0.41800002 31461.04845179  2570.52508556
0.41900002 31622.50933843  3187.54909235
0.42000002 31783.04274363  2007.09924437
0.42100002 31942.41761199  2021.95513065
0.42200002 32099.65449700  2851.41244408
0.42300002 32254.50680087  2256.52540272
0.42400002 32407.40748529  2892.36125512
0.42500002 32558.73618596  2288.55367496
0.42600002 32706.63001813  2513.83170231
0.42700002 32853.73921511  2741.97320483
0.42800002 32998.05120467  2760.45210434
0.42900002 33140.77728056  2137.58023589
0.43000002 33281.05798070  2151.62050041
0.43100002 33417.61996303  2815.10043909
0.43200002 33552.90351485  3268.89177984
0.43300002 33685.25865386  2412.20148651
0.43400002 33815.63847152  2868.41166928
0.43500002 33943.11784385  3107.83201706
0.43600002 34068.88764672  2679.85882929
0.43700002 34191.09883010  4941.98165910
0.43800002 34310.06652531  2937.11338409
0.43900002 34427.55112491  3181.10587469
0.44000002 34541.50003858  4112.85660450
0.44100002 34653.52131010  3676.04571478
0.44200002 34762.47147473  2540.96297286
0.44300002 34868.90546450  3947.85766378
0.44400002 34972.00703093  3268.13421192
0.44500002 35071.50628413  3284.79743424
0.44600002 35168.97499810  3065.50385099
0.44700002 35263.71022386  2843.66572722
0.44800002 35354.70497240  3333.59528983
0.44900002 35443.96520934  2631.71454152
0.45000002 35530.06959345  2884.33118629
0.45100002 35611.78727641  2897.37515012
0.45200002 35691.65455244  2667.77284595
0.45300002 35767.89911819  2922.95285447
0.45400002 35841.79561757  2690.82293352
0.45500002 35912.53210192  2702.05904341
0.45600002 35979.79767680  2713.05677240
0.45700002 36044.14097904  2476.23260262
0.45800002 36104.83304385  2734.39966017
0.45900002 36162.65179923  2744.74540165
0.46000002 36218.30606893  2754.94558170
0.46100002 36269.60439417  3770.22555546
0.46200002 36318.55192301  4035.71768096
0.46300002 36363.86160734  3290.20235417
0.46400002 36405.77163115  2793.23296079
0.46500002 36445.42273073  3821.30275443
0.46600002 36481.19888307  3066.60972345
0.46700002 36513.84866347  2819.59952743
0.46800002 36543.99509128  3856.30526478
0.46900002 36570.26597226  3093.84464789
0.47000002 36593.17068184  2843.83839433
0.47100002 36613.32813072  3110.66850542
0.47200002 36630.20245276  3638.47818209
0.47300002 36644.36494679  3908.12170681
0.47400002 36654.17513636  3133.93212270
0.47500002 36661.90942165  2617.66045678
0.47600002 36666.75663888  3410.55853042
0.47700002 36667.46387422  3154.86874127
