# SAXS profile: number of points = 501, q_min = 0, q_max = 0.5, delta_q = 0.001
#    q    intensity    error
0.00000000 1664650.74656091 249.69761198
0.00100000 1664582.50731602 549.31224046
0.00200000 1664377.74077943 973.66100919
0.00300000 1664036.59671525 1098.26419296
0.00400000 1663558.97426467 1621.97006154
0.00500000 1662945.31046355 1795.98100639
0.00600000 1662195.33353169 2792.48827402
0.00700000 1661309.66991300 2192.92885542
0.00800000 1660287.84814898 2913.80529652
0.00900000 1659131.14751841 2737.56651043
0.01000000 1657838.74983232 4376.69448854
0.01100000 1656411.92760151 2981.54159950
0.01200000 1654850.04023958 3549.65349194
0.01300000 1653154.52914028 3818.78713074
0.01400000 1651324.73381661 5573.22122370
0.01500000 1649362.27917789 4750.16357555
0.01600000 1647266.02460133 4620.58140556
0.01700000 1645038.20155325 4441.60334344
0.01800000 1642678.28250410 6086.12331054
0.01900000 1640187.00410058 6396.72960463
0.02000000 1637565.01399621 5674.16303017
0.02100000 1634813.82136034 8092.32878263
0.02200000 1631931.75192179 6756.19775991
0.02300000 1628921.74212253 6450.53039242
0.02400000 1625783.49405640 6706.35721878
0.02500000 1622518.39739858 8226.16865051
0.02600000 1619126.71768383 8524.70255851
0.02700000 1615609.27066115 9499.78294659
0.02800000 1611966.10633278 9816.87403776
0.02900000 1608199.86655028 7960.58970493
0.03000000 1604310.57237361 8952.05340533
0.03100000 1600298.70858471 11522.15123198
0.03200000 1596165.11888764 7901.01770240
0.03300000 1591912.68250167 8930.63056054
0.03400000 1587539.29045460 11668.41432323
0.03500000 1583048.36977477 11967.84622815
0.03600000 1578439.62030633 11388.44238681
0.03700000 1573714.75568490 12558.24433115
0.03800000 1568875.35523743 10095.71337818
0.03900000 1563922.12434997 13136.94645291
0.04000000 1558854.55636527 10545.65156249
0.04100000 1553676.34543623 11745.79371611
0.04200000 1548387.77116070 10985.81174605
0.04300000 1542988.96207568 14257.21867137
0.04400000 1537483.37665032 12453.61592924
0.04500000 1531870.85316945 11626.90031580
0.04600000 1526151.76620627 11835.30749712
0.04700000 1520328.91029772 13135.64239588
0.04800000 1514402.96096817 15583.20719342
0.04900000 1508376.26948432 11312.82254772
0.05000000 1502248.52378593 12641.42191632
0.05100000 1496023.05441026 15169.67447838
0.05200000 1489697.98385035 18948.95923762
0.05300000 1483278.84789529 16820.38291926
0.05400000 1476763.82099193 12183.30209134
0.05500000 1470157.01510457 14819.18340356
0.05600000 1463456.67551308 13763.81067548
0.05700000 1456667.89959398 13940.31244983
0.05800000 1449789.36203057 16679.82738898
0.05900000 1442823.06501474 15582.48982995
0.06000000 1435771.79304271 15764.77502412
0.06100000 1428636.62032162 14614.95330887
0.06200000 1421418.38557165 13432.40437153
0.06300000 1414120.24896868 19005.77703476
0.06400000 1406740.20609526 13715.71765087
0.06500000 1399284.44362363 13852.91663988
0.06600000 1391751.05122543 20980.64807888
0.06700000 1384142.76075920 16941.90818456
0.06800000 1376462.61198177 21369.58305131
0.06900000 1368711.24578125 14371.46875356
0.07000000 1360888.13505138 18841.49711210
0.07100000 1352998.38548432 16073.62157241
0.07200000 1345040.52688334 14728.19445934
0.07300000 1337019.38649586 16325.00747403
0.07400000 1328934.94618629 16445.57072976
0.07500000 1320788.47477668 19574.08611368
0.07600000 1312580.83768444 19708.40220177
0.07700000 1304317.24576771 15260.51249102
0.07800000 1295996.18501826 18429.06661521
0.07900000 1287619.02335983 16996.57190555
0.08000000 1279190.79225754 26421.68705355
0.08100000 1270710.68533432 20318.66481181
0.08200000 1262179.69254770 18856.96549153
0.08300000 1253601.22890026 26852.13958327
0.08400000 1244975.61447535 17460.78381260
0.08500000 1236307.20826847 17543.20010890
0.08600000 1227594.38866449 17622.11827666
0.08700000 1218841.36373950 19306.44810822
0.08800000 1210046.60707957 21000.35985212
0.08900000 1201215.93124922 19459.69900025
0.09000000 1192348.52668049 21158.22559986
0.09100000 1183446.55954923 17964.71961796
0.09200000 1174511.47158524 18022.87937831
0.09300000 1165546.22521233 23007.88356688
0.09400000 1156549.39954015 19776.99566161
0.09500000 1147525.32956398 23134.11173138
0.09600000 1138474.62403379 23190.72918171
0.09700000 1129401.04533553 18262.41576164
0.09800000 1120304.60311166 21627.48137994
0.09900000 1111187.44867824 20001.37501672
0.10000000 1102049.20080781 18365.65079515
0.10100000 1092892.95571319 18393.38930973
0.10200000 1083721.05737684 21766.53846123
0.10300000 1074533.57531270 20115.26947609
0.10400000 1065333.97458612 18456.91197801
0.10500000 1056124.51615160 20150.85671626
0.10600001 1046901.76551527 20163.32895258
0.10700001 1037673.14685057 30258.55038606
0.10800001 1028436.06432646 25222.39566462
0.10900001 1019194.49846269 16816.71001612
0.11000001 1009949.07501074 20178.78346852
0.11100001 1000701.52273632 16811.78637336
0.11200001 991454.39387729 18485.66804409
0.11300001 982206.02224421 18475.29614825
0.11400001 972961.70743474 16783.59024350
0.11500001 963720.95996252 20122.49459155
0.11600001 954485.48451419 16751.22104206
0.11700001 945257.40046544 18404.16245380
0.11800001 936035.87206455 23391.53754459
0.11900001 926824.65451337 21687.69793714
0.12000001 917623.90717517 18320.36216973
0.12100001 908437.08290218 23274.15916036
0.12200001 899262.83202491 21568.82004225
0.12300001 890104.38379819 24833.91347800
0.12400001 880961.55664171 18169.83296185
0.12500001 871836.52395448 23068.79551085
0.12600001 862732.21294588 19722.05931731
0.12700001 853647.95716963 16390.04155006
0.12800001 844584.36883375 19611.24996858
0.12900001 835543.94123113 24439.66143290
0.13000001 826527.81564728 21113.65404590
0.13100001 817536.09159092 21043.37998949
0.13200001 808572.15697487 16131.01529207
0.13300001 799636.98009608 17679.97446341
0.13400001 790729.05520497 22417.16977193
0.13500001 781852.19853167 19139.74272246
0.13600001 773005.58368023 17473.79204299
0.13700001 764192.43851240 22146.29791236
0.13800001 755411.06809899 25200.51442013
0.13900001 746666.58853195 18815.99891833
0.14000001 737956.35645650 15607.77767513
0.14100001 729282.93230274 17087.09990973
0.14200001 720646.23919450 18549.43507176
0.14300001 712050.76077923 21532.41602160
0.14400001 703490.73174272 18361.10896458
0.14500001 694975.12731231 15219.95600610
0.14600001 686498.36740981 15137.28971548
0.14700001 678066.71958413 16558.39007341
0.14800001 669676.19495822 16463.99002980
0.14900001 661329.64378899 19343.89299349
0.15000001 653028.69726176 16270.21075995
0.15100001 644773.68356020 14700.84067883
0.15200001 636566.01558962 16070.10982186
0.15300001 628405.67199211 17419.40604963
0.15400001 620291.64816268 14421.78150036
0.15500001 612228.72781480 15758.76819766
0.15600001 604213.32653131 14229.22451136
0.15700001 596251.85384192 15544.28656330
0.15800001 588337.00730577 15435.02211518
0.15900001 580476.90915091 22290.31436351
0.16000001 572666.80188123 17978.87509371
0.16100001 564912.83532141 15100.12080093
0.16200001 557210.40130920 17710.93344168
0.16300001 549563.46657050 13519.26191585
0.16400001 541970.85598707 20120.66897841
0.16500001 534433.66797101 14638.13885681
0.16600001 526952.18586507 15840.18345497
0.16700001 519526.41986993 14401.27303875
0.16800001 512157.06612310 18176.45513494
0.16900001 504846.86043895 15448.31465887
0.17000001 497593.53674147 12763.27482010
0.17100001 490398.61571285 13917.51337113
0.17200001 483262.22946856 15048.78653630
0.17300001 476184.59945683 16156.94422257
0.17400001 469167.69003370 12315.65244500
0.17500001 462209.67315394 12202.33594755
0.17600001 455310.03928375 16923.87495948
0.17700001 448473.28149930 13171.66089974
0.17800001 441695.98088851 20161.21399991
0.17900001 434979.73113035 18791.12527240
0.18000001 428325.45441752 18606.45861877
0.18100001 421733.43762050 12664.65572998
0.18200001 415200.37015462 12536.97576904
0.18300001 408731.84552457 19177.69909795
0.18400001 402323.89425874 12280.93745241
0.18500001 395979.46416366 14362.17584372
0.18600001 389697.11587015 10931.00461658
0.18700001 383476.88018456 16221.07279817
0.18800001 377318.84833279 12836.38782675
0.18900001 371225.80557733 14811.91034236
0.19000001 365191.56522049 10462.73883792
0.19100001 359225.35873806 13449.39806664
0.19200001 353318.35744453 10228.56693133
0.19300001 347477.14020508 13145.06083510
0.19400001 341697.87292329 11993.59590635
0.19500001 335982.22544429 13829.02905278
0.19600001 330328.75023932 13665.70104319
0.19700001 324739.00663750 17360.54811526
0.19800001 319212.33635097 11434.18642846
0.19900001 313749.79643535 9412.49433789
0.20000001 308348.07329084 11156.03381891
0.20100001 303011.26945120 17444.35960677
0.20200001 297735.69321036 10879.26274410
0.20300001 292524.01570379 9846.35883397
0.20400001 287374.74401172 9720.45117564
0.20500001 282287.53888351 10467.22243655
0.20600001 277263.30914062 9469.92877132
0.20700001 272300.82907839 11044.52214948
0.20800001 267400.23935436 9221.29769003
0.20900001 262563.95669569 12406.14754033
0.21000001 257786.70720645 8158.94966878
0.21100001 253071.40144497 9657.20513567
0.21200001 248417.47135360 11111.71401895
0.21300001 243824.37510030 8609.43909181
0.21400001 239292.99735100 7717.19952941
0.21500001 234822.96277084 9129.91722417
0.21600001 230411.83174012 7499.90547773
0.21700001 226061.39462563 9609.87033989
0.21800001 221771.08736448 7285.18056437
0.21900001 217539.11682634 10768.18679204
0.22000001 213366.33932434 8487.71337964
0.22100001 209254.77808173 11149.09510336
0.22200001 205200.84584526 6863.96861808
0.22300001 201205.11913850 6760.49232273
0.22400001 197265.95902915 7323.49907526
0.22500001 193387.46297090 6555.83530472
0.22600001 189564.44510017 7100.13662698
0.22700001 185799.82314643 7625.22510252
0.22800001 182090.89492121 6254.82253633
0.22900001 178438.07426280 6771.72523851
0.23000001 174841.49029988 7875.73530302
0.23100001 171301.90110690 7749.69837258
0.23200001 167815.57296666 6451.67000783
0.23300001 164385.31228753 7500.90215443
0.23400001 161009.68966412 6243.15101200
0.23500001 157686.53138939 6698.52417024
0.23600001 154418.28787359 6587.48447226
0.23700001 151202.90746958 7557.12167277
0.23800001 148040.31419462 6368.69461788
0.23900001 144930.31809161 6782.73920751
0.24000001 141872.11358245 7180.14800803
0.24100001 138866.65745662 7057.20386576
0.24200001 135911.71244258 6440.17679872
0.24300001 133007.41508067 5354.87878445
0.24400001 130152.92866495 5261.43239017
0.24500001 127348.79813078 6108.92213531
0.24600001 124593.96210216 5077.82716568
0.24700001 121888.98133462 5441.12438417
0.24800001 119231.33087798 6234.60658655
0.24900001 116621.76514477 5685.31131977
0.25000001 114060.17759927 5582.67565670
0.25100001 111545.38532228 5481.34049405
0.25200001 109078.34584736 4967.42810490
0.25300001 106657.52843315 5282.74763322
0.25400001 104281.59933659 5185.40277234
0.25500001 101951.10186745 5480.89149571
0.25600001 99665.86552944  5378.96701712
0.25700001 97424.86878250  4901.44538035
0.25800001 95227.62675654  3699.59347453
0.25900001 93074.19307849  3992.88307199
0.26000001 90964.37676937  3561.25551902
0.26100001 88894.76160567  5240.34644461
0.26200001 86869.54664384  4797.80528816
0.26300001 84884.62579271  4033.71760854
0.26400001 82940.70745741  3626.58260518
0.26500001 81038.20432143  4526.79430760
0.26600001 79174.98578924  4122.24583018
0.26700001 77352.37965043  3420.52239000
0.26800001 75568.88105620  5488.56809084
0.26900001 73823.55190364  3886.81019166
0.27000001 72117.10207134  2931.56033793
0.27100001 70448.20434331  3449.14424787
0.27200001 68816.96655726  3381.66589666
0.27300001 67222.03538185  4144.23867741
0.27400001 65662.42157747  3250.29002190
0.27500001 64141.09681959  3983.16230100
0.27600001 62652.95867633  3644.52277868
0.27700001 61201.56071677  3062.52624321
0.27800001 59783.60745146  3502.72172636
0.27900001 58400.33744990  2943.37714678
0.28000001 57050.22968746  2885.60075416
0.28100001 55733.13543701  2593.26291462
0.28200001 54449.06034238  2311.36272093
0.28300001 53197.40411483  3399.31428383
0.28400001 51977.39040342  2444.23689941
0.28500001 50788.88906770  2178.84344413
0.28600001 49630.56062565  3632.21275131
0.28700001 48503.20763350  2304.87253584
0.28800001 47405.06553183  2466.01162569
0.28900001 46337.92966086  2821.98004992
0.29000001 45298.43722451  1977.27687844
0.29100001 44289.21656957  2715.81488860
0.29200001 43307.02280351  2093.67811654
0.29300001 42352.86113890  3175.19414988
0.29400001 41425.89865341  2199.71532262
0.29500001 40527.05213304  2699.10179983
0.29600001 39653.39726360  2296.52661123
0.29700001 38805.69782545  2775.38363986
0.29800001 37984.42405392  2385.04209925
0.29900001 37188.13067677  2510.19893951
0.30000001 36416.53182369  2137.46843658
0.30100001 35670.15912211  1615.85828473
0.30200001 34946.75770599  1747.16323422
0.30300001 34247.48619126  1717.85398868
0.30400001 33571.95700852  1689.50881644
0.30500001 32918.20460380  1964.22936170
0.30600001 32287.13487242  1784.18715752
0.30700001 31678.47282277  1756.25461644
0.30800001 31091.27330642  2017.51282037
0.30900001 30525.23813792  1987.19309686
0.31000001 29980.98784126  1398.61314901
0.31100001 29455.43747372  1654.21744684
0.31200001 28951.18526620  1902.96149764
0.31300001 28465.99504475  1608.89811610
0.31400001 28001.79458612  1323.08485684
0.31500001 27555.60908392  1436.74952566
0.31600002 27128.00685605  1547.92414450
0.31700002 26718.26213775  1401.90728075
0.31800002 26327.00042407  1385.72173293
0.31900002 25953.52354425  1245.76918911
0.32000002 25596.98838984  1478.99405919
0.32100002 25257.76815806  1707.93036372
0.32200002 24935.22773936  1208.11184118
0.32300002 24628.05842482  1196.92369612
0.32400002 24337.20211888  1305.08252542
0.32500002 24061.51621209  1647.25147788
0.32600002 23801.51281284  1400.95711050
0.32700002 23556.39384860  1158.97463223
0.32800002 23326.39700163  1151.15774654
0.32900002 23109.44037292  1487.09255842
0.33000002 22908.05187149  1364.86179514
0.33100002 22717.92701175  1244.48810064
0.33200002 22543.63393750  1126.05456850
0.33300002 22381.12633321  1569.81227535
0.33400002 22232.11863477  1228.88041573
0.33500002 22094.96271165  1559.02064276
0.33600002 21970.03080060  2110.11170817
0.33700002 21856.11229565  1329.72593504
0.33800002 21755.23418074  1327.50445258
0.33900002 21664.42187367  1657.32835182
0.34000002 21585.33149154  1214.49873389
0.34100002 21516.74180482  1545.33246961
0.34200002 21459.52703891  1104.09271844
0.34300002 21411.04436198  1215.29093554
0.34400002 21373.53803891  1106.08064590
0.34500002 21345.19779277  1329.37898149
0.34600002 21327.49775587  1110.09631077
0.34700002 21316.78537832  1224.00987439
0.34800002 21316.64155335  1673.88935725
0.34900002 21324.63984082  1231.49800913
0.35000002 21341.18368131  1235.97471144
0.35100002 21365.94605387  1353.74640609
0.35200002 21398.02321133  1359.63045924
0.35300002 21438.13124171  1593.71075199
0.35400002 21486.05941958  1372.95926194
0.35500002 21541.06899427  1495.38108041
0.35600002 21602.53760066  1850.90550929
0.35700002 21670.95237594  1280.10321748
0.35800002 21746.61486320  1522.37184561
0.35900002 21827.98471149  1178.71123025
0.36000002 21916.38778234  1305.44970009
0.36100002 22009.69948621  1553.66476032
0.36200002 22110.03912954  1324.28085639
0.36300002 22214.06177347  1455.46539634
0.36400002 22324.30991574  1222.25602578
0.36500002 22439.12187864  1231.90784949
0.36600002 22559.51385238  1614.47168532
0.36700002 22684.12332096  1377.38003329
0.36800002 22814.80080850  1641.63906994
0.36900002 22948.69033390  1401.01761125
0.37000002 23085.98729471  1927.10288071
0.37100002 23227.65676128  1425.71363954
0.37200002 23373.64989404  1307.75577352
0.37300002 23522.67445700  1583.54651946
0.37400002 23676.13152270  1598.13895349
0.37500002 23831.86414798  1881.76408227
0.37600002 23991.75805295  1356.73398216
0.37700002 24153.23952039  1643.38649482
0.37800002 24318.68404851  1382.51725365
0.37900002 24486.50069312  1535.30366619
0.38000002 24656.83144968  1972.79317775
0.38100002 24829.12354073  1849.52150017
0.38200002 25003.73817557  1867.40427411
0.38300002 25180.27212482  1740.46049172
0.38400002 25359.39832551  1903.85691948
0.38500002 25539.08392920  1626.58433251
0.38600002 25721.64636312  1642.45580633
0.38700002 25904.58879206  2110.70599477
0.38800002 26088.95483950  2131.20682181
0.38900002 26274.57040075  2151.88741777
0.39000002 26461.99841076  2172.79479245
0.39100002 26649.43954452  2350.48067918
0.39200002 26838.31721855  1898.54264999
0.39300002 27027.44830577  1757.05449760
0.39400002 27218.02690281  1935.20180447
0.39500002 27408.21992151  1790.85317452
0.39600002 27598.74691107  1972.20654770
0.39700002 27789.18062138  1824.91557787
0.39800002 27980.79477509  1674.65064663
0.39900002 28171.60078973  1690.29612747
0.40000002 28362.22637494  1876.58679701
0.40100002 28552.41214941  1893.88158760
0.40200002 28743.63043219  2258.81830454
0.40300002 28933.30077652  1928.69392114
0.40400002 29122.34173642  1946.10057874
0.40500002 29311.03112059  2142.05025578
0.40600002 29499.25918175  2881.48777340
0.40700002 29686.40677754  3451.93554365
0.40800002 29873.13793431  1832.71709911
0.40900002 30057.99009178  2587.99306953
0.41000002 30242.73954349  2423.80447556
0.41100002 30425.93868713  2632.45233994
0.41200002 30607.30373119  2275.34706719
0.41300002 30787.95079423  2103.12501841
0.41400002 30966.94907952  2120.46193869
0.41500002 31145.06776110  2526.48801649
0.41600002 31320.48146628  2155.00582940
0.41700002 31495.11456291  2369.69253200
0.41800002 31668.85545918  2189.42642591
0.41900002 31838.87894842  2206.43441568
0.42000002 32008.01609669  2021.30631228
0.42100002 32175.76373085  2036.72594067
0.42200002 32341.39689571  2257.26790330
0.42300002 32504.56384280  2067.29035836
0.42400002 32665.71755870  2915.41543026
0.42500002 32825.13425013  2307.27879577
0.42600002 32981.08325213  2323.68233064
0.42700002 33136.17672069  2340.07691090
0.42800002 33288.45603078  2142.11224709
0.42900002 33438.95515079  2372.49398037
0.43000002 33586.99552721  2605.67923648
0.43100002 33731.26498951  3497.25771984
0.43200002 33874.03614482  2420.13062705
0.43300002 34013.90404996  2435.73578444
0.43400002 34151.62122831  2228.39339075
0.43500002 34286.23436252  2690.78380028
0.43600002 34419.25909840  2481.80079490
0.43700002 34548.52068362  2723.80549977
0.43800002 34674.44046592  2511.64321417
0.43900002 34798.72100929  2756.05883454
0.44000002 34919.42467299  2540.91205674
0.44100002 35038.04469955  2323.02247367
0.44200002 35153.40281123  2803.13247301
0.44300002 35266.23143208  2583.60423715
0.44400002 35375.62236736  2833.58748591
0.44500002 35481.18717598  2373.69153456
0.44600002 35584.75445431  2385.95789924
0.44700002 35685.50920721  3357.29286532
0.44800002 35782.16754933  2409.92909866
0.44900002 35877.07362393  2906.04310126
0.45000002 35968.71849209  2433.28392131
0.45100002 36055.93184923  3422.42921333
0.45200002 36140.99375418  2701.35870618
0.45300002 36222.36510860  4440.13772544
0.45400002 36301.27455473  2973.07452694
0.45500002 36376.85180862  2488.17678163
0.45600002 36448.91658563  2998.28802043
0.45700002 36517.82759661  3010.52984974
0.45800002 36583.04445647  3022.49127624
0.45900002 36645.29158893  3792.78785921
0.46000002 36705.06383907  2791.97081324
0.46100002 36760.36440321  3056.99204866
0.46200002 36813.29676661  4090.69373058
0.46300002 36862.41832198  3078.74932417
0.46400002 36908.02924844  2574.33516209
0.46500002 36951.18583041  2582.88801196
0.46600002 36990.28494642  2850.28654164
0.46700002 37026.18369030  3119.08586190
0.46800002 37059.43217271  2607.13117692
0.46900002 37088.70942725  3399.18038012
0.47000002 37114.31445500  3146.55172863
0.47100002 37137.19578849  2629.31358645
0.47200002 37156.61822326  2899.88840668
0.47300002 37173.28994177  2907.32314414
0.47400002 37185.27227184  4239.12123991
0.47500002 37195.18177583  2921.30971514
0.47600002 37202.04887955  2927.98739585
0.47700002 37204.49762015  3201.07512696
