# SAXS profile: number of points = 501, q_min = 0, q_max = 0.5, delta_q = 0.001
#    q    intensity    error
0.00000000 1664650.74656091 249.69761198
0.00100000 1664582.44149459 549.31221874
0.00200000 1664377.46944632 1048.55783895
0.00300000 1664035.99881662 1098.26379834
0.00400000 1663557.90695678 1621.96902091
0.00500000 1662943.64279424 2544.30387418
0.00600000 1662192.92974790 2443.42370621
0.00700000 1661306.41612734 2790.99489509
0.00800000 1660283.58264607 3137.93610368
0.00900000 1659125.75737620 3484.16423943
0.01000000 1657832.10035143 2735.42308369
0.01100000 1656403.86307431 3875.98520835
0.01200000 1654840.49238099 3872.32692195
0.01300000 1653143.32126697 3818.76124055
0.01400000 1651311.71500516 5201.63213286
0.01500000 1649347.35159048 4354.27720209
0.01600000 1647249.09909982 5460.63100763
0.01700000 1645019.08229160 4885.70689357
0.01800000 1642656.88467857 5617.88679839
0.01900000 1640163.24798190 6396.63695576
0.02000000 1637538.63614573 8253.19509951
0.02100000 1634784.84533387 7552.70632787
0.02200000 1631900.00594581 9571.09396971
0.02300000 1628887.05196921 7036.79238481
0.02400000 1625745.78833306 7315.85638108
0.02500000 1622477.61322544 6327.66298057
0.02600000 1619082.67865649 7213.01366333
0.02700000 1615561.88123227 8142.43225434
0.02800000 1611915.27935016 9816.56450143
0.02900000 1608145.41247959 9407.65109495
0.03000000 1604252.50380413 8951.72938270
0.03100000 1600236.77100000 7681.13685423
0.03200000 1596099.26168445 8690.76088015
0.03300000 1591842.80394433 10553.91827669
0.03400000 1587465.34822652 9167.61280901
0.03500000 1582970.24333058 8548.03970872
0.03600000 1578357.20110099 11387.84773222
0.03700000 1573627.91713189 8969.67954248
0.03800000 1568783.99769471 10095.12549236
0.03900000 1563826.16910006 9382.95744913
0.04000000 1558753.94172274 11503.60462298
0.04100000 1553570.92164170 11744.99671219
0.04200000 1548277.50140354 10985.02938208
0.04300000 1542873.75771896 15274.45091043
0.04400000 1537363.21120880 12452.64258912
0.04500000 1531745.53688407 13739.75810427
0.04600000 1526021.32688939 11834.29594017
0.04700000 1520193.18404705 13134.46972102
0.04800000 1514261.96548388 14468.77375340
0.04900000 1508229.92420561 14705.24244550
0.05000000 1502096.67712341 13789.24813810
0.05100000 1495865.67423011 14001.30336303
0.05200000 1489535.04828484 20131.06711570
0.05300000 1483110.21742912 14415.83198545
0.05400000 1476589.48253732 13400.05017892
0.05500000 1469976.91948834 13582.58736969
0.05600000 1463270.73426578 13762.06189796
0.05700000 1456476.23655856 13938.47823449
0.05800000 1449591.65894768 17960.44149298
0.05900000 1442619.50724705 15580.29140596
0.06000000 1435562.10058450 13135.39383402
0.06100000 1428421.13386342 17269.61231544
0.06200000 1421196.78924991 17459.40337205
0.06300000 1413892.50466628 14930.70554737
0.06400000 1406506.41483255 16456.12582314
0.06500000 1399044.41435663 15235.59438503
0.06600000 1391504.88791114 22375.39964452
0.06700000 1383890.38850364 19761.95567267
0.06800000 1376203.92568067 19941.19581654
0.06900000 1368446.33348769 15805.55589178
0.07000000 1360616.93617247 15939.62815369
0.07100000 1352720.94662312 14609.38690780
0.07200000 1344756.84961127 17670.10583168
0.07300000 1336729.47072262 16321.46760228
0.07400000 1328638.68612712 22420.77887913
0.07500000 1320486.03595865 16558.89566708
0.07600000 1312272.08189596 16672.41758210
0.07700000 1304002.35133514 21359.55951639
0.07800000 1295674.98040203 15353.74923780
0.07900000 1287291.67689597 21626.50118622
0.08000000 1278857.19510672 17091.92721440
0.08100000 1270370.74132847 18750.67302176
0.08200000 1261833.69131672 26706.71132994
0.08300000 1253249.01285571 17370.03213339
0.08400000 1244617.34285845 17455.75905294
0.08500000 1235942.63601328 15943.66075305
0.08600000 1227223.77483997 20819.85231768
0.08700000 1218464.82407251 17692.11007631
0.08800000 1209664.04131595 19378.81885198
0.08900000 1200827.48291272 24316.75767113
0.09000000 1191954.11869733 21151.22682987
0.09100000 1183046.36072395 24489.06081751
0.09200000 1174105.25097402 18016.64592274
0.09300000 1165134.44332688 36142.47213041
0.09400000 1156131.94038026 23064.83329458
0.09500000 1147102.21515846 21473.75447709
0.09600000 1138045.79524064 24837.85064870
0.09700000 1128966.79666479 21574.55649854
0.09800000 1119864.84772628 18292.99314770
0.09900000 1110742.31586300 21659.47617781
0.10000000 1101598.60910578 18358.14168408
0.10100000 1092437.30501018 18385.72070803
0.10200000 1083260.04608425 21757.27904898
0.10300000 1074067.60072636 16755.45535952
0.10400000 1064862.82939834 20125.90842245
0.10500000 1055648.60829269 16784.81366157
0.10600001 1046420.83599724 20154.06624963
0.10700001 1037187.50341518 25203.65751901
0.10800001 1027945.71725759 20168.29592175
0.10900001 1018699.79775749 25212.82118116
0.11000001 1009449.82352031 21849.54245855
0.11100001 1000197.75875132 20163.98776561
0.11200001 990946.26037961 18476.19389458
0.11300001 981693.91213513 35252.63004449
0.11400001 972445.53213600 18452.15484109
0.11500001 963200.69657936 21787.60078256
0.11600001 953961.25349437 20090.42494468
0.11700001 944729.38572800 18393.88200638
0.11800001 935504.22632873 18368.62634910
0.11900001 926289.46583091 16673.21117029
0.12000001 917085.33761390 24967.64949264
0.12100001 907895.22364685 19937.38005050
0.12200001 898717.57765057 18239.47409770
0.12300001 889556.14079883 24818.61749760
0.12400001 880410.29381502 23110.77130157
0.12500001 871282.59118738 21407.41427420
0.12600001 862175.32369341 16424.44069034
0.12700001 853088.53403596 16379.30062539
0.12800001 844022.35795555 17965.01673576
0.12900001 834979.72260932 21166.73696578
0.13000001 825961.43501792 17853.15725942
0.13100001 816967.64872577 17793.55622799
0.13200001 808001.81679528 19343.56440594
0.13300001 799064.71649490 17667.32171459
0.13400001 790155.01456801 28801.15163885
0.13500001 781276.72441792 17531.85052253
0.13600001 772428.73803193 22222.77584100
0.13700001 763614.12901280 18968.17585909
0.13800001 754831.62146403 15738.24004967
0.13900001 746086.24086167 20368.15533605
0.14000001 737375.06833352 18714.58011690
0.14100001 728700.92013882 24834.12852958
0.14200001 720063.59850019 16989.90140795
0.14300001 711467.68112127 15367.70263708
0.14400001 702907.39697744 21403.53124757
0.14500001 694391.42875869 16727.89030789
0.14600001 685914.82393775 27223.96064636
0.14700001 677483.39876325 19552.17181071
0.14800001 669093.03078660 19440.49892668
0.14900001 660746.88396175 19326.84726774
0.15000001 652446.49134850 16255.70509894
0.15100001 644192.13242648 17625.09757483
0.15200001 635985.25450323 23353.37964733
0.15300001 627825.89935131 17403.33475126
0.15400001 619713.09050869 15849.16303770
0.15500001 611651.33114048 15743.90600656
0.15600001 603637.31508073 21323.48916159
0.15700001 595677.46623605 16941.06793932
0.15800001 587764.21334475 18223.63029489
0.15900001 579905.99854111 16701.29354629
0.16000001 572097.82142296 15197.77934347
0.16100001 564346.03546808 19199.05303290
0.16200001 556645.80017353 14970.98950239
0.16300001 549001.25527430 14855.97466904
0.16400001 541411.09747862 20099.88794280
0.16500001 533876.62751445 19940.29297907
0.16600001 526397.96979429 15823.52371909
0.16700001 518975.15513074 13078.17452678
0.16800001 511608.77055619 15563.13953515
0.16900001 504301.92217276 16717.60950940
0.17000001 497051.97729720 20399.01411151
0.17100001 489860.42870984 18957.59948627
0.17200001 482727.71611395 18790.17723706
0.17300001 475653.94473249 13656.02539817
0.17400001 468640.75014061 12301.82027216
0.17500001 461686.81400889 17063.94545166
0.17600001 454791.24383051 15697.12052217
0.17700001 447958.72724209 17940.74787340
0.17800001 441185.95195383 16584.18071725
0.17900001 434474.04110670 14076.95959676
0.18000001 427824.37198647 15100.06192251
0.18100001 421237.14112711 12649.75194558
0.18200001 414708.91891994 17075.64054315
0.18300001 408245.51842916 11267.57684092
0.18400001 401842.61255070 12266.24632758
0.18500001 395503.33039338 13241.45212712
0.18600001 389226.27356286 12009.57723816
0.18700001 383011.45257174 14041.20051465
0.18800001 376859.03814941 13889.14050720
0.18900001 370771.74511786 12680.39428215
0.19000001 364743.22077970 14629.85127672
0.19100001 358782.83805616 10332.94622425
0.19200001 352881.88378913 11237.52412025
0.19300001 347046.69475816 11108.96522414
0.19400001 341273.61407632 11978.70442012
0.19500001 335564.15845688 11838.70406980
0.19600001 329917.00845500 10723.95286660
0.19700001 324333.79243933 11559.25690880
0.19800001 318813.65914583 11419.90581029
0.19900001 313357.63168600 9400.72939486
0.20000001 307962.66282730 13927.61208460
0.20100001 302632.71236991 9169.77161819
0.20200001 297363.99958222 12676.62790133
0.20300001 292159.23859069 8940.07312342
0.20400001 287017.02016778 9708.35116605
0.20500001 281936.74640143 11325.39963826
0.20600001 276919.73513517 10318.02981885
0.20700001 271964.47196903 10182.35031183
0.20800001 267071.12802161 10047.21631111
0.20900001 262242.28098396 11564.88513808
0.21000001 257472.39401230 12223.50248357
0.21100001 252764.66831563 11253.08356538
0.21200001 248118.24436562 9512.85393869
0.21300001 243532.86779400 8599.14596833
0.21400001 239008.90794136 10020.44893917
0.21500001 234546.67432839 9879.10638977
0.21600001 230143.26739484 8989.39644945
0.21700001 225800.69865663 11075.52479275
0.21800001 221518.09357724 10187.61760529
0.21900001 217294.07599570 8604.84581628
0.22000001 213129.05645665 12717.41140008
0.22100001 209025.48969845 9744.76879051
0.22200001 204979.58175057 6856.56733377
0.22300001 200992.01607298 8779.33167720
0.22400001 197060.74611729 9311.12069433
0.22500001 193190.32098934 8513.89784860
0.22600001 189375.30568333 8382.69830248
0.22700001 185618.69938789 6982.97580119
0.22800001 181917.84299499 8123.54166310
0.22900001 178273.19963404 6150.42567823
0.23000001 174684.70828690 6658.10797123
0.23100001 171153.21394411 6551.74533963
0.23200001 167675.00681947 5860.24176549
0.23300001 164252.92801436 6918.33365516
0.23400001 160885.39473288 9641.05773534
0.23500001 157570.42065911 7251.39110170
0.23600001 154310.21989179 5485.72857661
0.23700001 151103.03712158 5933.81654842
0.23800001 147948.44689753 7955.92810822
0.23900001 144846.63462807 6778.82282123
0.24000001 141796.39576675 5125.93994943
0.24100001 138799.00334255 6046.08487159
0.24200001 135852.07817606 7427.71272562
0.24300001 132955.83754137 9732.36776840
0.24400001 130109.27018077 5259.66749586
0.24500001 127313.13383085 10335.28069329
0.24600001 124566.15628337 8768.83498638
0.24700001 121869.16017538 4986.88627029
0.24800001 119219.25176973 4898.12319067
0.24900001 116617.52186739 4810.47300460
0.25000001 114063.71721202 4723.94907182
0.25100001 111556.62805672 6746.94518406
0.25200001 109097.26272192 6210.36197426
0.25300001 106684.04027977 7316.39182853
0.25400001 104315.72589708 4389.08437477
0.25500001 101992.77906986 5091.47977205
0.25600001 99714.97935975  4612.81516343
0.25700001 97481.36753361  4149.78201225
0.25800001 95291.48324719  5553.11144897
0.25900001 93145.41615386  3995.93854207
0.26000001 91042.75556295  4990.05366851
0.26100001 88980.23460588  3496.92338547
0.26200001 86962.27764856  4116.79441868
0.26300001 84984.33292307  5048.06961449
0.26400001 83047.39078786  3961.36072803
0.26500001 81151.82290927  3561.75367603
0.26600001 79295.24568326  4763.66210984
0.26700001 77479.49955963  3426.14363265
0.26800001 75702.67405028  4887.36486796
0.26900001 73963.90020318  3594.64571998
0.27000001 72263.90593983  3525.03349856
0.27100001 70601.40581253  3168.59124281
0.27200001 68976.46126676  4236.87933381
0.27300001 67387.72990360  3323.56299613
0.27400001 65834.30990739  3801.93157708
0.27500001 64319.03110430  2929.08881511
0.27600001 62836.83057193  2871.95747721
0.27700001 61391.33287136  3328.02431246
0.27800001 59979.14276627  2761.13996792
0.27900001 58601.52582894  3199.64346169
0.28000001 57256.94827901  2896.05658102
0.28100001 55945.39467038  2839.78836787
0.28200001 54666.71841293  3016.78299840
0.28300001 53420.18836734  2503.27014537
0.28400001 52205.44027412  2454.96094509
0.28500001 51022.03245674  3502.15247359
0.28600001 49868.61172340  2146.84383631
0.28700001 48746.07119075  3369.32860018
0.28800001 47652.60718755  2272.31468129
0.28900001 46590.20688947  2026.67409562
0.29000001 45555.19217837  2187.33265598
0.29100001 44550.29721108  2146.43342123
0.29200001 43572.45113654  1915.00931810
0.29300001 42622.54258615  1879.65421702
0.29400001 41699.59669023  2583.29013724
0.29500001 40804.68349365  2355.24644274
0.29600001 39934.86619712  2134.91804796
0.29700001 39091.00168135  1747.36785787
0.29800001 38273.21619717  2403.17535878
0.29900001 37480.41604268  2023.94256212
0.30000001 36712.22636754  2320.57993855
0.30100001 35969.21068819  1792.34585344
0.30200001 35248.85251768  1762.26646505
0.30300001 34552.54600101  2520.95387558
0.30400001 33879.96506044  1705.00932238
0.30500001 33229.01565854  1525.21189093
0.30600001 32600.65847222  1651.38643309
0.30700001 31994.51720000  1921.59079401
0.30800001 31409.66855523  1601.42202711
0.30900001 30846.05882748  1434.34180339
0.31000001 30303.92536837  2261.88509658
0.31100001 29780.42410203  2090.58587094
0.31200001 29278.19512298  1512.07245872
0.31300001 28794.80850314  1763.10620812
0.31400001 28332.17983364  1874.17378473
0.31500001 27887.70767416  1454.06514698
0.31600002 27461.56573123  1436.37726358
0.31700002 27053.25993967  1806.61678431
0.31800002 26663.17922969  1403.41650520
0.31900002 26290.75521600  1766.73883417
0.32000002 25935.24522209  1498.53853989
0.32100002 25596.92011580  1607.23069017
0.32200002 25275.08861267  1836.86715190
0.32300002 24968.59504025  2184.25279755
0.32400002 24678.20774330  2045.20656357
0.32500002 24402.97994373  1909.28924121
0.32600002 24143.28562103  1539.49668052
0.32700002 23898.26244192  1763.69185173
0.32800002 23668.40451779  1635.25014557
0.32900002 23451.36006427  1625.17932941
0.33000002 23249.83335415  1846.96684911
0.33100002 23059.43232322  1148.35978408
0.33200002 22884.83193333  1143.09740920
0.33300002 22721.74053498  1821.37480754
0.33400002 22572.16550735  1134.25137046
0.33500002 22434.30717666  1696.03370287
0.33600002 22308.54469867  1804.31518067
0.33700002 22193.73206064  1462.78894939
0.33800002 22091.80757759  1235.70531537
0.33900002 21999.84687197  1121.99224361
0.34000002 21919.57152870  1121.18613679
0.34100002 21849.71829756  1905.51402297
0.34200002 21790.96299938  1905.94666900
0.34300002 21741.02964530  1346.20461939
0.34400002 21701.85849572  1235.37835338
0.34500002 21671.77561272  2362.00693590
0.34600002 21652.24980644  1239.69962138
0.34700002 21639.61966642  1581.42348012
0.34800002 21637.49628389  1472.53987934
0.34900002 21643.37244715  1477.16023948
0.35000002 21657.73848339  1254.30798367
0.35100002 21680.23826743  1373.65996168
0.35200002 21709.91498790  1379.44806367
0.35300002 21747.60123609  1501.23698443
0.35400002 21793.00853034  1276.52553513
0.35500002 21845.35301054  1399.85028722
0.35600002 21904.06905888  1759.44443049
0.35700002 21969.74299855  1887.64040784
0.35800002 22042.50467884  2136.58007972
0.35900002 22120.99845343  1313.98737037
0.36000002 22206.33439714  1322.72037102
0.36100002 22296.62243941  1331.77732139
0.36200002 22393.75207358  1463.20782979
0.36300002 22494.57885681  1473.84487651
0.36400002 22601.45618381  1608.65872008
0.36500002 22712.93547808  1371.63423849
0.36600002 22829.90645773  1885.17961504
0.36700002 22951.05557385  1266.89832769
0.36800002 23078.14333873  1916.06294146
0.36900002 23208.48002909  1674.49191342
0.37000002 23342.00425945  1558.77911828
0.37100002 23479.96806053  1310.18227984
0.37200002 23622.14177959  1321.65889517
0.37300002 23767.30137574  1600.01480441
0.37400002 23916.91540921  1614.39186660
0.37500002 24068.73071907  1764.71941992
0.37600002 24224.60595987  1643.88183831
0.37700002 24382.14424661  2211.94823084
0.37800002 24543.39564856  1534.82131959
0.37900002 24707.02140320  1689.96034404
0.38000002 24873.27342303  1705.80917216
0.38100002 25041.34529152  1865.32989913
0.38200002 25211.76379902  1882.94066853
0.38300002 25383.96206543  2046.96279793
0.38400002 25558.71780629  2214.02403486
0.38500002 25734.06755159  2384.00413092
0.38600002 25912.25379602  2105.88896577
0.38700002 26090.77238151  2125.87623436
0.38800002 26270.67238929  1686.18318719
0.38900002 26451.88201962  1547.43517146
0.39000002 26634.81522439  2655.62437776
0.39100002 26817.71033119  1576.88144218
0.39200002 27002.07318790  2069.30397679
0.39300002 27186.66288118  1928.07822288
0.39400002 27372.73752517  1621.83477520
0.39500002 27558.26080273  1964.35292309
0.39600002 27744.20027219  1652.16720448
0.39700002 27930.05216040  2167.65145087
0.39800002 28117.09266959  2524.21211401
0.39900002 28303.15777743  2037.82745652
0.40000002 28489.15030100  1884.98471897
0.40100002 28674.75044049  1729.08753348
0.40200002 28861.32346804  2093.60050357
0.40300002 29046.30829848  2640.30954943
0.40400002 29230.77722658  1953.34678072
0.40500002 29414.77188401  2687.03953892
0.40600002 29598.36109294  2168.37603641
0.40700002 29780.85429046  2369.36487961
0.40800002 29962.97662505  3124.98879518
0.40900002 30143.16496692  3151.46804661
0.41000002 30323.29278826  2617.20352456
0.41100002 30501.87993812  2073.51789644
0.41200002 30678.65314318  2660.75971318
0.41300002 30854.75305210  2682.51235745
0.41400002 31029.14139983  2897.34621549
0.41500002 31202.84736681  2531.17509833
0.41600002 31373.67719970  2158.66596201
0.41700002 31543.78107748  2175.57468400
0.41800002 31713.03983763  2591.11404271
0.41900002 31878.57070261  2410.02005931
0.42000002 32043.21612198  2428.23503278
0.42100002 32206.60505436  2242.54601620
0.42200002 32367.81430009  3080.60687199
0.42300002 32526.61022338  2689.30026070
0.42400002 32683.38181285  2916.99196502
0.42500002 32838.52270110  2308.21987004
0.42600002 32990.17117826  2958.22878973
0.42700002 33141.02830464  2127.65411798
0.42800002 33289.10924225  2142.15428125
0.42900002 33435.45186472  2587.90409696
0.43000002 33579.28739900  2387.99113654
0.43100002 33719.43787714  3277.52951697
0.43200002 33858.12504030  3518.53652092
0.43300002 33993.97591046  3540.81269863
0.43400002 34127.70330977  2672.19929579
0.43500002 34258.37119974  2464.54734090
0.43600002 34387.41093109  3155.73285069
0.43700002 34512.83159558  2720.99177194
0.43800002 34634.90351926  2736.85020579
0.43900002 34755.45452095  2523.24611780
0.44000002 34872.39407356  2768.17077274
0.44100002 34987.26391558  3015.55241979
0.44200002 35099.02921793  2332.33060206
0.44300002 35208.23353804  3282.81585066
0.44400002 35314.03589249  3300.09681055
0.44500002 35416.17086098  3080.14452575
0.44600002 35516.21251913  2619.49837849
0.44700002 35613.51728056  2632.55132214
0.44800002 35706.82612809  3126.31130981
0.44900002 35798.46007348  2899.67540337
0.45000002 35886.84721517  2670.51986208
0.45100002 35970.80799711  2682.70298756
0.45200002 36052.78491612  3184.72290650
0.45300002 36131.00284864  2706.57355166
0.45400002 36206.90440893  2471.12134302
0.45500002 36279.50759086  2729.67028050
0.45600002 36348.63413102  2990.03878533
0.45700002 36414.66346386  3002.02499824
0.45800002 36477.02257605  3516.02037274
0.45900002 36536.48404995  4033.62803028
0.46000002 36593.53117330  3036.53136068
0.46100002 36646.18489893  2793.53880724
0.46200002 36696.53072947  3313.14643394
0.46300002 36743.12757015  3068.78616010
0.46400002 36786.22447847  3079.00713478
0.46500002 36826.98955631  2831.62736119
0.46600002 36863.68575254  3615.22183310
0.46700002 36897.30025034  2849.20966037
0.46800002 36928.28964289  2857.69582946
0.46900002 36955.41089635  3126.42791001
0.47000002 36978.90360108  3657.58352854
0.47100002 36999.67073515  2881.53449343
0.47200002 37017.04436119  2626.35942191
0.47300002 37031.77039178  3686.14259951
0.47400002 37041.87123159  4750.62021062
0.47500002 37049.90920064  3438.97273500
0.47600002 37055.03135430  2651.28761907
0.47700002 37055.76122785  4251.03712955
