# SAXS profile: number of points = 501, q_min = 0, q_max = 0.5, delta_q = 0.001
#    q    intensity    error
0.00000000 1664650.74656091 249.69761198
0.00100000 1664582.44680849 499.37474590
0.00200000 1664377.49443669 823.86688583
0.00300000 1664036.04883915 1198.10599784
0.00400000 1663557.99508907 1497.20225247
0.00500000 1662943.78015339 2095.30924593
0.00600000 1662193.13045029 1919.83314383
0.00700000 1661306.67829275 2192.92490648
0.00800000 1660283.93486362 2241.38340670
0.00900000 1659126.21227080 2737.55836727
0.01000000 1657832.64515429 3282.50877914
0.01100000 1656404.53404162 3577.83394931
0.01200000 1654841.27686034 5163.10501017
0.01300000 1653144.24002268 3471.60305716
0.01400000 1651312.79727994 4458.54475031
0.01500000 1649348.58707115 3958.43678524
0.01600000 1647250.49364546 5880.68452520
0.01700000 1645020.66854959 6218.17840606
0.01800000 1642658.66205026 7022.36609625
0.01900000 1640165.20317241 7380.74374731
0.02000000 1637540.84201562 6189.90466282
0.02100000 1634787.25533001 7013.23764334
0.02200000 1631902.64306034 8445.09656152
0.02300000 1628889.94336511 5864.00406303
0.02400000 1625748.93457697 7315.87053918
0.02500000 1622480.99005432 8225.97899526
0.02600000 1619086.36189201 6557.30006558
0.02700000 1615565.82863667 11535.14054479
0.02800000 1611919.49941329 7011.85014401
0.02900000 1608149.95884397 9407.67769118
0.03000000 1604257.34630324 12681.65490544
0.03100000 1600241.94718766 10753.62637991
0.03200000 1596104.78485548 8690.79095382
0.03300000 1591848.64953067 12177.64273030
0.03400000 1587471.52676921 10001.07108010
0.03500000 1582976.76764633 10257.68992803
0.03600000 1578364.10790434 9635.91332407
0.03700000 1573635.24207224 9866.69342410
0.03800000 1568791.68800933 10095.17497954
0.03900000 1563834.24188054 10321.30647439
0.04000000 1558762.42143462 10545.02826965
0.04100000 1553579.80978985 12723.81923214
0.04200000 1548286.79874608 13981.03044130
0.04300000 1542883.50191410 14256.24421943
0.04400000 1537373.37442966 13490.45198714
0.04500000 1531756.15245619 12682.94153165
0.04600000 1526032.38496361 15061.94033977
0.04700000 1520204.74957850 15323.66458842
0.04800000 1514273.93726633 16694.87093514
0.04900000 1508242.32106767 15836.54510836
0.05000000 1502109.64046866 14938.48107009
0.05100000 1495879.06903303 11667.85728199
0.05200000 1489548.91645960 13026.10588147
0.05300000 1483124.60472754 14415.97182999
0.05400000 1476604.40284235 12181.98689154
0.05500000 1469992.32303401 13582.72969846
0.05600000 1463286.72442450 15013.32249318
0.05700000 1456492.65135050 16472.93265571
0.05800000 1449608.69174881 19243.55628149
0.05900000 1442637.07007504 16878.85450822
0.06000000 1435580.18958032 15762.67121800
0.06100000 1428439.62989468 18598.28485035
0.06200000 1421215.94237390 22831.83518148
0.06300000 1413912.16381240 20360.33611085
0.06400000 1406526.61040255 15084.99860204
0.06500000 1399065.20582651 18005.97004127
0.06600000 1391526.24828885 18180.29128452
0.06700000 1383912.35581048 15527.49735886
0.06800000 1376226.51182671 14243.94506415
0.06900000 1368469.49805053 18679.60952295
0.07000000 1360640.68150892 17388.98872398
0.07100000 1352745.21012108 14609.64895359
0.07200000 1344781.82091690 20615.50628043
0.07300000 1336754.95576233 14837.98070420
0.07400000 1328664.81370908 22421.21978209
0.07500000 1320512.73631600 21075.38425946
0.07600000 1312299.34115147 21219.88134122
0.07700000 1304030.25430371 18308.58562889
0.07800000 1295703.49213233 16889.49581200
0.07900000 1287320.70469129 20082.20393511
0.08000000 1278886.88650106 17092.32403991
0.08100000 1270401.11681083 18751.12136390
0.08200000 1261864.62380513 21994.30142501
0.08300000 1253280.61378088 28424.40565456
0.08400000 1244649.45719920 19043.13758901
0.08500000 1235975.48789468 20727.30990504
0.08600000 1227257.19319012 24023.56068464
0.08700000 1218498.85977893 24126.27855654
0.08800000 1209698.61273787 24224.21585774
0.08900000 1200862.66018457 22696.30534353
0.09000000 1191989.94419864 19524.79620316
0.09100000 1183082.81855232 17959.19802937
0.09200000 1174142.40422962 16379.28730861
0.09300000 1165172.15332585 18071.82094732
0.09400000 1156170.22314352 21418.05439033
0.09500000 1147141.14132701 23126.36649615
0.09600000 1138085.35610233 19870.97125164
0.09700000 1129006.85359160 26554.24244486
0.09800000 1119905.65889295 19956.71977979
0.09900000 1110783.64677529 16661.75548511
0.10000000 1101640.57873712 18358.84110802
0.10100000 1092479.78589326 18386.43566133
0.10200000 1083303.18470325 18410.73849000
0.10300000 1074111.39209107 23458.59390678
0.10400000 1064907.23126331 25158.43452218
0.10500000 1055693.48641457 20142.63266849
0.10600001 1046466.34372946 18475.36416787
0.10700001 1037233.58975988 18483.50343931
0.10800001 1027992.35153932 31934.58390346
0.10900001 1018746.96006055 21852.12332178
0.11000001 1009497.59352705 16808.13572338
0.11100001 1000246.20462555 36969.10146322
0.11200001 990995.21016624 25196.05440463
0.11300001 981743.28359860 18466.59203391
0.11400001 972495.52116571 21808.21308897
0.11500001 963251.23322970 18436.62947216
0.11600001 954012.27445113 18417.20782557
0.11700001 944780.99317082 18394.88680334
0.11800001 935556.28261681 18369.64847436
0.11900001 926342.02931997 18341.57304445
0.12000001 917138.47135695 16646.06403924
0.12100001 907948.87467250 19938.55822708
0.12200001 898771.85677219 23215.27815413
0.12300001 889610.75227507 28129.49331224
0.12400001 880465.44363042 18159.60063051
0.12500001 871338.13446853 26349.26642792
0.12600001 862231.53141784 26280.81831606
0.12700001 853145.04844430 16380.38570208
0.12800001 844079.47288051 21232.82014100
0.12900001 835037.20558124 21168.19415919
0.13000001 826019.37932072 21100.66603932
0.13100001 817025.95013053 22647.96040519
0.13200001 808060.49129187 16120.80756121
0.13300001 799123.78986442 20881.10561356
0.13400001 790214.55176709 19202.21451324
0.13500001 781336.64576222 17533.19515756
0.13600001 772489.01988155 22224.51014989
0.13700001 763674.94793234 18969.68660112
0.13800001 754892.85409039 20461.37177499
0.13900001 746147.75024570 15669.10349409
0.14000001 737436.88609635 18716.14905179
0.14100001 728763.10668619 15522.65490451
0.14200001 720126.02745812 16991.37441928
0.14300001 711530.57558771 15369.06115762
0.14400001 702970.47921362 25992.33469498
0.14500001 694454.97247996 16729.42107620
0.14600001 685978.54773866 16638.41046031
0.14700001 677547.28871031 15041.55051898
0.14800001 669157.25832879 16451.23197216
0.14900001 660811.46604544 14868.25868752
0.15000001 652511.26136738 16257.31884404
0.15100001 644257.21289787 20564.69120604
0.15200001 636050.59358745 14597.36181164
0.15300001 627891.41402320 15954.72158322
0.15400001 619778.76801450 15850.84273999
0.15500001 611717.20742391 15745.60166217
0.15600001 603703.40965139 17060.65916192
0.15700001 595743.69706144 18354.86417275
0.15800001 587830.71019070 16823.71571972
0.15900001 579972.55351370 22270.94710613
0.16000001 572164.58342246 15199.55287607
0.16100001 564412.82426099 16458.27873235
0.16200001 556712.72312056 16333.95206742
0.16300001 549068.29406015 16208.49680582
0.16400001 541478.23713320 21442.53920277
0.16500001 533943.80041523 13295.20125802
0.16600001 526465.24655101 13187.95504875
0.16700001 519042.57221350 19619.81015601
0.16800001 511676.26486187 15565.19271203
0.16900001 504369.35371879 14147.56103983
0.17000001 497119.46770573 16576.44943338
0.17100001 489927.86635119 13904.15350362
0.17200001 482795.08988029 13781.38649143
0.17300001 475721.33197549 13657.96008601
0.17400001 468708.19421193 12303.59067911
0.17500001 461754.15320606 15847.40328647
0.17600001 454858.60794614 15699.44559473
0.17700001 448025.99629903 13158.52413279
0.17800001 441253.13518190 11847.64723922
0.17900001 434541.10431083 12905.87140762
0.18000001 427891.45408292 11617.25352709
0.18100001 421304.06225524 12651.76158715
0.18200001 414775.72102326 14801.27230390
0.18300001 408312.03971951 13523.29539434
0.18400001 401909.07994045 13383.57299427
0.18500001 395569.62654540 13243.67172240
0.18600001 389292.44225087 13103.58422522
0.18700001 383077.41314190 11883.06191707
0.18800001 376924.85777371 11754.40224502
0.18900001 370837.16052082 15853.28936129
0.19000001 364808.57626218 10451.76620374
0.19100001 358847.89140199 12401.78371284
0.19200001 352946.64080787 11239.58630761
0.19300001 347111.25936901 10100.93812493
0.19400001 341337.97493411 11980.96348633
0.19500001 335628.17621526 12827.70950112
0.19600001 329980.70304302 9750.93023571
0.19700001 324397.19555214 10598.05687953
0.19800001 318876.67414003 13325.85684208
0.19900001 313420.44944200 12223.39810592
0.20000001 308025.08698369 16716.52226065
0.20100001 302694.77819373 11923.14787657
0.20200001 297425.68817484 11773.59642286
0.20300001 292220.50928637 10730.33760816
0.20400001 287077.90092038 14124.23339288
0.20500001 281997.25933689 10456.45887046
0.20600001 276979.75913537 8600.22192767
0.20700001 272024.12716628 8487.15316877
0.20800001 267130.31559551 8374.53578979
0.20900001 262301.00573499 10741.22669260
0.21000001 257530.73952211 9781.01794942
0.21100001 252822.51866889 11255.65906323
0.21200001 248175.63487143 11100.89667259
0.21300001 243589.60371265 8601.14931372
0.21400001 239065.35877463 10793.80145897
0.21500001 234602.47294931 8361.23253121
0.21600001 230198.59806820 9740.85413779
0.21700001 225855.38790106 10339.66014697
0.21800001 221572.40634708 11645.84622822
0.21900001 217347.75577946 7889.72390783
0.22000001 213182.20220556 9893.78647216
0.22100001 209078.11624805 8354.76192031
0.22200001 205031.43980612 8229.96238297
0.22300001 201043.17971168 7430.55627350
0.22400001 197111.37945686 6652.50937124
0.22500001 193240.40822748 7861.02017842
0.22600001 189424.78661822 8384.88857616
0.22700001 185667.53474809 8254.77898526
0.22800001 181966.05838114 7500.64128118
0.22900001 178320.64083823 7382.47487983
0.23000001 174731.57651558 7265.33929511
0.23100001 171199.40628404 6553.51358249
0.23200001 167720.58333040 7620.38506401
0.23300001 164297.78202112 6343.53766385
0.23400001 160929.51143231 6807.31865554
0.23500001 157613.83692085 11717.01319087
0.23600001 154352.97850136 7133.42323883
0.23700001 151145.01867457 5395.87742190
0.23800001 147989.76250436 7427.60653141
0.23900001 144887.12378908 6780.71771405
0.24000001 141836.16210964 6152.85300335
0.24100001 138838.00093463 6551.76557401
0.24200001 135890.36957595 7429.80630801
0.24300001 132993.28237933 6327.82067493
0.24400001 130146.02503978 6217.72664040
0.24500001 127349.08223795 5639.01762825
0.24600001 124601.41145988 5539.77901557
0.24700001 121903.51237777 5441.77304997
0.24800001 119252.85359709 5344.91315107
0.24900001 116650.35268252 5686.70496230
0.25000001 114095.71115421 5584.41484663
0.25100001 111587.79439332 4639.82071038
0.25200001 109127.58745160 6212.08820957
0.25300001 106713.56782301 4065.78712641
0.25400001 104344.46571774 4390.29360278
0.25500001 102020.61338334 4309.35091320
0.25600001 99742.03286102  4229.56110358
0.25700001 97507.57165359  4150.89752169
0.25800001 95316.85339169  4073.36592242
0.25900001 93169.91487131  3996.98953710
0.26000001 91066.42214980  4991.35083420
0.26100001 89003.09640588  4197.38622511
0.26200001 86984.18123092  4117.83133431
0.26300001 85005.41713700  3366.21467791
0.26400001 83067.60072778  3962.32474221
0.26500001 81171.06341308  4534.21581681
0.26600001 79313.77543391  5082.42697030
0.26700001 77497.10428245  4049.99886145
0.26800001 75719.44172205  3971.86350348
0.26900001 73979.75099863  3895.03407440
0.27000001 72278.86732665  4994.83136297
0.27100001 70615.51405771  2881.11310990
0.27200001 68989.71368231  3107.64179988
0.27300001 67400.05848234  3878.19954861
0.27400001 65845.74518726  3259.36454102
0.27500001 64329.57882429  3462.21809617
0.27600001 62846.55095946  3133.52917914
0.27700001 61400.12762044  3072.46253154
0.27800001 59987.05108166  3012.54984790
0.27900001 58608.53671909  3200.02625631
0.28000001 57263.10425736  3379.09594215
0.28100001 55950.59239140  2603.38118719
0.28200001 54671.06367907  2552.86543932
0.28300001 53423.71807551  2958.60564705
0.28400001 52208.02789034  2455.08262774
0.28500001 51023.75792457  3502.27090971
0.28600001 49869.43385082  2361.56715178
0.28700001 48746.06475112  2316.41310661
0.28800001 47651.75798568  2685.41494839
0.28900001 46588.44474908  3445.21565227
0.29000001 45552.54254500  3181.38972193
0.29100001 44546.74300782  2926.72115415
0.29200001 43568.06140479  2680.74294513
0.29300001 42617.24579504  2067.36269138
0.29400001 41693.52032403  2213.92603401
0.29500001 40797.74533290  1992.56197638
0.29600001 39927.12201158  1956.62870680
0.29700001 39082.29983868  2620.46832823
0.29800001 38263.73505760  2059.35431829
0.29900001 37470.07338346  2023.38405849
0.30000001 36701.05851851  2485.57930583
0.30100001 35957.16661381  2117.51764213
0.30200001 35236.02739856  2402.21628162
0.30300001 34538.94769118  2677.45935177
0.30400001 33865.51497991  1859.21686042
0.30500001 33213.69382802  2286.76292832
0.30600001 32584.56940992  1500.51949237
0.30700001 31977.62010477  1772.83934254
0.30800001 31392.04474008  1746.02561111
0.30900001 30827.52443905  1576.82794971
0.31000001 30284.62832999  1554.05577633
0.31100001 29760.43561788  2089.18267929
0.31200001 29257.38508730  1510.99772437
0.31300001 28773.23844014  1490.74155416
0.31400001 28309.93684837  2006.46686913
0.31500001 27864.58869617  1584.93788008
0.31600002 27437.70708347  1435.12933695
0.31700002 27028.61691086  1547.11810523
0.31800002 26637.87778753  1529.54701498
0.31900002 26264.80033569  1512.85257097
0.32000002 25908.53427247  1372.24558272
0.32100002 25569.52965627  1605.51084314
0.32200002 25247.00126271  1467.86072292
0.32300002 24939.80658612  1696.90452047
0.32400002 24648.76092206  1562.11529740
0.32500002 24372.81885553  1549.38016801
0.32600002 24112.49170415  1655.80488373
0.32700002 23866.83338870  1878.79721332
0.32800002 23636.28067363  1283.09555713
0.32900002 23418.61973333  1738.83259754
0.33000002 23216.48342833  1959.58737656
0.33100002 23025.45964392  1605.33512239
0.33200002 22850.21311529  1826.18911865
0.33300002 22686.62570074  1818.56000229
0.33400002 22536.43542983  1245.70152737
0.33500002 22397.97381802  1354.62952066
0.33600002 22271.65154826  1463.58165080
0.33700002 22156.30025563  1460.32181901
0.33800002 22053.83840407  1121.43773596
0.33900002 21961.37324176  1680.04513256
0.34000002 21880.56840956  1231.11023987
0.34100002 21810.09467359  1342.62949169
0.34200002 21750.93101958  1454.81109014
0.34300002 21700.47187707  1903.56548321
0.34400002 21660.78649097  1793.51320639
0.34500002 21630.27111488  1234.87223643
0.34600002 21610.26238188  1799.70273640
0.34700002 21597.23615352  1352.85093673
0.34800002 21594.59784870  1356.57270110
0.34900002 21600.09936339  1587.60737840
0.35000002 21614.10199622  1365.57902880
0.35100002 21636.15724689  1370.86698809
0.35200002 21665.45203309  1147.18573949
0.35300002 21702.73233121  1498.13968378
0.35400002 21747.77714812  1273.87610679
0.35500002 21799.77896434  1513.34072738
0.35600002 21858.23406990  1170.50848988
0.35700002 21923.49271553  1530.47909896
0.35800002 21995.98667343  1539.82912001
0.35900002 22074.16498815  1430.40595898
0.36000002 22159.21315016  1199.92144892
0.36100002 22249.20802742  1208.13205311
0.36200002 22346.13557013  1581.77128125
0.36300002 22446.66891624  1715.82345323
0.36400002 22553.35989504  1358.27616402
0.36500002 22664.58913041  1368.71460242
0.36600002 22781.33662781  1504.93516892
0.36700002 22902.29735106  1517.04824839
0.36800002 23029.17792962  1657.06457642
0.36900002 23159.31967715  1413.87653326
0.37000002 23292.71773290  1296.23980324
0.37100002 23430.49395622  2091.87459950
0.37200002 23572.61782137  1582.66563550
0.37300002 23717.62360022  1463.61462170
0.37400002 23867.12279235  1879.53600893
0.37500002 24018.77226296  1490.12470178
0.37600002 24174.59734428  1640.48825349
0.37700002 24331.99220692  1655.54882819
0.37800002 24493.26458729  1670.93058930
0.37900002 24656.89228981  1686.53151252
0.38000002 24823.05980126  1844.22931530
0.38100002 24991.09105692  1861.58646102
0.38200002 25161.48285335  1590.07998425
0.38300002 25333.68660530  1751.06450111
0.38400002 25508.53634258  1473.11804357
0.38500002 25683.90642899  1635.80807796
0.38600002 25862.15852087  2251.94755989
0.38700002 26040.70214001  1667.12582998
0.38800002 26220.68308257  1682.97462339
0.38900002 26401.94194339  2316.77051529
0.39000002 26585.02172729  1715.13275799
0.39100002 26768.06263344  2046.15080464
0.39200002 26952.52223929  1906.62151354
0.39300002 27137.26765835  2245.33763243
0.39400002 27323.43289625  1780.80482338
0.39500002 27509.17756240  1797.44974709
0.39600002 27695.26127106  2638.80461893
0.39700002 27881.30590584  1830.96544558
0.39800002 28068.53123670  2519.85251116
0.39900002 28254.82005249  2373.40499686
0.40000002 28441.02033468  1881.80019960
0.40100002 28626.88502536  2416.68174834
0.40200002 28813.67430360  2090.14403301
0.40300002 28998.96965089  1757.33764411
0.40400002 29183.65045283  2482.06958861
0.40500002 29367.98743193  2682.76577902
0.40600002 29551.80801931  2345.37935458
0.40700002 29734.66551140  2729.64242328
0.40800002 29917.07813498  2018.95411360
0.40900002 30097.69072520  2776.51210096
0.41000002 30278.10117696  3359.96104681
0.41100002 30457.04762962  1882.24563270
0.41200002 30634.17916312  2277.34498689
0.41300002 30810.59990825  2487.33984845
0.41400002 30985.46912652  3086.15287123
0.41500002 31159.52889394  2138.79016462
0.41600002 31330.74019528  1959.73789207
0.41700002 31501.31336836  2370.15893014
0.41800002 31670.98311738  3184.83421319
0.41900002 31836.97300735  2206.30233395
0.42000002 32002.10944202  2425.11996843
0.42100002 32165.90896798  2239.71234757
0.42200002 32327.61449789  2256.30596080
0.42300002 32486.93726765  3305.87089301
0.42400002 32644.20657384  2081.06826770
0.42500002 32799.82687958  2305.49994061
0.42600002 32952.00171982  2743.74855322
0.42700002 33103.40537388  2975.33421599
0.42800002 33251.99337997  3637.60198818
0.42900002 33398.83965474  2369.64778579
0.43000002 33543.30117903  3252.86178598
0.43100002 33684.00745417  2400.99616511
0.43200002 33823.26463402  2416.50325629
0.43300002 33959.70535252  2652.93230786
0.43400002 34094.00694094  2669.56086998
0.43500002 34225.28046551  2686.00013822
0.43600002 34354.93028410  2927.55552289
0.43700002 34481.01169838  3171.56360631
0.43800002 34603.67905914  3190.11332364
0.43900002 34724.83664598  2979.39112542
0.44000002 34842.43915651  2765.79295131
0.44100002 34957.97036930  3476.57031798
0.44200002 35070.35658950  2563.46783639
0.44300002 35180.24982334  2811.60569912
0.44400002 35286.69019684  2355.38668226
0.44500002 35389.52751545  2841.07140358
0.44600002 35490.26375177  2617.58452706
0.44700002 35588.28731660  2391.53302101
0.44800002 35682.30353320  2883.84390822
0.44900002 35774.60747681  2897.74334295
0.45000002 35863.66919708  3639.26600425
0.45100002 35948.39021400  3655.95145803
0.45200002 36031.09655164  2448.31312672
0.45300002 36110.10649505  2705.00820574
0.45400002 36186.69183001  2716.71601789
0.45500002 36260.02406739  2480.18576375
0.45600002 36329.84064471  2739.45176365
0.45700002 36396.66292879  3250.58612023
0.45800002 36459.80611047  3765.38665452
0.45900002 36520.04299837  2771.87139495
0.46000002 36577.88087637  2782.29664073
0.46100002 36631.25326151  3553.96435987
0.46200002 36682.39525655  2802.35171844
0.46300002 36729.73281346  2812.02847747
0.46400002 36773.61743074  2564.95993736
0.46500002 36815.15225209  3345.39304370
0.46600002 36852.65905665  2839.68177820
0.46700002 36887.06954323  3107.36688560
0.46800002 36918.80523418  3376.40949272
0.46900002 36946.71341985  2604.74341955
0.47000002 36971.02176975  2873.20309302
0.47100002 36992.60591628  4714.33792142
0.47200002 37010.79044433  3413.69041843
0.47300002 37026.28516918  3422.33970040
0.47400002 37037.20915064  2638.90127706
0.47500002 37046.08642178  2909.59976547
0.47600002 37051.99536888  3181.28447316
0.47700002 37053.51795002  2922.41109923
