# SAXS profile: number of points = 501, q_min = 0, q_max = 0.5, delta_q = 0.001
#    q    intensity    error
0.00000000 1682732.95097189 252.40994265
0.00100000 1682664.07340753 706.71892761
0.00200000 1682457.38885670 1059.94818854
0.00300000 1682113.05231472 1110.19465408
0.00400000 1681630.95532666 1513.46791730
0.00500000 1681011.56146025 2269.36569780
0.00600000 1680254.54531425 2469.97428217
0.00700000 1679360.59861865 3224.37248335
0.00800000 1678329.20263496 2492.31897114
0.00900000 1677161.68256016 3773.61394707
0.01000000 1675857.16391584 4700.77954776
0.01100000 1674416.97141944 3315.34574776
0.01200000 1672840.47159294 3588.24296889
0.01300000 1671129.05638397 4211.24540782
0.01400000 1669282.07618510 4882.65028929
0.01500000 1667301.23013458 5201.98006966
0.01600000 1665185.33674500 5520.08963808
0.01700000 1662936.59752967 6285.90062064
0.01800000 1660554.51763081 6625.61282348
0.01900000 1658039.84122825 4974.11974813
0.02000000 1655393.21729306 5735.93775739
0.02100000 1652616.20075792 7089.72382269
0.02200000 1649707.07922119 6260.63865008
0.02300000 1646668.72206920 6520.80843621
0.02400000 1643500.91353319 10477.31880151
0.02500000 1640205.17223743 7036.48051026
0.02600000 1636781.53313697 7291.86206364
0.02700000 1633230.98802014 6859.57046386
0.02800000 1629553.56519840 9923.98166717
0.02900000 1625751.72190942 8779.05970139
0.03000000 1621825.80678614 8295.63938302
0.03100000 1617776.03222603 8541.85784319
0.03200000 1613603.42780363 8786.07106906
0.03300000 1609310.78627608 10669.73100489
0.03400000 1604896.13769730 11795.98715635
0.03500000 1600362.72396903 12962.93866275
0.03600000 1595710.38325389 10627.43164360
0.03700000 1590940.74699225 9975.19894497
0.03800000 1586055.47359425 10206.26744492
0.03900000 1581055.28319229 9486.33213847
0.04000000 1575939.61107855 10661.23196298
0.04100000 1570712.28336934 13853.68298167
0.04200000 1565373.43884024 12115.99097872
0.04300000 1559923.31776102 11325.04381263
0.04400000 1554365.34182392 16787.14647133
0.04500000 1548699.31307444 10686.02575674
0.04600000 1542925.76583278 15228.67801670
0.04700000 1537047.37047897 13280.08989857
0.04800000 1531064.89257611 20255.98947125
0.04900000 1524980.59212325 11437.35497330
0.05000000 1518794.35812325 13942.53285682
0.05100000 1512509.24643791 11797.57267179
0.05200000 1506123.69802213 14368.42074872
0.05300000 1499642.89861688 14576.52965408
0.05400000 1493065.42686694 19708.46455373
0.05500000 1486395.18201420 14982.86413364
0.05600000 1479630.41041098 13915.92465929
0.05700000 1472776.33482434 14094.47018218
0.05800000 1465831.53127496 15567.13158901
0.05900000 1458798.04464863 13129.18301505
0.06000000 1451678.66566023 18596.00457589
0.06100000 1444474.75654272 16120.33903634
0.06200000 1437186.72958939 19013.98132125
0.06300000 1429817.83028364 16471.50217500
0.06400000 1422366.45023978 15254.88089224
0.06500000 1414838.21819671 15407.58891690
0.06600000 1407231.70597085 15556.94723739
0.06700000 1399549.43699831 19985.56689564
0.06800000 1391794.59400749 15845.58219449
0.06900000 1383967.70799923 20344.32626009
0.07000000 1376068.22884581 20517.17825288
0.07100000 1368101.42770731 19208.14494468
0.07200000 1360065.70299515 19360.53618912
0.07300000 1351966.16510283 15006.82513580
0.07400000 1343802.42249327 18141.33355384
0.07500000 1335576.06884651 18270.68147821
0.07600000 1327287.74479831 22995.26125666
0.07700000 1318943.01640008 18517.96081854
0.07800000 1310539.84668393 17082.88770265
0.07900000 1302080.08543844 21874.94646138
0.08000000 1293568.69624499 18860.23247601
0.08100000 1285004.69989924 23708.33782549
0.08200000 1276389.23973926 17480.15145849
0.08300000 1267725.93469088 27154.69079550
0.08400000 1259014.71060890 17657.68214512
0.08500000 1250259.86920137 25805.36491175
0.08600000 1241460.40059908 21061.37668503
0.08700000 1232620.06243570 26032.93694109
0.08800000 1223737.64192434 21237.96777301
0.08900000 1214818.77854069 22960.07599285
0.09000000 1205862.49945540 26336.03822525
0.09100000 1196871.34898856 23123.55554883
0.09200000 1187846.49721229 19884.55129764
0.09300000 1178791.18616191 21607.24345772
0.09400000 1169703.89057608 20001.93746889
0.09500000 1160588.81253262 18383.72765460
0.09600000 1151446.54314868 20104.25758843
0.09700000 1142281.28715301 18470.68928162
0.09800000 1133092.80378639 18509.07182010
0.09900000 1123882.99587996 16858.24573092
0.10000000 1114651.86766406 21953.06956603
0.10100000 1105402.52139008 25368.98905905
0.10200000 1096137.07903577 23709.44613475
0.10300000 1086856.02302916 20345.94570819
0.10400000 1077562.23957851 23760.24850051
0.10500000 1068258.52401094 22080.90473020
0.10600001 1058941.22084096 25494.01109133
0.10700001 1049617.63070395 20404.56770108
0.10800001 1040285.60821465 22111.27164320
0.10900001 1030948.89505854 20412.78908290
0.11000001 1021608.06236451 20411.73004681
0.11100001 1012264.88169005 18706.65589422
0.11200001 1002921.74168783 22099.38161847
0.11300001 993577.59674071 16990.17770418
0.11400001 984237.20546418 20373.71111239
0.11500001 974900.23588944 18659.59139357
0.11600001 965568.42970775 18640.29941331
0.11700001 956244.03193086 22003.17621097
0.11800001 946926.00085476 23663.68187588
0.11900001 937618.33968831 21940.27018213
0.12000001 928320.91591142 20218.83050096
0.12100001 919037.72497943 20182.06939129
0.12200001 909766.59142244 18463.71384277
0.12300001 900511.51480920 25124.27244689
0.12400001 891271.93945757 16711.34965223
0.12500001 882050.43441692 20004.90479522
0.12600001 872849.44419247 31592.78712131
0.12700001 863668.54275937 18240.68048270
0.12800001 854508.33177844 21495.15809894
0.12900001 845371.52611573 18133.22008984
0.13000001 836259.23869137 16432.49481483
0.13100001 827171.17679658 22929.18610163
0.13200001 818111.27410226 31010.50930669
0.13300001 809079.87500881 16262.50625434
0.13400001 800075.97428435 16201.53924309
0.13500001 791103.49703719 17752.36331051
0.13600001 782161.33502067 17680.75781180
0.13700001 773252.76247710 22408.86611324
0.13800001 764376.16207048 19124.69247684
0.13900001 755536.75701866 19039.52717474
0.14000001 746731.55870315 15793.37321140
0.14100001 737963.71013309 15718.62776717
0.14200001 729232.70485997 20334.65493411
0.14300001 720543.24101384 18676.48168800
0.14400001 711889.31411619 20128.67130610
0.14500001 703280.01071967 18482.19955356
0.14600001 694710.13308945 19913.86690443
0.14700001 686185.42532420 18279.98059302
0.14800001 677702.38929905 24234.63858469
0.14900001 669263.42862646 18070.11342548
0.15000001 660870.46071011 20956.20329789
0.15100001 652523.66689541 20828.55643010
0.15200001 644224.77444897 17741.95112551
0.15300001 635973.41489108 16160.08523496
0.15400001 627768.74187723 16055.18633117
0.15500001 619615.44948108 17398.80264253
0.15600001 611510.48448808 17281.28710722
0.15700001 603459.47287936 20022.78625515
0.15800001 595455.50119220 19882.26012322
0.15900001 587506.76470156 19740.22822572
0.16000001 579608.50492291 19596.56447645
0.16100001 571766.80833518 15283.32750824
0.16200001 563977.11709616 13789.24116394
0.16300001 556243.26396414 20525.37740924
0.16400001 548564.23132331 17650.05497608
0.16500001 540941.19797739 17510.26740521
0.16600001 533374.14087348 17369.32971760
0.16700001 525863.66695497 14576.94153624
0.16800001 518409.53662208 17084.18708603
0.16900001 511015.56834479 15637.07712970
0.17000001 503678.97786722 14211.30303158
0.17100001 496401.03083710 14087.86192040
0.17200001 489182.26118406 17771.99238806
0.17300001 482022.98048884 18871.20057732
0.17400001 474924.63031038 14960.12656128
0.17500001 467885.92557937 12352.18901866
0.17600001 460906.02759478 14684.46673270
0.17700001 453989.55445995 12121.52167659
0.17800001 447133.45928471 16807.74752838
0.17900001 440338.60617214 13078.05722104
0.18000001 433606.45065061 12949.65726036
0.18100001 426937.01792738 16317.53359597
0.18200001 420327.25282095 12691.78199846
0.18300001 413782.81495442 14846.52810190
0.18400001 407299.26258879 12432.81057786
0.18500001 400879.90429013 15658.36980131
0.18600001 394523.24243104 16599.56620951
0.18700001 388229.48192543 14232.49347980
0.18800001 381998.26850678 18410.40742050
0.18900001 375832.83949851 12853.48371814
0.19000001 369726.92375044 10592.67686594
0.19100001 363689.41060652 12569.10662445
0.19200001 357712.27846482 11391.34804597
0.19300001 351801.06289668 11261.15255544
0.19400001 345952.66440598 13154.85068566
0.19500001 340168.39915011 11001.04654837
0.19600001 334447.17048921 11859.49722598
0.19700001 328790.13327033 9765.06741960
0.19800001 323196.92558062 10612.17155296
0.19900001 317668.50909213 12389.07244010
0.20000001 312201.52380933 11295.45166526
0.20100001 306800.25957599 10225.65313496
0.20200001 301460.85209519 14687.17340824
0.20300001 296185.93282486 11782.27696466
0.20400001 290974.28598896 12526.44360390
0.20500001 285825.24324659 8832.00043378
0.20600001 280739.72561433 8716.96889236
0.20700001 275716.96653085 12043.31766734
0.20800001 270756.42782418 11034.67873759
0.20900001 265861.15175693 11724.47734671
0.21000001 261025.56327785 10739.89730877
0.21100001 256252.64416859 9778.60136374
0.21200001 251541.68050413 13662.48702247
0.21300001 246892.26944757 8717.76644633
0.21400001 242305.29136665 11721.51902401
0.21500001 237780.41179893 10785.71998912
0.21600001 233314.89157739 9113.28009588
0.21700001 228911.05607492 10479.54864258
0.21800001 224567.77542374 7377.05177146
0.21900001 220283.62180276 8723.23183584
0.22000001 216059.37112659 7878.60534065
0.22100001 211897.14713035 7761.79286639
0.22200001 207793.09698092 7645.74736494
0.22300001 203748.22761460 6845.94077156
0.22400001 199760.21696524 9438.67069793
0.22500001 195833.66258092 9958.14221313
0.22600001 191963.49356027 6536.35726482
0.22700001 188152.07544772 8365.24166999
0.22800001 184397.22596247 7600.85401362
0.22900001 180699.06442002 9351.17702596
0.23000001 177057.98685508 6135.05953467
0.23100001 173474.36575402 8451.67149924
0.23200001 169944.91985343 7127.49027574
0.23300001 166472.09558688 6427.48791459
0.23400001 163054.57264264 9196.27833199
0.23500001 159690.32375763 6218.34150123
0.23600001 156381.39412458 7227.16647129
0.23700001 153126.15078567 8199.90576241
0.23800001 149924.44436587 6987.22906016
0.23900001 146775.88090677 5812.32515883
0.24000001 143679.80193373 7271.63511982
0.24100001 140637.01214109 6126.14853864
0.24200001 137645.54370295 5518.89833582
0.24300001 134705.31677074 7395.32224053
0.24400001 131815.47801283 5328.64095073
0.24500001 128976.72272940 7614.78607016
0.24600001 126187.67790942 6077.82979402
0.24700001 123449.53882791 5510.78767397
0.24800001 120759.06650085 7216.56215548
0.24900001 118117.35569868 4872.34115307
0.25000001 115524.27201914 7829.08028512
0.25100001 112978.61121558 4697.65087658
0.25200001 110481.28681640 5450.59454295
0.25300001 108030.71318028 4527.56740359
0.25400001 105625.84054621 5656.26402885
0.25500001 103266.76138669 7930.88764972
0.25600001 100953.76266622 6226.82837586
0.25700001 98685.50541759  4582.95508843
0.25800001 96461.48195112  5246.54025156
0.25900001 94282.03056443  4044.69930259
0.26000001 92146.62635800  3607.54059261
0.26100001 90051.93874071  3892.94549596
0.26200001 88002.48922547  4860.37770990
0.26300001 85993.75154491  5448.56435570
0.26400001 84026.55711133  5678.09486548
0.26500001 82101.29408851  4586.17850480
0.26600001 80215.88211439  4497.70472298
0.26700001 78371.72371680  3465.59778675
0.26800001 76567.19374999  4016.33233821
0.26900001 74801.28091526  3635.34242451
0.27000001 73074.73202973  2970.48799758
0.27100001 71386.37222480  3203.82053706
0.27200001 69736.13604328  3141.26439672
0.27300001 68122.66752431  3079.82594452
0.27400001 66545.08667243  3019.48345066
0.27500001 65006.29078625  4575.14296206
0.27600001 63501.22688878  2902.32371231
0.27700001 62033.20205101  2845.46311275
0.27800001 60599.37655462  3550.51764037
0.27900001 59200.38737305  3729.62458102
0.28000001 57835.22851447  2925.30599671
0.28100001 56503.51358222  3346.13823271
0.28200001 55205.25673484  2577.80958524
0.28300001 53939.85099407  2297.83776110
0.28400001 52706.53833773  2478.52508264
0.28500001 51505.36291240  2872.45422558
0.28600001 50334.50817698  2600.28081550
0.28700001 49195.21213138  2337.75659113
0.28800001 48085.49258610  2292.95682250
0.28900001 47007.37537564  2249.30301819
0.29000001 45957.03067129  2407.22938051
0.29100001 44937.38497905  2165.08331077
0.29200001 43945.39415131  2124.54018081
0.29300001 42981.73371464  2274.59345585
0.29400001 42045.58272014  2046.56883578
0.29500001 41137.87039401  2009.17368515
0.29600001 40255.86551341  2331.41856157
0.29700001 39400.15467406  2289.54309649
0.29800001 38571.17511602  2075.90074301
0.29900001 37767.52496470  2719.26192619
0.30000001 36988.93013437  2004.06032955
0.30100001 36236.06846524  1969.79277502
0.30200001 35506.29683585  2097.88964786
0.30300001 34801.02874285  1745.61968438
0.30400001 34119.91356500  1873.18334340
0.30500001 33460.75769450  1689.43373598
0.30600001 32824.65719229  2116.20574937
0.30700001 32211.29330753  1785.79418551
0.30800001 31619.63340344  1905.24110093
0.30900001 31049.55874869  1876.94591522
0.31000001 30501.35263321  2134.33225156
0.31100001 29972.27531409  1683.24306133
0.31200001 29464.73033661  1798.37990124
0.31300001 28976.58201302  1637.75649292
0.31400001 28509.54258745  1616.49114124
0.31500001 28060.81161001  1995.12379994
0.31600002 27631.04509911  1708.01313367
0.31700002 27219.34731898  2077.38068574
0.31800002 26826.28877260  1412.00177640
0.31900002 26451.18320949  1269.65685417
0.32000002 26093.38570003  1256.39658095
0.32100002 25753.11472793  1617.03815033
0.32200002 25429.62409154  1478.47841469
0.32300002 25121.77721314  1343.01027341
0.32400002 24830.43224699  1573.62871817
0.32500002 24554.51285701  1681.00202979
0.32600002 24294.38917927  1668.29578394
0.32700002 24049.32053414  1774.83993946
0.32800002 23819.67501426  1293.05111938
0.32900002 23603.16912680  1518.86400523
0.33000002 23402.42717093  1510.50973328
0.33100002 23213.03391398  1618.41280112
0.33200002 23039.76430626  1726.25442239
0.33300002 22878.26664838  1719.30182004
0.33400002 22730.50710854  1256.42883992
0.33500002 22594.76163683  1594.28645659
0.33600002 22471.28322567  1135.92342085
0.33700002 22359.13885132  1473.69091148
0.33800002 22259.93234275  1697.87641985
0.33900002 22171.09677770  1469.94378597
0.34000002 22094.00108744  1130.10820914
0.34100002 22027.56567040  1582.01984137
0.34200002 21972.55069901  1808.78045920
0.34300002 21926.45886562  1244.54586415
0.34400002 21891.43753628  1246.17014077
0.34500002 21865.51415228  1248.30226207
0.34600002 21850.43429235  1933.43576993
0.34700002 21842.44556783  1482.22842643
0.34800002 21845.13061146  1372.31117001
0.34900002 21855.90947913  1721.15295300
0.35000002 21875.41390913  1266.91465655
0.35100002 21903.18830973  2081.67911555
0.35200002 21938.20196873  1161.62784926
0.35300002 21981.49231503  1400.66075665
0.35400002 22032.57305824  1642.52839929
0.35500002 22090.67774068  2241.32026973
0.35600002 22155.39628286  1542.34798528
0.35700002 22227.05780504  1312.95236673
0.35800002 22306.07568867  1321.30045600
0.35900002 22390.80159012  1330.01367745
0.36000002 22482.48415594  1460.91188965
0.36100002 22579.28500720  1348.66075736
0.36200002 22682.94716557  1482.10383800
0.36300002 22790.45886833  1368.79502447
0.36400002 22904.08416477  1504.79840090
0.36500002 23022.37653712  1516.71423811
0.36600002 23146.16742711  1529.03589266
0.36700002 23274.28004572  2055.58451101
0.36800002 23408.39420652  1554.78561685
0.36900002 23545.69489283  1698.82196699
0.37000002 23686.36538732  1318.14629624
0.37100002 23831.43643121  1595.75305902
0.37200002 23980.80848592  1475.89892818
0.37300002 24133.17681915  1760.03266879
0.37400002 24290.03445121  1639.57740312
0.37500002 24449.07090439  1378.92766433
0.37600002 24612.20907893  1391.82048935
0.37700002 24777.03788329  2247.77298325
0.37800002 24945.59220727  2127.23547625
0.37900002 25116.54662145  2147.46483786
0.38000002 25290.09989393  1734.39513289
0.38100002 25465.41421018  2188.75245505
0.38200002 25643.15777189  2504.43912244
0.38300002 25822.63496688  2974.76768911
0.38400002 26004.64644602  1651.94524374
0.38500002 26187.34641202  1516.24742909
0.38600002 26372.66865159  2449.49358040
0.38700002 26558.36875707  2318.54570233
0.38800002 26745.42823537  1716.65539261
0.38900002 26933.70154242  1575.62161488
0.39000002 27123.72148100  2545.29014436
0.39100002 27313.62417028  1766.64529503
0.39200002 27505.05715675  2107.85015507
0.39300002 27696.50183004  1964.23600285
0.39400002 27889.43388397  2313.42865028
0.39500002 28081.71382303  2001.66465614
0.39600002 28274.42670493  1852.11640906
0.39700002 28466.89431944  2039.36840567
0.39800002 28660.59441053  2744.53865078
0.39900002 28853.28558042  1904.31693853
0.40000002 29045.57541086  1921.80058811
0.40100002 29237.60546360  2115.63323158
0.40200002 29430.42247000  2312.78985938
0.40300002 29621.56100785  1974.57335034
0.40400002 29812.19595630  2173.30918819
0.40500002 30002.21540868  2192.56200595
0.40600002 30191.73828166  2027.52628037
0.40700002 30380.02930324  2045.18366960
0.40800002 30567.77959185  2250.40004018
0.40900002 30753.63259237  2080.48334345
0.41000002 30939.26326869  2098.14623798
0.41100002 31123.25157508  1923.41703848
0.41200002 31305.26567510  3102.97808074
0.41300002 31486.56716023  2346.37909596
0.41400002 31665.92185438  2168.32410172
0.41500002 31844.54788192  2185.80987019
0.41600002 32020.22604096  2002.86523376
0.41700002 32195.01256583  2422.35286023
0.41800002 32368.84650052  2237.82030885
0.41900002 32538.80653463  2869.92287234
0.42000002 32707.76006013  2478.59417480
0.42100002 32875.29428762  2705.30809512
0.42200002 33040.55987559  2725.35071048
0.42300002 33203.24275018  2534.07160677
0.42400002 33363.82489773  2765.02711942
0.42500002 33522.56994951  2570.51078553
0.42600002 33677.67121503  2372.76043789
0.42700002 33831.84996535  3040.80681898
0.42800002 33983.16546379  2842.86184159
0.42900002 34132.51211402  2862.01127638
0.43000002 34279.33634276  3324.23879937
0.43100002 34422.28879413  2676.67730347
0.43200002 34563.53191091  2469.39165439
0.43300002 34701.89241933  2710.91196426
0.43400002 34837.93539995  2500.49293183
0.43500002 34970.74477778  2973.21286190
0.43600002 35101.82837674  2531.01745505
0.43700002 35229.16741690  2546.01204987
0.43800002 35352.93784125  3259.18749404
0.43900002 35475.05264749  3043.75966140
0.44000002 35593.42209228  2589.95548128
0.44100002 35709.55165020  3788.06941857
0.44200002 35822.40419980  3094.51853345
0.44300002 35932.56426954  3350.35245127
0.44400002 36039.14858067  3848.98125082
0.44500002 36141.90165915  3626.84000337
0.44600002 36242.48653067  2673.06472075
0.44700002 36340.16781765  2686.26533239
0.44800002 36433.55162052  2944.55978152
0.44900002 36525.23888115  3451.63523785
0.45000002 36613.53416696  2476.90570378
0.45100002 36697.22174562  3234.49327795
0.45200002 36778.72119128  3498.75991274
0.45300002 36856.29060088  3011.89621065
0.45400002 36931.48941114  3276.74655330
0.45500002 37003.16601804  3037.22001070
0.45600002 37071.28027576  3049.48366001
0.45700002 37136.05421610  2551.24704556
0.45800002 37197.03972518  3073.21956775
0.45900002 37255.00815997  3084.71482184
0.46000002 37310.34316270  2838.01138718
0.46100002 37361.15289224  3365.86642359
0.46200002 37409.51156869  3117.70884190
0.46300002 37454.01101784  4431.55879367
0.46400002 37494.82261814  3138.31680188
0.46500002 37533.21518183  3673.00061178
0.46600002 37567.30624499  3421.06690534
0.46700002 37598.20553979  3167.27298479
0.46800002 37626.32795767  3441.11598646
0.46900002 37650.46899244  4246.97310364
0.47000002 37670.72204400  3459.86763012
0.47100002 37688.20274581  3201.98985705
0.47200002 37702.15587157  3209.96170305
0.47300002 37713.38132627  3485.84800121
0.47400002 37719.70014641  3225.03451538
0.47500002 37723.93521029  3232.18692202
0.47600002 37725.09703174  3778.92314878
0.47700002 37721.64836880  3245.57077949
