# SAXS profile: number of points = 501, q_min = 0, q_max = 0.5, delta_q = 0.001
#    q    intensity    error
0.00000000 1664650.74656091 324.60689558
0.00100000 1664582.46903855 599.24970309
0.00200000 1664377.57876582 823.86692758
0.00300000 1664036.24596045 998.42178314
0.00400000 1663558.34938556 1497.20257134
0.00500000 1662944.32770600 2244.97493126
0.00600000 1662193.91670966 1745.30368360
0.00700000 1661307.76471788 2392.28328062
0.00800000 1660285.34041952 2241.38530420
0.00900000 1659127.96458642 3235.29966925
0.01000000 1657834.84684453 2735.42761541
0.01100000 1656407.17501674 2981.53304484
0.01200000 1654844.43344810 3549.64146538
0.01300000 1653147.94942114 4165.93301628
0.01400000 1651317.08409204 4458.55632470
0.01500000 1649353.51302557 5541.82805054
0.01600000 1647256.08327273 5040.60384015
0.01700000 1645026.98539046 5774.04497774
0.01800000 1642665.71810501 5617.91700871
0.01900000 1640173.11233904 7872.83129447
0.02000000 1637549.56048282 6189.93761863
0.02100000 1634796.88179488 6473.79594542
0.02200000 1631913.22499851 6193.11097024
0.02300000 1628901.46855815 7036.85466448
0.02400000 1625761.47198967 6706.26637775
0.02500000 1622494.59652296 6960.50213697
0.02600000 1619101.02450803 7868.83133902
0.02700000 1615581.63731428 10856.70910000
0.02800000 1611936.52394130 10517.88630106
0.02900000 1608168.20039091 7236.75723403
0.03000000 1604276.81918812 7459.88755212
0.03100000 1600262.73528818 9217.51377939
0.03200000 1596126.87350886 7900.82838777
0.03300000 1591872.13524789 9742.25791684
0.03400000 1587496.46347610 10001.22818136
0.03500000 1583003.18613141 11967.50463979
0.03600000 1578391.94660902 11388.09842107
0.03700000 1573664.60635761 11660.85527240
0.03800000 1568822.61750042 13766.41910567
0.03900000 1563866.82899098 15951.44239442
0.04000000 1558796.66927137 10545.25995628
0.04100000 1553615.70161881 13702.89112363
0.04200000 1548324.41838858 15978.70873907
0.04300000 1542922.90884411 14256.60833948
0.04400000 1537414.56064805 11415.30364296
0.04500000 1531799.13195376 14797.18030222
0.04600000 1526077.28054990 11834.72986082
0.04700000 1520251.45190820 13134.97315537
0.04800000 1514322.63063092 14469.35340891
0.04900000 1508293.11013084 12443.41873779
0.05000000 1502162.26313487 16088.15858734
0.05100000 1495933.85489093 12835.11307288
0.05200000 1489605.78449273 16579.31315402
0.05300000 1483183.53641886 13215.16592555
0.05400000 1476665.35618167 13400.73873228
0.05500000 1470055.50155534 16053.00682585
0.05600000 1463352.03363909 13762.82651861
0.05700000 1456560.30466005 24076.94295991
0.05800000 1449678.59291025 14112.62176093
0.05900000 1442709.21586175 14282.82190412
0.06000000 1435654.68675689 17077.11329680
0.06100000 1428516.57879762 17270.76624475
0.06200000 1421295.17357303 18803.73602532
0.06300000 1413993.81047228 21718.94594433
0.06400000 1406610.71432792 19200.23714851
0.06500000 1399151.84282744 13851.60389194
0.06600000 1391615.29951975 16782.88129745
0.06700000 1384003.87260219 19763.57622567
0.06800000 1376320.54522461 17093.90197184
0.06900000 1368565.97732781 15806.93777820
0.07000000 1360739.82776680 20288.63178209
0.07100000 1352846.91161411 14610.74732977
0.07200000 1344886.22771876 16199.15537175
0.07300000 1336862.04058558 19290.92014954
0.07400000 1328774.55208054 16443.58585261
0.07500000 1320625.14652081 18066.15285121
0.07600000 1312414.61066177 15158.38946378
0.07700000 1304148.06185210 18310.23964694
0.07800000 1295824.10605487 18426.61965224
0.07900000 1287444.22184283 15449.33138675
0.08000000 1279013.09956901 15540.00988876
0.08100000 1270530.10825635 23441.28159715
0.08200000 1261996.54276918 20425.41500319
0.08300000 1253415.22881219 17372.33588666
0.08400000 1244786.99896372 17458.13847993
0.08500000 1236115.81926402 17540.48429880
0.08600000 1227400.50636650 20822.85056817
0.08700000 1218645.09455463 17694.72760384
0.08800000 1209847.72051043 19381.76139282
0.08900000 1201014.70061698 17835.06914187
0.09000000 1192145.06701655 17900.05902212
0.09100000 1183240.78410791 21227.34066418
0.09200000 1174303.22613594 16381.53077431
0.09300000 1165336.01914669 19717.48637053
0.09400000 1156337.09789808 18125.58486141
0.09500000 1147311.00410862 16521.27923571
0.09600000 1138258.23578780 28154.81878571
0.09700000 1129182.70339451 23238.58112837
0.09800000 1120084.35558873 21623.22950131
0.09900000 1110965.50581797 28329.62173049
0.10000000 1101825.39679720 21700.45221043
0.10100000 1092667.72692812 20061.38040992
0.10200000 1083494.25337922 16739.98700210
0.10300000 1074305.21476588 26814.65942194
0.10400000 1065104.06025607 16775.38973823
0.10500000 1055893.55057168 20146.44989279
0.10600001 1046669.40570308 18478.94922719
0.10700001 1037439.58697630 20167.82651987
0.10800001 1028201.46049249 21854.42307127
0.10900001 1018959.01731087 23537.95440771
0.11000001 1009712.84418327 20174.06357637
0.11100001 1000464.33156129 20169.36187372
0.11200001 991216.46262923 25201.67974877
0.11300001 981967.57390936 21829.14019574
0.11400001 972722.81509214 18457.41628543
0.11500001 963481.34891431 25146.86439078
0.11600001 954245.53782792 18421.71097527
0.11700001 945017.11070753 20072.16437673
0.11800001 935795.50326757 23385.53072808
0.11900001 926584.19358330 28353.47765914
0.12000001 917383.51450641 21645.66504440
0.12100001 908196.84174540 16620.00298688
0.12200001 899022.66115308 24880.45331956
0.12300001 889864.67855918 19861.78056122
0.12400001 880722.24970127 18164.89725597
0.12500001 871597.91376578 19767.84161568
0.12600001 862494.05764415 16430.51257238
0.12700001 853410.58041513 16385.48391616
0.12800001 844347.78227553 21239.56946415
0.12900001 835308.28911445 24432.76860816
0.13000001 826293.22452226 29225.99272892
0.13100001 817302.72129698 16182.59464449
0.13200001 808339.95577677 17739.02116574
0.13300001 799406.16598605 17674.87116320
0.13400001 790499.71043155 16007.61989093
0.13500001 781624.39801560 19134.16616556
0.13600001 772779.43654854 17468.67998684
0.13700001 763967.92896005 22139.79162523
0.13800001 755188.43680135 17320.24761479
0.13900001 746445.90671270 23513.04717028
0.14000001 737737.76270731 17163.46985882
0.14100001 729066.55531754 20187.85386886
0.14200001 720432.11007537 18543.92338797
0.14300001 711838.95991884 26138.72784112
0.14400001 703281.49420066 18355.64786447
0.14500001 694768.18158972 19780.05106293
0.14600001 686294.43119376 15132.79292170
0.14700001 677865.68231860 16553.48074316
0.14800001 669477.88449943 20947.96399428
0.14900001 661134.32607448 14875.52303851
0.15000001 652836.44142927 14786.74609605
0.15100001 644584.63970510 14696.53047873
0.15200001 636380.20647287 24828.37492712
0.15300001 628223.22169947 15963.15281667
0.15400001 620112.74688785 18742.90865918
0.15500001 612053.40938471 18618.66559215
0.15600001 604041.61240340 17070.21677215
0.15700001 596083.87176138 16952.62611300
0.15800001 588172.92442449 15430.71740059
0.15900001 580316.84342017 13927.60489948
0.16000001 572510.70713373 19356.58792187
0.16100001 564760.97236746 16468.43073161
0.16200001 557062.54323085 21792.28771992
0.16300001 549419.96795247 16218.87821961
0.16400001 541831.65506175 17433.43432464
0.16500001 534298.96473331 17295.25830495
0.16600001 526822.12245901 17155.96322786
0.16700001 519400.88916118 14397.79332734
0.16800001 512036.31711958 20768.19400297
0.16900001 504730.93586004 18018.89526102
0.17000001 497482.46485782 12760.42582615
0.17100001 490292.41891222 13914.49950579
0.17200001 483161.04754231 15045.63573097
0.17300001 476088.53471239 16153.68474564
0.17400001 469076.82008986 13544.59381975
0.17500001 462123.95443809 19520.11675735
0.17600001 455229.70783100 14503.61917649
0.17700001 448398.25260242 11972.23390994
0.17800001 441626.43606435 20158.03962626
0.17900001 434915.38048461 15265.53057606
0.18000001 428266.71954476 13952.93038184
0.18100001 421680.41835686 12663.06356141
0.18200001 415152.86110129 12535.54123311
0.18300001 408690.02949236 13535.81441621
0.18400001 402287.92178276 12279.83939253
0.18500001 395949.30383353 16570.47914826
0.18600001 389672.76763868 16395.48247298
0.18700001 383458.28167539 10813.52405413
0.18800001 377306.37164857 19253.94505490
0.18900001 371219.28074455 12695.70000130
0.19000001 365190.94033843 12555.26512206
0.19100001 359230.89485533 12415.02031281
0.19200001 353329.87893959 16366.24076581
0.19300001 347494.79696886 12134.51888354
0.19400001 341721.75828854 14993.04285339
0.19500001 336012.21588139 9878.75961373
0.19600001 330364.78738227 10738.50792132
0.19700001 324781.38040798 14469.01118095
0.19800001 319260.93785243 14294.90916790
0.19900001 313804.58674000 10355.55185182
0.20000001 308409.16378419 9298.53672755
0.20100001 303078.61364263 9183.28242739
0.20200001 297809.35974380 13602.44314920
0.20300001 292603.95541002 9849.04960461
0.20400001 287460.91852975 9723.36602885
0.20500001 282379.97178395 11343.20400272
0.20600001 277362.11846819 11195.72244117
0.20700001 272405.86593136 8499.06341880
0.20800001 267511.58381260 8386.48854896
0.20900001 262681.52066559 9101.91512132
0.21000001 257910.58460843 8979.15742761
0.21100001 253201.59316346 10467.35435620
0.21200001 248553.91378127 11117.81708903
0.21300001 243967.06373799 8614.47742784
0.21400001 239441.85394280 11583.00023209
0.21500001 234977.99942632 9897.27380376
0.21600001 230573.16288460 10507.21952942
0.21700001 226228.84457354 8877.22028078
0.21800001 221944.62578590 11665.41008285
0.21900001 217718.80227286 10058.60914059
0.22000001 213551.96344338 7787.17271516
0.22100001 209446.49163073 6974.56850109
0.22200001 205398.51474983 6870.58064325
0.22300001 201408.74311557 9474.26772415
0.22400001 197475.37475222 9997.19131956
0.22500001 193602.85281185 8532.07812688
0.22600001 189785.59099761 7108.41964696
0.22700001 186026.68896393 6998.32436977
0.22800001 182323.47890672 8141.65533560
0.22900001 178676.35668486 6164.33459714
0.23000001 175085.34468418 6066.70748021
0.23100001 171551.29023334 7163.98221895
0.23200001 168070.42872219 5874.06176165
0.23300001 164645.53857080 5779.05867715
0.23400001 161275.30180981 6253.45012343
0.23500001 157957.43755093 6710.03226452
0.23600001 154694.36340049 8249.07731849
0.23700001 151484.11495367 6489.57979156
0.23800001 148326.57725418 6381.00965529
0.23900001 145221.54437625 5227.97584483
0.24000001 142168.17604236 6167.25576843
0.24100001 139167.53264318 6567.31617607
0.24200001 136217.37472416 6454.66060662
0.24300001 133317.76081418 8295.03147024
0.24400001 130467.82174796 6712.56974646
0.24500001 127668.19820524 5653.14808395
0.24600001 124917.76135192 5091.02360473
0.24700001 122217.09166797 5001.12362764
0.24800001 119563.68797974 4465.70395730
0.24900001 116958.13835396 5263.11647491
0.25000001 114400.60927951 4737.90145745
0.25100001 111889.74373810 5921.20551875
0.25200001 109426.50380264 4983.28321893
0.25300001 107009.40583946 4484.76441091
0.25400001 104637.06377412 4802.84145446
0.25500001 102310.16032144 4714.45241066
0.25600001 100028.33851389 4627.31115858
0.25700001 97790.56111971  4541.39387327
0.25800001 95596.57907500  4085.32000006
0.25900001 93446.18232071  4373.28153953
0.26000001 91339.32369322  4648.71509932
0.26100001 89272.55387128  3508.41153315
0.26200001 87250.17624652  4130.42353895
0.26300001 85267.86776215  3714.26849547
0.26400001 83326.50327677  4305.89726057
0.26500001 81426.40114561  3573.80491539
0.26600001 79565.39871592  5098.55099098
0.26700001 77745.00138948  3750.41904450
0.26800001 75963.54703328  3065.12926784
0.26900001 74220.17653033  4208.28420841
0.27000001 72515.54942428  2947.75722359
0.27100001 70848.30385295  3179.67202739
0.27200001 69218.62485720  3684.85366865
0.27300001 67625.13389077  3335.27176133
0.27400001 66066.86148182  3815.36143114
0.27500001 64546.63695126  2672.23089625
0.27600001 63059.68934834  3930.19532464
0.27700001 61609.21858604  4367.47771226
0.27800001 60192.14450909  2519.04136692
0.27900001 58809.46273316  3704.99632754
0.28000001 57459.97807397  3632.90728567
0.28100001 56143.29670478  2612.34771931
0.28200001 54859.58186717  2328.78936048
0.28300001 53608.10664515  3197.18763164
0.28400001 52388.16079412  2687.51277594
0.28500001 51199.59135581  3075.04760238
0.28600001 50041.05502972  2369.69427309
0.28700001 48913.38224446  2113.05821298
0.28800001 47814.78546374  2072.77104796
0.28900001 46747.11717639  2643.54960145
0.29000001 45706.94487448  2194.61906203
0.29100001 44696.84088647  2349.26606819
0.29200001 43713.69739409  2497.58221883
0.29300001 42758.49415141  3017.03949014
0.29400001 41830.34567048  2221.19146025
0.29500001 40930.12821467  2180.75733451
0.29600001 40055.02282154  2855.12216187
0.29700001 39205.75752870  2278.24667784
0.29800001 38382.81345609  2237.91004450
0.29900001 37584.70912076  2198.70558765
0.30000001 36811.16548334  2326.83388035
0.30100001 36062.74651829  2613.82799138
0.30200001 35337.21958873  2087.89971824
0.30300001 34635.52620328  1895.25608357
0.30400001 33957.61014968  1553.56073790
0.30500001 33301.34426181  2445.65083837
0.30600001 32667.66274784  2256.51891114
0.30700001 32056.20235095  1629.09628060
0.30800001 31466.12668890  2187.68256162
0.30900001 30897.09026053  1724.05771816
0.31000001 30349.79084534  1415.81780997
0.31100001 29820.95506138  1674.74491554
0.31200001 29313.40289264  1789.14363026
0.31300001 28824.80128856  1629.17784596
0.31400001 28356.95165316  1473.85263196
0.31500001 27907.17656055  1455.08025476
0.31600002 27475.79016750  1698.41604962
0.31700002 27062.30260980  2065.39503297
0.31800002 26666.99260446  1276.01565654
0.31900002 26289.48937759  1640.46421484
0.32000002 25928.76223506  1623.01094895
0.32100002 25585.32821264  2100.81139901
0.32200002 25258.38565318  1346.14572713
0.32300002 24946.81611093  1697.38144856
0.32400002 24651.38632696  1682.45719648
0.32500002 24371.02272904  1549.26598825
0.32600002 24106.32089245  1418.89811492
0.32700002 23856.38101310  1525.85420185
0.32800002 23621.46376746  1515.43507976
0.32900002 23399.51132826  1505.75862528
0.33000002 23193.10538840  1266.69151077
0.33100002 22997.82788911  1145.29188311
0.33200002 22818.33091205  1367.73081964
0.33300002 22650.44946022  2496.53265773
0.33400002 22496.15507296  1469.56139973
0.33500002 22353.58621980  2140.57951778
0.33600002 22223.07475900  1348.05177872
0.33700002 22103.57370186  1232.71636373
0.33800002 21997.06339147  1342.26087171
0.33900002 21900.51056998  1116.92609196
0.34000002 21815.72054382  1115.87415866
0.34100002 21741.28142704  1338.39334803
0.34200002 21678.15471633  1449.94344687
0.34300002 21623.69127416  1450.51727937
0.34400002 21580.26306804  1340.13439999
0.34500002 21545.81245286  1118.22771926
0.34600002 21521.99917326  1568.30815403
0.34700002 21505.16002790  1122.56940662
0.34800002 21498.78980693  1350.55403964
0.34900002 21500.58396912  1354.53685421
0.35000002 21510.84113366  1812.07334292
0.35100002 21529.28957621  1591.44516085
0.35200002 21555.01556662  1255.47194114
0.35300002 21588.70555503  1604.90444697
0.35400002 21630.24913512  1266.99190310
0.35500002 21678.76913246  1389.17559180
0.35600002 21733.73496194  1280.22571857
0.35700002 21795.68563569  1287.47121148
0.35800002 21864.77265326  1648.38528841
0.35900002 21939.64128447  1421.68882257
0.36000002 22021.43838674  1788.69141769
0.36100002 22108.19994218  1560.61790784
0.36200002 22201.98213833  1450.67758163
0.36300002 22299.38128053  1339.30090315
0.36400002 22402.97738466  1594.53199088
0.36500002 22511.17324805  1483.03616383
0.36600002 22624.96890279  1992.80735535
0.36700002 22742.96101956  1506.49380930
0.36800002 22866.96861073  1898.53015884
0.36900002 22994.31924588  1531.42173432
0.37000002 23124.92982996  1544.28288720
0.37100002 23259.99463577  1817.07086702
0.37200002 23399.39210088  1440.11565507
0.37300002 23541.81137345  1452.76524867
0.37400002 23688.69455631  2131.98261106
0.37500002 23837.89785673  1344.45750281
0.37600002 23991.21537939  1628.04395277
0.37700002 24146.23028978  1916.72785120
0.37800002 24305.12643538  1934.44510463
0.37900002 24466.43088215  1673.50395162
0.38000002 24630.35731172  1689.14998446
0.38100002 24796.23074718  1704.98890695
0.38200002 24964.47962486  1721.05130687
0.38300002 25134.61742979  2026.85564556
0.38400002 25307.38490656  2046.10216663
0.38500002 25480.81119969  1622.87294219
0.38600002 25657.13348700  1787.27600338
0.38700002 25833.90311755  1653.88655594
0.38800002 26011.98581263  1517.79944407
0.38900002 26191.58389230  2145.09082240
0.39000002 26372.89806156  1856.12465351
0.39100002 26554.30759804  1561.39336074
0.39200002 26737.24259083  2049.00868302
0.39300002 26920.44247261  1750.09804806
0.39400002 27105.20691445  2569.57373723
0.39500002 27289.53267638  1945.19798133
0.39600002 27474.30633845  1799.70452197
0.39700002 27659.04221207  2641.99183727
0.39800002 27845.04551553  2166.48386898
0.39900002 28030.20148734  2354.53703649
0.40000002 28215.34956000  1697.15335644
0.40100002 28400.13009175  2740.04468107
0.40200002 28585.98760346  2592.03454875
0.40300002 28770.30356233  2266.52462203
0.40400002 28954.17290405  2286.65591344
0.40500002 29137.68325028  2306.83049222
0.40600002 29320.78531681  2148.04083409
0.40700002 29502.91712164  2166.69433607
0.40800002 29684.71812562  2367.50480628
0.40900002 29864.71957540  3122.35657955
0.41000002 30044.63475617  2778.37773072
0.41100002 30223.12877195  2241.34733593
0.41200002 30399.89390865  2448.25557194
0.41300002 30576.03341964  2278.52611839
0.41400002 30750.58621706  1914.22408271
0.41500002 30924.37221342  2508.58519282
0.41600002 31095.47019630  2334.02610353
0.41700002 31265.92716315  2352.44847122
0.41800002 31435.55816693  3161.15987906
0.41900002 31601.57822188  2389.07942678
0.42000002 31766.71563183  2407.28182465
0.42100002 31930.72215587  2223.33628907
0.42200002 32092.54067419  2443.52616272
0.42300002 32252.12621110  2051.23532422
0.42400002 32409.66599760  2066.11630525
0.42500002 32565.69500288  2497.13761115
0.42600002 32718.21535943  2514.72215169
0.42700002 32870.07522835  2321.28482262
0.42800002 33019.16884147  2124.78361564
0.42900002 33166.57817884  2567.09327269
0.43000002 33311.63407480  3015.03614298
0.43100002 33452.99496967  2601.30501211
0.43200002 33592.97765532  2181.86400211
0.43300002 33730.15900887  2854.58349219
0.43400002 33865.35084705  3314.57137123
0.43500002 33997.43276015  2445.77542867
0.43600002 34128.05579900  2684.51299637
0.43700002 34255.07999937  2925.72652139
0.43800002 34378.75930698  3169.37797071
0.43900002 34501.06373394  2504.77734578
0.44000002 34619.75100912  3435.14495667
0.44100002 34736.45452341  2533.32974845
0.44200002 34850.08169905  2778.94564638
0.44300002 34961.22384075  2328.41761814
0.44400002 35069.05478990  2809.03142179
0.44500002 35173.18019051  3294.32021276
0.44600002 35275.30869531  3074.77242814
0.44700002 35374.82405795  3090.34477616
0.44800002 35470.28413228  2388.92374952
0.44900002 35564.13640514  3360.81104956
0.45000002 35654.80606830  2653.25251932
0.45100002 35741.14066668  2665.57439725
0.45200002 35825.45681663  2434.33990606
0.45300002 35906.18078473  2689.73213006
0.45400002 35984.50836614  2947.13137486
0.45500002 36059.63256782  2466.47898453
0.45600002 36131.33729182  3962.88526198
0.45700002 36199.94807294  3233.01751562
0.45800002 36264.99782047  3495.58330558
0.45900002 36327.17331363  3258.54760067
0.46000002 36386.96379015  3774.23799801
0.46100002 36442.38185357  3535.64005500
0.46200002 36495.58628555  2788.08044643
0.46300002 36544.96215023  3306.58833207
0.46400002 36590.97339948  3062.66461869
0.46500002 36634.72471861  3072.92085504
0.46600002 36674.34515294  3339.74939964
0.46700002 36710.95300224  3865.66353435
0.46800002 36745.00926313  3102.01382902
0.46900002 36775.16794069  2592.64946270
0.47000002 36801.78283220  3380.05990443
0.47100002 36825.67655881  3650.16123351
0.47200002 36846.20515752  3398.50989378
0.47300002 36864.14470843  2883.14489430
0.47400002 36877.43062853  3678.52387955
0.47500002 36888.76056827  3424.01491824
0.47600002 36897.10513110  4223.98079562
0.47700002 36901.16438628  2645.81361190
