# SAXS profile: number of points = 501, q_min = 0, q_max = 0.5, delta_q = 0.001
#    q    intensity    error
0.00000000 1664650.74656091 349.57665678
0.00100000 1664582.49935397 599.24971400
0.00200000 1664377.70362446 1048.55798649
0.00300000 1664036.52610050 1697.31731709
0.00400000 1663558.84356430 1871.50377012
0.00500000 1662945.09963178 1795.98077869
0.00600000 1662195.02860194 1745.30485109
0.00700000 1661309.27898589 2790.99970469
0.00800000 1660287.31328141 2913.80435783
0.00900000 1659130.46962288 3484.17413515
0.01000000 1657837.91386329 3008.97594359
0.01100000 1656410.91455333 3876.00170881
0.01200000 1654848.86689114 3549.65097511
0.01300000 1653153.14581763 4165.94611120
0.01400000 1651323.08639519 6316.31108547
0.01500000 1649360.39729343 5541.85118168
0.01600000 1647263.91991561 5460.68013863
0.01700000 1645035.83898750 5329.91635741
0.01800000 1642675.60030737 6086.11337300
0.01900000 1640184.07692427 6396.71818864
0.02000000 1637561.69976248 8253.31134015
0.02100000 1634810.22982372 5394.87400301
0.02200000 1631927.83776823 6193.16642570
0.02300000 1628917.42712580 6450.51330504
0.02400000 1625778.78670748 9145.00609222
0.02500000 1622513.29179159 7593.36255238
0.02600000 1619121.22952115 9836.16191923
0.02700000 1615603.36853462 8142.64135036
0.02800000 1611959.82699654 8414.43068280
0.02900000 1608193.09909305 7960.55620601
0.03000000 1604303.38081806 8952.01327645
0.03100000 1600291.04329725 12290.23577804
0.03200000 1596156.95938778 8691.07504416
0.03300000 1591904.00466736 12178.06619712
0.03400000 1587530.11752429 9167.98685172
0.03500000 1583038.76411174 9403.25069305
0.03600000 1578429.45214745 11388.36902354
0.03700000 1573704.04798929 12558.15888374
0.03800000 1568864.07250432 16520.13944802
0.03900000 1563910.31634866 12198.50103243
0.04000000 1558842.22935371 15339.00824763
0.04100000 1553663.34200937 9788.07950850
0.04200000 1548374.19770253 11984.41684621
0.04300000 1542974.87058722 11201.99808044
0.04400000 1537468.59578538 13491.28755458
0.04500000 1531855.44230201 13740.74395591
0.04600000 1526135.80232302 11835.18369720
0.04700000 1520312.32963788 12040.87421073
0.04800000 1514385.79234256 16696.10413741
0.04900000 1508358.49914233 12443.95819716
0.05000000 1502230.06544563 14939.67869654
0.05100000 1496003.91516389 14002.59729823
0.05200000 1489678.23886132 14211.53106101
0.05300000 1483258.41332092 14417.27244958
0.05400000 1476742.66002867 13401.44026472
0.05500000 1470135.22612823 12349.13647556
0.05600000 1463434.25621612 16266.07251688
0.05700000 1456644.81353154 16474.65361005
0.05800000 1449765.56289712 14113.46841380
0.05900000 1442798.61692647 16880.74460647
0.06000000 1435746.58863754 15764.49827974
0.06100000 1428610.83105304 15943.29761960
0.06200000 1421391.88990712 17461.80018374
0.06300000 1414093.05776630 14932.82338820
0.06400000 1406712.33572665 19201.62428067
0.06500000 1399255.98382180 16623.16186540
0.06600000 1391721.85653971 16784.16637518
0.06700000 1384112.83592258 19765.13222196
0.06800000 1376431.92676069 19944.49955235
0.06900000 1368679.86862107 14371.13929336
0.07000000 1360856.09534206 20290.36533172
0.07100000 1352965.55472416 21918.04301312
0.07200000 1345007.15260475 14727.82901097
0.07300000 1336985.42515361 14840.53891457
0.07400000 1328900.20617230 17940.15362408
0.07500000 1320753.09764123 18067.90322262
0.07600000 1312544.78762506 16675.88230855
0.07700000 1304280.63069169 18312.10091354
0.07800000 1295958.76822815 19964.24576080
0.07900000 1287581.11522436 18541.16892888
0.08000000 1279152.17607851 18650.03960212
0.08100000 1270671.38684096 21880.96230802
0.08200000 1262139.93190944 21999.10004549
0.08300000 1253560.85016426 20533.32768936
0.08400000 1244934.62113389 17460.20888096
0.08500000 1236265.44134548 19137.38993044
0.08600000 1227552.15634937 28835.20150650
0.08700000 1218798.56570057 22523.39855179
0.08800000 1210003.10220994 17768.89639045
0.08900000 1201171.93945728 16215.82194433
0.09000000 1192304.07448546 16274.95138125
0.09100000 1183401.63840788 17964.03771500
0.09200000 1174465.86234562 18022.17950450
0.09300000 1165500.24090167 23006.97583655
0.09400000 1156502.83667040 18128.18281679
0.09500000 1147478.29523245 18176.05705081
0.09600000 1138427.10413379 23189.76120130
0.09700000 1129352.99348474 19921.78774165
0.09800000 1120256.08423330 18299.38399635
0.09900000 1111138.58857898 21667.20349614
0.10000000 1101999.86826231 23373.41830503
0.10100000 1092843.29131227 21736.65408651
0.10200000 1083670.90789312 21765.53120880
0.10300000 1074483.06463008 16761.93659672
0.10400000 1065283.13291057 20133.85215921
0.10500000 1056073.46698552 16791.56891510
0.10600001 1046850.14530042 16801.94562266
0.10700001 1037621.29066680 18490.41226980
0.10800001 1028384.03934462 20176.89580150
0.10900001 1019142.20497654 21860.60132563
0.11000001 1009896.70883768 21859.21529169
0.11100001 1000648.73013042 25216.34918631
0.11200001 991401.23042319 23525.95230548
0.11300001 982152.87617415 16794.81497329
0.11400001 972908.32969068 18460.93642510
0.11500001 963667.36276955 21798.15677228
0.11600001 954431.67204952 21775.35962324
0.11700001 945203.50579505 21749.13369262
0.11800001 935981.84048313 21719.45963136
0.11900001 926770.57057667 18350.05816174
0.12000001 917569.76208296 18319.28116291
0.12100001 908382.97956286 21610.43210183
0.12200001 899208.51767337 36498.87545187
0.12300001 890050.22235477 26487.89586524
0.12400001 880907.29715846 19820.41511995
0.12500001 871782.34353626 21419.69318999
0.12600001 862678.05177498 21364.22295896
0.12700001 853593.98279826 26222.40838733
0.12800001 844530.32403762 17975.82879433
0.12900001 835490.07567869 24438.08586542
0.13000001 826474.09062447 17864.23831088
0.13100001 817482.57767997 24279.23370156
0.13200001 808518.67630828 16129.94835272
0.13300001 799583.77853273 19285.96164741
0.13400001 790676.22642620 17612.31377399
0.13500001 781799.57557418 22328.19693113
0.13600001 772953.23620685 22237.86565420
0.13700001 764140.32900716 18981.24666757
0.13800001 755359.29468141 15749.24203677
0.13900001 746615.16328454 20382.59491887
0.14000001 737905.31155973 17167.36788306
0.14100001 729232.24905867 20192.44192877
0.14200001 720595.93781848 23185.17539285
0.14300001 712000.92959727 23068.83120705
0.14400001 703441.36909712 19889.80564942
0.14500001 694925.98087063 22828.31954846
0.14600001 686449.89721095 16649.84304230
0.14700001 678018.92242303 15052.02078789
0.14800001 669628.78955905 22449.30622910
0.14900001 661282.77572697 17854.63578702
0.15000001 652982.38449584 19227.06721867
0.15100001 644728.02652685 17639.75963811
0.15200001 636520.96467985 20451.41956020
0.15300001 628361.20357952 20321.20228270
0.15400001 620247.95576345 20189.07191284
0.15500001 612185.73052066 15757.66144725
0.15600001 604170.92773592 19919.51642755
0.15700001 596210.18430089 18369.23664528
0.15800001 588296.22453177 18240.12530252
0.15900001 580436.79192908 16716.58039659
0.16000001 572627.47031792 15211.84946703
0.16100001 564874.44591288 17844.38458872
0.16200001 557172.67398755 19072.02153091
0.16300001 549526.57060631 16222.02513010
0.16400001 541934.68635737 18778.03776879
0.16500001 534398.57706982 19959.78779589
0.16600001 526917.86208118 18479.01029564
0.16700001 519493.12945335 17018.59572442
0.16800001 512124.66338417 15578.83299572
0.16900001 504815.39102587 18021.91031058
0.17000001 497563.18501463 17867.49481757
0.17100001 490369.21459897 20242.44213452
0.17200001 483233.74390945 15047.89949595
0.17300001 476157.26122238 12427.70510480
0.17400001 469141.36976198 19703.93846054
0.17500001 462184.49224156 14642.00540572
0.17600001 455285.87380505 16922.97672859
0.17700001 448450.14566519 15565.70529122
0.17800001 441673.93520772 17788.41858068
0.17900001 434958.64449717 15267.04914297
0.18000001 428305.53907289 15117.04471563
0.18100001 421714.78410063 13815.37697973
0.18200001 415182.72968373 11396.76646818
0.18300001 408715.46138915 19176.93035428
0.18400001 402308.74409881 18978.91589944
0.18500001 395965.48512035 13256.92506811
0.18600001 389684.21966031 13116.77145345
0.18700001 383465.18830828 10813.71882119
0.18800001 377308.59274314 11766.36902061
0.18900001 371216.71372923 12695.61220938
0.19000001 365183.63397401 12555.01392924
0.19100001 359218.67875739 15518.24765556
0.19200001 353312.95192260 14319.77461805
0.19300001 347473.00201895 14156.05077116
0.19400001 341695.17715382 16990.79348685
0.19500001 335980.78463951 10865.61908870
0.19600001 330328.48904931 9761.20731269
0.19700001 324740.04114125 12538.21358099
0.19800001 319214.76520418 12387.12954915
0.19900001 313753.49062670 10353.86568000
0.20000001 308353.09291164 10226.53080973
0.20100001 303017.57292691 9181.43289362
0.20200001 297743.45918416 13599.43314099
0.20300001 292533.04783764 15217.56986777
0.20400001 287385.18192598 9720.80423811
0.20500001 282299.21170175 10467.65526467
0.20600001 277276.28196955 13775.08633937
0.20700001 272315.09331734 8496.23131311
0.20800001 267415.83606071 10060.18422815
0.20900001 262580.94214040 14061.21011631
0.21000001 257805.05021431 10607.38929250
0.21100001 253091.15501565 8853.12902097
0.21200001 248438.50892205 11112.65502943
0.21300001 243846.76419318 10175.72595084
0.21400001 239316.72302078 9261.55761876
0.21500001 234847.98745273 7609.07515321
0.21600001 230438.27741883 7500.76628461
0.21700001 226089.17152262 7393.11625833
0.21800001 221800.19822815 10200.59159880
0.21900001 217569.59787367 7897.77677623
0.22000001 213398.03998602 8488.97443202
0.22100001 209287.90707876 8363.14516231
0.22200001 205235.21398649 6865.11823246
0.22300001 201240.85109182 7437.86220806
0.22400001 197302.81804413 7324.86746625
0.22500001 193425.82224297 7212.84925252
0.22600001 189603.89793607 6456.01303002
0.22700001 185840.57216577 11440.34616353
0.22800001 182132.93988060 6256.26678076
0.22900001 178481.41999966 7389.13113742
0.23000001 174886.08750588 7271.76386239
0.23100001 171347.81582764 8348.06598193
0.23200001 167862.56814316 10560.23466132
0.23300001 164433.60982208 7503.10597104
0.23400001 161059.07432271 7380.53242990
0.23500001 157737.18539756 6700.67595260
0.23600001 154470.11356841 5491.41279708
0.23700001 151255.89260245 8099.75343196
0.23800001 148094.46338445 6901.94279249
0.23900001 144985.62589498 5741.43105701
0.24000001 141928.44058249 6669.92738066
0.24100001 138924.11679897 6051.53481401
0.24200001 135970.18270984 7929.78143073
0.24300001 133066.99338549 6331.32784477
0.24400001 130213.57170143 5263.88388503
0.24500001 127410.44278622 4701.44556121
0.24600001 124656.74246578 7389.65204294
0.24700001 121952.70907152 5443.96919048
0.24800001 119295.99382631 7574.69948634
0.24900001 116687.36149557 6126.08676833
0.25000001 114126.82284948 6015.62511698
0.25100001 111612.90352946 5484.65833891
0.25200001 109146.71403692 5384.75339176
0.25300001 106726.75974685 4879.54768648
0.25400001 104351.65803565 4390.59621957
0.25500001 102022.09247662 4701.17824374
0.25600001 99737.74916542  5382.84657713
0.25700001 97497.42152515  5659.72558732
0.25800001 95301.02688095  7404.89013901
0.25900001 93148.30292212  3996.06238443
0.26000001 91039.10361584  4277.01729024
0.26100001 88970.18812117  4545.48712619
0.26200001 86945.78220198  4459.01465121
0.26300001 84961.54040250  3364.47715914
0.26400001 83018.21509392  4289.96646797
0.26500001 81116.30719992  3560.19489147
0.26600001 79253.63869947  4126.34089414
0.26700001 77431.62478776  4357.85204927
0.26800001 75648.63401698  3052.42252703
0.26900001 73903.78878087  3591.72430472
0.27000001 72197.84187056  3228.32665201
0.27100001 70529.43321748  3740.88131488
0.27200001 68898.60811610  3667.81757663
0.27300001 67304.10727112  3596.05862168
0.27400001 65744.81723845  4067.96075914
0.27500001 64223.75169257  3190.63613508
0.27600001 62736.03504257  3388.68709320
0.27700001 61284.92205333  2811.13950763
0.27800001 59867.25023454  2755.98899498
0.27900001 58484.14172377  3684.50110298
0.28000001 57134.22081377  2649.02827340
0.28100001 55817.31124924  3541.60856638
0.28200001 54533.48713424  2777.93596610
0.28300001 53281.83811032  2723.76769312
0.28400001 52062.00020888  3783.60604426
0.28500001 50873.50377626  2182.47341530
0.28600001 49715.24662889  2568.28976241
0.28700001 48587.92196420  2098.99832820
0.28800001 47489.76052888  3088.02182456
0.28900001 46422.61291342  2827.13726025
0.29000001 45383.03553488  2377.16351384
0.29100001 44373.62375817  2332.27777513
0.29200001 43391.31776970  3051.27761000
0.29300001 42436.97588372  2058.61779757
0.29400001 41509.86118994  2387.85487798
0.29500001 40610.73219339  2524.36323264
0.29600001 39736.86559930  2124.33293550
0.29700001 38888.90939685  2086.00119879
0.29800001 38067.25913529  2390.24331426
0.29900001 37270.63096812  1844.89632026
0.30000001 36498.75093872  2142.29428776
0.30100001 35752.00823365  1943.47925959
0.30200001 35028.17205475  2228.84269336
0.30300001 34328.36953207  1878.44846972
0.30400001 33652.40675640  2001.47698659
0.30500001 32998.15330391  1514.61530835
0.30600001 32366.50376659  1490.47756901
0.30700001 31757.29828561  1760.62470031
0.30800001 31169.49420644  1733.64734984
0.30900001 30602.85762120  1423.03294676
0.31000001 30057.92791192  1542.42264383
0.31100001 29531.75884779  1796.71229337
0.31200001 29026.81375076  2180.49435219
0.31300001 28540.89924880  1747.55934374
0.31400001 28075.87204873  1326.58501711
0.31500001 27628.92928866  1309.61131029
0.31600002 27200.45921769  1681.39646615
0.31700002 26789.92533588  1405.66744893
0.31800002 26397.83756472  1389.45024601
0.31900002 26023.53770714  1498.95584291
0.32000002 25666.02282338  1977.31049194
0.32100002 25325.87974829  1712.53606967
0.32200002 25002.33654876  1211.36326315
0.32300002 24694.17860615  1200.13713709
0.32400002 24402.31530913  1546.49680594
0.32500002 24125.54072103  1769.60849568
0.32600002 23864.58322602  1287.61364893
0.32700002 23618.25707787  1394.42196391
0.32800002 23387.13651639  1154.15524174
0.32900002 23169.08962358  1490.93098788
0.33000002 22966.58709028  2052.52398545
0.33100002 22775.29195232  1814.73534870
0.33200002 22599.83108096  1354.63393914
0.33300002 22436.05161486  1124.04623913
0.33400002 22285.87680978  1343.83843527
0.33500002 22147.41908891  1451.09896742
0.33600002 22021.23799279  1669.76044988
0.33700002 21906.01553520  1332.76204828
0.33800002 21803.84695260  1552.21593806
0.33900002 21711.68356343  1107.29591417
0.34000002 21631.26206702  1659.65866069
0.34100002 21561.28631422  1216.70344433
0.34200002 21502.65803913  1770.09889361
0.34300002 21452.79659718  1328.35722821
0.34400002 21413.86780400  1551.43479588
0.34500002 21384.12110605  1775.73750075
0.34600002 21364.95012008  1223.25027706
0.34700002 21352.81813102  1226.07887515
0.34800002 21351.07164420  1341.27438421
0.34900002 21357.62030535  1345.53014296
0.35000002 21372.68270932  1462.85333732
0.35100002 21395.95568173  1129.70651350
0.35200002 21426.47270859  1134.53178365
0.35300002 21465.01053258  1139.79211326
0.35400002 21511.39491885  1260.03001705
0.35500002 21564.77993667  1497.02709411
0.35600002 21624.65550878  1505.40046455
0.35700002 21691.48662855  1164.83288713
0.35800002 21765.49888119  1289.27938729
0.35900002 21845.31190918  1297.61158887
0.36000002 21931.99637498  1662.66472394
0.36100002 22023.76000345  1554.65729228
0.36200002 22122.45247024  1565.93787228
0.36300002 22224.82031972  1820.21287040
0.36400002 22333.42715736  1222.75519478
0.36500002 22446.58396677  1355.54926996
0.36600002 22565.28879956  1987.55073161
0.36700002 22688.28160839  1753.35048575
0.36800002 22817.18168442  1389.22417266
0.36900002 22949.44884994  1528.43336581
0.37000002 23085.01182575  1284.68096896
0.37100002 23224.99181969  1814.33644690
0.37200002 23369.32338119  1699.76781665
0.37300002 23516.62957048  1451.21127954
0.37400002 23668.35929419  1464.47980070
0.37500002 23822.41577406  1746.65960730
0.37600002 23980.59140740  1491.71275916
0.37700002 24140.42393348  1505.63831206
0.37800002 24304.16338896  1658.03010494
0.37900002 24470.29728138  1673.76841334
0.38000002 24638.96545486  1830.55202519
0.38100002 24809.49239606  1848.05917613
0.38200002 24982.51402101  1722.29459820
0.38300002 25157.25927803  1883.77566398
0.38400002 25334.70602180  1463.07934207
0.38500002 25512.71436650  1624.90485498
0.38600002 25693.59687538  1938.96738006
0.38700002 25874.87156449  1656.50935604
0.38800002 26057.51046295  1976.59254981
0.38900002 26241.53230519  1842.15565510
0.39000002 26427.30244773  1704.95749819
0.39100002 26613.06808491  1721.33332528
0.39200002 26800.33980282  1737.86811685
0.39300002 26987.88469931  1754.48246742
0.39400002 27176.85118478  1932.27421078
0.39500002 27365.39015171  2275.70595283
0.39600002 27554.27192600  1969.02836512
0.39700002 27743.12588955  1821.89116348
0.39800002 27933.19175449  2006.16192686
0.39900002 28122.31232997  2193.54046566
0.40000002 28311.39176617  2043.51635450
0.40100002 28500.09271525  2749.68907545
0.40200002 28689.76358431  2428.01480718
0.40300002 28877.87734428  1924.99939498
0.40400002 29065.43985652  2472.01577692
0.40500002 29252.67236167  2494.08296373
0.40600002 29439.31913845  2695.90577784
0.40700002 29625.08695993  2538.27757099
0.40800002 29810.33636767  2011.75064509
0.40900002 29993.73740827  2029.07643181
0.41000002 30177.00141532  2418.53589303
0.41100002 30358.81481752  2063.79232908
0.41200002 30538.79070077  2648.62944298
0.41300002 30718.00753992  2479.86486620
0.41400002 30895.76500713  2692.56604795
0.41500002 31072.55798008  2908.39156474
0.41600002 31246.60725296  2540.81798917
0.41700002 31419.93975766  2561.03941100
0.41800002 31592.36757791  2581.25451526
0.41900002 31761.12262870  2201.04590246
0.42000002 31928.98598085  2016.31556023
0.42100002 32095.54603420  2437.97779228
0.42200002 32259.91707419  2046.89183535
0.42300002 32421.94475964  2474.44294131
0.42400002 32581.90397263  2907.93506735
0.42500002 32740.20015115  2092.09888879
0.42600002 32894.99775826  2949.69458876
0.42700002 33049.02139407  2121.74727404
0.42800002 33200.17297524  2777.36060185
0.42900002 33349.65534788  2796.36873343
0.43000002 33496.64677612  2815.22581171
0.43100002 33639.89090263  3051.81104730
0.43200002 33781.65101303  3291.17750591
0.43300002 33920.50787891  2429.04768432
0.43400002 34057.31989769  3333.36034295
0.43500002 34191.00793449  2683.31042986
0.43600002 34323.08165744  2699.85373112
0.43700002 34451.54452309  3168.85321540
0.43800002 34576.53015236  3415.29692765
0.43900002 34700.06872144  2748.24557298
0.44000002 34819.92375434  3224.67329171
0.44100002 34937.74741401  3474.55914498
0.44200002 35052.40294705  3260.92520070
0.44300002 35164.47054122  3981.32154335
0.44400002 35273.12733447  3296.27390562
0.44500002 35378.10132295  2840.15410880
0.44600002 35480.93287910  2854.79599474
0.44700002 35581.06460868  2869.25718602
0.44800002 35677.11538080  2883.42460173
0.44900002 35771.42391526  2656.02835158
0.45000002 35862.50360256  4124.36742227
0.45100002 35949.13084061  3656.02677976
0.45200002 36033.78007463  3917.59275538
0.45300002 36114.69624750  3197.23421032
0.45400002 36193.10393594  2964.21535284
0.45500002 36268.27854618  2728.82540714
0.45600002 36339.92034021  3487.54232034
0.45700002 36408.44570500  3751.89050772
0.45800002 36473.30056553  4017.89898072
0.45900002 36535.20850851  2520.92950656
0.46000002 36594.72769470  3289.68320203
0.46100002 36649.71205054  2793.80768202
0.46200002 36702.45684615  2548.98574877
0.46300002 36751.30037397  3325.25781544
0.46400002 36796.68952621  3079.88305932
0.46500002 36839.70995456  2575.09584787
0.46600002 36878.67772839  2583.35149731
0.46700002 36914.45319894  3109.67368486
0.46800002 36947.61804256  3638.97107348
0.46900002 36976.79859132  2867.55086667
0.47000002 37002.41015755  3398.48652200
0.47100002 37025.23617006  3145.66421410
0.47200002 37044.65308870  3153.98191346
0.47300002 37061.33277392  2635.06088512
0.47400002 37073.39555782  2641.47955869
0.47500002 37083.40991820  3706.85783112
0.47600002 37090.34179405  3449.95830549
0.47700002 37092.95836926  3723.39133759
