# SAXS profile: number of points = 501, q_min = 0, q_max = 0.5, delta_q = 0.001
#    q    intensity    error
0.00000000 1646666.22097351 296.39991978
0.00100000 1646598.54304988 543.37753211
0.00200000 1646395.45299741 963.14137050
0.00300000 1646057.12115691 1283.92460024
0.00400000 1645583.42510450 1727.86266201
0.00500000 1644974.78697995 1628.52510357
0.00600000 1644230.98354330 2589.66390451
0.00700000 1643352.61807189 2760.83251310
0.00800000 1642339.17778466 2217.15798362
0.00900000 1641191.98730455 3938.86093791
0.01000000 1639910.22068199 3247.02237716
0.01100000 1638495.12835901 3244.22049540
0.01200000 1636946.11958413 5107.27211702
0.01300000 1635264.55410477 4120.86685809
0.01400000 1633449.82114151 5512.89339074
0.01500000 1631503.50476881 6656.53459586
0.01600000 1629424.55783719 6232.54921234
0.01700000 1627215.10279145 4832.82907209
0.01800000 1624874.65386307 6020.16086346
0.01900000 1622404.00923138 6327.37592151
0.02000000 1619803.61958925 6122.85795902
0.02100000 1617075.19462039 5869.98322261
0.02200000 1614216.94357588 6682.85845002
0.02300000 1611231.82358075 6380.47831181
0.02400000 1608119.57228277 9648.71787365
0.02500000 1604881.51289469 7510.84582337
0.02600000 1601517.98505455 12323.68145866
0.02700000 1598029.70829751 6711.72508225
0.02800000 1594416.79564063 8322.85605493
0.02900000 1590681.87037936 7873.87561990
0.03000000 1586824.98654137 8854.48383190
0.03100000 1582846.48246376 9117.19615850
0.03200000 1578747.33341822 9377.75959243
0.03300000 1574530.34351844 9636.12614656
0.03400000 1570193.43827201 9892.21911754
0.03500000 1565740.12186083 10991.49616303
0.03600000 1561169.94789269 12130.29105571
0.03700000 1556484.65942675 10646.35556285
0.03800000 1551685.84209126 10892.83511560
0.03900000 1546774.15671639 12064.83898111
0.04000000 1541749.19832166 12326.28541177
0.04100000 1536614.47286173 9680.67162789
0.04200000 1531370.46858594 10865.07397868
0.04300000 1526017.20622896 12086.05683434
0.04400000 1520558.13397534 12316.52145720
0.04500000 1514993.04509462 12544.14299625
0.04600000 1509322.41221084 13832.94055096
0.04700000 1503548.95398144 11908.10826935
0.04800000 1497673.28923808 13209.47902569
0.04900000 1491697.86278470 14544.05483914
0.05000000 1485622.23207485 12501.51166506
0.05100000 1479449.80390447 18463.53441283
0.05200000 1473178.73617162 16396.48009769
0.05300000 1466814.53101195 16633.67755710
0.05400000 1460355.20070230 15662.31025793
0.05500000 1453805.07800049 14654.35586986
0.05600000 1447162.34635189 16085.21023030
0.05700000 1440432.03995604 16291.28713236
0.05800000 1433612.71076730 13956.22039097
0.05900000 1426706.64150268 17976.50452254
0.06000000 1419716.26186638 14289.44484327
0.06100000 1412642.93985488 14451.33795005
0.06200000 1405487.35002085 14610.04168639
0.06300000 1398252.61609888 16107.87089059
0.06400000 1390936.85306699 13561.63495164
0.06500000 1383546.24118252 15066.81927127
0.06600000 1376078.67620730 16595.50961154
0.06700000 1368536.98231981 19542.70902211
0.06800000 1360924.12022540 19719.79142513
0.06900000 1353240.86806459 18471.73871391
0.07000000 1345486.64605026 17195.32014175
0.07100000 1337666.47533693 20225.51805441
0.07200000 1329779.16771494 20385.51559607
0.07300000 1321829.10953638 20541.22532467
0.07400000 1313816.37548549 22170.65237533
0.07500000 1305742.47315059 22328.19733745
0.07600000 1297607.96551519 22481.05905648
0.07700000 1289418.32152912 18103.43408311
0.07800000 1281171.76269580 16700.07470991
0.07900000 1272869.92523203 15274.43981921
0.08000000 1264517.39800483 19973.05323844
0.08100000 1256113.69721824 21630.27888095
0.08200000 1247659.89142624 17086.70301488
0.08300000 1239158.99214572 15613.40403380
0.08400000 1230611.71254017 21966.42009992
0.08500000 1222022.09824716 23646.12871115
0.08600000 1213388.80190044 25335.55937322
0.08700000 1204716.00201589 19082.70236801
0.08800000 1196001.59248834 15966.62200957
0.08900000 1187252.14401487 17630.69516673
0.09000000 1178466.47875955 16086.06819072
0.09100000 1169646.85842824 19369.35288557
0.09200000 1160794.32359191 21051.00604746
0.09300000 1151912.41164830 16241.96576749
0.09400000 1142999.19297868 24431.60889814
0.09500000 1134059.37756695 17963.50138499
0.09600000 1125093.37319180 19644.13121936
0.09700000 1116104.78995084 24610.11177541
0.09800000 1107093.88188808 26304.55187044
0.09900000 1098062.88474586 21412.22725940
0.10000000 1089010.84270981 18148.36654723
0.10100000 1079941.50368864 21480.03751861
0.10200000 1070856.71164537 24817.10545969
0.10300000 1061756.86716455 19876.08948831
0.10400000 1052645.15893337 18237.07823649
0.10500000 1043524.16864879 19910.44207459
0.10600001 1034389.78751064 24902.93530609
0.10700001 1025250.39488417 19930.86861445
0.10800001 1016102.65717292 19935.93507195
0.10900001 1006950.81385627 19937.62705273
0.11000001 997795.31180310 23258.60981290
0.11100001 988637.86552690 18270.02861497
0.11200001 979481.19842678 18262.42780441
0.11300001 970323.82434257 19911.04581294
0.11400001 961170.53972648 23212.26962733
0.11500001 952020.97310461 18221.68228324
0.11600001 942876.87392725 18202.23890834
0.11700001 933740.48210838 26443.53169867
0.11800001 924610.80433852 23106.02508867
0.11900001 915491.64833581 23070.39062472
0.12000001 906383.24596851 18095.94235817
0.12100001 897288.83444246 22988.54102136
0.12200001 888207.18519423 19664.90800664
0.12300001 879141.43874442 16352.03153106
0.12400001 870091.44291297 24471.32298495
0.12500001 861059.46220219 17901.42706271
0.12600001 852048.19919729 16231.51895959
0.12700001 843057.23802718 16186.69973294
0.12800001 834086.83497793 20981.45532271
0.12900001 825139.93125794 20917.29824326
0.13000001 816217.04935711 16038.66577585
0.13100001 807318.90797979 17583.40664464
0.13200001 798448.34897622 19114.85437557
0.13300001 789606.75920590 20632.42559072
0.13400001 780792.44037867 15811.04766309
0.13500001 772009.20080710 15748.98843900
0.13600001 763256.08227158 20390.38719931
0.13700001 754536.37471592 18742.68443172
0.13800001 745848.63974876 17106.03935929
0.13900001 737197.55131212 20125.49409990
0.14000001 728580.75180809 16950.43199021
0.14100001 720000.62461959 15336.01402769
0.14200001 711457.15363665 19838.98366487
0.14300001 702954.75648096 15183.82345617
0.14400001 694487.89962461 27189.20255282
0.14500001 686065.10485351 19532.27445656
0.14600001 677681.25899097 20920.02145194
0.14700001 669342.55795661 16345.34603642
0.14800001 661044.41917654 22161.51519844
0.14900001 652790.41977330 22031.67770682
0.15000001 644581.56489323 24819.61432728
0.15100001 636418.85729279 15961.38569404
0.15200001 628302.92295294 14419.55276219
0.15300001 620234.31411208 18625.63733171
0.15400001 612211.97397257 15657.32197323
0.15500001 604240.33693691 14139.22455160
0.15600001 596315.74917711 16851.88386707
0.15700001 588445.31827893 23708.46299242
0.15800001 580621.04218095 16617.37501154
0.15900001 572851.30846934 16498.11846264
0.16000001 565131.27304798 20471.88133249
0.16100001 557467.09416833 18965.03143884
0.16200001 549854.08137530 16132.71950911
0.16300001 542296.40706616 18676.68914104
0.16400001 534792.66073053 13236.11897795
0.16500001 527344.02334764 17070.12684167
0.16600001 519950.98246425 14327.24999824
0.16700001 512613.20398548 12917.85335035
0.16800001 505331.43314187 14091.16767850
0.16900001 498108.54918227 12701.76860390
0.17000001 490942.16139345 12592.66703436
0.17100001 483833.66520886 13731.20006703
0.17200001 476783.45923853 14847.03762181
0.17300001 469791.78677443 17166.19269940
0.17400001 462860.20525504 13365.08905792
0.17500001 455987.22055240 15649.48214845
0.17600001 449172.14421579 14310.62519059
0.17700001 442419.56388985 15356.38378791
0.17800001 435726.02182061 16378.94193385
0.17900001 429092.88576825 11585.50846297
0.18000001 422521.63479691 14912.90180457
0.18100001 416012.15180890 17035.69842128
0.18200001 409561.06713458 17987.92291826
0.18300001 403174.02642500 13353.12438599
0.18400001 396847.21487794 13215.01287972
0.18500001 390583.23021622 15256.18169298
0.18600001 384380.97336001 15094.64153697
0.18700001 378240.31342052 17066.20374782
0.18800001 372161.71840089 13716.02077969
0.18900001 366147.20704176 12522.23507247
0.19000001 360191.04621780 18575.05313110
0.19100001 354302.49045462 17346.65075229
0.19200001 348472.36742575 12105.93061639
0.19300001 342707.76356445 9972.79639097
0.19400001 337004.67278195 11828.86457361
0.19500001 331364.47030488 13638.96224226
0.19600001 325785.71103890 10589.66503775
0.19700001 320270.53392147 15219.25649117
0.19800001 314817.63208009 10337.03743787
0.19900001 309428.32839371 12067.70537767
0.20000001 304099.35305719 13752.89389199
0.20100001 298834.67933187 13582.03681755
0.20200001 293630.73384180 10729.26752168
0.20300001 288489.90663599 11476.12902839
0.20400001 283411.04340744 11329.35699570
0.20500001 278393.44511542 8602.35786067
0.20600001 273438.50932993 11037.34595082
0.20700001 268544.48452829 10892.16480733
0.20800001 263711.98879635 10747.58261144
0.20900001 258943.15212603 8972.38064530
0.21000001 254232.60025609 10460.40083202
0.21100001 249583.48896925 11111.45745419
0.21200001 244995.05186506 9393.11073256
0.21300001 240466.83615443 7718.98580548
0.21400001 235999.68499066 9133.18824092
0.21500001 231593.24085057 9004.34562997
0.21600001 227245.36380832 8876.20433001
0.21700001 222957.26346830 10936.05429017
0.21800001 218728.74813379 9340.81163069
0.21900001 214557.94623237 7788.45381649
0.22000001 210445.50884816 7673.89584299
0.22100001 206393.75091491 7560.20345349
0.22200001 202398.97494730 12186.44285781
0.22300001 198461.79367637 7335.14824112
0.22400001 194580.44636462 7880.50845041
0.22500001 190759.41447549 7113.41890217
0.22600001 186992.68455067 7003.81133104
0.22700001 183283.97751580 6268.31232746
0.22800001 179630.32326577 6787.33208557
0.22900001 176032.10476917 7895.04027226
0.23000001 172489.46725264 5976.76032296
0.23100001 169003.16185599 7057.57237288
0.23200001 165569.42785813 6365.31695504
0.23300001 162191.08670079 6831.48889493
0.23400001 158866.66040200 8960.08007044
0.23500001 155594.16264171 6058.83697983
0.23600001 152375.88211358 6500.35543841
0.23700001 149209.84631298 9055.54600104
0.23800001 146095.68011202 5761.28341772
0.23900001 143033.69659670 5664.13465314
0.24000001 140022.67681429 5061.82000626
0.24100001 137063.85308408 4975.41810230
0.24200001 134154.85035139 7823.91124258
0.24300001 131295.84747924 6727.59954307
0.24400001 128485.95521875 6138.41680095
0.24500001 125725.70302669 5103.20652726
0.24600001 123014.30372111 5469.21620216
0.24700001 120351.80715797 6267.92241330
0.24800001 117736.02550871 6156.41706509
0.24900001 115167.76945764 4318.79155897
0.25000001 112646.96352335 5937.62172821
0.25100001 110171.96826216 5413.85077653
0.25200001 107744.23667435 4497.78337276
0.25300001 105362.09213232 4817.15508019
0.25400001 103024.10827124 3940.67232781
0.25500001 100731.01834178 4641.68554480
0.25600001 98482.50558623  4935.45100096
0.25700001 96277.48872906  3725.93899010
0.25800001 94115.62485758  4387.67063846
0.25900001 91996.98031256  5381.82360292
0.26000001 89921.25361138  4224.50069455
0.26100001 87885.13060838  4835.44011487
0.26200001 85892.74207644  3727.31571877
0.26300001 83939.93678605  4321.22815022
0.26400001 82027.70922602  3912.72191522
0.26500001 80156.11508619  5436.98954357
0.26600001 78323.11065964  3136.84073035
0.26700001 76530.30447380  3384.17022397
0.26800001 74775.86301518  3318.92683698
0.26900001 73058.92815557  3550.66407638
0.27000001 71380.40516040  3191.77496779
0.27100001 69738.68174242  3129.87218471
0.27200001 68134.09373259  4464.14603262
0.27300001 66565.16299766  3009.41116154
0.27400001 65031.00382916  4023.79355235
0.27500001 63534.36898574  2893.35530054
0.27600001 62070.53069504  2579.03067243
0.27700001 60642.84778435  3034.56824674
0.27800001 59247.95678675  2727.47981976
0.27900001 57887.15532780  3160.63883048
0.28000001 56558.88375176  2860.74847556
0.28100001 55263.14448074  2337.63112217
0.28200001 53999.97052147  2750.75862856
0.28300001 52768.41047247  3821.48846729
0.28400001 51568.12151756  2645.44475906
0.28500001 50398.70234840  3026.94620631
0.28600001 49258.87484784  2120.59466257
0.28700001 48149.58685319  2288.06847556
0.28800001 47068.90823181  2244.48099527
0.28900001 46018.61237585  2402.17167972
0.29000001 44995.56604804  2946.08482645
0.29100001 44002.20254201  3469.13381262
0.29200001 43035.31878311  2269.68282006
0.29300001 42096.02024931  2042.07803896
0.29400001 41183.42537636  2186.83999100
0.29500001 40298.42881820  3578.50064845
0.29600001 39438.06409441  2635.44875786
0.29700001 38603.23737490  2415.79070928
0.29800001 37794.22456539  2373.09947280
0.29900001 37009.85168284  2165.07642594
0.30000001 36249.66511875  1964.00694911
0.30100001 35514.13674593  2252.30665905
0.30200001 34801.19144452  1739.88564864
0.30300001 34111.86448318  2022.15142229
0.30400001 33445.87768820  2601.25326035
0.30500001 32801.19217373  1806.68975046
0.30600001 32178.82779328  2074.56912605
0.30700001 31578.39408668  1604.81406346
0.30800001 30998.92944409  1580.48049253
0.30900001 30440.16396088  1698.56122943
0.31000001 29902.90703304  1534.46774705
0.31100001 29383.81557862  1787.71142444
0.31200001 28885.73510420  1491.80386009
0.31300001 28406.16330612  1739.30946158
0.31400001 27947.15411814  2376.90557029
0.31500001 27506.00230668  1434.16302817
0.31600002 27082.76285120  1287.78543455
0.31700002 26677.25204791  1272.50498294
0.31800002 26289.78063882  1635.35588207
0.31900002 25919.69543857  1368.55998396
0.32000002 25566.09947985  1969.61239719
0.32100002 25229.52325618  1462.30323717
0.32200002 24909.34510613  1810.28674131
0.32300002 24604.20501179  2152.37595635
0.32400002 24314.94297949  1422.42423165
0.32500002 24040.57333825  1763.37613786
0.32600002 23781.61386264  1283.13703672
0.32700002 23537.07454406  1505.43135912
0.32800002 23307.42977826  1610.31039963
0.32900002 23090.51739073  1600.17293095
0.33000002 22888.87934237  1818.29266106
0.33100002 22698.24723961  1243.41004267
0.33200002 22523.10739040  1237.53219417
0.33300002 22359.52056358  1344.25443994
0.33400002 22209.17589576  1116.01114161
0.33500002 22070.31297637  1668.51574003
0.33600002 21943.48453020  1220.16751508
0.33700002 21827.36864649  1659.97146418
0.33800002 21724.14202290  1325.60720901
0.33900002 21630.54565973  1213.47366898
0.34000002 21548.69525071  1653.32372141
0.34100002 21476.93592243  1211.94355150
0.34200002 21416.27399735  1542.61428909
0.34300002 21364.24990871  1763.83255600
0.34400002 21322.89501494  1544.84381700
0.34500002 21290.57936267  1104.98112125
0.34600002 21268.69425904  1107.03558861
0.34700002 21253.62689437  1220.38331407
0.34800002 21248.75840998  1446.08432208
0.34900002 21252.07348588  1450.45408411
0.35000002 21263.63045962  1455.38925574
0.35100002 21283.28148256  1798.01170481
0.35200002 21310.13349117  1354.04594616
0.35300002 21344.72717850  1246.74557355
0.35400002 21387.04994332  1252.74650976
0.35500002 21436.27714574  1488.10642994
0.35600002 21491.82388726  1726.33083551
0.35700002 21554.22637268  1273.20821214
0.35800002 21623.66864022  1280.87807257
0.35900002 21698.78168904  1640.42797339
0.36000002 21780.76323162  1297.37122334
0.36100002 21867.55569336  1306.14916343
0.36200002 21961.27378782  1434.94969726
0.36300002 22058.52178636  1927.03255453
0.36400002 22161.91742601  1698.71105117
0.36500002 22269.81738165  1589.39694181
0.36600002 22383.20706924  1725.07385054
0.36700002 22500.69600254  1863.05771726
0.36800002 22624.12432576  1377.46987482
0.36900002 22750.88367409  1767.74374521
0.37000002 22880.76049246  1655.30869624
0.37100002 23015.11094157  1926.36487706
0.37200002 23153.62414754  1684.07893215
0.37300002 23295.17653983  1568.23135895
0.37400002 23441.06349829  1977.83982636
0.37500002 23589.30409068  1862.61153923
0.37600002 23741.53508327  1879.61742158
0.37700002 23895.43162368  1490.35814097
0.37800002 24053.24329428  1367.42694606
0.37900002 24213.32373507  1932.22332559
0.38000002 24376.01187721  1671.70697373
0.38100002 24540.55422915  1968.64335352
0.38200002 24707.48348505  1561.38949281
0.38300002 24876.20757594  1862.73051153
0.38400002 25047.63779418  2169.75172671
0.38500002 25219.48755853  1606.22923870
0.38600002 25394.43092703  1916.39082070
0.38700002 25569.64592910  1785.78415629
0.38800002 25746.31080975  2253.44596038
0.38900002 25924.30316705  1819.88616855
0.39000002 26104.13459989  1684.10832350
0.39100002 26283.98391772  1854.59799310
0.39200002 26465.26802180  1872.15314856
0.39300002 26646.92544710  1732.31670539
0.39400002 26830.03713898  2066.58370854
0.39500002 27012.75919132  2246.38116078
0.39600002 27195.88985582  2429.27297646
0.39700002 27379.05901443  2451.79485090
0.39800002 27563.35417617  2639.46692096
0.39900002 27746.83169028  2164.25297438
0.40000002 27930.44494768  2184.02124616
0.40100002 28113.52180833  1864.76998990
0.40200002 28297.74684580  1881.65876566
0.40300002 28480.44638389  1898.50664590
0.40400002 28662.59330661  2089.50315105
0.40500002 28844.57338113  2459.28844300
0.40600002 29026.02905050  1772.03915749
0.40700002 29206.63024017  2323.67961201
0.40800002 29386.87213415  1983.17315994
0.40900002 29565.28419848  2181.91807723
0.41000002 29743.62789368  2567.17264514
0.41100002 29920.61382376  1849.09402192
0.41200002 30095.88755138  1864.44032215
0.41300002 30270.45981850  2067.77520818
0.41400002 30443.64476382  2084.62867398
0.41500002 30616.00647035  2292.52667313
0.41600002 30785.61738450  2503.33259624
0.41700002 30954.71027520  2523.11855409
0.41800002 31122.93484161  2151.68420223
0.41900002 31287.63360822  1971.12101072
0.42000002 31451.43316022  2780.62133745
0.42100002 31614.17011662  2601.53018217
0.42200002 31774.73893625  2217.71800914
0.42300002 31933.08996720  2437.13354178
0.42400002 32089.45858273  2454.84369790
0.42500002 32244.30549587  2884.57570635
0.42600002 32395.79794548  2282.44605241
0.42700002 32546.58264218  2716.33791603
0.42800002 32694.58855032  2314.28656020
0.42900002 32841.07917974  2753.72461971
0.43000002 32985.14920357  2558.98799648
0.43100002 33125.58741858  2361.19198309
0.43200002 33264.71671027  3240.81517907
0.43300002 33401.08338607  2609.29275777
0.43400002 33535.41014601  3282.27842358
0.43500002 33666.86971076  2421.99472177
0.43600002 33796.72507807  3101.52560739
0.43700002 33923.07671929  2228.74624608
0.43800002 34046.17000280  2466.13444102
0.43900002 34167.89667153  2706.09754463
0.44000002 34286.02620516  2948.42696324
0.44100002 34402.31013693  2280.87327017
0.44200002 34515.51684594  3669.68992497
0.44300002 34626.30789499  2536.72343660
0.44400002 34733.78316845  3245.87219092
0.44500002 34837.68508129  2796.76949087
0.44600002 34939.55079344  2342.69699172
0.44700002 35038.84882440  2825.53290311
0.44800002 35134.30408683  2602.92504163
0.44900002 35228.02653990  2615.68109455
0.45000002 35318.63415336  2867.16685645
0.45100002 35404.99480080  2640.50463738
0.45200002 35489.41087572  2411.50558329
0.45300002 35570.36199898  2906.81012032
0.45400002 35648.83779438  3892.85327164
0.45500002 35724.20641941  2443.53583489
0.45600002 35796.08200829  2453.82153796
0.45700002 35865.15340618  2463.93615578
0.45800002 35930.58687303  3215.96733049
0.45900002 35993.18324720  3228.58869029
0.46000002 36053.54922018  2493.10304673
0.46100002 36109.56957570  3253.11127725
0.46200002 36163.34558538  3265.00781092
0.46300002 36213.39019372  2772.49728463
0.46400002 36260.11808602  3034.97202764
0.46500002 36304.56535711  3298.99601036
0.46600002 36345.09909877  3055.16917504
0.46700002 36382.62452559  3575.68450785
0.46800002 36417.53936929  3074.36881927
0.46900002 36448.68803852  2826.59589136
0.47000002 36476.41249495  4638.70559684
0.47100002 36501.39963853  2842.72913859
0.47200002 36523.12949758  3109.57939281
0.47300002 36542.13882091  3117.77543197
0.47400002 36556.78267079  3646.53924425
0.47500002 36569.39336875  2872.16029132
0.47600002 36579.08689435  2878.95717048
0.47700002 36584.61488488  2885.42871273
