# SAXS profile: number of points = 501, q_min = 0, q_max = 0.5, delta_q = 0.001
#    q    intensity    error
0.00000000 1646666.22097351 345.79990640
0.00100000 1646598.53750906 642.17344488
0.00200000 1646395.42845766 814.96576289
0.00300000 1646057.07117864 1481.45141683
0.00400000 1645583.33467514 1357.60630269
0.00500000 1644974.64774054 3109.00220729
0.00600000 1644230.77942469 2071.73086642
0.00700000 1643352.35301052 2760.83206780
0.00800000 1642338.82547527 2438.87325880
0.00900000 1641191.52734808 3446.50235476
0.01000000 1639909.67120595 4058.77661149
0.01100000 1638494.44893169 3244.21915014
0.01200000 1636945.32720912 4149.65658641
0.01300000 1635263.62569268 4120.86451850
0.01400000 1633448.72693200 4410.31175823
0.01500000 1631502.25638850 5481.84782557
0.01600000 1629423.15354193 5401.53799546
0.01700000 1627213.49927873 5272.17197417
0.01800000 1624872.85590251 5557.06541724
0.01900000 1622402.03821300 5353.92696769
0.02000000 1619801.39688730 5102.37463100
0.02100000 1617072.76382843 6403.60843509
0.02200000 1614214.27956156 8353.55927625
0.02300000 1611228.90536043 6960.50918799
0.02400000 1608116.39823302 6633.48044518
0.02500000 1604878.10566887 7510.82987755
0.02600000 1601514.27233995 7134.74640961
0.02700000 1598025.72563834 7382.87919059
0.02800000 1594412.53599373 10403.54227446
0.02900000 1590677.26775313 10021.26724696
0.03000000 1586820.09896405 8116.58517928
0.03100000 1582841.25348735 8357.40220296
0.03200000 1578741.75069733 10159.20363365
0.03300000 1574524.44593176 12848.12007111
0.03400000 1570187.21704916 11540.87657781
0.03500000 1565733.52660331 10145.95372091
0.03600000 1561162.97145541 8664.45489199
0.03700000 1556477.27656712 8871.92088674
0.03800000 1551678.09245480 14523.70761753
0.03900000 1546766.00520993 9280.59646104
0.04000000 1541740.64479819 10429.87594537
0.04100000 1536605.50559372 16457.04572797
0.04200000 1531361.06274983 11852.73517557
0.04300000 1526007.37821704 14100.30882923
0.04400000 1520547.88064265 11290.06853810
0.04500000 1514982.32008081 11498.71634370
0.04600000 1509311.24758442 18089.09614320
0.04700000 1503537.28981130 11908.01588912
0.04800000 1497661.19717979 11007.81031144
0.04900000 1491685.33931433 11187.64056561
0.05000000 1485609.14518338 11364.91048987
0.05100000 1479436.27771420 18463.36560597
0.05200000 1473164.72385268 14053.99212049
0.05300000 1466800.01177175 15445.40484399
0.05400000 1460340.14205311 13252.58740715
0.05500000 1453789.52380352 15875.38234051
0.05600000 1447146.20918180 14847.72079906
0.05700000 1440415.45892770 13784.77658539
0.05800000 1433595.53686043 15224.78531234
0.05900000 1426688.91947344 14124.22096247
0.06000000 1419697.98702569 15588.28462581
0.06100000 1412624.26699427 17078.62818607
0.06200000 1405468.02769229 14609.84083078
0.06300000 1398232.75476423 16107.64208800
0.06400000 1390916.45562179 18986.01050715
0.06500000 1383525.24056910 17805.97067905
0.06600000 1376057.12050411 16595.24964975
0.06700000 1368514.80679580 15354.73685083
0.06800000 1360901.32434193 16902.39523951
0.06900000 1353217.48626471 17050.54112522
0.07000000 1345462.68608853 14329.17827786
0.07100000 1337641.96511280 15891.18728985
0.07200000 1329753.97177097 16016.88734032
0.07300000 1321803.37405645 20540.82539529
0.07400000 1313789.99107449 16258.15190147
0.07500000 1305715.51183383 17862.18903913
0.07600000 1297580.42980458 19483.17106690
0.07700000 1289390.17012577 15085.86569783
0.07800000 1281142.97677034 16699.69948535
0.07900000 1272840.62397299 16801.49702450
0.08000000 1264487.42708187 19972.57984769
0.08100000 1256083.01689342 20084.76838247
0.08200000 1247628.65840226 21746.16853639
0.08300000 1239127.09156441 18735.60250375
0.08400000 1230579.30626039 17258.87558041
0.08500000 1221988.93265696 17340.02376843
0.08600000 1213355.06669151 17417.71280014
0.08700000 1204681.65400122 17491.97843748
0.08800000 1195966.70253804 20756.00309733
0.08900000 1187216.59132489 17630.16720926
0.09000000 1178430.28817496 17694.13160814
0.09100000 1169610.06487208 19368.74358425
0.09200000 1160756.79914339 17811.81391977
0.09300000 1151874.34116681 22738.00056314
0.09400000 1142960.55145103 16287.18862363
0.09500000 1134020.06497689 17962.87867354
0.09600000 1125053.44376654 18006.48121393
0.09700000 1116064.31911967 19687.37551483
0.09800000 1107052.66604425 18083.70615009
0.09900000 1098021.14945246 19764.38161951
0.10000000 1088968.47266749 19797.44776411
0.10100000 1079898.61373033 19826.93948059
0.10200000 1070813.15546002 18198.47043303
0.10300000 1061712.65870872 18218.99008048
0.10400000 1052600.36395753 21551.99346595
0.10500000 1043478.85041351 18250.44595240
0.10600001 1034343.81142054 19921.46274534
0.10700001 1025203.88018281 21590.79473266
0.10800001 1016055.54919148 26580.01441775
0.10900001 1006903.21594641 24920.85576759
0.11000001 997747.08304218 16612.48971459
0.11100001 988588.94117029 18269.12449282
0.11200001 979431.77710288 16601.36940344
0.11300001 970273.94960505 21569.19091522
0.11400001 961120.07569027 16579.32208629
0.11500001 951969.94530028 26502.84452513
0.11600001 942825.35957757 19855.90300775
0.11700001 933688.37373173 19831.54199203
0.11800001 924558.21470132 26405.38385552
0.11900001 915438.58156837 26364.63239099
0.12000001 906329.61898657 18094.87169542
0.12100001 897234.63733812 21345.21302781
0.12200001 888152.35226435 18025.05283839
0.12300001 879086.29101150 16351.00578318
0.12400001 870035.73429724 19575.80494405
0.12500001 861003.38483298 27664.04005823
0.12600001 851991.44805695 22722.61299045
0.12700001 843000.18664661 16185.60434638
0.12800001 834029.18275057 20980.00508086
0.12900001 825081.93134414 17698.00826148
0.13000001 816158.55632240 19245.01966519
0.13100001 807260.06809750 22377.25014247
0.13200001 798389.05735859 15927.86244515
0.13300001 789547.10898317 17456.88740259
0.13400001 780732.33459164 23714.74578127
0.13500001 771948.68965907 22046.85561613
0.13600001 763195.23674253 21957.12799638
0.13700001 754474.96790551 17179.39582927
0.13800001 745786.82170218 17104.62156232
0.13900001 737135.44050670 20123.79847483
0.14000001 728518.36890543 20030.61349771
0.14100001 719937.81818081 21468.54675067
0.14200001 711394.11087259 24415.04703669
0.14300001 702891.22370376 18218.94137775
0.14400001 694424.23027004 18124.47326498
0.14500001 686000.93042824 21032.78951909
0.14600001 677616.91970244 19423.88991958
0.14700001 669278.06230939 16343.77105264
0.14800001 660979.58365278 17727.47326993
0.14900001 652725.18982694 16154.94921042
0.15000001 644516.16214736 17517.95011371
0.15100001 636353.11007568 20312.39223206
0.15200001 628236.98996878 14418.03960013
0.15300001 620168.12406116 15758.47277602
0.15400001 612145.66491393 15655.62611898
0.15500001 604173.79586650 18378.96773762
0.15600001 596248.96729353 21062.49576369
0.15700001 588378.40164860 16733.48253265
0.15800001 580553.89665314 16615.45330644
0.15900001 572784.12763842 15121.50168340
0.16000001 565063.85212124 13646.29267287
0.16100001 557399.64126988 16253.77430668
0.16200001 549786.51912189 13442.28102709
0.16300001 542228.71043746 21342.12305033
0.16400001 534724.85026363 17204.77286946
0.16500001 527276.16427635 13129.17711033
0.16600001 519883.05659087 19534.60677369
0.16700001 512545.11888222 15499.36512680
0.16800001 505263.27209372 15370.10946281
0.16900001 498040.43060913 17780.04421228
0.17000001 490874.04658723 13850.01187845
0.17100001 483765.56391710 19969.84342150
0.17200001 476715.41687694 17319.07191300
0.17300001 469723.72750165 18389.68480013
0.17400001 462792.10515199 15792.78133414
0.17500001 455919.22576000 13239.89494136
0.17600001 449104.17331631 11923.71636469
0.17700001 442351.63827474 14172.94715972
0.17800001 435658.19791327 18715.87706634
0.17900001 429025.21546008 12742.04950102
0.18000001 422453.90660623 12616.58651674
0.18100001 415944.58655728 12490.81652434
0.18200001 409493.62208231 12364.66050286
0.18300001 403106.88237701 13350.90057501
0.18400001 396780.15028793 16515.97453596
0.18500001 390516.35719900 17432.65100892
0.18600001 384314.18915978 11858.01486674
0.18700001 378173.72706834 11730.94956789
0.18800001 372095.31601864 11603.79297828
0.18900001 366081.16733311 11476.64513814
0.19000001 360125.11947994 11349.34367665
0.19100001 354236.82701385 11222.22321005
0.19200001 348407.00034018 12103.65976373
0.19300001 342642.59000794 17947.61971269
0.19400001 336939.77532776 10841.03778345
0.19500001 331299.88149663 16558.36885967
0.19600001 325721.43845681 10587.57585737
0.19700001 320206.56737586 9510.13550049
0.19800001 314754.05478292 10334.94987721
0.19900001 309364.99062933 10209.04517325
0.20000001 304036.46841113 11000.03994699
0.20100001 298772.12482711 10863.35497214
0.20200001 293568.50970153 13408.74231436
0.20300001 288428.11235481 11473.67085177
0.20400001 283349.65231663 11326.90288673
0.20500001 278332.43228976 9460.51982070
0.20600001 273377.93152512 11883.73924512
0.20700001 268484.32399128 11727.39582628
0.20800001 263652.27683525 9092.04919645
0.20900001 258883.88102611 8970.32690159
0.21000001 254173.77009466 8849.06022416
0.21100001 249525.15475110 11108.86041467
0.21200001 244937.18775857 8608.31787073
0.21300001 240409.64302694 7717.14990600
0.21400001 235942.83386064 12174.65080278
0.21500001 231537.06151424 8251.98126250
0.21600001 227189.60756275 9613.52869853
0.21700001 222902.17820573 8017.79172914
0.21800001 218674.03163969 12211.85187430
0.21900001 214503.88508968 9202.21710544
0.22000001 210392.05165419 10461.74526316
0.22100001 206340.82881767 7558.26491697
0.22200001 202346.79051921 7445.35050920
0.22300001 198410.23911076 9999.87652403
0.22400001 194529.46237707 8534.98056538
0.22500001 190709.00973938 12283.56789817
0.22600001 186942.89076240 8911.56802406
0.22700001 183234.90204854 8146.62413032
0.22800001 179581.87128253 6168.63757027
0.22900001 175984.41556697 6678.60888660
0.23000001 172442.39503597 8962.69390586
0.23100001 168956.77491367 7643.60485858
0.23200001 165523.67271951 7520.56842569
0.23300001 162146.04408603 6829.59169991
0.23400001 158822.37951134 6158.33805681
0.23500001 155550.63656408 5506.49279480
0.23600001 152332.97033053 8664.69976222
0.23700001 149167.77877167 6922.87694023
0.23800001 146054.30289455 6806.86110836
0.23900001 142993.15907088 6692.08016105
0.24000001 139982.78691725 7084.52918098
0.24100001 137024.77655653 4973.99962428
0.24200001 134116.53589795 7332.82194708
0.24300001 131258.38951571 6725.68019693
0.24400001 128449.18389858 7552.81237051
0.24500001 125689.77671950 4637.95298034
0.24600001 122979.12939504 5923.29004751
0.24700001 120317.52586644 5818.55582615
0.24800001 117702.52829022 6594.28445941
0.24900001 115135.06898296 4749.32182023
0.25000001 112615.03852185 5511.94332121
0.25100001 110140.94697303 4579.66079180
0.25200001 107714.06718606 4496.52394741
0.25300001 105332.74624015 4815.81338594
0.25400001 102995.58312959 3939.58124109
0.25500001 100703.43198151 4253.71316815
0.25600001 98455.67536119  5313.65305065
0.25700001 96251.49654598  5959.89294811
0.25800001 94090.55290422  4386.50178394
0.25900001 91972.78072853  4663.02020357
0.26000001 89897.88683344  3871.45267966
0.26100001 87862.65323246  4488.90316604
0.26200001 85871.24236137  3387.62067145
0.26300001 83919.30133507  3655.52493913
0.26400001 82007.89638007  4889.72105303
0.26500001 80137.30116372  3197.47846773
0.26600001 78305.06165018  4390.56501449
0.26700001 76513.22428461  3383.41493797
0.26800001 74759.61506919  3619.86073295
0.26900001 73043.65337805  4437.40215270
0.27000001 71366.01599599  4061.44016253
0.27100001 69725.15511016  3413.74375574
0.27200001 68121.44893292  2789.57346582
0.27300001 66553.49833048  3008.88380191
0.27400001 65020.23886965  3218.50197636
0.27500001 63524.51767158  3681.88121849
0.27600001 62061.51353698  3094.38721140
0.27700001 60634.81761284  3034.16641694
0.27800001 59240.80311765  2975.07327337
0.27900001 57880.97874445  2674.10134455
0.28000001 56553.60848934  2622.10818171
0.28100001 55258.80206245  2571.19218166
0.28200001 53996.50169861  2750.58192671
0.28300001 52765.77727645  2247.82221837
0.28400001 51566.48438310  2645.36077406
0.28500001 50397.94839040  2810.69371477
0.28600001 49259.09424055  2332.66451817
0.28700001 48150.64436409  2704.14031548
0.28800001 47070.79897893  2448.62307878
0.28900001 46021.48466709  2202.12814555
0.29000001 44999.40353131  2160.64646283
0.29100001 44006.87831859  2505.75177007
0.29200001 43040.90313236  2648.30689509
0.29300001 42102.50964320  2228.06491579
0.29400001 41190.75465354  2551.76737158
0.29500001 40306.68734860  1968.57870329
0.29600001 39447.12720452  1757.36960015
0.29700001 38613.28200632  2071.21654487
0.29800001 37805.11508592  1865.11544106
0.29900001 37021.61798152  1999.16746564
0.30000001 36262.31221679  1800.96782150
0.30100001 35527.69554705  2735.98796360
0.30200001 34815.55027237  2373.55025218
0.30300001 34127.04875991  1867.43219655
0.30400001 33461.92336150  1530.88306626
0.30500001 32818.17312913  1656.98963974
0.30600001 32196.58704189  2372.24464556
0.30700001 31596.97873198  1751.73658383
0.30800001 31018.27727383  1725.23666365
0.30900001 30460.47942315  1416.41236024
0.31000001 29923.97442123  1535.54882013
0.31100001 29405.66568317  1376.18521913
0.31200001 28908.42896269  1492.97588446
0.31300001 28429.65902055  1740.74810425
0.31400001 27971.35312069  1850.30509654
0.31500001 27531.05948137  1826.96119369
0.31600002 27108.62668203  1675.71983769
0.31700002 26703.91194433  1528.53199207
0.31800002 26317.14076339  1888.91286773
0.31900002 25947.78985881  1619.14216385
0.32000002 25594.97001132  1478.87743728
0.32100002 25259.18984122  1342.02081981
0.32200002 24939.67701078  1449.99289006
0.32300002 24635.28388361  1197.27485344
0.32400002 24346.70063001  1424.28205430
0.32500002 24073.09536390  1294.89186094
0.32600002 23814.81830991  1168.11689341
0.32700002 23570.95578815  1275.66018766
0.32800002 23342.01180860  1382.31400476
0.32900002 23125.77336096  2060.50650403
0.33000002 22924.78045392  1138.21540344
0.33100002 22734.84618203  1585.07355087
0.33200002 22560.37755830  1915.71455108
0.33300002 22397.30617071  1458.73661998
0.33400002 22247.60581521  1341.53069419
0.33500002 22109.40527748  1225.74548663
0.33600002 21983.17543838  1222.37452814
0.33700002 21867.70367597  1219.56189176
0.33800002 21764.98342895  1217.42440575
0.33900002 21671.96057713  1215.79704595
0.34000002 21590.68269062  1214.79981912
0.34100002 21519.51746548  1435.13668774
0.34200002 21459.34975509  1214.49195691
0.34300002 21407.92113075  1325.57853919
0.34400002 21367.09158357  1658.62056273
0.34500002 21335.26275655  1771.68030321
0.34600002 21313.86629591  1442.20283122
0.34700002 21299.26051676  1111.82145163
0.34800002 21294.96949654  1226.27087654
0.34900002 21298.67881700  1229.99875994
0.35000002 21310.66052424  1458.60822866
0.35100002 21330.78331930  1126.26541260
0.35200002 21358.05081223  1696.36326611
0.35300002 21393.11061634  1249.57165028
0.35400002 21435.82851853  1712.18688401
0.35500002 21485.45673925  1262.05578864
0.35600002 21541.32388187  1268.89174336
0.35700002 21604.15275749  1508.18597544
0.35800002 21673.91764120  1400.56862431
0.35900002 21749.42220887  1291.91574040
0.36000002 21831.70603472  1182.18693778
0.36100002 21918.83299131  1904.30830048
0.36200002 22012.83616019  1558.17868140
0.36300002 22110.37491635  1569.39448590
0.36400002 22214.04959535  1337.84120025
0.36500002 22322.23653903  1348.03992845
0.36600002 22435.85533514  1235.09389470
0.36700002 22553.60755943  1867.43879438
0.36800002 22677.25992904  1506.22367583
0.36900002 22804.24360997  1518.76269637
0.37000002 22934.31946601  1786.81291424
0.37100002 23068.90890416  2059.59228453
0.37200002 23207.55075925  1428.30877914
0.37300002 23349.29618625  1440.88513591
0.37400002 23495.34124431  1453.77430836
0.37500002 23643.74594131  1866.91026796
0.37600002 23796.07549327  1614.80175947
0.37700002 23950.15723539  1765.36617345
0.37800002 24108.01828060  1507.59499460
0.37900002 24268.13532779  1521.61215714
0.38000002 24430.95298924  1396.22902948
0.38100002 24595.54921311  2536.78506602
0.38200002 24762.58078952  1564.87136713
0.38300002 24931.34904447  1723.25492759
0.38400002 25102.71079065  2029.55426357
0.38500002 25274.61993234  1609.74061975
0.38600002 25449.55456312  2068.28539733
0.38700002 25624.79696900  2386.18120680
0.38800002 25801.40135561  2107.71657659
0.38900002 25979.40386313  2431.67231679
0.39000002 26159.11798192  1994.50204502
0.39100002 26338.88051626  1703.59887250
0.39200002 26520.08078758  1563.35883649
0.39300002 26701.67328392  2051.48965560
0.39400002 26884.72277184  2070.79586961
0.39500002 27067.26923108  2411.69380275
0.39600002 27250.33546872  2434.13633107
0.39700002 27433.29680619  1801.54468662
0.39800002 27617.44705920  1818.19471329
0.39900002 27800.78480071  1834.85188378
0.40000002 27984.19855090  2356.54947162
0.40100002 28167.07187713  2038.16941760
0.40200002 28351.09739823  1885.20631082
0.40300002 28533.57387282  1902.04812448
0.40400002 28715.57425444  2965.60107164
0.40500002 28897.26276225  1935.82772416
0.40600002 29078.48709774  1775.24172143
0.40700002 29258.80401479  3223.15000299
0.40800002 29438.78284111  2709.10411931
0.40900002 29616.83563398  1821.43547779
0.41000002 29794.91729820  2020.54241231
0.41100002 29971.57099534  3334.03771550
0.41200002 30146.60886084  2988.13201187
0.41300002 30320.84024247  2071.21669510
0.41400002 30493.58447349  3037.16115747
0.41500002 30665.63416643  2296.24279519
0.41600002 30834.88706376  2121.59450495
0.41700002 31003.59751644  2138.31822203
0.41800002 31171.47709898  2155.04017135
0.41900002 31335.72222233  2171.56565291
0.42000002 31499.10613454  2387.00237598
0.42100002 31661.43925979  2004.16920011
0.42200002 31821.56893164  2422.89437326
0.42300002 31979.45251019  2237.28260363
0.42400002 32135.39077406  2663.22063660
0.42500002 32289.81705541  2269.65134837
0.42600002 32440.81358408  2285.61762937
0.42700002 32591.10134089  2301.58368576
0.42800002 32738.60127876  2528.07491054
0.42900002 32884.63059085  2333.16465098
0.43000002 33028.16975474  2562.32553099
0.43100002 33168.06756675  2794.07814423
0.43200002 33306.69676046  2163.27005710
0.43300002 33442.45603086  2830.23518801
0.43400002 33576.27323907  2190.85193267
0.43500002 33707.18846856  2865.78529940
0.43600002 33836.48690406  2883.37636817
0.43700002 33962.23076654  2677.58240052
0.43800002 34084.77257348  2244.48238033
0.43900002 34205.89048609  2483.34776697
0.44000002 34323.44687398  2497.54573014
0.44100002 34439.08837675  2511.64283434
0.44200002 34551.69978825  3214.34478363
0.44300002 34661.87230008  3462.72120688
0.44400002 34768.71613861  2552.89310346
0.44500002 34871.96426054  2566.22797155
0.44600002 34973.21056248  2579.44926728
0.44700002 35071.80787776  2592.50816119
0.44800002 35166.59882069  2605.31759710
0.44900002 35259.69618563  4046.05032905
0.45000002 35349.67079010  2391.40534228
0.45100002 35435.28530355  3123.26619467
0.45200002 35519.03327916  2896.22211084
0.45300002 35599.24103294  3636.46264386
0.45400002 35677.06371804  2434.95971416
0.45500002 35751.76233633  2445.42065970
0.45600002 35822.97166293  2946.79778865
0.45700002 35891.29982538  2465.73241486
0.45800002 35955.98396200  3960.91138098
0.45900002 36017.85597812  2982.27861633
0.46000002 36077.49947290  3991.61473086
0.46100002 36132.81581944  3004.80510596
0.46200002 36185.83543700  3267.03830727
0.46300002 36235.14183959  2774.16259072
0.46400002 36281.12178636  3036.73003745
0.46500002 36324.84249509  3554.74925505
0.46600002 36364.66055200  3311.54797012
0.46700002 36401.38712674  2810.91524715
0.46800002 36435.60708135  2819.56958763
0.46900002 36465.98028567  2827.93690519
0.47000002 36492.92135797  3351.69252098
0.47100002 36517.15245197  3878.12177421
0.47200002 36538.11362711  3629.33099860
0.47300002 36556.35769284  4418.56716376
0.47400002 36570.24465860  5732.38612194
0.47500002 36582.05130782  2873.15444590
0.47600002 36590.94856521  3141.69899272
0.47700002 36595.75289148  4460.65653137
