# SAXS profile: number of points = 501, q_min = 0, q_max = 0.5, delta_q = 0.001
#    q    intensity    error
0.00000000 1646666.22097351 271.69992646
0.00100000 1646598.64756130 592.77552720
0.00200000 1646395.87707735 1481.75633629
0.00300000 1646058.06761636 1382.68882605
0.00400000 1645585.10493998 2098.12108852
0.00500000 1644977.42424487 1628.52771446
0.00600000 1644234.76464609 2417.02520243
0.00700000 1643357.76265085 2366.43527657
0.00800000 1642345.90894743 3769.18402017
0.00900000 1641200.49575153 2707.98093375
0.01000000 1639920.71517533 4058.80394532
0.01100000 1638507.82519194 3834.10847788
0.01200000 1636961.17843139 3830.48932547
0.01300000 1635282.24266716 5151.13929159
0.01400000 1633470.30820857 3675.30835640
0.01500000 1631526.99692340 5481.93095377
0.01600000 1629451.24006990 5401.63110230
0.01700000 1627245.18087814 6590.34327819
0.01800000 1624908.29807820 5557.18662949
0.01900000 1622441.38933137 6327.52170391
0.02000000 1619845.02153032 5612.76325350
0.02100000 1617120.75188165 8004.74808474
0.02200000 1614266.81976730 9467.67532807
0.02300000 1611286.25907118 12761.38775272
0.02400000 1608178.72511947 7839.87164244
0.02500000 1604945.53702763 6885.21666830
0.02600000 1601587.02278109 6486.42773894
0.02700000 1598104.02117950 7383.24091601
0.02800000 1594496.53751874 8323.27230755
0.02900000 1590767.11295783 10021.83327178
0.03000000 1586915.93720326 8117.07539190
0.03100000 1582943.35140476 9117.75412363
0.03200000 1578850.29376109 13286.02583393
0.03300000 1574639.57460405 8833.72842077
0.03400000 1570308.98743064 11541.77159016
0.03500000 1565862.09711878 10992.35242938
0.03600000 1561298.59515322 9531.72836391
0.03700000 1556620.03987753 8872.73463764
0.03800000 1551828.19061430 13617.29300284
0.03900000 1546923.59896372 9281.54202361
0.04000000 1541905.73273046 14224.08104357
0.04100000 1536778.38197760 10649.87468090
0.04200000 1531541.78864279 10866.28949454
0.04300000 1526196.01196878 10072.89414656
0.04400000 1520744.64043866 14371.03751956
0.04500000 1515187.33421823 13591.23101945
0.04600000 1509524.42117901 11706.36243044
0.04700000 1503759.03201717 14075.18519429
0.04800000 1497891.41618469 12110.45266333
0.04900000 1491924.15423372 13427.31801311
0.05000000 1485856.76310091 13640.16572044
0.05100000 1479692.63065737 15004.08397382
0.05200000 1473429.97397498 16399.27637457
0.05300000 1467074.19897132 20201.61266159
0.05400000 1460623.34738902 15665.18613128
0.05500000 1454081.88597539 13435.71725318
0.05600000 1447447.75065967 14850.81461477
0.05700000 1440726.03907495 20054.90740006
0.05800000 1433915.55299651 19035.22985483
0.05900000 1427018.28219400 17980.43119544
0.06000000 1420036.71781684 19490.00486259
0.06100000 1412972.22263373 13140.64228457
0.06200000 1405825.54458485 19927.57802598
0.06300000 1398599.72840723 14769.21382252
0.06400000 1391292.85967014 14921.61661780
0.06500000 1383911.18789382 23291.22638177
0.06600000 1376452.55537733 17983.35347742
0.06700000 1368919.77131347 18151.87701711
0.06800000 1361315.91468881 21134.43056483
0.06900000 1353641.65089212 18477.20939976
0.07000000 1345896.35899959 14333.79689458
0.07100000 1338085.14601182 18786.71632993
0.07200000 1330206.55133779 17478.91490341
0.07300000 1322265.52742110 20548.00725891
0.07400000 1314261.52343932 19221.07568108
0.07500000 1306196.44806523 17868.76824709
0.07600000 1298070.61667504 14992.71632546
0.07700000 1289889.60987396 25655.90554336
0.07800000 1281651.73123937 21262.60321840
0.07900000 1273358.45512726 27504.54392081
0.08000000 1265014.50057371 15369.92690299
0.08100000 1256619.24223965 20093.34262616
0.08200000 1248173.78577674 17093.74079834
0.08300000 1239681.20750459 17181.98234240
0.08400000 1231142.23127963 23545.59627842
0.08500000 1222560.76613299 22079.44847288
0.08600000 1213935.58508550 20594.41816791
0.08700000 1205270.47954121 19091.48529243
0.08800000 1196564.10353876 17571.54468569
0.08900000 1187822.46508633 19242.72483822
0.09000000 1179044.24778178 27359.72305501
0.09100000 1170232.23482684 17764.12615925
0.09200000 1161387.17948000 19441.62229799
0.09300000 1152512.40708627 22750.59598498
0.09400000 1143606.51062736 17926.03289656
0.09500000 1134673.51838138 24508.94914902
0.09600000 1125714.51735072 19654.97639688
0.09700000 1116732.63515020 22982.35871186
0.09800000 1107728.40666785 23029.67465743
0.09900000 1098703.79371085 36257.22689736
0.10000000 1089658.26134783 18159.15577934
0.10100000 1080594.93812916 16533.10333096
0.10200000 1071516.14385013 19865.91024140
0.10300000 1062422.20293857 24860.68071823
0.10400000 1053316.14786760 23225.62215313
0.10500000 1044200.54858883 23243.90530520
0.10600001 1035071.64799421 18274.19080520
0.10700001 1025937.33701231 21606.24133422
0.10800001 1016794.62720436 18287.05223089
0.10900001 1007647.52266800 16626.18490654
0.11000001 998496.54681886 18287.46511577
0.11100001 989343.57382503 23269.36195173
0.11200001 980191.09774662 19937.08786675
0.11300001 971037.71039033 16604.74562944
0.11400001 961888.20445004 21570.34400042
0.11500001 952742.40011421 19893.26225112
0.11600001 943601.79660311 19872.25477228
0.11700001 934468.71323773 24810.14550489
0.11800001 925341.97789094 24776.03262494
0.11900001 916225.68379350 19790.47570210
0.12000001 907119.85064144 18110.64867116
0.12100001 898027.98102272 21364.08667495
0.12200001 888948.42071454 16401.09913486
0.12300001 879884.48991235 21275.60796847
0.12400001 870836.34524365 19593.81869119
0.12500001 861805.89976337 24432.19840955
0.12600001 852795.96779221 24368.64592800
0.12700001 843805.98656502 16201.07570555
0.12800001 834836.37350006 19384.90150627
0.12900001 825890.13405563 16104.85837314
0.13000001 816967.75227726 16053.41708892
0.13100001 808069.75892430 25599.65116943
0.13200001 799199.15079233 19132.82857190
0.13300001 790357.27218986 17474.80011193
0.13400001 781542.41967479 18991.48169346
0.13500001 772758.49903998 17340.70153604
0.13600001 764004.45083594 17270.32142546
0.13700001 755283.54648533 25014.99223913
0.13800001 746594.26160486 18679.78930621
0.13900001 737941.68242161 15496.77606165
0.14000001 729322.91875053 18510.21655084
0.14100001 720740.69000590 26098.02161597
0.14200001 712194.98814832 16804.24153794
0.14300001 703689.97410728 15199.70415765
0.14400001 695220.38686857 15121.04412765
0.14500001 686794.65379283 15040.80362757
0.14600001 678407.36004128 14958.88299459
0.14700001 670065.12599867 19338.08044863
0.14800001 661763.38514097 20706.57729797
0.14900001 653505.40803227 17644.64684936
0.15000001 645292.41235370 16077.46121237
0.15100001 637125.26423410 15979.10238096
0.15200001 629004.84165686 25984.19123496
0.15300001 620931.52983102 17212.22281914
0.15400001 612904.07730905 19950.02865787
0.15500001 604927.17669476 14155.29660269
0.15600001 596997.22918804 23900.78519854
0.15700001 589121.07800186 18150.82126990
0.15800001 581290.99838901 15250.17006252
0.15900001 573515.09935849 13764.36303429
0.16000001 565788.76233757 15030.17918096
0.16100001 558118.20228007 13562.27295560
0.16200001 550498.42467776 22881.46810187
0.16300001 542933.93374464 14691.79294070
0.16400001 535423.08247397 14576.89410852
0.16500001 527967.24882595 14461.02362807
0.16600001 520566.61955157 15648.23332252
0.16700001 513221.26710270 14226.49419579
0.16800001 505931.60458102 14107.90345987
0.16900001 498700.63785530 13988.55355235
0.17000001 491526.02200569 17650.70028369
0.17100001 484409.22758198 12497.75866178
0.17200001 477350.65931221 12387.25019411
0.17300001 470350.24490593 15958.98456331
0.17400001 463409.73165586 14597.40723654
0.17500001 456527.75193288 13257.56654225
0.17600001 449703.35970998 14327.54971704
0.17700001 442941.48100006 13009.19191140
0.17800001 436238.49918271 15226.90553317
0.17900001 429595.85724774 16238.72417098
0.18000001 423014.68996976 12633.33431268
0.18100001 416495.30907813 12507.35472242
0.18200001 410034.18930085 15757.61463919
0.18300001 403636.98449457 14482.49568781
0.18400001 397299.88648382 13230.08684491
0.18500001 391025.39177461 13091.53073509
0.18600001 384812.56787000 14032.19095031
0.18700001 378661.32436055 10678.24985146
0.18800001 372571.81786799 12674.89384271
0.18900001 366546.51133629 11491.23367332
0.19000001 360579.37574356 12396.71952379
0.19100001 354679.67388125 14300.68512660
0.19200001 348838.51445004 13128.53811167
0.19300001 343062.56831256 11979.74545155
0.19400001 337348.05217804 11840.91719098
0.19500001 331696.54700390 10727.06683702
0.19600001 326106.31759817 12527.37478253
0.19700001 320579.50914494 11425.45424586
0.19800001 315115.03663860 10346.80271701
0.19900001 309713.98610166 10220.56202438
0.20000001 304373.29727571 11929.91195054
0.20100001 299096.69295836 13593.94533744
0.20200001 293880.99842452 15212.75060245
0.20300001 288728.34229976 10602.10523035
0.20400001 283637.55049141 10466.22610783
0.20500001 278607.93719584 12913.47849941
0.20600001 273640.98009825 10195.86340040
0.20700001 268734.95574689 12576.79652345
0.20800001 263890.48571901 12409.45067753
0.20900001 259109.65575371 8161.95454207
0.21000001 254387.05494648 13687.29613843
0.21100001 249725.80852184 8735.40919505
0.21200001 245125.28004118 8614.92837431
0.21300001 240585.08673227 10039.61614397
0.21400001 236105.95323278 8375.85908691
0.21500001 231687.52225794 9008.01129127
0.21600001 227327.47918760 11839.21567583
0.21700001 223027.48123132 8022.29887918
0.21800001 218786.97191652 7905.86760400
0.21900001 214604.18277057 7790.13220290
0.22000001 210479.99265004 9768.37692076
0.22100001 206416.33749964 7561.03080012
0.22200001 202409.83885550 7447.67037285
0.22300001 198460.83425184 10002.42651926
0.22400001 194567.79442069 9849.99505832
0.22500001 190735.13673632 7112.51358523
0.22600001 186956.96394521 7002.47341570
0.22700001 183236.67327195 6893.36397447
0.22800001 179571.65990287 9869.25889498
0.22900001 175962.04053048 7891.89789101
0.23000001 172408.11930671 9558.30658639
0.23100001 168910.67766335 9404.94697708
0.23200001 165465.86545274 9252.85163372
0.23300001 162076.50116919 6826.66255211
0.23400001 158741.15497306 5595.62597745
0.23500001 155457.87794330 6053.53005342
0.23600001 152228.92882297 5952.91254318
0.23700001 149052.29404057 7449.63400850
0.23800001 145927.74816350 6800.96302484
0.23900001 142855.36042518 6171.35186227
0.24000001 139834.18390216 6066.00718460
0.24100001 136865.19874414 6955.48972918
0.24200001 133946.12189747 6835.27092375
0.24300001 131077.34700364 7196.14669090
0.24400001 128257.80151182 5184.82187138
0.24500001 125487.99975640 6482.71037408
0.24600001 122767.19120375 6367.93450897
0.24700001 120095.35562767 7148.07590511
0.24800001 117470.45137352 4826.27372300
0.24900001 114893.21167651 5170.19477003
0.25000001 112363.56051819 4653.53707901
0.25100001 109879.91509265 4568.80708570
0.25200001 107443.59882464 5300.73019879
0.25300001 105053.17011022 4803.03116467
0.25400001 102707.04340639 4714.25351539
0.25500001 100405.86116389 4626.70230133
0.25600001 98149.51296611  4918.76307502
0.25700001 95936.83308610  4455.30673931
0.25800001 93767.44068896  4371.43829175
0.25900001 91641.46930132  4646.22271341
0.26000001 89558.58141296  4207.46235386
0.26100001 87515.45117370  5502.97183018
0.26200001 85516.34482814  3710.98195941
0.26300001 83556.94100860  4632.39702871
0.26400001 81638.27468380  3894.14588668
0.26500001 79760.45504644  4137.17499903
0.26600001 77921.43979528  3120.75381147
0.26700001 76122.79812794  3672.16395546
0.26800001 74362.66604852  3600.64046045
0.26900001 72640.27110288  3824.51045455
0.27000001 70956.47086749  3172.81874498
0.27100001 69309.71364767  4524.53832103
0.27200001 67700.26210862  2772.32586454
0.27300001 66126.62213171  3533.14558770
0.27400001 64588.01901876  3729.95827485
0.27500001 63087.07967618  2872.98574442
0.27600001 61619.16778995  2816.30419712
0.27700001 60187.64493168  3011.78989492
0.27800001 58788.95818321  2952.38161969
0.27900001 57424.80922047  2653.02631155
0.28000001 56093.28470823  3073.63168106
0.28100001 54794.49324127  2317.80717381
0.28200001 53528.40374975  2272.28084672
0.28300001 52294.21113793  3118.82689988
0.28400001 51091.49599392  2839.41002425
0.28500001 49919.84064704  2355.71739163
0.28600001 48777.98354031  2729.85997804
0.28700001 47666.79380875  2676.96726701
0.28800001 46584.53676740  3634.99157602
0.28900001 45532.83151431  1980.67826463
0.29000001 44508.56616626  2137.07890563
0.29100001 43514.09584483  2096.50923704
0.29200001 42546.45181745  2991.86663342
0.29300001 41606.51152779  2018.33196975
0.29400001 40693.47792165  2881.09837323
0.29500001 39808.23351087  2474.47991217
0.29600001 38947.88803558  2776.20559060
0.29700001 38113.19249290  1703.65978508
0.29800001 37304.54759434  2342.35265433
0.29900001 36520.75964299  1807.77768791
0.30000001 35761.30164213  1776.08513014
0.30100001 35026.75728279  1745.38339803
0.30200001 34314.86257458  1559.61057785
0.30300001 33626.85953976  2146.73881465
0.30400001 32962.46590045  2262.04932951
0.30500001 32319.37357408  1780.15118074
0.30600001 31698.91545126  1605.70863820
0.30700001 31100.48676627  1724.21106795
0.30800001 30523.33997864  1556.23256249
0.30900001 29966.95149882  1950.84863493
0.31000001 29432.16888289  1373.01074339
0.31100001 28915.91408599  1759.24429628
0.31200001 28420.80197403  1467.79238744
0.31300001 27944.30205705  1842.64736488
0.31400001 27488.60413495  1948.25491031
0.31500001 27050.84000826  1410.43086481
0.31600002 26631.20385149  1519.57656371
0.31700002 26229.44495276  1501.37350018
0.31800002 25845.88666949  1360.39830926
0.31900002 25479.89114045  1345.33831592
0.32000002 25130.49493927  1331.03672748
0.32100002 24798.30212823  1557.08546436
0.32200002 24482.63247322  1304.80195944
0.32300002 24182.11282176  1292.77581267
0.32400002 23897.72671241  1514.51850211
0.32500002 23628.26091748  1270.96421493
0.32600002 23374.40316605  1490.46888846
0.32700002 23135.01856036  1252.06726378
0.32800002 22910.76177384  1243.71076179
0.32900002 22699.36446284  1573.06603176
0.33000002 22503.30049215  1452.47559905
0.33100002 22318.35872288  1222.59974873
0.33200002 22149.09108374  1438.25129763
0.33300002 21991.48905712  1211.95101933
0.33400002 21847.11048483  1207.59908924
0.33500002 21714.42332353  1422.72908353
0.33600002 21593.88931467  1528.19961917
0.33700002 21484.17767489  1524.94700358
0.33800002 21387.40640173  1196.30463373
0.33900002 21300.44520927  1520.85185997
0.34000002 21225.18281412  1302.80178283
0.34100002 21160.21105178  1302.62265404
0.34200002 21106.38350634  1194.51583111
0.34300002 21061.30838789  1304.11627714
0.34400002 21026.98114993  1196.96095865
0.34500002 21001.69462031  1307.98560290
0.34600002 20986.98721699  2075.50819912
0.34700002 20979.12306010  1314.13233072
0.34800002 20981.53922816  1098.38363062
0.34900002 20992.20062047  1212.29964325
0.35000002 21011.26085334  1438.11581722
0.35100002 21038.34961129  1555.15487692
0.35200002 21072.71847796  1562.12069476
0.35300002 21114.89589832  1121.20102530
0.35400002 21164.87182677  1690.54421723
0.35500002 21221.73427428  1473.21286310
0.35600002 21285.00429994  1367.77444110
0.35700002 21355.13312845  1376.12484398
0.35800002 21432.35162677  1731.19828465
0.35900002 21515.28327194  1161.82535172
0.36000002 21605.10502852  1520.89144052
0.36100002 21699.71133175  1413.95325735
0.36200002 21801.31898741  1899.33100015
0.36300002 21906.42230392  1435.30885734
0.36400002 22017.80146198  1326.02215586
0.36500002 22133.57993870  2187.24047315
0.36600002 22254.88546342  2082.72355475
0.36700002 22380.31008354  1729.55044518
0.36800002 22511.70739736  2616.64843328
0.36900002 22646.30179835  1256.86980935
0.37000002 22784.15358925  1394.73202803
0.37100002 22926.45251597  1407.22572209
0.37200002 23072.88188701  1936.39170409
0.37300002 23222.27743885  1823.87775644
0.37400002 23376.08145979  1840.86650216
0.37500002 23532.13749697  1592.65514124
0.37600002 23692.18086024  1473.77218023
0.37700002 23853.86117356  1893.51958966
0.37800002 24019.48526571  1502.05858225
0.37900002 24187.28392262  1792.27782357
0.38000002 24357.67563843  1948.85772015
0.38100002 24529.83596794  1546.11563430
0.38200002 24704.44997365  1419.27071822
0.38300002 24880.75746095  1719.75803717
0.38400002 25059.73443170  1881.35965159
0.38500002 25239.08573574  1753.61176000
0.38600002 25421.47796484  2213.57529866
0.38700002 25604.08145944  1937.20489500
0.38800002 25788.06269081  1956.15358809
0.38900002 25973.34750476  1671.38499111
0.39000002 26160.38198080  2301.45971380
0.39100002 26347.43456457  2013.99799353
0.39200002 26535.79123465  2033.57045761
0.39300002 26724.46289540  1737.35741514
0.39400002 26914.48612549  1754.15171634
0.39500002 27104.12015964  2414.97722064
0.39600002 27294.10044829  2763.11838979
0.39700002 27483.95087903  1804.87113974
0.39800002 27674.95774549  1821.98092950
0.39900002 27865.02085673  2173.47172980
0.40000002 28055.09911915  2531.27143795
0.40100002 28244.61302134  1703.15024588
0.40200002 28435.16401562  2234.57747004
0.40300002 28624.07838448  1734.61923229
0.40400002 28812.43862910  1925.39130261
0.40500002 29000.45021960  1766.12750205
0.40600002 29187.91010322  2316.49859510
0.40700002 29374.44461174  2516.80253358
0.40800002 29560.43354347  2176.23922058
0.40900002 29744.58179469  2743.93780057
0.41000002 29928.52638333  2029.60311285
0.41100002 30111.00330880  2419.11812045
0.41200002 30291.64848039  2064.22448350
0.41300002 30471.53370230  2459.96703235
0.41400002 30649.95808992  2480.34797595
0.41500002 30827.34510752  2500.71435361
0.41600002 31001.99976307  2327.01021248
0.41700002 31175.96444058  2150.20636935
0.41800002 31348.95915774  2758.39504699
0.41900002 31518.33744679  2184.22088856
0.42000002 31686.76929162  2001.01957558
0.42100002 31853.87793073  2419.62068227
0.42200002 32018.85032517  2641.07499422
0.42300002 32181.43685697  2660.76132542
0.42400002 32341.95346688  2267.97959433
0.42500002 32500.81809342  2699.84308695
0.42600002 32656.22735345  2300.79460721
0.42700002 32810.80780239  2738.39014895
0.42800002 32962.52118335  2333.25217253
0.42900002 33112.52385703  2776.48525698
0.43000002 33260.09415279  3440.42430220
0.43100002 33403.90342429  3030.40226226
0.43200002 33546.25362943  2396.71220413
0.43300002 33685.75791639  3070.12012199
0.43400002 33823.05543932  2648.34536640
0.43500002 33957.44836526  2887.06239683
0.43600002 34090.05768429  2681.52406452
0.43700002 34219.10785313  2697.83459099
0.43800002 34344.72658146  2261.60035256
0.43900002 34468.89706320  2502.44204538
0.44000002 34589.39443023  2516.89740499
0.44100002 34707.88246998  2991.47253185
0.44200002 34823.18806723  2776.80114807
0.44300002 34935.97354060  2326.73594807
0.44400002 35045.31317982  2339.27476561
0.44500002 35150.99814608  2821.92226490
0.44600002 35254.58117173  2363.81977959
0.44700002 35355.34786753  3088.64333608
0.44800002 35452.23796513  2865.25000813
0.44900002 35547.30569253  2639.38757276
0.45000002 35639.11775302  2410.98643025
0.45100002 35726.64500268  2664.49331058
0.45200002 35812.02281039  2676.76977182
0.45300002 35893.85683412  2444.37176625
0.45400002 35973.15718443  2455.16809420
0.45500002 36049.16004820  2712.33893057
0.45600002 36121.63820211  2723.75225772
0.45700002 36191.17346481  3480.86722882
0.45800002 36256.98421479  2745.92282965
0.45900002 36319.83321457  2756.67547164
0.46000002 36380.34528642  3773.55149368
0.46100002 36436.46088493  4797.58903210
0.46200002 36490.17656230  2787.66717060
0.46300002 36540.14142546  3560.47154925
0.46400002 36586.61667436  2807.10829738
0.46500002 36630.72377536  3072.58525590
0.46600002 36670.83438282  3339.42969135
0.46700002 36707.83027476  3865.33471113
0.46800002 36742.14908040  3360.25340341
0.46900002 36772.56422794  3370.20567123
0.47000002 36799.50013731  3379.85025030
0.47100002 36823.65400479  3649.96075795
0.47200002 36844.36289551  3136.92920560
0.47300002 36862.31406825  3407.18385082
0.47400002 36875.83505591  3678.36472117
0.47500002 36887.23188859  4213.99757069
0.47600002 36895.60132169  2639.88039969
0.47700002 36899.72347505  3439.42338813
