# SAXS profile: number of points = 501, q_min = 0, q_max = 0.5, delta_q = 0.001
#    q    intensity    error
0.00000000 1628779.37420970 268.74859674
0.00100000 1628712.37565647 684.05921402
0.00200000 1628511.32741340 806.11313260
0.00300000 1628176.39573405 1269.97763391
0.00400000 1627707.45494031 1587.01482887
0.00500000 1627104.92730734 1757.27339105
0.00600000 1626368.59460092 1878.45580324
0.00700000 1625499.05255042 3120.95831060
0.00800000 1624495.80246260 2850.99025369
0.00900000 1623360.13008264 3409.05641890
0.01000000 1622091.24744959 2676.45067386
0.01100000 1620690.37874476 4667.58849401
0.01200000 1619156.90212643 3473.09170733
0.01300000 1617492.27801079 3736.40732700
0.01400000 1615695.79211349 5089.44197078
0.01500000 1613769.02787938 4260.35042331
0.01600000 1611710.98768763 5342.82216303
0.01700000 1609523.73153829 6083.99997814
0.01800000 1607206.82625912 5954.70155924
0.01900000 1604761.00340195 4814.28322744
0.02000000 1602186.78432218 5046.88859891
0.02100000 1599485.82986922 8973.11591239
0.02200000 1596656.27371686 8262.69659188
0.02300000 1593701.21909891 9179.71943986
0.02400000 1590620.35804507 7754.27459905
0.02500000 1587414.83089863 6190.91812325
0.02600000 1584085.15631910 8981.76324714
0.02700000 1580632.01482478 7302.52024295
0.02800000 1577055.46388397 10290.28737375
0.02900000 1573358.17259445 9204.14573228
0.03000000 1569540.10383903 10217.70654565
0.03100000 1565601.75185462 8266.37763015
0.03200000 1561543.90159193 10821.49973645
0.03300000 1557369.49360683 8736.84326191
0.03400000 1553076.23914887 10599.74582127
0.03500000 1548667.81133641 11707.92919435
0.03600000 1544143.77418551 11997.99767989
0.03700000 1539505.74291753 9652.70145451
0.03800000 1534755.43222727 10773.98363285
0.03900000 1529893.36055585 10097.29664727
0.04000000 1524919.10287698 11253.90350073
0.04100000 1519836.24771278 10532.46568500
0.04200000 1514645.22090521 12700.30076649
0.04300000 1509345.97894293 12950.18910045
0.04400000 1503942.23650043 15227.41585176
0.04500000 1498433.51651388 11373.11091879
0.04600000 1492820.08992956 12629.25854790
0.04700000 1487105.22398653 13919.30554387
0.04800000 1481288.94623021 10887.47426137
0.04900000 1475374.06019589 15491.42835314
0.05000000 1469359.91440042 15736.84541603
0.05100000 1463250.04484042 11413.35088144
0.05200000 1457042.51260365 15058.53506951
0.05300000 1450742.90939478 12926.11992530
0.05400000 1444349.00335183 11915.87983334
0.05500000 1437865.38798378 14493.68378700
0.05600000 1431290.09539252 14685.03706399
0.05700000 1424628.05094215 14873.11754609
0.05800000 1417878.10056706 13803.04395352
0.05900000 1411042.35813421 12699.38181634
0.06000000 1404122.96956076 15417.27092605
0.06100000 1397121.43689480 12993.22997031
0.06200000 1390038.73282511 15763.03996706
0.06300000 1382877.67448307 17258.31418447
0.06400000 1375636.32574133 13412.45480323
0.06500000 1368321.13835579 17610.29387441
0.06600000 1360929.66233993 16412.81249575
0.06700000 1353464.81050607 16566.41005588
0.06800000 1345929.57639293 18109.48329806
0.06900000 1338324.82414683 15457.65244261
0.07000000 1330649.81177511 15588.56327493
0.07100000 1322909.55719516 15716.16627559
0.07200000 1315102.80361590 20160.52692389
0.07300000 1307234.11072738 24667.50882524
0.07400000 1299303.31647980 16078.87929496
0.07500000 1291312.02030369 17665.14926576
0.07600000 1283260.80108661 23714.66071584
0.07700000 1275155.04554793 16411.24620570
0.07800000 1266993.04854804 18016.64199527
0.07900000 1258776.32121465 18126.37987569
0.08000000 1250509.49580655 18232.42930416
0.08100000 1242192.04838986 24446.34065929
0.08200000 1233825.12924114 16897.23593786
0.08300000 1225411.36917318 21616.25756671
0.08400000 1216952.01551665 15516.13892614
0.08500000 1208450.94464282 20265.72329304
0.08600000 1199906.42852052 17224.65759014
0.08700000 1191322.91805880 18870.55590817
0.08800000 1182698.25026356 18946.82685904
0.08900000 1174039.08665751 15849.52841432
0.09000000 1165343.88067187 23860.41707761
0.09100000 1156615.44572473 20749.68207115
0.09200000 1147854.22349265 24018.85075515
0.09300000 1139064.16821588 22485.12773721
0.09400000 1130242.99040694 30601.33040345
0.09500000 1121395.60164055 17762.90716489
0.09600000 1112522.55206369 17805.92428280
0.09700000 1103626.94973050 21090.31200086
0.09800000 1094709.47496539 16256.43646758
0.09900000 1085772.18371678 17915.24187375
0.10000000 1076814.13236615 21207.85533430
0.10100000 1067838.81152039 17971.72804313
0.10200000 1058848.32581360 21266.96962429
0.10300000 1049843.11873114 21290.81944940
0.10400000 1040826.21121030 18032.31495755
0.10500000 1031800.03128967 21327.30765019
0.10600001 1022760.78270175 18056.84246824
0.10700001 1013716.76357365 18064.43357695
0.10800001 1004664.34421791 24639.39420152
0.10900001 995607.97193151 24641.29846506
0.11000001 986547.84750016 18068.62467745
0.11100001 977486.06153448 22990.47324953
0.11200001 968425.22212626 26263.69326048
0.11300001 959363.56340158 19686.14124784
0.11400001 950306.06773181 22949.89261631
0.11500001 941252.43393718 21291.13105822
0.11600001 932204.08789182 17996.20076422
0.11700001 923163.52611018 19607.99421802
0.11800001 914129.57788817 16317.21373382
0.11900001 905106.12501335 21179.48432290
0.12000001 896093.50200407 19516.91739299
0.12100001 887094.69096807 22727.36705325
0.12200001 878108.59128197 21061.43555413
0.12300001 869138.04875694 19399.16216223
0.12400001 860183.58305795 20966.97582495
0.12500001 851246.75814045 17697.42093565
0.12600001 842330.65410453 17651.03968854
0.12700001 833434.50680937 17602.13761334
0.12800001 824558.80819174 15955.21369047
0.12900001 815706.57565050 19087.53476986
0.13000001 806878.05001302 17440.66987310
0.13100001 798073.99743386 20542.42566227
0.13200001 789297.37309110 18895.78000255
0.13300001 780549.56104955 20395.76099174
0.13400001 771828.68493806 20318.39108892
0.13500001 763138.77382288 21795.24440799
0.13600001 754478.61480882 17054.98989191
0.13700001 745851.55306564 18526.95345176
0.13800001 737256.15608977 18446.14989521
0.13900001 728697.22651304 24484.22796547
0.14000001 720172.15077222 16754.80587788
0.14100001 711683.44430150 19706.51550213
0.14200001 703231.12670274 15084.30837923
0.14300001 694819.37367880 16508.90909729
0.14400001 686443.05888691 22395.20585256
0.14500001 678110.36994956 19305.80314316
0.14600001 669815.92213605 19200.27431379
0.14700001 661566.59648589 16155.45704834
0.14800001 653357.28890163 16062.78970547
0.14900001 645191.77801701 17420.17882836
0.15000001 637070.90511320 21644.48502247
0.15100001 628995.81354992 14341.10522562
0.15200001 620966.99321875 14251.19316684
0.15300001 612985.22973668 21239.93921267
0.15400001 605049.22173879 16880.87408314
0.15500001 597163.36294380 15370.98568758
0.15600001 589323.92536090 13878.57909725
0.15700001 581538.46890685 13782.46236358
0.15800001 573798.59938512 19159.13613776
0.15900001 566112.66466313 17662.71597118
0.16000001 558476.07417620 18882.07695918
0.16100001 550894.66831913 20080.11160810
0.16200001 543364.01775403 15942.30103348
0.16300001 535888.17014789 14501.13456877
0.16400001 528465.71049327 14387.47964741
0.16500001 521097.76019629 15570.40180976
0.16600001 513785.11453841 18018.44481757
0.16700001 506526.84002584 16593.82006272
0.16800001 499324.22215781 12657.86962936
0.16900001 492179.81328377 12550.58583135
0.17000001 485091.01776120 12442.58519311
0.17100001 478060.05039319 14800.73985908
0.17200001 471086.91579089 12224.70604206
0.17300001 464171.32160335 14537.84647916
0.17400001 457315.31717846 20407.69699286
0.17500001 450517.38212820 13083.02539488
0.17600001 443776.66756119 12960.49818824
0.17700001 437098.01414530 11670.51752889
0.17800001 430477.61187934 12714.15686737
0.17900001 423917.16482350 13734.91678903
0.18000001 417417.74137581 11332.89221366
0.18100001 410979.81042327 13463.69922544
0.18200001 404599.44127958 13327.50622531
0.18300001 398282.42634706 12091.85503511
0.18400001 392025.34308170 13054.44454132
0.18500001 385830.01144522 11841.12361065
0.18600001 379696.02132771 12780.56868169
0.18700001 373622.87139301 10536.16547106
0.18800001 367611.29373150 13548.31487058
0.18900001 361663.15908291 13399.62067712
0.19000001 355772.65671208 14270.04193496
0.19100001 349949.15662595 12094.24342445
0.19200001 344183.25813648 13949.74811142
0.19300001 338482.47259170 11819.80850142
0.19400001 332842.41567560 10709.20523041
0.19500001 327264.81844856 9621.58611706
0.19600001 321747.72150578 11409.17474375
0.19700001 316293.82768318 13151.49797657
0.19800001 310901.28361261 11136.48450530
0.19900001 305571.72917112 11000.58277005
0.20000001 300302.08295377 9054.10822896
0.20100001 295095.78598133 11623.82355917
0.20200001 289949.76149846 9711.86772041
0.20300001 284866.19889081 10460.28731767
0.20400001 279843.83037546 9465.71800985
0.20500001 274882.14470574 10192.63040746
0.20600001 269982.45031980 13412.72876588
0.20700001 265142.98532255 11581.44614633
0.20800001 260364.64297505 12243.64791466
0.20900001 255649.16705985 9663.53897167
0.21000001 250991.17517781 8738.25817689
0.21100001 246394.11527398 11752.99985417
0.21200001 241856.94163346 8500.06261554
0.21300001 237379.52835182 9905.84818643
0.21400001 232962.40692745 11269.55696790
0.21500001 228605.39882308 9628.85985366
0.21600001 224306.37961220 8761.40760188
0.21700001 220066.64807241 9355.03365186
0.21800001 215885.57924246 7801.02577476
0.21900001 211761.68955609 7686.94969434
0.22000001 207695.65459838 8262.13353058
0.22100001 203689.54387506 7461.14834493
0.22200001 199739.84181133 6681.29802451
0.22300001 195846.91103868 8554.59347868
0.22400001 192009.43373105 7128.35056434
0.22500001 188231.71189224 7657.26640187
0.22600001 184507.51192236 6910.72918585
0.22700001 180840.90554974 6803.23518850
0.22800001 177228.65955166 6696.58521784
0.22900001 173671.14607562 7789.15126985
0.23000001 170168.66294650 7075.61333993
0.23100001 166722.01406250 7542.50427289
0.23200001 163327.23542435 7420.77329246
0.23300001 159987.31073480 7861.77682133
0.23400001 156700.71513145 6076.07051659
0.23500001 153465.48344471 5975.94620798
0.23600001 150283.86064758 6411.10979845
0.23700001 147154.06190093 7354.76036167
0.23800001 144075.40296178 7231.14481668
0.23900001 141048.44664848 6093.29318342
0.24000001 138071.86019234 5490.42778025
0.24100001 135146.93366374 5396.41731645
0.24200001 132271.13997018 5785.53993596
0.24300001 129445.04377735 6158.99547426
0.24400001 126667.45998438 6517.04112448
0.24500001 123938.84643912 5030.67801494
0.24600001 121258.73920747 8086.74570029
0.24700001 118626.78966074 5736.79181938
0.24800001 116041.09523132 5200.96213431
0.24900001 113502.54229227 4681.98009105
0.25000001 111010.90472278 5433.42898870
0.25100001 108564.50083405 6976.35515364
0.25200001 106164.78327265 5237.63983055
0.25300001 103810.34224129 4746.20907182
0.25400001 101499.41491568 5435.29392589
0.25500001 99232.93649507  4953.70842420
0.25600001 97010.55169001  4487.70833351
0.25700001 94831.20230797  4036.96447325
0.25800001 92694.47698248  3601.18060116
0.25900001 90600.55576499  3533.42184202
0.26000001 88549.13799661  4853.37848323
0.26100001 86536.81393628  5101.34542292
0.26200001 84567.73167861  5004.29575887
0.26300001 82637.77652809  4254.19293696
0.26400001 80748.14076147  4814.60812072
0.26500001 78898.55637360  3777.66305792
0.26600001 77087.05519168  4013.53771847
0.26700001 75315.51299792  3027.68376579
0.26800001 73581.79624283  3265.92818078
0.26900001 71885.21323029  3784.75665568
0.27000001 70226.63537197  3425.65543555
0.27100001 68604.27916227  3918.67661119
0.27200001 67018.90392821  3018.86667031
0.27300001 65468.59654119  2690.75944518
0.27400001 63952.89433281  3429.47412090
0.27500001 62474.06661443  2845.06912827
0.27600001 61027.65895481  2535.69934958
0.27700001 59617.28512962  2983.24908907
0.27800001 58239.13720711  3168.50040971
0.27900001 56894.95062206  4062.29966668
0.28000001 55582.64297661  2577.08936358
0.28100001 54302.73204285  2297.00567413
0.28200001 53054.85404899  2702.61439317
0.28300001 51838.24704228  2649.97131423
0.28400001 50652.77396414  2165.40618946
0.28500001 49497.66280247  3185.17475210
0.28600001 48371.93518751  2082.41190839
0.28700001 47276.29032471  2450.80300644
0.28800001 46208.93767224  2203.47329720
0.28900001 45171.65701530  2357.96060781
0.29000001 44161.41183257  2505.93943306
0.29100001 43180.49065709  2836.95837046
0.29200001 42225.77132695  2041.40501143
0.29300001 41298.29304511  1821.25480950
0.29400001 40397.24725553  2502.60958594
0.29500001 39523.59118207  2456.78654417
0.29600001 38674.16868902  2412.10801532
0.29700001 37850.09928512  2368.65932539
0.29800001 37051.45788782  2326.46115091
0.29900001 36277.28135255  1958.97328577
0.30000001 35527.07066794  1924.85677991
0.30100001 34801.16001948  2207.08967292
0.30200001 34097.53327362  1704.70625672
0.30300001 33417.35769384  1523.83158298
0.30400001 32760.30692108  2547.93299141
0.30500001 32124.23275796  2064.30329476
0.30600001 31510.32078505  2031.47047719
0.30700001 30918.05803087  1428.41434865
0.30800001 30346.58129300  1687.87693143
0.30900001 29795.52559827  2078.23800887
0.31000001 29265.73618708  1774.82065509
0.31100001 28753.95399048  1480.25362151
0.31200001 28263.06255833  2123.12135990
0.31300001 27790.31630762  1439.81635607
0.31400001 27337.92049587  1679.23184596
0.31500001 26903.37706431  1657.78617319
0.31600002 26486.27664684  1511.30701703
0.31700002 26086.87257774  1617.64704514
0.31800002 25705.33967832  1353.00061803
0.31900002 25340.92511916  1459.63735598
0.32000002 24992.81179975  1323.74433965
0.32100002 24661.61500683  1548.50287960
0.32200002 24346.62406441  1297.55339095
0.32300002 24046.50689784  1519.25837774
0.32400002 23762.10626787  2085.12492374
0.32500002 23492.50585839  1493.41866813
0.32600002 23238.11955995  1481.77876391
0.32700002 22997.83750379  1470.94175640
0.32800002 22772.43448490  1236.20166455
0.32900002 22559.67476993  1340.04474479
0.33000002 22361.83673443  1110.26524644
0.33100002 22175.09371759  1325.18366332
0.33200002 22003.66807651  1758.53323595
0.33300002 21843.56962063  1532.10804574
0.33400002 21696.53075776  1308.30086665
0.33500002 21560.99035612  1412.67615503
0.33600002 21437.33867259  1300.38902546
0.33700002 21324.27882316  1297.36918504
0.33800002 21223.94948142  1295.08545869
0.33900002 21133.11184249  1185.56763051
0.34000002 21053.98823393  1292.29385900
0.34100002 20984.78825753  1291.82362631
0.34200002 20926.47944261  1399.66764381
0.34300002 20876.92862304  1184.97452476
0.34400002 20837.74526332  1294.02404214
0.34500002 20807.53744058  1187.90236874
0.34600002 20787.76014572  1082.00296683
0.34700002 20774.60265169  1518.20803369
0.34800002 20771.64324877  1304.87469069
0.34900002 20776.74427946  1418.01286423
0.35000002 20790.07361122  1313.51691297
0.35100002 20811.36338847  1428.49205064
0.35200002 20839.79631563  1213.81399389
0.35300002 20875.80581918  1662.75801225
0.35400002 20919.60820530  1336.76302763
0.35500002 20970.16976984  1231.78783062
0.35600002 21026.90923950  1238.59014742
0.35700002 21090.55217987  1585.58778798
0.35800002 21161.05734796  1709.28448824
0.35900002 21237.29769394  1261.49554277
0.36000002 21320.32779152  1385.39496551
0.36100002 21407.99849077  1511.19068504
0.36200002 21502.65259590  1522.06533610
0.36300002 21600.66544183  1297.33602789
0.36400002 21704.90085683  1426.01205384
0.36500002 21813.55286398  1317.32051985
0.36600002 21927.61528383  1569.24986212
0.36700002 22045.73877684  1216.92483813
0.36800002 22169.84193160  1472.52097085
0.36900002 22297.20681880  1608.74354818
0.37000002 22427.53467613  1248.09236385
0.37100002 22562.47391635  1384.88471459
0.37200002 22701.43431163  1524.17437188
0.37300002 22843.38917269  1794.11987061
0.37400002 22989.69057026  1939.75523375
0.37500002 23138.35201790  1435.50342719
0.37600002 23290.90249408  1580.52071812
0.37700002 23445.13123506  1329.33900400
0.37800002 23603.35670772  1476.03598164
0.37900002 23763.64152555  1625.43315735
0.38000002 23926.60545014  1777.62723613
0.38100002 24091.38419507  1932.61093168
0.38200002 24258.60893455  1672.38857917
0.38300002 24427.48402037  2391.93934859
0.38400002 24599.10996955  1704.71840165
0.38500002 24771.07476254  2151.36794505
0.38600002 24946.29060646  1592.94546214
0.38700002 25121.73729063  2046.91925141
0.38800002 25298.57363132  2361.87494611
0.38900002 25476.68101739  1937.50168316
0.39000002 25656.69347090  1956.19468637
0.39100002 25836.77497866  1823.04292886
0.39200002 26018.10865620  1840.52109354
0.39300002 26200.03921507  2012.94910826
0.39400002 26383.26260431  1875.85006004
0.39500002 26566.20986881  1735.83623507
0.39600002 26749.57493210  2070.81844148
0.39700002 26932.85615509  2251.04822409
0.39800002 27117.32896036  2434.45832276
0.39900002 27301.06944744  1965.67709335
0.40000002 27484.99261125  1983.86686067
0.40100002 27668.16721731  2002.06867470
0.40200002 27852.68374871  1852.06429362
0.40300002 28035.62441401  2038.75070398
0.40400002 28218.11245088  1714.25041261
0.40500002 28400.31648027  2594.36903339
0.40600002 28582.11595385  2442.91356632
0.40700002 28763.09759562  2640.45248438
0.40800002 28943.73625817  1953.26813393
0.40900002 29122.48715776  1791.03304506
0.41000002 29301.24173937  1987.06380271
0.41100002 29478.61329516  2368.31190435
0.41200002 29654.35969103  2388.21397088
0.41300002 29829.43394877  2037.64872959
0.41400002 30003.16149767  2614.77564842
0.41500002 30176.05768591  2824.47913323
0.41600002 30346.20145680  2467.60148838
0.41700002 30515.94977894  2104.68515598
0.41800002 30684.75338992  2699.95157871
0.41900002 30850.14028458  1943.55893002
0.42000002 31014.61244585  3329.57387689
0.42100002 31178.08521894  2763.00204303
0.42200002 31339.45283442  1988.48837657
0.42300002 31498.59801338  2403.97311429
0.42400002 31655.83090370  3834.31269990
0.42500002 31811.52941397  3049.13523881
0.42600002 31964.01543238  3480.40198528
0.42700002 32115.76625871  2268.01552066
0.42800002 32264.72976150  2491.48255025
0.42900002 32412.28113257  2926.82912497
0.43000002 32557.42640719  2315.32148866
0.43100002 32698.96812845  2754.56120567
0.43200002 32839.35010085  2346.20747914
0.43300002 32976.90519943  2361.47629324
0.43400002 33112.44828117  2376.64608801
0.43500002 33245.34934822  3043.94433057
0.43600002 33376.47620604  2406.61093088
0.43700002 33504.19124706  2421.34801617
0.43800002 33628.80653666  3543.13122461
0.43900002 33752.01741678  2673.15990609
0.44000002 33871.71062655  2240.61376413
0.44100002 33989.56095857  2929.56039785
0.44200002 34104.44518184  2492.86453870
0.44300002 34216.95252423  2734.61897533
0.44400002 34326.23778040  2749.53177651
0.44500002 34431.91749624  2303.49538966
0.44600002 34535.63751722  2547.17606580
0.44700002 34636.72352958  2560.34672465
0.44800002 34734.22596623  3041.15529860
0.44900002 34829.95475032  2351.02205707
0.45000002 34922.61455279  2598.76648511
0.45100002 35011.10429437  3323.25417712
0.45200002 35097.66591020  2384.88651162
0.45300002 35180.88113268  2874.98174242
0.45400002 35261.67124798  2406.60917673
0.45500002 35339.33717052  3384.09508783
0.45600002 35413.56492222  2670.35998952
0.45700002 35485.12819951  2437.82842284
0.45800002 35553.04921308  2937.39306520
0.45900002 35618.12811940  3194.94624373
0.46000002 35681.17338689  2960.82390797
0.46100002 35739.94777297  3467.48989727
0.46200002 35796.38619455  2983.27096685
0.46300002 35849.22595564  2994.12749372
0.46400002 35898.72975897  2754.33017130
0.46500002 35946.00569463  2512.62591714
0.46600002 35989.57014953  2773.17645931
0.46700002 36030.08523655  3541.03694488
0.46800002 36068.01901492  3552.33936115
0.46900002 36102.25300118  2545.20895722
0.47000002 36133.20584699  3318.65444831
0.47100002 36161.44575557  3584.32267318
0.47200002 36186.41033574  3080.91112201
0.47300002 36208.59991222  2831.87473336
0.47400002 36226.72702575  3613.61619209
0.47500002 36242.70881987  3105.27543887
0.47600002 36255.89398591  3891.16400647
0.47700002 36265.05909593  2860.22534647
