# SAXS profile: number of points = 501, q_min = 0, q_max = 0.5, delta_q = 0.001
#    q    intensity    error
0.00000000 1628779.37420969 366.47535920
0.00100000 1628712.37067748 586.33646737
0.00200000 1628511.30326449 732.83010967
0.00300000 1628176.34694510 1172.28701156
0.00400000 1627707.36713343 1342.85862891
0.00500000 1627104.78351339 1610.83379944
0.00600000 1626368.39761825 1878.45557572
0.00700000 1625498.78890086 3120.95780440
0.00800000 1624495.44354376 2850.98962379
0.00900000 1623359.68293852 2678.54359135
0.01000000 1622090.70778498 3479.38471844
0.01100000 1620689.71289094 3792.41409328
0.01200000 1619156.12175284 3788.82549102
0.01300000 1617491.35201408 5774.44438137
0.01400000 1615694.71554595 5089.43857959
0.01500000 1613767.79476211 5422.26003185
0.01600000 1611709.57856781 4109.85960907
0.01700000 1609522.14178448 5649.42297109
0.01800000 1607205.04376140 5954.69495508
0.01900000 1604759.03048006 5295.70503954
0.02000000 1602184.60169754 5551.56989601
0.02100000 1599483.41066876 5278.29549452
0.02200000 1596653.64487652 5508.45532509
0.02300000 1593698.35355503 6311.04576735
0.02400000 1590617.20622084 7157.77775437
0.02500000 1587411.44423349 8048.17638983
0.02600000 1584081.48758246 7057.08334996
0.02700000 1580628.06029980 9957.95723597
0.02800000 1577051.23262914 8232.20781185
0.02900000 1573353.61800460 7080.09160610
0.03000000 1569535.26952913 8758.00720654
0.03100000 1565596.54965632 9769.32291937
0.03200000 1561538.39993932 8502.57697928
0.03300000 1557363.65905912 9531.06603283
0.03400000 1553070.06140354 10599.70365815
0.03500000 1548661.27086446 10035.32549861
0.03600000 1544136.86952976 10283.95202633
0.03700000 1539498.44000611 10530.16981664
0.03800000 1534747.72862690 10773.92955357
0.03900000 1529885.29412443 10097.24340882
0.04000000 1524910.59797683 14067.30091820
0.04100000 1519827.36256211 10532.40411091
0.04200000 1514635.91733897 12700.22275609
0.04300000 1509336.30531087 9961.62007745
0.04400000 1503932.07995639 13197.00461451
0.04500000 1498422.86731010 11373.03009133
0.04600000 1492809.04694065 13681.59555123
0.04700000 1487093.64329803 11777.78220268
0.04800000 1481276.95752944 14153.60198773
0.04900000 1475361.68361238 14384.77708480
0.05000000 1469346.97134619 15736.70679592
0.05100000 1463236.66921022 12554.57120667
0.05200000 1457028.64751706 12741.71611632
0.05300000 1450728.50881463 11750.90146920
0.05400000 1444334.12827447 17873.63567091
0.05500000 1437849.97500360 12077.94035346
0.05600000 1431274.15788164 13461.13408303
0.05700000 1424611.66214647 12394.12203921
0.05800000 1417861.12008878 15057.68579842
0.05900000 1411024.78912507 13969.14606478
0.06000000 1404104.90949965 16701.82867879
0.06100000 1397102.98366626 18190.28169739
0.06200000 1390019.61644203 18389.96038514
0.06300000 1382858.02092962 17258.06890811
0.06400000 1375616.17692495 14753.48418749
0.06500000 1368300.34996375 21673.87855728
0.06600000 1360908.29494716 16412.55480498
0.06700000 1353442.92630384 13805.11849436
0.06800000 1345907.09561540 15323.15300084
0.06900000 1338301.75178316 18267.81976712
0.07000000 1330626.11516861 19839.63630622
0.07100000 1322885.32753710 14287.16220658
0.07200000 1315077.92098961 21600.15586415
0.07300000 1307208.68889203 17412.02055189
0.07400000 1299277.22548447 17540.24336605
0.07500000 1291285.47531567 20608.91715203
0.07600000 1283233.62417721 14821.34905408
0.07700000 1275127.16349640 16410.88736368
0.07800000 1266964.62411158 15013.53149980
0.07900000 1258747.36596068 16615.46601001
0.08000000 1250479.84054401 22789.99616302
0.08100000 1242161.73807694 25973.60316182
0.08200000 1233794.21476136 18432.88643350
0.08300000 1225379.83780773 20071.72268530
0.08400000 1216920.03363371 17067.30427283
0.08500000 1208418.21747984 17147.45531103
0.08600000 1199873.12500662 20355.84852147
0.08700000 1191289.03073742 18870.01913297
0.08800000 1182663.75315063 17367.41803066
0.08900000 1174003.97906218 17433.95990794
0.09000000 1165308.21305605 17497.10364097
0.09100000 1156579.07767893 22345.10883056
0.09200000 1147817.28658334 16012.05190019
0.09300000 1139026.50118632 19272.32930572
0.09400000 1130204.86559547 19326.50410998
0.09500000 1121356.77253039 19377.04594010
0.09600000 1112483.18054791 22661.28345302
0.09700000 1103587.04139716 19467.27632546
0.09800000 1094668.82347572 22758.16591010
0.09900000 1085730.97326543 16285.96536479
0.10000000 1076772.39514201 22838.34357498
0.10100000 1067796.50644716 24505.93097552
0.10200000 1058805.37698839 17994.39822831
0.10300000 1049799.55671255 18014.56124061
0.10400000 1040781.98758343 18031.54878318
0.10500000 1031755.35054076 24607.36626816
0.10600001 1022715.56583047 16414.58560394
0.10700001 1013670.89418309 19705.76311023
0.10800001 1004617.95335442 19710.60517243
0.10900001 995561.02794957 21354.78505460
0.11000001 986500.33231589 18067.75443681
0.11100001 977437.98233034 16420.95887614
0.11200001 968376.52840380 16413.98292917
0.11300001 959314.52589488 21325.56291467
0.11400001 950256.41809007 32783.84796772
0.11500001 941202.21961084 18014.61133162
0.11600001 932153.34654005 24538.93800324
0.11700001 923112.34460208 16339.08926895
0.11800001 914077.83536645 17947.91914274
0.11900001 905053.90287527 19549.16522290
0.12000001 896040.72828282 27647.33797349
0.12100001 887041.36402038 21102.71504415
0.12200001 878054.80374351 24300.16783841
0.12300001 869083.87923686 21014.44919003
0.12400001 860128.81013964 20965.64073500
0.12500001 851191.59292124 17696.27405069
0.12600001 842274.91813671 17649.87174128
0.12700001 833378.45597742 16000.86710883
0.12800001 824502.27837037 19144.94380605
0.12900001 815649.65409517 15905.16900450
0.13000001 806820.54867780 17439.42698168
0.13100001 798016.26400363 17380.79504929
0.13200001 789239.27610690 22043.45402080
0.13300001 780491.03605422 20394.23173354
0.13400001 771769.68900861 17191.17063316
0.13500001 763079.43427897 18680.18543189
0.13600001 754418.85029315 23254.96215678
0.13700001 745791.37808569 23156.82338148
0.13800001 737195.60188537 19981.68773135
0.13900001 728636.33171890 19891.77279399
0.14000001 720110.98281093 22845.52200708
0.14100001 711621.95038227 21220.56756122
0.14200001 703169.39662113 15082.98426892
0.14300001 694757.15048945 16507.43067425
0.14400001 686380.59873036 20900.29021720
0.14500001 678047.66332263 14849.24452724
0.14600001 669752.99794606 14768.05430138
0.14700001 661503.41100075 23496.60226723
0.14800001 653293.87717060 17521.34261235
0.14900001 645128.08240336 20321.53555449
0.15000001 637006.96814812 15871.02936025
0.15100001 628931.63251875 20075.49865726
0.15200001 620902.60379682 17099.65851545
0.15300001 612920.67746276 15574.31514927
0.15400001 604984.42394341 18285.65507661
0.15500001 597098.38552932 20958.15432116
0.15600001 589258.84966170 15264.75122091
0.15700001 581473.32774884 15159.01036987
0.15800001 573733.22313707 15051.89181943
0.15900001 566047.22562861 13585.13405631
0.16000001 558410.45386865 16182.73571698
0.16100001 550828.98037065 17400.68831130
0.16200001 543298.17887821 14612.00521070
0.16300001 535822.30219049 13181.22925614
0.16400001 528399.80624451 15693.47498634
0.16500001 521031.80353416 14271.06177256
0.16600001 513719.06532621 21876.72742978
0.16700001 506460.81251889 14039.09438588
0.16800001 499258.12388080 13921.81344175
0.16900001 492113.67307967 12548.89925607
0.17000001 485025.04654007 13684.98233433
0.17100001 477994.07215962 13565.47240847
0.17200001 471020.83296675 15889.88855050
0.17300001 464105.45633421 13324.46828060
0.17400001 457249.38927061 13203.07673872
0.17500001 450451.54475315 11891.92134311
0.17600001 443710.78257726 14136.62620057
0.17700001 437032.33939815 12835.64041436
0.17800001 430411.99383162 15023.53135429
0.17900001 423851.75957777 16021.59726880
0.18000001 417352.42501502 14730.45453670
0.18100001 410914.58252153 23557.73412874
0.18200001 404534.40685903 14435.81099068
0.18300001 398217.63206246 14288.04931336
0.18400001 391960.59359276 10876.90698603
0.18500001 385765.47571762 11839.14300908
0.18600001 379631.72976894 15973.00578465
0.18700001 373558.79484519 11587.79436356
0.18800001 367547.50652634 12503.96676279
0.18900001 361599.60109161 17519.50150064
0.19000001 355709.30100182 10191.07195522
0.19100001 349886.17104213 17130.42774364
0.19200001 344120.57910814 11954.74948309
0.19300001 338419.98080935 12802.42847897
0.19400001 332780.23515057 13627.35127336
0.19500001 327202.97170996 10581.74460514
0.19600001 321686.19608841 10456.41029799
0.19700001 316232.61466049 10331.32000919
0.19800001 310840.53701477 11134.30856206
0.19900001 305511.29600104 11914.94110714
0.20000001 300241.97589598 12673.21440152
0.20100001 295036.14793141 12515.43398676
0.20200001 289890.59521845 9709.88594577
0.20300001 284807.43341923 9586.61866200
0.20400001 279785.54117076 8603.40579765
0.20500001 274824.28633792 11039.69210401
0.20600001 269925.05676257 9219.29074950
0.20700001 265086.04083669 12406.02729758
0.20800001 260308.19814206 14689.19231552
0.20900001 255593.16030437 9661.42191621
0.21000001 250935.70312246 10324.74999305
0.21100001 246339.09917980 9400.30046909
0.21200001 241802.45153448 8498.14756092
0.21300001 237325.64863348 8379.96904942
0.21400001 232909.07213456 10515.84510403
0.21500001 228552.69992541 7405.10782768
0.21600001 224254.23531905 7299.47570474
0.21700001 220014.94800072 12230.63153762
0.21800001 215834.51972063 9217.21360046
0.21900001 211711.28023372 9781.06160926
0.22000001 207645.82446510 11013.53505038
0.22100001 203640.22331695 7459.34173280
0.22200001 199691.25294653 10687.47636305
0.22300001 195799.06242506 8552.50345114
0.22400001 191962.21055804 7774.46989523
0.22500001 188185.14693715 7655.37213940
0.22600001 184461.60376204 6280.91790511
0.22700001 180795.52505352 7419.84869907
0.22800001 177184.03042739 6086.27173300
0.22900001 173627.30500627 8386.19922839
0.23000001 170125.48671645 8842.27259025
0.23100001 166679.55429206 6380.49364005
0.23200001 163285.62514059 6277.51615542
0.23300001 159946.40525057 5614.11908981
0.23400001 156660.51727890 6074.51184479
0.23500001 153426.09949299 5974.41259682
0.23600001 150245.25337872 5875.34091126
0.23700001 147116.14221761 7352.86513581
0.23800001 144038.22611802 6196.52478068
0.23900001 141012.04087717 6091.72045403
0.24000001 138036.27463425 5988.01387687
0.24100001 135112.23804593 4904.57447306
0.24200001 132237.26311743 6748.06785608
0.24300001 129411.92872649 7104.71522316
0.24400001 126635.08618201 6049.99152853
0.24500001 123907.39172145 5943.83786205
0.24600001 121228.16286745 4940.65401138
0.24700001 118597.02576900 4852.99052404
0.24800001 116012.27225680 5199.67028853
0.24900001 113474.45476882 5531.87993168
0.25000001 110983.70789404 6685.65887982
0.25100001 108538.09527903 5743.83627390
0.25200001 106139.31451524 5236.38332934
0.25300001 103785.72853081 5535.93102174
0.25400001 101475.65792737 4269.58850929
0.25500001 99210.17969912  3809.67108069
0.25600001 96988.65505032  4486.69539491
0.25700001 94810.20272515  6237.56353241
0.25800001 92674.37644823  5400.59954304
0.25900001 90581.37594906  3885.94121208
0.26000001 88530.88925190  5545.57516513
0.26100001 86519.46730267  3400.21522588
0.26200001 84551.29009281  3335.54855199
0.26300001 82622.29021813  3926.21141694
0.26400001 80733.50287565  3530.07258027
0.26500001 78884.89960430  3462.25840746
0.26600001 77074.33007905  5556.28871832
0.26700001 75303.72476413  4238.09383027
0.26800001 73570.85598848  3265.44259757
0.26900001 71875.19916695  3784.22941522
0.27000001 70217.56230595  3425.21285137
0.27100001 68596.22001366  3358.47109080
0.27200001 67011.76819852  3292.95844511
0.27300001 65462.37719456  3228.60459603
0.27400001 63947.59533546  4484.32533512
0.27500001 62469.72804295  2586.24686337
0.27600001 61024.35694798  2789.11836631
0.27700001 59614.90454507  2485.94163718
0.27800001 58237.66350915  3412.14486649
0.27900001 56894.34764708  2628.51898570
0.28000001 55583.06911038  2577.10912127
0.28100001 54303.97613019  3904.99910834
0.28200001 53057.13317762  2702.73049199
0.28300001 51841.54144418  3312.67465507
0.28400001 50656.92471909  2598.70036109
0.28500001 49502.79025796  2336.03678284
0.28600001 48377.94218852  2082.67050979
0.28700001 47283.25405496  2451.16400623
0.28800001 46216.89648122  3005.25383594
0.28900001 45180.51699019  3341.09938957
0.29000001 44171.21746929  2313.68848056
0.29100001 43191.21420559  2270.13032610
0.29200001 42237.39585762  2227.60036298
0.29300001 41310.86259740  1821.80912678
0.29400001 40410.76854466  2145.81191130
0.29500001 39537.96927459  1931.03451078
0.29600001 38689.45751389  1895.97695522
0.29700001 37866.34117647  1861.88808379
0.29800001 37068.60148987  1828.77954107
0.29900001 36295.36841607  2776.59581527
0.30000001 35545.95283057  2246.85978479
0.30100001 34820.90864556  1892.86468358
0.30200001 34118.20042234  2015.87396739
0.30300001 33438.95798725  1829.77986769
0.30400001 32782.75875989  1649.79241270
0.30500001 32147.55909809  1623.13033571
0.30600001 31534.52963200  1887.81470579
0.30700001 30943.12270751  1572.52957044
0.30800001 30372.51945502  1970.87288074
0.30900001 29822.26558209  2218.77666435
0.31000001 29293.34452197  2049.80187997
0.31100001 28782.37939921  1481.71696162
0.31200001 28292.31155297  1461.15649933
0.31300001 27820.37114324  2096.54326862
0.31400001 27368.83044672  1681.13048979
0.31500001 26935.03187051  1659.73674244
0.31600002 26518.81806131  1765.35780193
0.31700002 26120.21564378  1744.30808328
0.31800002 25739.40376915  1477.95663440
0.31900002 25375.82380910  1583.45148066
0.32000002 25028.44550908  1566.65562082
0.32100002 24697.90285489  1312.19964081
0.32200002 24383.77027222  2008.36933357
0.32300002 24084.36583479  1170.50023499
0.32400002 23800.78232147  1740.43228967
0.32500002 23531.84132489  1380.84851433
0.32600002 23278.10856988  1370.14953530
0.32700002 23038.59344940  1813.59816222
0.32800002 22813.89240690  1688.79846539
0.32900002 22601.82115919  1230.66922039
0.33000002 22404.68197386  1223.63176395
0.33100002 22218.61426016  1327.78445106
0.33200002 22047.74752956  1321.54204950
0.33300002 21888.43201465  1206.27154545
0.33400002 21741.98951085  1311.04202959
0.33500002 21607.03124669  1306.79331168
0.33600002 21484.02605817  1520.42459614
0.33700002 21371.50260391  1083.53523333
0.33800002 21271.80993448  1622.50737959
0.33900002 21181.56680158  1188.28595384
0.34000002 21102.99394490  1187.36001054
0.34100002 21034.34753024  1186.96828734
0.34200002 20976.66300184  1510.94910758
0.34300002 20927.58382334  1295.83605171
0.34400002 20888.99228046  1189.10594188
0.34500002 20859.29182463  1623.89594546
0.34600002 20840.00318302  1735.55554728
0.34700002 20827.39881497  1522.06637748
0.34800002 20824.87881922  1199.20070360
0.34900002 20830.50373756  1093.60149802
0.35000002 20844.28864543  1426.68740391
0.35100002 20865.97266235  1762.75745400
0.35200002 20894.83058254  1327.65759810
0.35300002 20931.27529473  2000.61138743
0.35400002 20975.46044524  1340.33198593
0.35500002 21026.43873619  1571.93663437
0.35600002 21083.59703276  2032.24801424
0.35700002 21147.53741847  1135.62281316
0.35800002 21218.45689815  1371.13674970
0.35900002 21295.00675156  1379.91650286
0.36000002 21378.43398168  1389.17070593
0.36100002 21466.39737097  1165.62543245
0.36200002 21561.36178006  1174.01620453
0.36300002 21659.63914637  1182.61635341
0.36400002 21764.16704166  2383.17640395
0.36500002 21873.05381514  1440.99685360
0.36600002 21987.44579270  1210.40894822
0.36700002 22105.76884128  1342.26234762
0.36800002 22230.06806820  1722.60805620
0.36900002 22357.58545712  1364.93065681
0.37000002 22488.20819536  1251.46884535
0.37100002 22623.32816253  1262.38177127
0.37200002 22762.46093353  1782.98364938
0.37300002 22904.55060114  2184.40709431
0.37400002 23051.03868026  1296.62098719
0.37500002 23199.79832559  1439.31555630
0.37600002 23352.45477665  2112.93020828
0.37700002 23506.79685020  1466.11898900
0.37800002 23665.08397363  2152.57614021
0.37900002 23825.45578738  2037.07656632
0.38000002 23988.44904519  1645.12791345
0.38100002 24153.30793132  1522.38307103
0.38200002 24320.49005049  2095.81832939
0.38300002 24489.47828771  1551.65341782
0.38400002 24661.15487732  1566.59993780
0.38500002 24833.06043815  1437.83426749
0.38600002 25008.26326477  1742.07570155
0.38700002 25183.61056328  2345.09792675
0.38800002 25360.42136550  1923.71485382
0.38900002 25538.48577451  1494.00148859
0.39000002 25718.42207253  1810.06263122
0.39100002 25898.39976314  1675.10857604
0.39200002 26079.71835284  1998.61931066
0.39300002 26261.46185188  1707.25771588
0.39400002 26444.56944955  1723.52489553
0.39500002 26627.38479549  1739.83340497
0.39600002 26810.54244713  2075.53824188
0.39700002 26993.76988522  2094.98658005
0.39800002 27178.00565710  2114.58483034
0.39900002 27361.46603299  1970.02564771
0.40000002 27545.21949997  2650.95205028
0.40100002 27728.25073708  2340.81903813
0.40200002 27912.47951426  2193.50230656
0.40300002 28095.17420405  1702.56763743
0.40400002 28277.33613535  2404.98755226
0.40500002 28459.31362181  1906.48950986
0.40600002 28640.82051566  2273.07882793
0.40700002 28821.50312937  2469.42650513
0.40800002 29001.82691130  2668.89324797
0.40900002 29180.28127431  2332.96359842
0.41000002 29358.66510687  1990.95796856
0.41100002 29535.72898947  2190.36976564
0.41200002 29711.10486327  2392.78394354
0.41300002 29885.82294707  2598.27357013
0.41400002 30059.14070057  2245.41791673
0.41500002 30231.61123687  2075.09789362
0.41600002 30401.39253753  2472.08935133
0.41700002 30570.65411856  1916.78010406
0.41800002 30739.05412307  2125.14460750
0.41900002 30904.04219452  4088.60497607
0.42000002 31068.00471902  2158.13905007
0.42100002 31230.96851828  2569.99652115
0.42200002 31391.92192609  2589.36280277
0.42300002 31550.56259166  2809.26222628
0.42400002 31707.24510773  2223.47066854
0.42500002 31862.46513259  2239.61278030
0.42600002 32014.45038342  2870.73590191
0.42700002 32165.62670996  2065.03333263
0.42800002 32314.07564104  3327.05738566
0.42900002 32461.05872888  2512.48606467
0.43000002 32605.64030591  2740.34116937
0.43100002 32746.62000043  2121.98107658
0.43200002 32886.38802660  3417.55360567
0.43300002 33023.37730854  2364.80416113
0.43400002 33158.29884154  2596.29492233
0.43500002 33290.54403257  2394.92185120
0.43600002 33421.06467700  2847.97616141
0.43700002 33548.21093507  2424.52931917
0.43800002 33672.10888641  2439.03932277
0.43900002 33794.70866423  2899.58614080
0.44000002 33913.72062569  2916.41054341
0.44100002 34030.93210761  3835.62653962
0.44200002 34145.12713836  2268.94380587
0.44300002 34256.94004823  2965.96600993
0.44400002 34365.50496854  2752.67707843
0.44500002 34470.52039536  2767.29350848
0.44600002 34573.51718790  2549.96988104
0.44700002 34673.91209989  3262.12180495
0.44800002 34770.69628063  2575.98715603
0.44900002 34865.65342912  2588.77488980
0.45000002 34957.53922078  2364.87764036
0.45100002 35045.34077185  2851.28906033
0.45200002 35131.09291623  5251.74732894
0.45300002 35213.59957629  3357.26474271
0.45400002 35293.58588184  3372.30229083
0.45500002 35370.49296055  2661.27601648
0.45600002 35443.92208791  2429.68097428
0.45700002 35514.69493067  2927.83158885
0.45800002 35581.86350807  3674.71712796
0.45900002 35646.17193748  3443.42037236
0.46000002 35708.37658985  2469.23435822
0.46100002 35766.35400618  3470.05183014
0.46200002 35821.97632291  2736.62001089
0.46300002 35873.98579937  3245.87838897
0.46400002 35922.70281244  3006.73036791
0.46500002 35969.19116833  3017.09589820
0.46600002 36011.85644130  3279.41986226
0.46700002 36051.53868325  4302.39083038
0.46800002 36088.61466910  2792.71757853
0.46900002 36122.02750740  3565.24428396
0.47000002 36152.15416760  3320.39475690
0.47100002 36179.54021820  3329.96503951
0.47200002 36203.64232109  3339.24310776
0.47300002 36225.04021870  3090.72057795
0.47400002 36242.28271557  3356.94159564
0.47500002 36257.44590094  2847.65993603
0.47600002 36269.75362170  2595.10099463
0.47700002 36278.00852856  2861.24666827
