# SAXS profile: number of points = 501, q_min = 0, q_max = 0.5, delta_q = 0.001
#    q    intensity    error
0.00000000 1646666.22097352 271.69992646
0.00100000 1646598.58215726 592.77550365
0.00200000 1646395.60931084 814.96585241
0.00300000 1646057.47426860 1580.21523159
0.00400000 1645584.04135456 1357.60688570
0.00500000 1644975.75619617 1924.62171093
0.00600000 1644232.37863006 2417.02169499
0.00700000 1643354.52653729 2958.03827070
0.00800000 1642341.66008944 2882.30973515
0.00900000 1641195.13272552 2461.79280432
0.01000000 1639914.10948547 4058.78759623
0.01100000 1638499.80346037 3244.22975210
0.01200000 1636951.68263069 5745.70065795
0.01300000 1635271.08990276 4120.88332831
0.01400000 1633457.37269578 4410.33510179
0.01500000 1631512.15101064 4698.75520414
0.01600000 1629434.40351094 5817.08108058
0.01700000 1627226.16089956 4832.86191467
0.01800000 1624887.04420745 5557.11394125
0.01900000 1622417.74194026 5840.70413453
0.02000000 1619818.80035836 5612.67239713
0.02100000 1617091.91799614 5870.04392846
0.02200000 1614235.24391193 6126.02302897
0.02300000 1611251.78034846 5800.50667328
0.02400000 1608141.23850426 6030.52991937
0.02500000 1604904.95504133 7510.95553262
0.02600000 1601543.25309697 8432.12561323
0.02700000 1598056.86298489 7383.02304514
0.02800000 1594445.94465805 8323.00821280
0.02900000 1590712.94126225 9305.67113365
0.03000000 1586858.18349735 10330.44724941
0.03100000 1582881.74939136 12156.53239469
0.03200000 1578784.78865641 7814.98506379
0.03300000 1574570.06029723 11242.43074880
0.03400000 1570235.39827283 10716.85708769
0.03500000 1565784.36838326 10991.80677363
0.03600000 1561216.59698395 9531.22776506
0.03700000 1556533.62662077 11533.91470667
0.03800000 1551737.30854877 9985.43004263
0.03900000 1546828.18060039 9280.96951340
0.04000000 1541805.64168493 13274.94719005
0.04100000 1536673.55429679 11617.25260914
0.04200000 1531432.10539340 14816.60630707
0.04300000 1526081.42443919 13093.77922947
0.04400000 1520625.09737584 11290.64187238
0.04500000 1515062.66957057 15680.89935867
0.04600000 1509394.67638128 15961.84944475
0.04700000 1503624.04119195 10826.09360008
0.04800000 1497751.13988169 15411.85994647
0.04900000 1491778.53511641 13426.00744099
0.05000000 1485705.67279334 13638.77871135
0.05100000 1479536.05902732 18464.61087682
0.05200000 1473267.80581707 16397.47144289
0.05300000 1466906.38342769 11881.94225968
0.05400000 1460449.98603519 13253.58424134
0.05500000 1453902.71859081 13434.06174647
0.05600000 1447262.77191079 18561.14591590
0.05700000 1440535.32414824 16292.45527662
0.05800000 1433718.82277366 12688.41217400
0.05900000 1426815.68766086 19262.01268307
0.06000000 1419828.12338405 16888.85631668
0.06100000 1412757.79407714 17080.24252858
0.06200000 1405605.07121395 18596.15596141
0.06300000 1398373.10630213 18794.13542743
0.06400000 1391060.18246123 14919.12115461
0.06500000 1383672.31629972 16438.02788658
0.06600000 1376207.55763343 16597.06392161
0.06700000 1368668.61274712 15356.46255369
0.06800000 1361058.49088159 19721.73845603
0.06900000 1353377.99263590 18473.61046439
0.07000000 1345626.48508984 14330.92273730
0.07100000 1337809.02340272 20227.67338127
0.07200000 1329924.18979100 14562.67056043
0.07300000 1321976.90810410 14673.94436751
0.07400000 1313966.65198937 20694.97573869
0.07500000 1305895.36636905 17864.64944929
0.07600000 1297763.33295577 17987.00063801
0.07700000 1289576.22184836 15088.04250308
0.07800000 1281331.98419583 19738.92014222
0.07900000 1273032.55153738 19859.30873546
0.08000000 1264682.30270106 21512.24697811
0.08100000 1256280.75031530 23178.38093081
0.08200000 1247829.28954491 20196.11799899
0.08300000 1239330.49471764 17177.12146294
0.08400000 1230785.52998086 21969.52274138
0.08500000 1222197.80660220 18919.62293439
0.08600000 1213566.52795295 19004.45272003
0.08700000 1204895.51723624 20676.00804667
0.08800000 1196183.09765992 20759.75863484
0.08900000 1187435.58305112 22442.53357379
0.09000000 1178651.48408221 20915.17156754
0.09100000 1169833.58083603 16143.70417399
0.09200000 1160982.56752306 22673.99060910
0.09300000 1152102.19752242 25991.42679750
0.09400000 1143190.54669001 21177.60587273
0.09500000 1134251.94597532 17966.55166873
0.09600000 1125287.30381923 16372.93104022
0.09700000 1116300.02672407 16409.61116431
0.09800000 1107290.28613618 23020.56613114
0.09900000 1098260.27580757 24710.85736764
0.10000000 1089209.38005776 24752.28432584
0.10100000 1080140.86482746 18178.77161003
0.10200000 1071056.65545706 18202.60871568
0.10300000 1061957.75998402 18223.19601856
0.10400000 1052846.60112466 19898.80169740
0.10500000 1043726.20448589 18254.77217533
0.10600001 1034592.36504978 21586.77071250
0.10700001 1025453.28156627 18273.57833742
0.10800001 1016305.87651606 18278.26204935
0.10900001 1007154.30371341 19941.65615209
0.11000001 997998.67808326 18278.34664945
0.11100001 988841.22818666 21596.29344021
0.11200001 979684.37912772 19926.78120955
0.11300001 970527.03296793 19915.21565413
0.11400001 961373.39971816 21558.79950376
0.11500001 952223.56181927 24853.03613376
0.11600001 943079.01222741 21516.34867721
0.11700001 933942.05696288 19836.93022411
0.11800001 924811.68580295 18158.67830598
0.11900001 915691.78906165 19778.94357535
0.12000001 906582.51733594 19745.36815768
0.12100001 897487.19620550 19708.81975712
0.12200001 888404.29787977 22947.48409532
0.12300001 879337.36689896 19626.81095389
0.12400001 870286.12166359 22845.01177007
0.12500001 861252.87307222 21160.98408850
0.12600001 852240.03360501 17858.69074576
0.12700001 843247.49916276 19428.42329630
0.12800001 834275.27721943 19371.87285002
0.12900001 825326.73313386 20922.03367104
0.13000001 816402.06119512 17646.53138450
0.13100001 807501.93532547 19186.24688773
0.13200001 798629.53018380 15932.65987824
0.13300001 789785.64112905 17462.16134858
0.13400001 780968.91277127 22140.46972089
0.13500001 772183.47644734 23628.81549334
0.13600001 763427.98984136 17257.29052406
0.13700001 754705.53514226 21871.36743973
0.13800001 746015.12953184 24887.06589475
0.13900001 737361.48792340 17033.05117428
0.14000001 728741.62443273 20036.75190872
0.14100001 720158.69238703 30678.76174259
0.14200001 711612.36764138 22896.12900876
0.14300001 703106.67252901 18224.52581156
0.14400001 694636.71234136 15108.34920608
0.14500001 686210.62038534 18033.61595441
0.14600001 677823.38140715 17935.20751811
0.14700001 669481.18074582 19321.22778783
0.14800001 661179.70735954 17732.84058799
0.14900001 652922.00450826 14690.74579456
0.15000001 644709.45322813 21904.00470692
0.15100001 636542.81331554 15964.49451124
0.15200001 628423.10548111 15864.54204647
0.15300001 620350.64534885 20062.14081729
0.15400001 612324.17980055 18507.49920786
0.15500001 604348.37258048 21212.62887866
0.15600001 596419.70719120 15450.25324396
0.15700001 588545.08845465 18133.07503111
0.15800001 580716.39848378 13850.08675754
0.15900001 572942.32194789 15125.67801337
0.16000001 565217.85308835 19110.01651496
0.16100001 557549.23265786 14903.29169244
0.16200001 549931.70715934 13445.83087477
0.16300001 542369.33416757 14676.51487542
0.16400001 534860.91682420 15885.36997962
0.16500001 527407.60432438 17072.18495798
0.16600001 520009.77379739 15631.49453836
0.16700001 512667.18890796 14211.13514750
0.16800001 505380.27997277 14092.52977244
0.16900001 498152.53930851 17784.04649304
0.17000001 490981.09517675 23927.96480331
0.17100001 483867.62423074 16228.92088305
0.17200001 476812.45750140 14847.94062776
0.17300001 469815.81193938 14714.63192483
0.17400001 462878.86574339 15795.74203946
0.17500001 456000.73148040 12038.41987963
0.17600001 449180.30753523 16696.03281962
0.17700001 442422.53395977 11812.68221465
0.17800001 435723.82447272 15208.94081157
0.17900001 429085.51649941 17377.96423905
0.18000001 422508.76338918 11471.11346785
0.18100001 415993.86058929 12492.29622359
0.18200001 409537.51241854 13490.16629631
0.18300001 403145.25510384 13352.17147979
0.18400001 396812.94064960 12112.71558554
0.18500001 390543.40128823 11985.77755177
0.18600001 384335.82780891 15092.86867109
0.18700001 378189.71884899 11731.44563295
0.18800001 372105.66342275 11604.11566209
0.18900001 366085.76926041 15650.16737531
0.19000001 360124.23689049 16508.09579905
0.19100001 354230.25580508 16322.93095876
0.19200001 348394.87153121 13111.84160963
0.19300001 342624.74036674 13958.53258212
0.19400001 336916.19515483 9854.79917396
0.19500001 331270.73795372 11687.23218729
0.19600001 325686.67241868 17323.27492458
0.19700001 320166.09845911 10459.82693097
0.19800001 314707.96785041 12212.24326957
0.19900001 309313.31678977 11135.27993068
0.20000001 303979.05609058 11914.45966656
0.20100001 298709.09815423 12671.24054257
0.20200001 293500.00296397 10724.49061518
0.20300001 288354.04748284 9705.99769702
0.20400001 283270.11879566 9581.61222115
0.20500001 278247.42845559 10317.41513481
0.20600001 273287.30456215 10182.68544930
0.20700001 268388.31864035 10885.83071862
0.20800001 263550.90139602 9914.78537919
0.20900001 258777.16771857 13857.51798639
0.21000001 254061.75671002 9649.26597599
0.21100001 249407.84903776 8724.28697177
0.21200001 244814.57116159 10168.37369390
0.21300001 240281.79889212 7713.04610908
0.21400001 235809.95705946 12167.79435952
0.21500001 231399.04925483 8247.06250534
0.21600001 227046.45860381 10346.50760774
0.21700001 222754.11230755 9469.27776190
0.21800001 218521.05110355 8614.10024178
0.21900001 214345.96266331 9195.44223303
0.22000001 210229.37245512 9756.74563697
0.22100001 206173.39042516 9611.80391610
0.22200001 202174.66470671 6762.74285421
0.22300001 198233.53235371 7992.77640244
0.22400001 194348.18414583 8527.02698261
0.22500001 190523.27939023 9042.23526744
0.22600001 186752.90228268 6994.83028577
0.22700001 183040.46186665 6885.98250106
0.22800001 179383.19382858 9242.71949911
0.22900001 175781.52929234 7277.35565686
0.23000001 172235.35880208 8355.13765062
0.23100001 168745.81379840 7046.82551748
0.23200001 165308.86755591 7510.80875262
0.23300001 161927.42048690 7388.74854626
0.23400001 158599.92621805 8385.97149540
0.23500001 155324.55267680 6048.33836730
0.23600001 152103.32604776 5948.00084642
0.23700001 148934.68644285 6380.36226899
0.23800001 145817.83083458 5227.56948268
0.23900001 142753.43011186 6166.94847253
0.24000001 139739.91748507 5051.59825603
0.24100001 136778.83443247 5958.08630970
0.24200001 133867.52350797 6831.26004774
0.24300001 131006.53646456 6233.29129984
0.24400001 128194.57854753 5653.38118137
0.24500001 125432.48227858 5091.30469653
0.24600001 122719.22721591 5001.42234178
0.24700001 120055.16806011 4912.65770942
0.24800001 117437.75822854 4824.93052507
0.24900001 114868.15121940 5169.06704941
0.25000001 112346.00414897 4229.82725631
0.25100001 109869.80552718 6644.92615265
0.25200001 107440.94981060 4077.38423821
0.25300001 105057.78116461 4002.70165174
0.25400001 102719.00849695 4321.90248698
0.25500001 100425.12869192 5398.85517391
0.25600001 98175.99614285  5298.55876252
0.25700001 95970.42594905  4456.86679194
0.25800001 93808.11917659  3644.44560244
0.25900001 91689.20619018  4291.05505273
0.26000001 89613.30257302  4210.03315408
0.26100001 87577.06876001  3441.77896512
0.26200001 85584.85902083  3713.95513294
0.26300001 83632.21738862  3974.20315836
0.26400001 81720.19425245  3573.21566277
0.26500001 79849.16139576  3185.98169045
0.26600001 78016.53113691  3749.47466386
0.26700001 76224.47229999  3983.49111090
0.26800001 74470.70329572  3906.36092623
0.26900001 72754.68411772  3830.53430006
0.27000001 71077.10949494  4044.99849278
0.27100001 69436.41692577  3966.20832249
0.27200001 67833.08334691  4166.64734176
0.27300001 66265.42886879  4085.26388309
0.27400001 64732.81661015  3471.29745500
0.27500001 63237.68880604  3141.64852856
0.27600001 61775.36690484  2566.76661637
0.27700001 60349.50933462  3271.54705586
0.27800001 58956.46625011  2714.06105227
0.27900001 57597.70500184  3386.74521440
0.28000001 56271.49873756  2846.21254085
0.28100001 54977.98461000  2325.56885907
0.28200001 53717.04819861  3876.49096673
0.28300001 52487.82049263  2235.98125882
0.28400001 51290.04627984  3288.97437336
0.28500001 50123.31129911  3010.40621911
0.28600001 48986.15737601  2319.73959234
0.28700001 47879.65471070  2895.76165397
0.28800001 46801.80698447  2637.51595745
0.28900001 45754.59372232  3184.51987381
0.29000001 44734.62163890  2147.93295966
0.29100001 43744.34871308  2490.80333362
0.29200001 42780.81963589  2444.28224560
0.29300001 41844.88514067  2583.50333088
0.29400001 40935.72096775  2173.68688628
0.29500001 40054.23382297  2311.93048570
0.29600001 39197.45315762  1746.24662084
0.29700001 38366.41642912  1714.97889557
0.29800001 37561.08476245  2863.84504328
0.29900001 36780.62893959  1820.64121870
0.30000001 36024.44305607  1951.80441718
0.30100001 35292.98593276  1918.52680613
0.30200001 34583.94781655  2043.39265348
0.30300001 33898.87434852  1700.36761782
0.30400001 33237.17136698  1976.78086064
0.30500001 32596.78437691  1795.43096848
0.30600001 31978.75565377  1767.14612109
0.30700001 31382.84252595  2029.84235068
0.30800001 30807.78163739  1856.32297045
0.30900001 30253.66151517  1406.79532706
0.31000001 29720.93769948  1525.12999026
0.31100001 29206.57223034  1640.24117411
0.31200001 28713.27880118  1482.89735390
0.31300001 28238.48425944  1596.03920591
0.31400001 27784.26012352  1444.08698829
0.31500001 27348.02917122  1555.55597291
0.31600002 26929.78781556  1408.56261839
0.31700002 26529.24060852  1391.98932064
0.31800002 26146.80583628  1501.34966221
0.31900002 25781.74321873  1361.27610640
0.32000002 25433.21742652  2204.29705873
0.32100002 25101.81007857  1576.14272946
0.32200002 24786.77356330  1681.28693041
0.32300002 24486.82269528  1547.07753114
0.32400002 24202.81776240  1769.83113268
0.32500002 23933.76913057  1521.46977567
0.32600002 23680.10712362  1161.50930941
0.32700002 23440.82631379  1845.26193480
0.32800002 23216.54516247  1833.17849284
0.32900002 23005.06018653  1366.50063979
0.33000002 22808.68319937  1811.92187916
0.33100002 22623.49518203  1577.31015878
0.33200002 22453.82754290  1345.88248666
0.33300002 22295.57168626  1117.00819438
0.33400002 22150.50829480  1224.36940398
0.33500002 22017.17966606  1109.66590772
0.33600002 21895.71702981  1328.19425793
0.33700002 21785.09723811  1546.30627519
0.33800002 21687.24604377  1323.35581626
0.33900002 21599.14085734  1211.71185948
0.34000002 21522.57809404  1321.05590598
0.34100002 21456.32890057  1320.85166967
0.34200002 21400.99819292  1431.40583192
0.34300002 21354.49487839  1212.08118670
0.34400002 21318.43359347  1323.87478885
0.34500002 21291.45495368  1326.03187732
0.34600002 21274.88620406  1218.09366730
0.34700002 21265.12008621  1443.05111739
0.34800002 21265.62953841  1113.25575906
0.34900002 21274.18040071  1451.96288112
0.35000002 21291.00846640  1120.97164885
0.35100002 21315.90614549  1688.21984668
0.35200002 21347.86301286  1243.40634008
0.35300002 21387.70265399  1476.39318413
0.35400002 21435.17978867  1369.70805337
0.35500002 21489.48890286  1262.29263794
0.35600002 21550.02628829  1154.00396240
0.35700002 21617.48818936  1393.03100490
0.35800002 21691.87731846  1868.97223828
0.35900002 21771.94807477  1410.82230207
0.36000002 21858.83355280  1538.75266083
0.36100002 21950.49273405  1311.10299311
0.36200002 22048.93518636  1920.90332442
0.36300002 22150.96438153  1693.21979753
0.36400002 22259.05810942  1218.68348922
0.36500002 22371.60237833  1228.20102875
0.36600002 22489.59490158  1609.46793537
0.36700002 22611.62710754  1747.42662564
0.36800002 22739.57129472  1636.22593002
0.36900002 22870.72008515  1777.05503479
0.37000002 23004.95922574  1408.24864571
0.37100002 23143.65787884  1937.12425622
0.37200002 23286.37424303  1433.15997068
0.37300002 23432.08899534  1314.54025491
0.37400002 23582.17369565  1591.79679986
0.37500002 23734.43818131  1338.62237684
0.37600002 23890.65380849  1891.42315162
0.37700002 24048.53482894  1636.26238727
0.37800002 24210.12165623  1513.98002949
0.37900002 24373.95207325  1945.04146759
0.38000002 24540.36472415  1682.97829251
0.38100002 24708.54205660  1698.95943230
0.38200002 24879.06247147  1572.23242737
0.38300002 25051.35686344  1875.84569080
0.38400002 25226.09713195  1893.84933190
0.38500002 25401.33641152  1764.88493748
0.38600002 25579.47546915  2227.33293200
0.38700002 25757.91783099  1948.84415542
0.38800002 25937.69719150  1816.15764339
0.38900002 26118.66686847  2139.11891787
0.39000002 26301.47257528  1542.58143962
0.39100002 26484.20773829  1712.99863767
0.39200002 26668.26509849  1886.51316244
0.39300002 26852.61645431  1904.38764916
0.39400002 27038.41409324  1602.02611092
0.39500002 27223.67873627  1778.79525290
0.39600002 27409.27994374  1795.44496778
0.39700002 27594.80666124  2306.37405002
0.39800002 27781.43389072  1662.71889714
0.39900002 27967.13490973  2181.43662631
0.40000002 28152.88433246  2709.43371653
0.40100002 28337.99441587  2221.41548751
0.40200002 28524.18831446  2069.14471837
0.40300002 28708.71170593  2609.62201771
0.40400002 28892.80179714  2281.80913004
0.40500002 29076.34359110  2301.97423118
0.40600002 29259.53454080  2679.44200253
0.40700002 29441.67538953  2342.37980498
0.40800002 29623.39586232  2544.35359117
0.40900002 29803.11443923  3115.91576226
0.41000002 29982.84155828  2218.13072358
0.41100002 30161.02459097  2050.34654884
0.41200002 30337.42077426  1879.40330602
0.41300002 30513.06970800  2273.83406238
0.41400002 30687.14667522  2483.35746236
0.41500002 30860.42571702  1925.69065599
0.41600002 31030.85498837  2329.17608579
0.41700002 31200.63437842  1956.27986822
0.41800002 31369.53958406  2365.89078754
0.41900002 31534.78998136  2781.36860815
0.42000002 31699.05431664  2201.97491245
0.42100002 31862.12480338  2621.93437431
0.42200002 32023.13693884  2235.05494855
0.42300002 32181.58553754  2865.44851204
0.42400002 32338.16875575  3092.33753380
0.42500002 32493.10191374  3322.09489708
0.42600002 32644.65955687  2718.15770681
0.42700002 32795.33191420  3368.73665386
0.42800002 32943.19135736  2543.87335716
0.42900002 33089.45502406  2561.12394023
0.43000002 33233.22344017  2578.23359666
0.43100002 33373.30208660  2595.10809323
0.43200002 33511.99521358  3482.56670763
0.43300002 33647.85258601  2409.52283787
0.43400002 33781.56322540  3747.22007835
0.43500002 33912.41403502  2661.44637959
0.43600002 34041.48573765  2677.70339502
0.43700002 34167.02400205  2693.72829997
0.43800002 34289.33356187  2257.95272205
0.43900002 34410.03645855  2952.38126806
0.44000002 34527.20174441  2740.76940436
0.44100002 34642.45305074  2985.83316994
0.44200002 34754.55919103  3002.27273800
0.44300002 34864.15361922  2786.34328929
0.44400002 34970.38604209  3267.98273051
0.44500002 35072.95910306  2581.01918271
0.44600002 35173.48107834  2830.05842168
0.44700002 35271.25094383  2370.22817575
0.44800002 35365.23394829  2620.03348123
0.44900002 35457.46347560  3829.40623685
0.45000002 35546.49337166  3847.55262489
0.45100002 35631.15678434  3140.53030781
0.45200002 35713.92155262  2669.43719296
0.45300002 35793.00056757  4143.75587209
0.45400002 35869.74120440  2937.73194387
0.45500002 35943.24710356  3687.77732760
0.45600002 36013.26442982  2962.45127240
0.45700002 36080.35498339  2974.46460580
0.45800002 36143.78220544  2488.49952278
0.45900002 36204.27585558  2747.90466767
0.46000002 36262.59778948  2758.31463159
0.46100002 36316.52299573  3020.08219546
0.46200002 36368.03078449  2778.33584346
0.46300002 36415.96746690  2788.00660140
0.46400002 36460.39691755  3051.73536664
0.46500002 36502.56661566  3061.83543284
0.46600002 36540.79442671  3839.52415636
0.46700002 36575.91109450  3081.15489663
0.46800002 36608.47564946  3090.48766080
0.46900002 36637.14929089  3616.08680640
0.47000002 36662.43703166  3885.30194858
0.47100002 36684.95469052  3376.48338975
0.47200002 36704.15382492  2864.57582104
0.47300002 36720.59086242  4438.41802791
0.47400002 36732.66108902  3925.80333996
0.47500002 36742.62556660  2885.76594878
0.47600002 36749.73295016  2629.44351721
0.47700002 36752.60329979  3162.19413780
