# SAXS profile: number of points = 501, q_min = 0, q_max = 0.5, delta_q = 0.001
#    q    intensity    error
0.00000000 1664650.74656091 299.63713438
0.00100000 1664582.54604721 549.31225324
0.00200000 1664377.89531253 898.76409193
0.00300000 1664036.95212184 1397.79108958
0.00400000 1663559.59791037 1497.20369501
0.00500000 1662946.28676330 1795.98206079
0.00600000 1662196.73573163 2443.42930100
0.00700000 1661311.59607334 2192.93139796
0.00800000 1660290.34555155 3362.08809169
0.00900000 1659134.30533554 3235.31203371
0.01000000 1657842.65006246 3829.61668701
0.01100000 1656416.61714242 2981.55004067
0.01200000 1654855.64428086 3549.66551261
0.01300000 1653161.10908047 4165.96617862
0.01400000 1651332.31112789 5573.24679712
0.01500000 1649370.94136407 5146.03756620
0.01600000 1647275.93895780 5460.71998176
0.01700000 1645049.35306903 7550.77686930
0.01800000 1642690.73668507 6554.33633430
0.01900000 1640200.86860877 5904.72339343
0.02000000 1637580.26894804 5674.21588858
0.02100000 1634830.69241739 7552.91814141
0.02200000 1631950.22468181 6756.27423714
0.02300000 1628941.84480012 5864.19090821
0.02400000 1625805.29857538 8535.47820672
0.02500000 1622541.99785246 6960.70548869
0.02600000 1619152.17644824 9180.59326037
0.02700000 1615636.64887884 6785.67423608
0.02800000 1611995.55113782 9817.05335664
0.02900000 1608231.26671500 9408.15334225
0.03000000 1604344.11555565 7460.20048024
0.03100000 1600334.36115505 7681.60528700
0.03200000 1596202.96392350 7901.20503534
0.03300000 1591952.80618742 13802.23146593
0.03400000 1587581.71575981 9168.28483154
0.03500000 1583093.18765355 8548.70360809
0.03600000 1578486.84889110 10512.72289945
0.03700000 1573764.36414800 13455.68593576
0.03800000 1568927.49323804 9178.22626021
0.03900000 1563976.89909796 10322.24801207
0.04000000 1558911.87024073 10546.03929087
0.04100000 1553736.28145410 9788.53902702
0.04200000 1548450.37579215 13982.50754209
0.04300000 1543054.23394375 11202.57425843
0.04400000 1537551.44573965 11416.32001481
0.04500000 1531941.63462253 13741.51710106
0.04600000 1526225.33775736 11835.87804452
0.04700000 1520405.44553499 12041.61168867
0.04800000 1514482.36588965 18923.45804226
0.04900000 1508458.59365552 14707.47197274
0.05000000 1502333.75684277 12642.13915253
0.05100000 1496111.17506776 18671.46833464
0.05200000 1489789.08623715 11843.82378752
0.05300000 1483372.86000235 13216.85279876
0.05400000 1476860.80930422 15839.33291844
0.05500000 1470257.08293180 12350.16007275
0.05600000 1463559.75605221 18770.15474726
0.05700000 1456773.97678903 15208.72102760
0.05800000 1449898.38805941 15397.92160016
0.05900000 1442935.31561458 14285.06029178
0.06000000 1435886.92943228 17079.87582355
0.06100000 1428754.91885842 21259.87418612
0.06200000 1421539.79347118 18806.97234673
0.06300000 1414244.61807840 16292.09876201
0.06400000 1406867.65446314 17832.04835427
0.06500000 1399415.00000889 16625.05097779
0.06600000 1391884.56475127 18184.97268932
0.06700000 1384279.21097960 16943.57833533
0.06800000 1376602.03956047 19946.96448693
0.06900000 1368853.65673986 20122.14969617
0.07000000 1361033.58563043 24641.51422176
0.07100000 1353146.72486623 20459.57943826
0.07200000 1345191.78636196 26513.73135128
0.07300000 1337173.77681693 17811.15554175
0.07400000 1329092.02359068 17942.74315935
0.07500000 1320948.44120041 19576.45681619
0.07600000 1312743.63164865 16678.40862199
0.07700000 1304483.04661857 15262.45236107
0.07800000 1296164.53538546 24575.28074340
0.07900000 1287790.22052991 18544.18004542
0.08000000 1279364.65283069 20207.56563942
0.08100000 1270887.11669742 21884.67717632
0.08200000 1262358.97927192 20431.28103826
0.08300000 1253783.00853303 20536.96664361
0.08400000 1245160.05749568 17463.37062608
0.08500000 1236493.88627603 23926.15782266
0.08600000 1227783.66178955 16022.57753864
0.08700000 1219032.94721190 19309.48279057
0.08800000 1210240.49700495 17772.38253318
0.08900000 1201412.34718017 21084.78768336
0.09000000 1192547.05634228 27673.05574238
0.09100000 1183647.46586074 16334.33579628
0.09200000 1174714.22188307 19664.71699830
0.09300000 1165751.24801980 21368.22138034
0.09400000 1156756.46570710 18132.15845212
0.09500000 1147734.27133207 16527.37428401
0.09600000 1138685.44609074 23195.02362721
0.09700000 1129613.66608946 21586.91817383
0.09800000 1120519.09820962 18303.68032985
0.09900000 1111403.62365460 20005.26616648
0.10000000 1102267.02610930 18369.28085397
0.10100000 1093112.38833214 21742.00642649
0.10200000 1083941.69368149 25120.34993264
0.10300000 1074755.88197012 18442.81180217
0.10400000 1065557.57949582 18460.78593325
0.10500000 1056349.48770229 20155.14917365
0.10600001 1047127.78274031 18487.04187416
0.10700001 1037900.34395463 26902.37818127
0.10800001 1028664.42701692 18500.53059057
0.10900001 1019423.95898909 18502.54572649
0.11000001 1010179.36721751 25229.23088379
0.11100001 1000932.52236757 20178.80060081
0.11200001 991685.92559381 23532.70812219
0.11300001 982438.44982685 20159.63793958
0.11400001 973194.64137735 18466.36918961
0.11500001 963954.50912037 18450.09017334
0.11600001 954719.36634741 20106.39080212
0.11700001 945491.60015709 20082.24253311
0.11800001 936270.31004469 18383.66840357
0.11900001 927059.32353857 16687.06860968
0.12000001 917858.60238371 28320.52851059
0.12100001 908672.00008110 23280.17773876
0.12200001 899497.38420356 19914.87302448
0.12300001 890338.74456504 19872.36171497
0.12400001 881195.70550910 33044.84051358
0.12500001 872070.39148068 23074.98364588
0.12600001 862965.55796082 23015.29251538
0.12700001 853880.76877264 21312.86499296
0.12800001 844816.33705029 24520.79533853
0.12900001 835775.33930325 19557.14386147
0.13000001 826758.60990853 19494.96894054
0.13100001 817765.97150412 22668.47379863
0.13200001 808801.13969678 19362.70019710
0.13300001 799864.82457586 24115.92559786
0.13400001 790955.81954484 17618.54171100
0.13500001 782077.86857019 22336.14497947
0.13600001 773230.05582230 20656.84191528
0.13700001 764415.36309504 31646.79752438
0.13800001 755632.53944903 28358.89054281
0.13900001 746886.73856523 23526.93337429
0.14000001 738174.63302112 20296.11249209
0.14100001 729499.65310187 17092.17767829
0.14200001 720861.26226317 17008.72228532
0.14300001 712263.87534845 20000.37056315
0.14400001 703701.96385589 16836.07027941
0.14500001 695184.17478548 22836.80121896
0.14600001 686705.39130236 22712.78188879
0.14700001 678271.65782253 19574.92096823
0.14800001 669878.95962940 16468.97499947
0.14900001 661530.12274945 14884.42846412
0.15000001 653226.71431364 17754.70293276
0.15100001 644969.21493578 16175.82867385
0.15200001 636759.08348262 18997.70815215
0.15300001 628596.22838523 15972.63091700
0.15400001 620479.54355258 21639.22510257
0.15500001 612413.87375374 20062.67945099
0.15600001 604395.64197848 19926.92525648
0.15700001 596431.34113957 15548.96579737
0.15800001 588513.62611171 14036.05064525
0.15900001 580650.46234279 15329.17292940
0.16000001 572837.36716189 19367.63229794
0.16100001 565080.45565763 16477.74686480
0.16200001 557374.80813004 19078.94058293
0.16300001 549724.58331050 17580.19300419
0.16400001 542128.53731215 16101.21831830
0.16500001 534588.33041701 13311.25005583
0.16600001 527103.40645670 14524.33505065
0.16700001 519674.40515065 13095.79562811
0.16800001 512301.30105659 16882.89017347
0.16900001 504987.75370489 14164.90716026
0.17000001 497730.87122853 12766.79744986
0.17100001 490532.36611321 17718.02990068
0.17200001 483392.48738984 15052.84276816
0.17300001 476311.37023548 16161.24555530
0.17400001 469290.60745275 22173.98224933
0.17500001 462328.99516511 13426.03465367
0.17600001 455425.44529693 13300.70075808
0.17700001 448584.90666832 13174.93933111
0.17800001 441803.93709659 13048.67989846
0.17900001 435083.69567365 12921.98637186
0.18000001 428425.54452542 13958.10489995
0.18100001 421829.69729337 13819.14153610
0.18200001 415292.68050677 13679.74154210
0.18300001 408820.38419197 13540.13176406
0.18400001 402408.56288716 16750.25722147
0.18500001 396059.97940985 11050.07394756
0.18600001 389773.60203140 19679.67009630
0.18700001 383549.45123262 12979.31404292
0.18800001 377387.45482402 11768.82833472
0.18900001 371290.39677754 11639.95448893
0.19000001 365252.26127920 10464.47778008
0.19100001 359281.99855130 12416.78645663
0.19200001 353371.12099253 17391.16054140
0.19300001 347525.87484446 12135.60412301
0.19400001 341742.65767943 9995.97320947
0.19500001 336023.10836404 11854.89582329
0.19600001 330365.63086079 9762.30485327
0.19700001 324771.87543198 11574.87018740
0.19800001 319241.36965081 10482.29086786
0.19900001 313774.80583446 11295.89354388
0.20000001 308369.18645034 11156.79769306
0.20100001 303028.32864653 15608.98994630
0.20200001 297749.08622207 11786.39813517
0.20300001 292533.53770510 9846.67934455
0.20400001 287380.53668372 10604.34230485
0.20500001 282289.34853131 9595.01541011
0.20600001 277261.25578400 12913.44359853
0.20700001 272294.96928917 12743.40516510
0.20800001 267390.77886464 9220.97144502
0.20900001 262550.87896573 9924.42369404
0.21000001 257769.93604165 8974.26074752
0.21100001 253051.08757819 8047.02496540
0.21200001 248393.49344686 7936.17249081
0.21300001 243796.95863811 9391.05929071
0.21400001 239262.05883674 12345.92281965
0.21500001 234788.61201135 9128.58166658
0.21600001 230374.01846302 8248.54212105
0.21700001 226020.38271989 9608.12692369
0.21800001 221726.66924431 10197.21000068
0.21900001 217491.43842431 7894.93958809
0.22000001 213315.48904972 8485.69055562
0.22100001 209200.88597151 6966.38983225
0.22200001 205143.77608835 6862.05963462
0.22300001 201145.18727706 7434.32647330
0.22400001 197202.82839796 7321.15535046
0.22500001 193321.57453822 9175.04236145
0.22600001 189495.70651302 7742.79493426
0.22700001 185728.29009432 6987.09860376
0.22800001 182016.64437002 6252.27202978
0.22900001 178361.15909593 7384.15233577
0.23000001 174761.91214297 6055.50054213
0.23100001 171219.91645940 7745.98938695
0.23200001 167731.11689305 6448.42309392
0.23300001 164298.52703884 6343.56642899
0.23400001 160920.45752188 6806.93567511
0.23500001 157595.14184544 10041.96291334
0.23600001 154324.63320797 7132.11326103
0.23700001 151107.27661729 6473.43603646
0.23800001 147942.74476529 5834.12241577
0.23900001 144830.83407577 6778.08335535
0.24000001 141770.68913394 7175.01491645
0.24100001 138763.43715934 5540.82430786
0.24200001 135806.61755360 5445.16658838
0.24300001 132900.88652142 6323.42447980
0.24400001 130044.87147088 5257.06417789
0.24500001 127239.23467835 7981.71756894
0.24600001 124483.01908488 5995.72489785
0.24700001 121776.71748072 4983.10351504
0.24800001 119117.77650715 5783.76391192
0.24900001 116507.11095411 5679.72192771
0.25000001 113944.57366404 5577.01742183
0.25100001 111428.77711289 4212.00797413
0.25200001 108960.78637685 4135.06203863
0.25300001 106539.10428525 4059.14006531
0.25400001 104162.58064083 5976.32834702
0.25500001 101831.35402128 4301.35659736
0.25600001 99545.72352568  5372.48295287
0.25700001 97304.16626123  4518.80569497
0.25800001 95106.49906758  4803.35396267
0.25900001 92952.76237756  3987.67369467
0.26000001 90842.61676262  4267.78633744
0.26100001 88772.86167755  5233.16044350
0.26200001 86747.76477257  4106.63937865
0.26300001 84762.86930158  4699.25369644
0.26400001 82819.05315650  3950.46902249
0.26500001 80916.80199213  3551.43860748
0.26600001 79053.75965505  3799.32386880
0.26700001 77231.62593103  4036.12496215
0.26800001 75448.60092524  3044.35119139
0.26900001 73703.78544218  3582.00414200
0.27000001 71997.88690663  3512.05708950
0.27100001 70329.64328004  3443.33949794
0.27200001 68699.23256867  2813.23370682
0.27300001 67105.07295185  3309.62235461
0.27400001 65546.52429627  3514.93253173
0.27500001 64026.07455968  2650.67961222
0.27600001 62538.98006857  3637.89264276
0.27700001 61088.79137314  2802.14299290
0.27800001 59672.09597544  3246.46053519
0.27900001 58290.14516863  3182.64207683
0.28000001 56941.39392145  2640.08785412
0.28100001 55625.78184244  2823.56481996
0.28200001 54343.27345180  3229.62089410
0.28300001 53093.04995153  2714.11684198
0.28400001 51874.78037448  2882.94105576
0.28500001 50688.08165957  2826.87444795
0.28600001 49531.58998974  3198.50257498
0.28700001 48406.04945989  2300.25557921
0.28800001 47309.86629212  2461.05936101
0.28900001 46244.79239661  2413.97827737
0.29000001 45207.35461952  2565.29145931
0.29100001 44200.08780624  2516.75311882
0.29200001 43220.26147022  1899.53058153
0.29300001 42268.30727098  2982.45190222
0.29400001 41343.63657724  2012.40160566
0.29500001 40447.06409996  2693.77459657
0.29600001 39575.95128651  2292.04132726
0.29700001 38730.69683469  1904.38845351
0.29800001 37911.81386656  1870.37942565
0.29900001 37118.16668779  3173.60340204
0.30000001 36349.31692982  2789.99195303
0.30100001 35605.68529463  1774.23138222
0.30200001 34884.83507119  1744.06741195
0.30300001 34188.27940453  2182.57986051
0.30400001 33515.70820684  1533.34372305
0.30500001 32864.73945916  1810.18993511
0.30600001 32236.51755481  2078.28838515
0.30700001 31630.82023078  2338.15034215
0.30800001 31046.57543979  1439.00883976
0.30900001 30483.56404766  1842.73153392
0.31000001 29942.23635995  1536.48593156
0.31100001 29419.84473604  1514.53367872
0.31200001 28918.75974630  1900.83016812
0.31300001 28436.70521999  1339.36887928
0.31400001 27975.57222767  1718.39960544
0.31500001 27532.58028515  2088.07098769
0.31600002 27108.18381211  2062.39072207
0.31700002 26701.66060682  1401.03619838
0.31800002 26313.69635471  1385.02147321
0.31900002 25943.47069781  1494.34398295
0.32000002 25590.14526688  1971.46488471
0.32100002 25254.29489549  1219.78250121
0.32200002 24934.98862246  1932.96040954
0.32300002 24631.10834244  1316.77911434
0.32400002 24343.62057009  1305.42671488
0.32500002 24071.28119906  1294.79427701
0.32600002 23814.72570845  1518.54605671
0.32700002 23572.76356275  1159.78002221
0.32800002 23346.14199356  1152.13216194
0.32900002 23132.63641053  1259.57211220
0.33000002 22934.56607856  1366.44151167
0.33100002 22747.76840951  1246.12281248
0.33200002 22576.97935253  1127.72017206
0.33300002 22417.73812483  1460.06735321
0.33400002 22271.97763843  1343.00031520
0.33500002 22138.19461661  1227.34156767
0.33600002 22016.57903818  1335.52574770
0.33700002 21906.01676546  1443.82563339
0.33800002 21808.46485926  1219.85653967
0.33900002 21720.96728490  1218.54632239
0.34000002 21645.08524634  1550.00462790
0.34100002 21579.78906656  1217.74755470
0.34200002 21525.71383725  1218.24783231
0.34300002 21480.55562484  1551.75541183
0.34400002 21446.17951014  1220.82382643
0.34500002 21420.99407440  1222.92460963
0.34600002 21406.45106785  1114.20583085
0.34700002 21398.83807130  1340.42328027
0.34800002 21401.73173022  1792.60913462
0.34900002 21412.78064062  1124.17103688
0.35000002 21432.47072263  1579.78749179
0.35100002 21460.24284165  1586.34122599
0.35200002 21495.22408617  1251.98938620
0.35300002 21538.29708567  1601.15708118
0.35400002 21589.18325809  1724.43609442
0.35500002 21646.92147077  1271.54022742
0.35600002 21711.18857829  1395.16104412
0.35700002 21782.44188720  1286.68890322
0.35800002 21860.77709471  1177.20290231
0.35900002 21944.92015916  1659.03604261
0.36000002 22035.93322018  1312.57042443
0.36100002 22131.87653186  1201.76095260
0.36200002 22234.74539065  1573.88652703
0.36300002 22341.30567916  1951.73655658
0.36400002 22454.06254733  1352.29598097
0.36500002 22571.28316152  2106.57795725
0.36600002 22694.05755286  1624.10030570
0.36700002 22821.05011351  1385.69422853
0.36800002 22953.98051916  1778.70403468
0.36900002 23090.09576030  1665.95048802
0.37000002 23229.52506705  1292.72313122
0.37100002 23373.35331892  1434.65649467
0.37200002 23521.45295775  1974.03803299
0.37300002 23672.43600733  1859.23321209
0.37400002 23827.88399197  1474.35039184
0.37500002 23985.56139201  1352.78572659
0.37600002 24147.28776742  1911.74086311
0.37700002 24310.63493924  1516.25437299
0.37800002 24477.80179889  2365.65726692
0.37900002 24647.27538271  1404.89476337
0.38000002 24819.30848364  2127.63532055
0.38100002 24993.06258556  1718.52306479
0.38200002 25169.34486562  1735.17471724
0.38300002 25347.25599617  2044.00282036
0.38400002 25527.73719816  1474.22689303
0.38500002 25708.75222911  2083.95155442
0.38600002 25892.61912559  1803.67993374
0.38700002 26076.75161322  1669.43371737
0.38800002 26262.24475143  1685.64225923
0.38900002 26448.99579402  1547.26632725
0.39000002 26637.46825620  1562.28758724
0.39100002 26825.89141420  1735.09873887
0.39200002 27015.67450001  1592.57408723
0.39300002 27205.69179939  2090.21339998
0.39400002 27397.13037148  1623.28005142
0.39500002 27587.97614517  1638.72586066
0.39600002 27779.20698257  2315.95259586
0.39700002 27970.22979882  1836.80507791
0.39800002 28162.51590400  2359.73731940
0.39900002 28353.71852036  1871.34551101
0.40000002 28544.79796447  2747.15148626
0.40100002 28735.39714561  1906.01898297
0.40200002 28926.90836351  2622.94754014
0.40300002 29116.75763988  2117.37071589
0.40400002 29306.15971384  3382.66364524
0.40500002 29494.91126437  2514.73625355
0.40600002 29683.21184889  2355.80822001
0.40700002 29870.52502190  2559.30670514
0.40800002 30057.13509655  2028.40585810
0.40900002 30241.93145323  2231.85464700
0.41000002 30426.51099736  2063.37394105
0.41100002 30609.54326513  2270.00383610
0.41200002 30790.61946237  1907.47896607
0.41300002 30970.97812922  2500.28718284
0.41400002 31149.68479768  3490.32234696
0.41500002 31327.41846669  2345.79720594
0.41600002 31502.32610010  2758.65882730
0.41700002 31676.46750951  3376.39483183
0.41800002 31849.62642825  2402.09893904
0.41900002 32019.02691698  2622.35842876
0.42000002 32187.50003826  2439.16886848
0.42100002 32354.54735219  3072.06441666
0.42200002 32519.43419469  3714.04475537
0.42300002 32681.76645265  2702.12857835
0.42400002 32842.04474375  2303.04849679
0.42500002 33000.62099076  3163.10967185
0.42600002 33155.61221719  2548.34047577
0.42700002 33309.74065137  2993.87963161
0.42800002 33460.95976222  2368.53414901
0.42900002 33610.40239986  2167.87105752
0.43000002 33757.31073158  5456.02560554
0.43100002 33900.46154894  3514.80001995
0.43200002 34042.02131200  2211.02938899
0.43300002 34180.66989790  2670.19405896
0.43400002 34317.08366468  3134.86574132
0.43500002 34450.46648279  2478.36667622
0.43600002 34582.00906399  2493.53588172
0.43700002 34709.95060728  2736.53263556
0.43800002 34834.47876528  2752.62064248
0.43900002 34957.30313265  2768.61853931
0.44000002 35076.54042364  2320.31325898
0.44100002 35193.62682395  3266.67259661
0.44200002 35307.52934260  2346.18543600
0.44300002 35418.80266105  2594.78160592
0.44400002 35526.54420551  2845.67632572
0.44500002 35630.59255177  3098.79278108
0.44600002 35732.46013428  2875.03387866
0.44700002 35831.48015968  2889.45069701
0.44800002 35926.42904607  2419.64511092
0.44900002 36019.65530400  2917.59221789
0.45000002 36109.50764609  2442.80830803
0.45100002 36194.98331580  2454.01998511
0.45200002 36278.36849487  2958.13830727
0.45300002 36357.87095925  2971.16535560
0.45400002 36435.00053771  3481.36446637
0.45500002 36508.73538016  2497.19761835
0.45600002 36578.96832886  3259.73491712
0.45700002 36646.04260147  2769.34157064
0.45800002 36709.31909318  3032.92408722
0.45900002 36769.64631808  2537.10571619
0.46000002 36827.56793057  3055.95173171
0.46100002 36880.95747100  2811.43552126
0.46200002 36931.92757539  3590.89148834
0.46300002 36979.21303454  3345.87935394
0.46400002 37022.81988293  4131.74689476
0.46500002 37064.07364136  3108.93464439
0.46600002 37101.25412746  2598.94297481
0.46700002 37135.18206765  2867.57889518
0.46800002 37166.50142361  4444.92794843
0.46900002 37193.79197424  3408.81119600
0.47000002 37217.49219150  2892.35754275
0.47100002 37238.42612187  3163.77683327
0.47200002 37255.86271153  2907.63394313
0.47300002 37270.56221193  3444.91822853
0.47400002 37280.63648183  3718.74366532
0.47500002 37288.57102711  2928.64450728
0.47600002 37293.50171821  3202.02020929
0.47700002 37294.06207723  2941.38281545
