# SAXS profile: number of points = 501, q_min = 0, q_max = 0.5, delta_q = 0.001
#    q    intensity    error
0.00000000 1646666.22097351 345.79990640
0.00100000 1646598.60949268 740.96939187
0.00200000 1646395.71428254 889.05371386
0.00300000 1646057.71856285 1086.39813295
0.00400000 1645584.47426612 1481.02608312
0.00500000 1644976.42934405 1776.57461401
0.00600000 1644233.33781386 1899.08958249
0.00700000 1643355.84274076 2366.43251190
0.00800000 1642343.38159964 2438.88002464
0.00900000 1641197.29676432 2954.15526046
0.01000000 1639916.78849214 2976.44909963
0.01100000 1638503.05066096 3834.09730548
0.01200000 1636955.53893698 4788.09516132
0.01300000 1635275.61964888 3777.48684799
0.01400000 1633462.61594444 4410.34925856
0.01500000 1631518.17023377 5090.33691780
0.01600000 1629441.23785333 4155.07534227
0.01700000 1627233.89000826 5711.59121014
0.01800000 1624895.66907321 7409.52458438
0.01900000 1622427.38774799 6327.46709773
0.02000000 1619829.47725004 6122.95570098
0.02100000 1617103.68489948 5336.44240211
0.02200000 1614248.15581646 8353.73458588
0.02300000 1611265.85803264 6380.61308824
0.02400000 1608156.54592525 7839.76351886
0.02500000 1604921.56762148 8762.87215942
0.02600000 1601561.16524894 7783.58761912
0.02700000 1598076.18502522 7383.11231297
0.02800000 1594466.70919494 11097.48880492
0.02900000 1590735.21450225 7874.13967332
0.03000000 1586881.95302745 10330.60198906
0.03100000 1582907.12237086 9877.34089808
0.03200000 1578811.79466537 11722.67811531
0.03300000 1574598.73324238 10439.59008267
0.03400000 1570265.81509763 9068.28550060
0.03500000 1565816.55897868 13528.65569430
0.03600000 1561250.55673144 10397.92918836
0.03700000 1556569.50423984 10646.93590139
0.03800000 1551775.06937518 9985.67303356
0.03900000 1546867.89004232 12065.57010109
0.04000000 1541847.34974994 11378.83396844
0.04100000 1536717.26707373 12585.71500089
0.04200000 1531477.94461390 10865.83652113
0.04300000 1526129.44848694 13094.19127582
0.04400000 1520675.23491512 11291.01414362
0.04500000 1515114.99729624 12545.15276052
0.04600000 1509449.30626112 11705.77991422
0.04700000 1503680.92210976 10826.50314271
0.04800000 1497810.39249860 11008.90689709
0.04900000 1491840.20444451 11188.80205414
0.05000000 1485769.67731289 15912.59398501
0.05100000 1479602.57713058 17311.35095886
0.05200000 1473336.89640571 12884.33175949
0.05300000 1466977.97279652 11882.52213359
0.05400000 1460524.03091894 14459.18858039
0.05500000 1453979.38572608 15877.45563280
0.05600000 1447342.14369536 13612.25349666
0.05700000 1440617.37751242 20053.39483104
0.05800000 1433803.63735787 12689.16278310
0.05900000 1426903.23335684 14126.34267002
0.06000000 1419918.42313170 15590.70501437
0.06100000 1412850.88672921 14453.46524667
0.06200000 1405700.95551406 13283.87465054
0.06300000 1398471.90353879 13425.33090168
0.06400000 1391161.94486363 17632.97847578
0.06500000 1383777.07029420 15069.33300041
0.06600000 1376315.21187945 15215.16537922
0.06700000 1368779.25875877 19546.16872982
0.06800000 1361172.15372157 14088.13245047
0.06900000 1353494.71206385 17054.03417046
0.07000000 1345746.28609265 24364.73765067
0.07100000 1337931.85104614 15894.63113490
0.07200000 1330050.27117489 14564.05115164
0.07300000 1322106.12617943 19077.99229468
0.07400000 1314099.04173106 22175.42236844
0.07500000 1306030.94493363 14888.75347012
0.07600000 1297902.13218094 23985.23252715
0.07700000 1289718.16370311 15089.70322286
0.07800000 1281477.20102701 21259.70776204
0.07900000 1273181.09310067 15278.17383381
0.08000000 1264834.15875993 15367.73574985
0.08100000 1256435.95836463 20090.41191686
0.08200000 1247987.85574193 23306.17429963
0.08300000 1239492.41414262 17179.36566628
0.08400000 1230950.70657004 23541.93336818
0.08500000 1222366.39459684 25229.64356889
0.08600000 1213738.54597356 17423.21764550
0.08700000 1205071.01703480 22269.71344054
0.08800000 1196361.86478318 19165.71797392
0.08900000 1187617.75977834 25652.54481610
0.09000000 1178837.23783341 20918.46776801
0.09100000 1170022.72270612 16146.31433192
0.09200000 1161175.13370282 17818.23326389
0.09300000 1152298.26179402 24371.10938219
0.09400000 1143390.05378424 19551.97083860
0.09500000 1134454.97031494 24504.22851057
0.09600000 1125493.84447646 18013.52982762
0.09700000 1116509.89208147 18053.96580372
0.09800000 1107503.63467544 16446.42974820
0.09900000 1098477.18512703 19772.59026204
0.10000000 1089429.77126639 18155.34799195
0.10100000 1080364.78148260 21488.45651433
0.10200000 1071284.15542347 18206.47507779
0.10300000 1062188.54128406 18227.15622585
0.10400000 1053080.91499049 23220.43526795
0.10500000 1043964.02634456 23238.64031979
0.10600001 1034833.64337106 19930.89690915
0.10700001 1025697.98974220 19939.56985890
0.10800001 1016554.13592944 18282.72699511
0.10900001 1007405.92097128 16622.19847836
0.11000001 998253.92945648 23269.30019091
0.11100001 989099.87521618 21601.94229160
0.11200001 979946.50498067 16610.09404138
0.11300001 970792.42084262 18260.60629577
0.11400001 961642.28200603 16588.33014566
0.11500001 952495.64049263 18230.76741748
0.11600001 943354.48582078 18211.45920637
0.11700001 934220.94965891 21496.42506402
0.11800001 925093.85427436 18164.21868418
0.11900001 915977.25494621 16487.59136562
0.12000001 906871.28471864 18105.68605227
0.12100001 897779.23685840 21358.16905100
0.12200001 888699.69105991 18036.16107977
0.12300001 879636.08920025 27814.09445096
0.12400001 870588.07995956 24485.29090255
0.12500001 861558.01237151 22796.82608155
0.12600001 852548.39136039 17865.15238282
0.12700001 843559.02541505 19435.60086149
0.12800001 834589.96449291 19379.17988885
0.12900001 825644.46413987 22540.09493338
0.13000001 816722.80293731 17653.46421758
0.13100001 807825.82906991 19193.94260346
0.13200001 798956.24630422 27096.60237075
0.13300001 790115.44242484 22233.84959801
0.13400001 781301.80171969 17403.49845380
0.13500001 772519.20422252 25215.02801467
0.13600001 763766.54084205 21973.56441610
0.13700001 755047.02944948 18755.36909590
0.13800001 746359.38048820 23342.39072550
0.13900001 737708.43488719 20139.44122216
0.14000001 729091.52454581 16962.31511851
0.14100001 720511.29324415 16881.58039690
0.14200001 711967.55293074 16798.87520372
0.14300001 703464.58022353 15194.83564953
0.14400001 694997.21400027 15116.19011753
0.14500001 686573.60954159 16539.55903406
0.14600001 678188.99520933 16449.47485480
0.14700001 669849.30208258 16357.72072856
0.14800001 661550.14607382 20699.90504724
0.14900001 653294.75611260 16169.04597666
0.15000001 645084.58910093 18994.51662229
0.15100001 636920.27715716 15973.96130483
0.15200001 628802.89111842 17317.23243855
0.15300001 620732.55914007 24376.16874772
0.15400001 612708.23567881 17094.56058215
0.15500001 604734.58771205 22641.26403245
0.15600001 596807.99309529 16865.79468085
0.15700001 588935.30853681 18145.09771241
0.15800001 581108.77889970 19403.22304327
0.15900001 573336.52170674 15136.08488749
0.16000001 565613.87817179 17757.44854340
0.16100001 557947.11337936 13558.11549512
0.16200001 550331.20947327 14801.15857749
0.16300001 542770.53842944 20028.23381354
0.16400001 535263.74391097 14572.55611594
0.16500001 527812.02470670 14456.77203924
0.16600001 520415.68553751 16947.33759966
0.16700001 513074.52679718 14222.42655433
0.16800001 505789.27029033 12821.75860726
0.16900001 498562.71498736 16527.35478222
0.17000001 491392.67422025 13864.64495781
0.17100001 484280.41736807 13743.87889391
0.17200001 477226.29655034 16099.22987438
0.17300001 470230.72355076 17182.23144997
0.17400001 463294.98664409 12161.49397375
0.17500001 456417.83317314 15664.26077429
0.17600001 449598.34678577 14324.20400511
0.17700001 442841.40939044 13006.25280809
0.17800001 436143.43825805 11710.45187034
0.17900001 429505.76977562 13915.98759803
0.18000001 422929.79885687 13779.05349761
0.18100001 416415.60466110 12504.96119866
0.18200001 409959.65105064 13504.07154351
0.18300001 403567.76701721 15593.85925419
0.18400001 397236.02031574 13227.96010141
0.18500001 390966.90646201 13089.57264673
0.18600001 384759.53548848 12951.00657639
0.18700001 378613.64645505 14947.66746824
0.18800001 372529.81032682 15841.83093261
0.18900001 366509.94715206 16712.85437977
0.19000001 360548.34458535 12395.65267252
0.19100001 354654.33090534 12256.85425523
0.19200001 348818.72008079 12117.96290820
0.19300001 343048.44140131 12977.52315143
0.19400001 337339.76383468 12827.34512596
0.19500001 331693.94798621 11702.16303794
0.19600001 326109.33601196 15418.45013526
0.19700001 320588.35599407 11425.76954758
0.19800001 315129.63900603 12228.60621954
0.19900001 309734.38201656 13008.84465949
0.20000001 304399.49724714 13766.46791362
0.20100001 299128.72222913 10876.32085429
0.20200001 293918.80509632 10739.79364582
0.20300001 288771.99447949 10603.70813847
0.20400001 283687.04366853 11340.39010666
0.20500001 278663.31362996 9471.76647798
0.20600001 273702.10075494 11047.98581919
0.20700001 268801.91275686 10902.60609677
0.20800001 263963.25204110 10757.82284546
0.20900001 259188.13769574 9797.31206803
0.21000001 254471.43530330 11275.62983131
0.21100001 249815.99778537 9532.97892615
0.21200001 245221.21713465 10185.26373519
0.21300001 240686.73661585 9271.25353275
0.21400001 236213.35135680 9141.45712968
0.21500001 231800.60306449 8261.37388380
0.21600001 227446.33627109 9624.39217434
0.21700001 223151.99065992 12405.01974729
0.21800001 218917.08362833 7910.56919093
0.21900001 214739.95066768 10629.62806064
0.22000001 210621.24485845 8378.51351663
0.22100001 206563.13257931 11005.68422421
0.22200001 202562.09924808 8130.84304828
0.22300001 198618.57588037 7340.94291166
0.22400001 194730.85405341 11172.68327963
0.22500001 190903.61944399 7118.79630570
0.22600001 187130.66048890 7646.15914915
0.22700001 183415.64616551 10036.50463279
0.22800001 179755.82111905 6174.61274744
0.22900001 176151.44092953 7900.39249931
0.23000001 172602.56309784 5980.67909418
0.23100001 169110.15838279 8239.04730606
0.23200001 165670.30937747 5790.17758658
0.23300001 162285.86038864 7974.72755666
0.23400001 158955.35023728 8404.76454130
0.23500001 155676.89009735 6062.05838710
0.23600001 152452.57430366 5961.65820011
0.23700001 149280.55296183 6928.11079064
0.23800001 146160.55586623 7335.79864590
0.23900001 143092.65703361 6181.60307624
0.24000001 140075.83155868 7089.23817051
0.24100001 137111.24704413 4977.13850313
0.24200001 134196.43302410 5869.75225813
0.24300001 131331.81442941 5768.09356259
0.24400001 128516.23879628 4722.97199918
0.24500001 125750.43985649 6496.26803029
0.24600001 123033.55601025 5014.23281240
0.24700001 120365.53994867 7611.91710644
0.24800001 117744.39592529 4397.75339585
0.24900001 115170.68183618 5614.57100512
0.25000001 112644.58713348 4241.06890621
0.25100001 110164.36023038 4997.05561646
0.25200001 107731.40206068 4088.40690162
0.25300001 105344.13234400 6020.41744829
0.25400001 103001.10941891 5121.73040817
0.25500001 100703.06319921 6187.19649569
0.25600001 98449.61329238  6072.37243517
0.25700001 96239.71463551  6704.05883870
0.25800001 94073.07830274  4385.68711798
0.25900001 91949.62894494  4661.84640808
0.26000001 89869.26248015  3870.21997183
0.26100001 87828.53367744  3796.82769053
0.26200001 85831.71292978  4740.48572942
0.26300001 83874.49324224  3321.43008955
0.26400001 81957.81698479  4560.95273102
0.26500001 80081.97222496  3514.79792727
0.26600001 78244.72353092  3447.07145827
0.26700001 76447.86143205  3380.52459249
0.26800001 74689.21604240  4219.19401389
0.26900001 72968.34532377  3250.73993800
0.27000001 71285.90662485  2897.77224143
0.27100001 69640.34608152  3409.59150550
0.27200001 68032.03033171  4178.86766088
0.27300001 66459.37533975  4643.51677474
0.27400001 64921.65009946  2945.82001267
0.27500001 63421.42610792  2625.64716513
0.27600001 61954.16079670  3603.87370410
0.27700001 60523.13473689  2523.81483797
0.27800001 59124.95775908  3464.13143905
0.27900001 57760.95975162  3881.53667901
0.28000001 56429.62498776  3092.06144755
0.28100001 55130.74296122  2565.23359140
0.28200001 53864.62476801  2286.55342962
0.28300001 52630.20770427  3138.86573605
0.28400001 51427.10540790  2638.21063229
0.28500001 50254.96017082  2155.93789337
0.28600001 49112.57441192  2325.72607136
0.28700001 48000.68361306  2695.71851930
0.28800001 46917.54042312  2237.26302097
0.28900001 45864.87777974  2394.14673343
0.29000001 44839.55006003  2935.86967915
0.29100001 43843.84491428  2496.46864759
0.29200001 42874.89175384  2072.78673996
0.29300001 41933.46155687  2034.19231641
0.29400001 41018.92183593  2178.10485259
0.29500001 40131.92810204  2494.60076891
0.29600001 39269.75486645  1924.41442833
0.29700001 38433.15232856  2405.14678658
0.29800001 37622.47051974  2362.31503576
0.29900001 36836.50524085  2154.93565860
0.30000001 36074.79303531  1628.77698265
0.30100001 35337.83589581  1760.88444605
0.30200001 34623.43720344  2045.72588401
0.30300001 33932.84062915  1547.33760594
0.30400001 33265.64903201  1826.28421832
0.30500001 32619.78723283  2096.14762682
0.30600001 31996.24086694  2062.79774635
0.30700001 31394.79775825  1740.52767012
0.30800001 30814.45650069  1571.07513907
0.30900001 30254.75814092  1969.58484822
0.31000001 29716.61323766  1663.53608780
0.31100001 29196.85279532  1776.33660817
0.31200001 28698.11578713  1751.58958000
0.31300001 28217.93959622  1727.78452328
0.31400001 27758.37970466  1311.58350314
0.31500001 27316.67437328  1553.77251192
0.31600002 26893.07931349  1406.64258009
0.31700002 26487.22454848  1389.78473786
0.31800002 26099.43096064  1498.62939672
0.31900002 25729.16977604  1852.50031159
0.32000002 25375.32180621  2199.27924508
0.32100002 25038.65389082  1330.30374421
0.32200002 24718.41882033  1317.36819341
0.32300002 24413.26756379  1423.78183174
0.32400002 24124.11833756  1293.65590711
0.32500002 23849.81354229  1516.13271867
0.32600002 23591.05243225  1157.14117660
0.32700002 23346.66753132  1608.11853571
0.32800002 23117.26366921  1483.08812093
0.32900002 22900.74087571  1246.94539973
0.33000002 22699.45077221  1465.13611947
0.33100002 22509.25153404  1457.24901332
0.33200002 22334.58354095  1227.17375077
0.33300002 22171.50206702  1221.87153678
0.33400002 22021.65092024  1659.88201672
0.33500002 21883.39796316  1433.80030245
0.33600002 21757.20371132  1209.80936966
0.33700002 21641.78416551  1536.13391281
0.33800002 21539.26068564  1314.32574928
0.33900002 21446.49039311  1531.27948659
0.34000002 21365.37366697  1202.12280630
0.34100002 21294.41246074  1310.88409317
0.34200002 21234.63954383  1420.27893315
0.34300002 21183.53859721  1420.99183640
0.34400002 21143.12628486  1312.98820447
0.34500002 21111.77436548  1533.98159805
0.34600002 21090.85972888  1536.89102123
0.34700002 21076.85371989  1320.25417954
0.34800002 21072.99294680  1654.75684952
0.34900002 21077.40922298  1327.87684394
0.35000002 21090.14655533  1221.43589560
0.35100002 21110.88484330  1671.98215878
0.35200002 21138.88759030  1119.30415092
0.35300002 21174.69583493  1124.37640209
0.35400002 21218.23067887  1468.83208831
0.35500002 21268.69270041  1249.32306839
0.35600002 21325.44616398  1256.17546579
0.35700002 21389.10577282  1378.31404128
0.35800002 21459.82757473  1271.17294660
0.35900002 21536.26966298  1628.14206364
0.36000002 21619.57948698  1756.05042701
0.36100002 21707.68206102  1296.59991092
0.36200002 21802.79118317  1780.74305423
0.36300002 21901.35221528  1315.39527636
0.36400002 22006.20518686  1807.25968658
0.36500002 22115.39262133  1214.13511242
0.36600002 22230.21581889  2080.41484596
0.36700002 22349.12163622  1357.03873003
0.36800002 22473.93875027  1492.71908250
0.36900002 22602.06023159  1756.18016318
0.37000002 22733.41946289  1771.16079425
0.37100002 22869.21300876  1786.54300487
0.37200002 23009.22313014  1673.57592365
0.37300002 23152.16261597  1298.83638428
0.37400002 23299.52888238  1834.83798641
0.37500002 23449.19391724  1454.78805954
0.37600002 23602.84386854  1735.16314919
0.37700002 23758.21749375  1616.50919485
0.37800002 23917.49156635  1631.65135195
0.37900002 24079.03736496  1921.50727275
0.38000002 24243.15765354  1801.14548319
0.38100002 24409.12270925  1678.37135700
0.38200002 24577.53593921  1835.57335858
0.38300002 24747.73952547  1995.65780988
0.38400002 24920.62233037  1726.99920931
0.38500002 25093.92928268  1598.23243173
0.38600002 25270.28500398  1760.32813677
0.38700002 25446.93584360  1925.31525714
0.38800002 25625.00327646  1644.74091322
0.38900002 25804.44849444  2264.34046266
0.39000002 25985.67278735  2286.08967177
0.39100002 26166.96397777  1692.47931027
0.39200002 26349.67698888  2329.97029813
0.39300002 26532.72652547  2508.93473911
0.39400002 26717.23780471  1741.29605642
0.39500002 26901.33603326  1757.73337969
0.39600002 27085.83587077  2258.14624353
0.39700002 27270.35480354  2442.06038836
0.39800002 27456.02618299  2300.54054287
0.39900002 27640.81761484  1990.13896256
0.40000002 27825.77070530  3012.69633700
0.40100002 28010.22167056  2195.72138079
0.40200002 28195.71907728  1704.43129898
0.40300002 28379.69109879  2407.73310690
0.40400002 28563.20291773  2082.25759136
0.40500002 28746.43867431  1925.72401803
0.40600002 28929.15287065  1942.73735308
0.40700002 29111.08288510  2494.23769977
0.40800002 29292.54579935  1976.80754693
0.40900002 29472.22921251  2900.06749192
0.41000002 29651.76462408  2010.83451326
0.41100002 29829.98231541  2580.89019222
0.41200002 30006.46390532  2788.35079052
0.41300002 30182.20296685  2061.74638236
0.41400002 30356.62465122  2267.63996889
0.41500002 30530.07916453  3429.13865424
0.41600002 30700.89443141  2304.40924521
0.41700002 30871.12860522  2129.18184079
0.41800002 31040.49223071  2536.16353788
0.41900002 31206.35106008  2949.00031491
0.42000002 31371.25199006  2773.53251986
0.42100002 31535.01725543  2595.01669291
0.42200002 31696.74359040  2815.62186655
0.42300002 31856.18213046  2026.05327950
0.42400002 32013.59707634  2857.21367445
0.42500002 32169.54008763  2466.76045081
0.42600002 32322.09683313  2898.32256037
0.42700002 32473.91485290  2501.79051882
0.42800002 32622.90449210  2519.14080425
0.42900002 32770.39361020  2959.16668323
0.43000002 32915.51915632  2340.78725572
0.43100002 33056.96420371  2570.50965829
0.43200002 33197.07824525  2587.38040104
0.43300002 33334.37789712  3472.10896630
0.43400002 33469.67664220  2839.06545571
0.43500002 33602.10924821  2417.33585387
0.43600002 33732.89426315  2874.54872086
0.43700002 33860.24937461  2669.54218720
0.43800002 33984.23133834  2909.22026158
0.43900002 34106.87518192  3376.58080302
0.44000002 34225.95733037  3169.66605858
0.44100002 34343.14143140  2732.34046177
0.44200002 34457.28080436  2976.59234335
0.44300002 34568.97440969  2992.98194623
0.44400002 34677.29516838  2777.65147462
0.44500002 34782.12009788  2792.30873379
0.44600002 34884.87464657  3508.54643385
0.44700002 34985.01121009  3056.29072416
0.44800002 35081.33824583  2362.72824283
0.44900002 35175.92528980  2849.25008351
0.45000002 35267.36598985  2624.42116451
0.45100002 35354.59881153  2876.45029563
0.45200002 35439.85285922  2889.76573909
0.45300002 35521.65666655  2902.82992036
0.45400002 35600.97999299  3158.69709958
0.45500002 35677.17814110  2928.38292061
0.45600002 35749.90386547  3185.85283396
0.45700002 35819.78724763  3445.14730076
0.45800002 35886.05076692  3211.98112612
0.45900002 35949.47284731  3224.66786723
0.46000002 36010.70318809  2739.15426782
0.46100002 36067.54000324  2499.48064069
0.46200002 36122.12879642  3261.28655295
0.46300002 36172.99479145  2517.64055681
0.46400002 36220.53139171  3789.57327647
0.46500002 36265.81690160  2788.47879373
0.46600002 36307.20156429  3560.64742617
0.46700002 36345.51723863  3316.89206040
0.46800002 36381.26341792  3071.30640331
0.46900002 36413.18957299  4364.12097717
0.47000002 36441.77988757  3089.53424530
0.47100002 36467.62614010  3356.48046902
0.47200002 36490.13089894  3624.56487399
0.47300002 36509.97601934  3893.78912702
0.47400002 36525.47279267  2862.68406581
0.47500002 36538.91374321  2608.87856492
0.47600002 36549.40859428  3138.13237065
0.47700002 36555.81665257  3931.57826733
