# SAXS profile: number of points = 501, q_min = 0, q_max = 0.5, delta_q = 0.001
#    q    intensity    error
0.00000000 1664650.74656091 274.66737318
0.00100000 1664582.57265987 599.24974039
0.00200000 1664377.99637699 823.86713429
0.00300000 1664037.18823026 1297.94905306
0.00400000 1663560.01666737 1497.20407189
0.00500000 1662946.94041655 1646.31753618
0.00600000 1662197.66357051 2443.43066493
0.00700000 1661312.87266662 2192.93308306
0.00800000 1660292.01687942 3362.09147613
0.00900000 1659136.40101482 2737.57517870
0.01000000 1657845.24418173 3556.07820232
0.01100000 1656419.76920302 2981.55571438
0.01200000 1654859.37619604 3549.67351757
0.01300000 1653165.49847979 4860.30677989
0.01400000 1651337.39823884 5201.71303505
0.01500000 1649376.77764728 4750.20533115
0.01600000 1647282.55587260 4620.62777578
0.01700000 1645056.83713858 5774.14975738
0.01800000 1642699.09875024 5149.86190631
0.01900000 1640210.21365433 5412.69394929
0.02000000 1637590.61541291 5158.41067189
0.02100000 1634842.08731754 7552.97078585
0.02200000 1631962.72827661 6193.29883519
0.02300000 1628955.47957563 7623.51199142
0.02400000 1625820.13496477 6096.82578412
0.02500000 1622558.10945899 8226.36999066
0.02600000 1619169.52718442 7869.16426204
0.02700000 1615655.37952384 8821.47877623
0.02800000 1612015.66369210 11920.85637969
0.02900000 1608252.83901377 8684.56572942
0.03000000 1604367.14561487 11190.46135504
0.03100000 1600358.95431139 8449.89566757
0.03200000 1596229.12684924 8691.46799601
0.03300000 1591980.57175143 10554.83167729
0.03400000 1587611.16715152 8334.95901212
0.03500000 1583124.37205200 17097.74400770
0.03600000 1578519.74267566 13141.17746508
0.03700000 1573799.09869167 10764.78633290
0.03800000 1568964.05792050 12849.81622905
0.03900000 1564015.36138703 9384.09260290
0.04000000 1558952.26013283 10546.31252850
0.04100000 1553778.63253797 13704.32817441
0.04200000 1548494.78579028 9987.79183171
0.04300000 1543100.71983729 13239.80479077
0.04400000 1537600.00480246 14530.32072020
0.04500000 1531992.32713062 12684.89705804
0.04600000 1526278.23996295 10760.26209195
0.04700000 1520460.53044574 14231.51122685
0.04800000 1514539.73627807 13358.24109551
0.04900000 1508518.32128497 14708.05431715
0.05000000 1502395.68323579 11493.32751195
0.05100000 1496175.57287523 15171.22101569
0.05200000 1489855.98776446 15397.66235110
0.05300000 1483442.14440602 16822.23470178
0.05400000 1476932.51282313 14621.63255881
0.05500000 1470331.33350694 16056.01891090
0.05600000 1463636.59191886 15016.91213384
0.05700000 1456853.40619890 15209.55027068
0.05800000 1449980.49286482 19248.49194154
0.05900000 1443020.04216378 12987.18098605
0.06000000 1435974.31922629 18394.83188867
0.06100000 1428845.02639087 14617.08530305
0.06200000 1421632.57024395 17464.75694181
0.06300000 1414340.19705612 13577.66652657
0.06400000 1406966.13402620 13717.92044830
0.06500000 1399516.35798119 13855.21259213
0.06600000 1391988.72699513 15388.43609693
0.06700000 1384386.23612340 18356.96235008
0.06800000 1376711.99818873 27073.04271165
0.06900000 1368966.57540913 21561.22457217
0.07000000 1361149.47344000 20294.73959936
0.07100000 1353265.54840399 16076.79546804
0.07200000 1345313.71912369 26516.13464612
0.07300000 1337298.74008050 14844.01671042
0.07400000 1329220.08085835 17944.47193254
0.07500000 1321079.56861310 21084.43090334
0.07600000 1312877.88477644 15163.74028005
0.07700000 1304620.29983509 18316.86986854
0.07800000 1296304.94194565 16897.33571068
0.07900000 1287933.86024992 20091.76916228
0.08000000 1279511.41504683 21764.49019094
0.08100000 1271037.17053755 17197.13372423
0.08200000 1262512.23971349 25149.24499523
0.08300000 1253939.54285219 22119.49457402
0.08400000 1245319.69873172 23816.74035617
0.08500000 1236656.81386652 22334.02310690
0.08600000 1227949.87894285 22434.64534163
0.08700000 1219202.52892956 17702.82155134
0.08800000 1210413.24340488 17774.91931418
0.08900000 1201588.40246445 24332.16629278
0.09000000 1192726.49431870 21164.93263592
0.09100000 1183830.19578888 19604.22896329
0.09200000 1174900.21513024 18028.84464829
0.09300000 1165940.60780415 24659.64501387
0.09400000 1156949.13423020 21432.48371889
0.09500000 1147930.32697260 19836.23698244
0.09600000 1138884.91784565 18227.85396697
0.09700000 1129816.29603125 21590.79043220
0.09800000 1120725.09007171 28292.70622912
0.09900000 1111613.05263635 26678.71451777
0.10000000 1102479.75654317 23383.59673595
0.10100000 1093328.47883865 23419.09711817
0.10200000 1084161.24239904 23450.40877611
0.10300000 1074978.55060906 20123.59941403
0.10400000 1065783.70015181 20143.31288051
0.10500000 1056578.92558200 23519.44799003
0.10600001 1047360.59473890 16810.13833654
0.10700001 1038136.38965860 20181.37236465
0.10800001 1028903.91393625 28598.38563375
0.10900001 1019666.65394164 23554.30081465
0.11000001 1010425.49309313 18505.94377707
0.11100001 1001181.87740497 23547.79886504
0.11200001 991938.59976487 20176.03206905
0.11300001 982694.29896347 21845.29529445
0.11400001 973453.76192114 20150.49382054
0.11500001 964216.78637838 20132.84744760
0.11600001 954984.85616653 18435.98351647
0.11700001 945760.37046887 28457.93088763
0.11800001 936542.22346555 18389.00742384
0.11900001 927334.37886199 23368.82744803
0.12000001 918136.75644607 19997.01949735
0.12100001 908953.30478348 19960.61551335
0.12200001 899781.82660526 18261.07303126
0.12300001 890626.39558048 19878.78208593
0.12400001 881486.44266427 24791.80736806
0.12500001 872364.14380712 21433.98802332
0.12600001 863262.37673375 18089.66395690
0.12700001 854180.55817104 19680.32098772
0.12800001 845119.12832237 19623.66708449
0.12900001 836081.02108211 21194.65488338
0.13000001 827067.16147911 19502.24458691
0.13100001 818077.50799475 16197.93542183
0.13200001 809115.41316255 17756.03857888
0.13300001 800181.97576755 17692.02431828
0.13400001 791275.85011306 17625.67039224
0.13500001 782400.59772983 17557.07024084
0.13600001 773555.45176590 17486.22181166
0.13700001 764743.50795237 25328.30617769
0.13800001 755963.28343682 18914.20224350
0.13900001 747220.07390712 17260.78452124
0.14000001 738510.61604250 17181.45029252
0.14100001 729838.24348631 18654.66638332
0.14200001 721202.35454308 20110.72860496
0.14300001 712607.47389219 15392.32216209
0.14400001 704047.99150915 16844.34899140
0.14500001 695532.48288980 19801.81072197
0.14600001 687056.22336432 15149.59043986
0.14700001 678624.79161859 19585.11241007
0.14800001 670234.31341409 14979.73761153
0.14900001 661887.58052905 17870.96551745
0.15000001 653586.38335534 14803.73228148
0.15100001 645331.07348767 20598.96883769
0.15200001 637123.03840614 21932.96163208
0.15300001 628962.15519191 23246.44235287
0.15400001 620847.49320935 20208.58685763
0.15500001 612783.78764881 14339.14130769
0.15600001 604767.45002535 17090.72894431
0.15700001 596804.94680445 16973.13348820
0.15800001 588889.09581865 18258.50727764
0.15900001 581027.67354242 13944.66482321
0.16000001 573216.29978823 16611.80915198
0.16100001 565460.99509744 15114.77311244
0.16200001 557756.88965778 15000.87225548
0.16300001 550108.17007657 17592.46010955
0.16400001 542513.65674063 16112.65636587
0.16500001 534974.77310537 13320.87247922
0.16600001 527491.23372592 15856.38723443
0.16700001 520063.47807698 17037.28034621
0.16800001 512691.81635955 16895.75960589
0.16900001 505379.33411203 15464.60835404
0.17000001 498123.60052036 17887.61933933
0.17100001 490926.20847293 12665.89677670
0.17200001 483787.23099373 15065.13508456
0.17300001 476706.98715705 13686.25824761
0.17400001 469687.22902899 12329.29034427
0.17500001 462726.46292470 14659.17503777
0.17600001 455823.70720596 13312.33199768
0.17700001 448983.79497084 16783.01504868
0.17800001 442203.45165983 14247.79588543
0.17900001 435483.68734926 14109.67213657
0.18000001 428826.13652193 11642.63015651
0.18100001 422230.81011352 14984.97215877
0.18200001 415694.02860602 18257.28259881
0.18300001 409222.00830720 11294.52796282
0.18400001 402810.59002730 12295.79384145
0.18500001 396462.21244105 11061.29624966
0.18600001 390175.96942038 14227.76739708
0.18700001 383951.84907433 14075.67545207
0.18800001 377789.81848874 16065.51279027
0.18900001 371692.73757475 10593.24352138
0.19000001 365654.32165033 13618.79585334
0.19100001 359683.89594715 13466.56570056
0.19200001 353772.65065780 14338.40620867
0.19300001 347927.10417827 13162.08297301
0.19400001 342143.53751912 12009.23873440
0.19500001 336423.51046354 9890.85167502
0.19600001 330765.36325248 15638.58711360
0.19700001 325171.06374492 13520.61346947
0.19800001 319639.73426448 11449.49582244
0.19900001 314172.46567137 10367.69185713
0.20000001 308766.04047054 13033.01518422
0.20100001 303424.25916690 9193.75548728
0.20200001 298143.96035735 10894.18082635
0.20300001 292927.39826167 13445.36821570
0.20400001 287773.20540309 9733.92913284
0.20500001 282680.92680724 9608.32515633
0.20600001 277651.57005220 8621.08165762
0.20700001 272684.03051014 12761.61323110
0.20800001 267778.33378433 10913.30650925
0.20900001 262936.91931904 12423.77002511
0.21000001 258154.58939646 9804.71176877
0.21100001 253434.06239677 15312.48677389
0.21200001 248774.82083036 8743.19149141
0.21300001 244176.42686964 8621.87004037
0.21400001 239639.80488960 9274.06088767
0.21500001 235164.42287712 9143.19319373
0.21600001 230747.92622400 8261.92988906
0.21700001 226392.34048250 11104.54482568
0.21800001 222096.47793166 9484.63053851
0.21900001 217859.09164387 7908.28540059
0.22000001 213680.85730909 8500.22490567
0.22100001 209563.96212078 6978.48026859
0.22200001 205504.54809762 8936.36569658
0.22300001 201503.45871543 8801.67149288
0.22400001 197558.59910566 7334.36333861
0.22500001 193674.82236158 7222.13446738
0.22600001 189846.29560760 9049.97333957
0.22700001 186076.15497191 11454.84864176
0.22800001 182361.81043245 6890.54133304
0.22900001 178703.52897351 6781.79924526
0.23000001 175101.41063337 6067.26416538
0.23100001 171556.34734223 7761.20952081
0.23200001 168064.52306870 7048.62643086
0.23300001 164628.79684676 6934.16525113
0.23400001 161247.67167086 6820.77683427
0.23500001 157919.17660298 6149.37302776
0.23600001 154645.36798162 6047.40740095
0.23700001 151424.60285283 7568.20200854
0.23800001 148256.73491666 5846.50461797
0.23900001 145141.31797360 5747.59646361
0.24000001 142077.72047703 9758.60869255
0.24100001 139066.88461115 5552.94096518
0.24200001 136106.47187934 6449.40547507
0.24300001 133196.97829436 6337.51252703
0.24400001 130337.21872988 5268.88231639
0.24500001 127527.76146019 5646.92954458
0.24600001 124767.67858280 5084.90698118
0.24700001 122057.52776176 5448.64829704
0.24800001 119394.59740609 4459.38842408
0.24900001 116779.81329083 4817.16752613
0.25000001 114213.24993018 5590.16778229
0.25100001 111693.36525522 4644.21034702
0.25200001 109221.14319205 4559.43683826
0.25300001 106795.26568255 4882.67977801
0.25400001 104414.39206120 5192.00589088
0.25500001 102078.87104362 3919.82883353
0.25600001 99788.83110443  5000.91750741
0.25700001 97542.91419112  4152.40205358
0.25800001 95340.74805712  4074.38706100
0.25900001 93182.40541845  4724.34817825
0.26000001 91067.78899766  3921.83451875
0.26100001 88993.38283407  3847.18412195
0.26200001 86963.57025653  3773.78430985
0.26300001 84974.01903530  3701.46844432
0.26400001 83025.51802064  4950.39674622
0.26500001 81118.42802087  4207.61306054
0.26600001 79250.58936732  3173.98625435
0.26700001 77423.63077891  3423.67311505
0.26800001 75635.62212192  4577.84624556
0.26900001 73885.92254166  3590.85600545
0.27000001 72175.15816720  3227.31235017
0.27100001 70501.89571891  3164.12522960
0.27200001 68866.45180788  3384.09760199
0.27300001 67267.21372179  3317.61913776
0.27400001 65703.53151088  3252.32496370
0.27500001 64177.96847305  3985.45203079
0.27600001 62685.78147573  3385.97264666
0.27700001 61230.38134268  3063.96842739
0.27800001 59808.57111510  3253.88546551
0.27900001 58421.31664890  3925.91266461
0.28000001 57067.33395241  3848.62118390
0.28100001 55746.39426554  2593.87984794
0.28200001 54458.57910670  3236.47350949
0.28300001 53203.13129981  3626.32560103
0.28400001 51979.46107886  2666.54647956
0.28500001 50787.34097679  2614.53243723
0.28600001 49625.53291632  2777.29308112
0.28700001 48494.65059820  2723.45970650
0.28800001 47393.02741610  2259.93661931
0.28900001 46322.48946785  2216.53122595
0.29000001 45279.63256139  2174.10166034
0.29100001 44266.99790467  2520.56298000
0.29200001 43281.62058726  2282.67277782
0.29300001 42324.22074076  2053.14804532
0.29400001 41394.10325197  2014.85807117
0.29500001 40492.08114610  2157.41818559
0.29600001 39615.38042455  1941.35180960
0.29700001 38764.62949494  1906.05692250
0.29800001 37940.39513852  2212.11484327
0.29900001 37141.16856693  2005.62319756
0.30000001 36366.81045638  1641.96156984
0.30100001 35617.63433560  2097.52258532
0.30200001 34891.37742821  2061.55713294
0.30300001 34189.34819763  2182.64809227
0.30400001 33511.25666206  1993.08208433
0.30500001 32854.82341079  1960.44740573
0.30600001 32221.06748690  1632.15825082
0.30700001 31609.88540427  1752.45212978
0.30800001 31020.27713708  1437.78991337
0.30900001 30451.74929626  2265.61025491
0.31000001 29905.00583335  1534.57544699
0.31100001 29377.18522161  1512.33756681
0.31200001 28870.66407149  1897.66883927
0.31300001 28383.22476569  1470.53494473
0.31400001 27916.70477707  1450.97079949
0.31500001 27468.35618543  1432.20015932
0.31600002 27038.56807344  1799.95756187
0.31700002 26626.80339692  2032.15773147
0.31800002 26233.49749175  1631.85478874
0.31900002 25857.98322396  1613.53822957
0.32000002 25499.38931777  1596.13434992
0.32100002 25158.25006810  1458.17224299
0.32200002 24833.80947745  1564.15756400
0.32300002 24524.75676987  1668.66452963
0.32400002 24232.11271544  1890.10488130
0.32500002 23954.64383460  1288.52035288
0.32600002 23692.92739090  2208.06247275
0.32700002 23445.98250733  1499.60511218
0.32800002 23214.23705364  1718.43397927
0.32900002 22995.76817625  1479.77775221
0.33000002 22792.73781853  1697.48922942
0.33100002 22601.01542762  1238.08368375
0.33200002 22425.26833578  1344.17064770
0.33300002 22261.15485894  1784.45425800
0.33400002 22110.65877187  1777.69704944
0.33500002 21972.08194613  1439.61087728
0.33600002 21845.68646565  1214.72945345
0.33700002 21730.43708266  1432.25317595
0.33800002 21628.25902995  1099.79702376
0.33900002 21536.08108636  1537.67626239
0.34000002 21455.74971892  1316.95398012
0.34100002 21385.82586786  1426.22079467
0.34200002 21327.29738766  1316.74740307
0.34300002 21277.66976912  1756.68449933
0.34400002 21238.99494357  1318.94164846
0.34500002 21209.43447217  1320.92364149
0.34600002 21190.61654820  1764.75462971
0.34700002 21178.80276890  1437.19362396
0.34800002 21177.51616671  1108.64302383
0.34900002 21184.44301501  1334.61997316
0.35000002 21200.03364127  1339.41818889
0.35100002 21223.80558189  1232.67868658
0.35200002 21254.84806631  1237.98868426
0.35300002 21294.01592179  1243.78352890
0.35400002 21341.00667374  1477.33125696
0.35500002 21395.00581542  1599.49071052
0.35600002 21455.50972695  1378.73112036
0.35700002 21523.06580068  1502.52529471
0.35800002 21597.81561104  1744.56363861
0.35900002 21678.41291551  1755.95152933
0.36000002 21765.94402654  1296.48851735
0.36100002 21858.45662901  1780.37137676
0.36200002 21958.02838943  1554.29911317
0.36300002 22061.22449016  1324.99720564
0.36400002 22170.79234502  1820.77640758
0.36500002 22284.79514246  1345.77884240
0.36600002 22404.48480156  1726.71372545
0.36700002 22528.39404675  1367.92415132
0.36800002 22658.36712283  1630.38288355
0.36900002 22791.60387669  1391.42748258
0.37000002 22928.20025573  1658.74072607
0.37100002 23069.25022573  1673.44349065
0.37200002 23214.64464688  1298.85942952
0.37300002 23363.00110707  2097.06307871
0.37400002 23515.85001704  1322.76662612
0.37500002 23671.09949127  1602.06008946
0.37600002 23830.32938205  1751.88674751
0.37700002 23991.33962183  1360.30902100
0.37800002 24156.23318777  1785.26649831
0.37900002 24323.51198460  1663.72829856
0.38000002 24493.39531610  1539.77736949
0.38100002 24665.10838836  1554.64185537
0.38200002 24839.37952699  1997.83139000
0.38300002 25015.33556633  2017.23675563
0.38400002 25193.99979636  1600.44891288
0.38500002 25373.23146560  1469.11017146
0.38600002 25555.39152908  1483.49054854
0.38700002 25737.95775506  2246.92381847
0.38800002 25921.87864482  1966.30419776
0.38900002 26107.12496886  2138.17363625
0.39000002 26294.22322871  2467.45002468
0.39100002 26481.29589989  1712.81029995
0.39200002 26669.84993262  2043.84404642
0.39300002 26858.68495494  2063.55286285
0.39400002 27049.00164408  2083.44945034
0.39500002 27238.81000721  1779.78393019
0.39600002 27429.10208006  2123.42403813
0.39700002 27619.24107739  1813.75564748
0.39800002 27810.66984044  2330.25613633
0.39900002 28001.19121802  1848.07870795
0.40000002 28191.59254971  2374.01412109
0.40100002 28381.62230207  2395.97666826
0.40200002 28572.64805897  2072.65998840
0.40300002 28762.04211089  1742.97983450
0.40400002 28951.08751049  2462.29010943
0.40500002 29139.58355622  2306.98093945
0.40600002 29327.64627507  2327.58875690
0.40700002 29514.76956469  2348.19517783
0.40800002 29701.38316205  2186.61593199
0.40900002 29886.18220050  2573.20040939
0.41000002 30070.83199226  2224.64025620
0.41100002 30253.98592493  2056.66606063
0.41200002 30435.29791009  2639.65351281
0.41300002 30615.98166184  2091.37780642
0.41400002 30795.07584140  2108.69291816
0.41500002 30973.21069931  2319.27412706
0.41600002 31148.68063538  1948.35006606
0.41700002 31323.39504771  2553.17005132
0.41800002 31497.22014821  2375.52045614
0.41900002 31667.40217935  2194.55107502
0.42000002 31836.58217754  2010.48025978
0.42100002 32004.55825033  2228.47749657
0.42200002 32170.36919300  2857.69403083
0.42300002 32333.77726762  2878.99966433
0.42400002 32495.08539981  3521.65504708
0.42500002 32654.78644840  3964.61781057
0.42600002 32811.01059805  2101.54532839
0.42700002 32966.42400609  2116.44452148
0.42800002 33118.97137200  2344.32649966
0.42900002 33269.79198161  2360.49185295
0.43000002 33418.21263414  2376.53630409
0.43100002 33562.87249753  2609.84908908
0.43200002 33706.04900100  3283.81197953
0.43300002 33846.34383880  2203.39708832
0.43400002 33984.51256206  2439.23850473
0.43500002 34119.64824294  2454.56761092
0.43600002 34253.08503559  3143.40576268
0.43700002 34382.96408045  2710.75301656
0.43800002 34509.42160499  2499.69007242
0.43900002 34634.35401220  4343.14819895
0.44000002 34755.66251698  2528.99590290
0.44100002 34874.83939409  3699.52313825
0.44200002 34990.96627236  3022.69476468
0.44300002 35104.47662246  2571.75407924
0.44400002 35214.62745087  3055.74944186
0.44500002 35320.98694323  3071.86638003
0.44600002 35425.30058275  3562.89977496
0.44700002 35526.82164701  3342.36353895
0.44800002 35624.28806397  2399.29591481
0.44900002 35720.11317001  3134.44007922
0.45000002 35812.62757866  3876.35899282
0.45100002 35900.74849369  2434.07086323
0.45200002 35986.82812658  3912.48813934
0.45300002 36069.15882961  3684.46474906
0.45400002 36149.12390768  4194.20230017
0.45500002 36225.75007903  3221.19384969
0.45600002 36298.89212478  4230.09159424
0.45700002 36368.92017027  3248.10841435
0.45800002 36435.23140424  4766.27502204
0.45900002 36498.62159567  2518.40500946
0.46000002 36559.63281993  3286.52834811
0.46100002 36616.18329683  2537.50162273
0.46200002 36670.38745563  3820.13779425
0.46300002 36720.82316573  3066.92329616
0.46400002 36767.69460446  3333.91086627
0.46500002 36812.27314634  3087.81361786
0.46600002 36852.80609781  3097.84702741
0.46700002 36890.11029306  2848.65445184
0.46800002 36924.80270298  2857.42599260
0.46900002 36955.54662313  3908.04924062
0.47000002 36982.75129679  4703.09670532
0.47100002 37007.13866883  4716.18997549
0.47200002 37028.10500680  4203.43067960
0.47300002 37046.36745057  3160.79622070
0.47400002 37060.04563534  2904.58121434
0.47500002 37071.58491942  3176.29354644
0.47600002 37080.20189786  3183.70628585
0.47700002 37084.45960640  3722.53823173
