# SAXS profile: number of points = 501, q_min = 0, q_max = 0.5, delta_q = 0.001
#    q    intensity    error
0.00000000 1646666.22097352 271.69992646
0.00100000 1646598.63918004 642.17348453
0.00200000 1646395.84120241 814.96596720
0.00300000 1646057.99495834 1086.39831537
0.00400000 1645584.97421304 1851.28316633
0.00500000 1644977.21798592 1480.47955479
0.00600000 1644234.47066348 1899.09089093
0.00700000 1643357.37382985 2366.43471666
0.00800000 1642345.38644744 2882.31627491
0.00900000 1641199.81542242 3200.33977688
0.01000000 1639919.89676262 3247.04153580
0.01100000 1638506.81627689 3539.17487725
0.01200000 1636960.01074966 3192.07216091
0.01300000 1635280.88293744 3777.49900619
0.01400000 1633468.69007800 5145.42660185
0.01500000 1631525.13266704 4307.22654204
0.01600000 1629449.16481815 4155.09555603
0.01700000 1627242.83755567 4832.91144434
0.01800000 1624905.67794682 6020.27580769
0.01900000 1622438.50234671 5840.77887200
0.02000000 1619841.73831910 5612.75187717
0.02100000 1617117.19214937 5870.13567365
0.02200000 1614262.92386967 8353.81101056
0.02300000 1611281.97744668 6380.67692113
0.02400000 1608174.07698142 7236.78367640
0.02500000 1604940.49303639 7511.12185045
0.02600000 1601581.58273539 6486.40570676
0.02700000 1598098.19673600 8054.41528045
0.02800000 1594490.32394496 11097.65316359
0.02900000 1590760.43508400 8590.10674386
0.03000000 1586908.84905342 11068.68973092
0.03100000 1582935.81826511 8357.90150501
0.03200000 1578842.23569010 11722.90413993
0.03300000 1574631.00686425 9636.74220627
0.03400000 1570299.91866905 8244.07495340
0.03500000 1565852.61050671 14374.52762824
0.03600000 1561288.51634960 12997.72749928
0.03700000 1556609.40280495 11534.47620823
0.03800000 1551817.02815387 13617.19505225
0.03900000 1546911.94723048 9281.47211321
0.04000000 1541893.53124087 10430.91022220
0.04100000 1536765.59610637 16458.76029744
0.04200000 1531528.43908414 11854.03066845
0.04300000 1526182.09196102 13094.64295685
0.04400000 1520730.09996797 13344.40724696
0.04500000 1515172.14717203 14636.56362177
0.04600000 1509508.68325416 11706.24038282
0.04700000 1503742.67477561 12992.33731431
0.04800000 1497874.45506644 13211.25330838
0.04900000 1491906.57050430 16783.94969942
0.05000000 1485838.50329701 18186.66412724
0.05100000 1479673.76718251 13849.74710601
0.05200000 1473410.46071170 11713.61370853
0.05300000 1467053.98284530 17824.70672252
0.05400000 1460602.54069105 15664.96297943
0.05500000 1454060.39455570 18321.16182607
0.05600000 1447425.62776260 14850.58763383
0.05700000 1440703.25949677 12534.11894270
0.05800000 1433892.01269831 15227.93388588
0.05900000 1426994.15709228 14127.24281504
0.06000000 1420011.87908106 12993.10930061
0.06100000 1412946.76409682 14454.44607219
0.06200000 1405799.37650664 13284.80472897
0.06300000 1398572.85421222 18796.82003946
0.06400000 1391265.32495179 14921.32130793
0.06500000 1383883.12504924 19180.62101041
0.06600000 1376423.62528428 23516.19873827
0.06700000 1368890.19839719 15358.94874480
0.06800000 1361285.63729372 19725.02980770
0.06900000 1353610.63136528 15634.20352425
0.07000000 1345864.79322031 24366.88322232
0.07100000 1338052.83136824 14450.97125563
0.07200000 1330173.58391059 16021.94156878
0.07300000 1322231.95035979 19079.80793769
0.07400000 1314227.21491721 17742.06823285
0.07500000 1306161.40921632 16379.26483931
0.07600000 1298035.04143171 14992.30543138
0.07700000 1289853.46461114 16600.41486791
0.07800000 1281614.77442272 18224.56294695
0.07900000 1273320.96200686 15279.85226076
0.08000000 1264976.28315885 18443.35507365
0.08100000 1256580.40027614 18547.12757827
0.08200000 1248134.56799705 21754.98654105
0.08300000 1239641.26169239 26553.11707164
0.08400000 1231101.79444701 20405.51320077
0.08500000 1222519.49981982 25232.80366084
0.08600000 1213893.81921494 17425.44659298
0.08700000 1205228.17944614 15909.01271574
0.08800000 1196521.23021166 17570.91509085
0.08900000 1187779.03781801 24052.52664555
0.09000000 1179000.37008827 28968.04045386
0.09100000 1170187.87697360 22608.03084528
0.09200000 1161342.09227555 22681.01212785
0.09300000 1152466.95159177 21124.72021537
0.09400000 1143560.48740896 17925.31148258
0.09500000 1134627.13384533 17972.49464487
0.09600000 1125667.60015155 21292.00365776
0.09700000 1116685.23509577 24622.91059145
0.09800000 1107680.45211165 19738.86658471
0.09900000 1098655.48470718 18127.81635008
0.10000000 1089609.54526272 16507.58538704
0.10100000 1080545.81992786 23145.29255142
0.10200000 1071466.52242540 18209.57440513
0.10300000 1062372.23262379 16573.00760854
0.10400000 1053265.90240329 18247.83261761
0.10500000 1044150.04535585 19922.38380273
0.10600001 1035020.70500924 18273.29140676
0.10700001 1025886.18588420 19943.22839207
0.10800001 1016743.20607458 18286.12742183
0.10900001 1007595.86702922 21612.93236500
0.11000001 998444.67086941 19948.92546296
0.11100001 989291.29104167 19944.11336624
0.11200001 980138.59819419 18274.68502365
0.11300001 970985.10143734 21584.99982119
0.11400001 961835.32806984 18250.82620945
0.11500001 952689.42503888 18234.47645387
0.11600001 943548.63107451 19871.13510619
0.11700001 934415.39267644 21500.89919807
0.11800001 925288.67073879 24774.60532587
0.11900001 916172.30548869 19789.32273067
0.12000001 907066.30559476 26341.20675527
0.12100001 897974.36200426 18076.22475868
0.12200001 888894.63510764 16400.10679037
0.12300001 879830.89536228 19637.82650971
0.12400001 870782.68843747 16327.17617750
0.12500001 861752.25864262 22801.96583812
0.12600001 852742.32484607 25991.58728612
0.12700001 843752.49308617 21060.06321992
0.12800001 834782.89437823 20998.96469775
0.12900001 825836.74044326 17714.19891742
0.13000001 816914.53072006 19262.84554233
0.13100001 808016.68042649 22398.22343722
0.13200001 799146.34312823 17537.26732666
0.13300001 790304.66699678 22239.17437771
0.13400001 781490.09659866 17407.69272243
0.13500001 772706.37880530 26797.45848042
0.13600001 763952.68326813 18839.07405767
0.13700001 755231.85500753 17196.63014940
0.13800001 746542.97582075 17121.96395785
0.13900001 737890.73045063 20144.41789128
0.14000001 729272.19680488 16966.51845882
0.14100001 720690.40349693 16885.77695032
0.14200001 712145.20974460 18330.61856340
0.14300001 703640.49413363 19758.22600722
0.14400001 695171.35393160 16631.97542734
0.14500001 686745.83985713 18047.68152279
0.14600001 678359.21868372 17949.38577312
0.14700001 670017.61903940 20824.14858216
0.14800001 661716.34898365 19226.16942678
0.14900001 653458.87456060 17643.39044557
0.15000001 645246.42554522 14614.83222817
0.15100001 637079.87996510 21788.13292288
0.15200001 628959.96885428 15878.09516297
0.15300001 620887.26165342 18645.24534730
0.15400001 612860.49192123 22798.41137535
0.15500001 604884.32377217 18400.58199753
0.15600001 596954.99082431 16869.94883687
0.15700001 589079.47214245 19545.65780818
0.15800001 581250.22231366 15249.10030214
0.15900001 573475.04034112 15139.74177961
0.16000001 565749.50222749 17761.70646083
0.16100001 558079.76164473 17629.74050256
0.16200001 550460.82625065 17496.39818831
0.16300001 542896.94607151 16026.31860460
0.16400001 535386.87363608 18551.15604728
0.16500001 527932.07210074 14460.06013752
0.16600001 520532.36914446 14343.27010896
0.16700001 513187.80227632 18105.26651914
0.16800001 505898.94328034 19236.80822653
0.16900001 498668.92302021 15259.26976493
0.17000001 491495.37544801 13867.54267309
0.17100001 484379.53124092 16246.09024498
0.17200001 477321.93190008 12386.50471773
0.17300001 470322.59133671 19640.67234174
0.17400001 463383.00223237 12163.80438305
0.17500001 456502.13502532 12051.65693384
0.17600001 449678.77639960 15520.66370046
0.17700001 442917.92861216 15373.68202824
0.17800001 436216.03842831 15226.12154050
0.17900001 429574.35871993 12758.35905660
0.18000001 422994.29726114 14929.58442703
0.18100001 416476.00661024 17054.69327629
0.18200001 410015.87825487 12380.43002873
0.18300001 403619.99454239 12253.90361317
0.18400001 397283.97485394 15434.48315221
0.18500001 391010.71475713 13091.03934852
0.18600001 384798.98679464 16190.41813428
0.18700001 378648.88210543 10677.89897985
0.18800001 372560.64681517 12674.51380347
0.18900001 366536.50408082 13580.17811782
0.19000001 360570.51583603 11363.38034348
0.19100001 354672.12603097 10214.55771233
0.19200001 348832.11912271 12118.42839093
0.19300001 343057.35697597 10981.26651569
0.19400001 337344.20698806 13814.24592894
0.19500001 331694.01094086 13652.52613548
0.19600001 326105.03727184 11563.68516812
0.19700001 320579.40695707 11425.45060389
0.19800001 315116.20533816 13168.70684342
0.19900001 309716.39317356 11149.79068119
0.20000001 304377.05277060 10094.66543222
0.20100001 299101.63008447 9969.05780188
0.20200001 293887.28312790 10738.64183304
0.20300001 288735.89133221 10602.38243084
0.20400001 283646.44053208 13083.19268793
0.20500001 278618.04454981 10331.15758023
0.20600001 273652.38913801 10196.28850124
0.20700001 268747.59898957 12577.38822723
0.20800001 263904.47713547 9100.74632421
0.20900001 259124.93361396 9794.92295363
0.21000001 254403.61270322 8857.06219496
0.21100001 249743.63529501 12706.95676451
0.21200001 245144.41975401 10965.31041398
0.21300001 240605.59598050 10040.47199493
0.21400001 236127.67855156 9899.65339130
0.21500001 231710.52573413 12011.87422195
0.21600001 227351.77134777 10360.42071014
0.21700001 223053.22205049 8752.60884708
0.21800001 218813.87141031 10063.25042196
0.21900001 214632.32704636 8499.44055290
0.22000001 210509.42839887 8374.06545765
0.22100001 206447.07780756 6874.68801605
0.22200001 202441.77303344 8803.18091661
0.22300001 198494.15828295 8670.22524377
0.22400001 194602.21122982 9194.95491541
0.22500001 190770.88406374 9053.98658580
0.22600001 186993.85597052 6367.14109689
0.22700001 183274.83788252 8148.39967759
0.22800001 179611.01254116 8020.53014432
0.22900001 176002.65748818 10929.76554689
0.23000001 172449.82379724 6572.92534488
0.23100001 168953.59983758 6467.54410765
0.23200001 165509.90240226 6363.02849879
0.23300001 162121.78040301 7966.66466578
0.23400001 158787.51382652 8395.89019066
0.23500001 155505.44876566 5504.89314666
0.23600001 152277.45534611 6496.15655231
0.23700001 149102.05454838 5855.23795906
0.23800001 145978.63455788 6803.33458536
0.23900001 142907.37047109 6173.59869636
0.24000001 139887.10690186 5056.91915370
0.24100001 136919.25823898 5467.18624009
0.24200001 134001.12548900 6349.64363165
0.24300001 131133.48502813 6239.33151278
0.24400001 128314.86977405 5187.12885599
0.24500001 125545.97956900 4632.64686524
0.24600001 122826.12308964 6370.99130604
0.24700001 120155.32197293 5810.71164549
0.24800001 117531.26522597 7023.66874217
0.24900001 114954.84656529 6897.29112021
0.25000001 112426.20641911 5502.70093351
0.25100001 109943.47123268 4987.03609105
0.25200001 107507.97915966 5303.90640277
0.25300001 105118.28416110 5206.50886082
0.25400001 102772.99419936 4717.28065693
0.25500001 100472.58066019 4243.96200788
0.25600001 98217.11414720  5300.77790132
0.25700001 96005.08562097  4830.01608612
0.25800001 93836.42108715  3645.54513172
0.25900001 91711.08479808  4649.75221926
0.26000001 89628.82897721  4561.65946663
0.26100001 87586.35931719  5851.64494286
0.26200001 85587.96777578  4051.73458622
0.26300001 83629.17937791  3974.05879208
0.26400001 81711.05983946  4222.41921700
0.26500001 79833.85697060  4459.51946140
0.26600001 77995.25493204  3748.45212941
0.26700001 76197.17603150  5207.31525640
0.26800001 74437.47222526  3003.55214642
0.26900001 72715.58386011  3239.47941426
0.27000001 71032.26925553  2887.46188188
0.27100001 69385.83443383  3397.13061464
0.27200001 67776.70941877  3608.09329666
0.27300001 66203.47004152  2720.96274747
0.27400001 64665.22615279  2667.44070504
0.27500001 63164.52244601  3138.01362363
0.27600001 61696.83757150  2819.85409466
0.27700001 60265.55133465  3015.68833151
0.27800001 58867.21688515  2709.95245756
0.27900001 57503.21917095  2656.64885143
0.28000001 56171.78026237  2604.40471513
0.28100001 54873.18288082  2785.36289486
0.28200001 53607.19243359  2275.62542651
0.28300001 52372.98867944  3123.52519268
0.28400001 51170.37168549  3062.54689033
0.28500001 49998.68854332  2788.42699204
0.28600001 48856.96040185  2523.95069382
0.28700001 47745.72742260  2887.66173120
0.28800001 46663.34045861  2427.42708555
0.28900001 45611.58834763  2182.51460574
0.29000001 44587.17427693  2140.85327424
0.29100001 43592.56874387  2864.03190204
0.29200001 42624.73961463  2060.69313421
0.29300001 41684.55163529  3125.09098403
0.29400001 40771.30809683  2164.95656242
0.29500001 39885.79232220  2833.48682070
0.29600001 39025.09400821  2086.28162444
0.29700001 38190.10676636  1877.80763859
0.29800001 37381.14072521  1844.19866498
0.29900001 36596.93289773  1976.23447003
0.30000001 35837.23008791  2103.46631959
0.30100001 35102.25775110  1908.15882168
0.30200001 34389.83217465  2031.92333023
0.30300001 33701.33878397  1997.81545769
0.30400001 33036.45377820  1511.41783191
0.30500001 32392.92721722  1486.83542966
0.30600001 31771.71405459  1902.01375192
0.30700001 31172.78718635  1584.20111981
0.30800001 30594.90745504  1985.30363875
0.30900001 30037.96939568  1815.79533594
0.31000001 29502.47857162  1926.80696674
0.31100001 28985.56068339  1627.82916505
0.31200001 28489.71713396  1605.11073932
0.31300001 28012.52005054  1451.32873253
0.31400001 27555.93205058  1562.42142124
0.31500001 27117.43074314  1413.90290589
0.31600002 26696.94343011  1650.27163627
0.31700002 26294.31655844  1505.08675107
0.31800002 25909.91142040  1487.74718420
0.31900002 25543.01950103  1593.88449233
0.32000002 25192.64481582  1455.63108638
0.32100002 24859.54373974  1440.85922338
0.32200002 24542.86418310  1308.01200857
0.32300002 24241.33192228  1531.56742337
0.32400002 23955.90025988  1167.85019297
0.32500002 23685.43096099  2084.79173190
0.32600002 23430.58418104  1149.27020850
0.32700002 23190.02711858  1255.04432709
0.32800002 22964.61156556  1133.30363443
0.32900002 22752.15444025  1351.47803775
0.33000002 22554.88904431  1119.85029408
0.33100002 22368.80915255  1225.36342340
0.33200002 22198.39781130  1219.69102550
0.33300002 22039.43473795  1435.42845246
0.33400002 21893.86565315  1320.20016140
0.33500002 21759.97267636  1645.05401224
0.33600002 21638.13808857  1203.18872539
0.33700002 21527.15878700  1964.56860394
0.33800002 21429.08730822  1634.50371184
0.33900002 21340.78053896  1850.24576035
0.34000002 21264.18366335  1305.19565507
0.34100002 21197.83438133  1522.42853737
0.34200002 21142.56979787  1305.34232114
0.34300002 21096.21110136  1415.13390770
0.34400002 21060.42010298  1307.85215033
0.34500002 21033.76877177  1528.31371134
0.34600002 21017.57442665  1422.15424093
0.34700002 21008.26624999  1315.95786022
0.34800002 21009.21893589  1209.81592972
0.34900002 21018.36287570  1213.81051356
0.35000002 21035.92581853  1218.29570148
0.35100002 21061.63165388  1668.08130599
0.35200002 21094.40494303  1116.94879464
0.35300002 21135.09576759  1346.72836610
0.35400002 21183.51237071  1353.62650460
0.35500002 21238.85144969  1814.64755381
0.35600002 21300.50678477  1140.64219235
0.35700002 21369.11548257  1377.02586692
0.35800002 21444.67608429  1270.27544802
0.35900002 21526.10258538  1394.89151360
0.36000002 21614.24794853  1170.41158185
0.36100002 21707.34564811  2003.80517169
0.36200002 21807.31088420  1662.37138744
0.36300002 21910.82950296  1674.86388654
0.36400002 22020.60669750  1326.19110118
0.36500002 22134.75454112  1944.31693099
0.36600002 22254.39112400  1347.61471835
0.36700002 22378.21692331  1482.33315922
0.36800002 22507.95326656  1245.81527232
0.36900002 22640.98503610  1507.88967483
0.37000002 22777.16536307  1521.05917500
0.37100002 22917.81598734  1406.69561194
0.37200002 23062.58694418  1548.42216078
0.37300002 23210.37215834  2343.78349158
0.37400002 23362.49181345  1576.96827211
0.37500002 23516.97490887  1591.62893723
0.37600002 23675.31032656  1606.60663487
0.37700002 23835.47110336  1621.76553070
0.37800002 23999.38011867  1500.80130682
0.37900002 24165.55770021  1515.18053958
0.38000002 24334.36302707  1529.77980417
0.38100002 24504.87798073  1544.54253230
0.38200002 24677.94348540  1843.07229652
0.38300002 24852.59581288  2004.11342129
0.38400002 25029.89641702  1590.02424522
0.38500002 25207.64880416  1751.42752189
0.38600002 25388.43001416  1621.17827536
0.38700002 25569.48637497  1934.58743078
0.38800002 25751.87975871  2253.93338266
0.38900002 25935.56187947  1820.67653019
0.39000002 26121.04190122  1685.19909810
0.39100002 26306.49116646  1856.18610464
0.39200002 26493.26568493  1717.95589473
0.39300002 26680.46772838  2049.86043269
0.39400002 26868.99974530  1910.38597240
0.39500002 27057.07418059  1767.90931072
0.39600002 27245.53212837  1784.71866663
0.39700002 27433.82243582  1801.57920472
0.39800002 27623.37984299  1983.91123432
0.39900002 27811.99783122  2002.46393872
0.40000002 28000.58828185  1684.23546495
0.40100002 28188.65081125  2039.73086934
0.40200002 28377.79003431  2230.06873551
0.40300002 28565.24093371  1731.05368260
0.40400002 28752.30551436  1921.37290703
0.40500002 28938.82785157  1938.61216963
0.40600002 29124.90461844  2133.69061344
0.40700002 29310.10699890  2152.53435999
0.40800002 29494.77721590  1809.50466793
0.40900002 29677.54259136  2007.68585143
0.41000002 29860.14799002  2024.96603189
0.41100002 30041.36065519  2970.48988233
0.41200002 30220.76902416  2808.26509463
0.41300002 30399.40033600  2454.14370541
0.41400002 30576.56310761  3426.10405855
0.41500002 30752.78431839  2110.87121563
0.41600002 30926.20448224  2321.32101843
0.41700002 31099.00217429  3119.85204596
0.41800002 31270.86672453  2554.98628679
0.41900002 31439.05857264  2178.72686232
0.42000002 31606.32875750  2395.12770674
0.42100002 31772.41840613  2413.43301649
0.42200002 31936.32840558  2836.90418669
0.42300002 32097.82882647  2857.99081414
0.42400002 32257.30271953  2262.04346040
0.42500002 32415.17701031  2278.46290002
0.42600002 32569.62861405  2503.30177390
0.42700002 32723.22354617  2941.16347170
0.42800002 32873.96340273  2538.52757425
0.42900002 33023.13459122  2768.98996669
0.43000002 33169.79786777  3431.08405403
0.43100002 33312.69861162  3237.99445849
0.43200002 33454.24185847  3041.99435634
0.43300002 33592.89718724  3280.34656578
0.43400002 33729.40147428  3081.18097069
0.43500002 33863.05196124  2436.10807354
0.43600002 33994.86081460  2451.19955520
0.43700002 34123.20982656  3362.84248777
0.43800002 34248.18171770  3382.86430948
0.43900002 34371.66526181  2495.38301626
0.44000002 34491.50184416  2737.93554614
0.44100002 34609.33797065  3441.89882429
0.44200002 34724.10770298  2768.90047945
0.44300002 34836.29786530  2320.09754778
0.44400002 34945.14164158  4665.17663024
0.44500002 35050.31348383  2813.83929983
0.44600002 35153.38638609  3064.14506956
0.44700002 35253.68082079  3316.66644880
0.44800002 35350.11056583  3095.07907727
0.44900002 35444.79516810  3110.28092340
0.45000002 35536.24328621  2884.83236669
0.45100002 35623.31349308  2415.26076930
0.45200002 35708.47493341  3396.94738141
0.45300002 35789.94020865  2924.75405246
0.45400002 35868.97308309  3182.47478762
0.45500002 35944.79418432  2950.34884648
0.45600002 36017.06110662  2962.76358705
0.45700002 36086.39665955  2974.96268161
0.45800002 36151.98667699  3982.50304108
0.45900002 36214.67732295  2748.69413908
0.46000002 36275.14059061  5267.69479052
0.46100002 36331.16498027  3776.62477869
0.46200002 36384.81848297  3032.31091609
0.46300002 36434.70697438  3043.02687072
0.46400002 36481.18367907  3053.47521866
0.46500002 36525.31541771  4340.30343680
0.46600002 36565.54600626  2561.41661914
0.46700002 36602.56700133  2826.45035781
0.46800002 36637.02571890  3866.12232223
0.46900002 36667.54204563  2843.56802041
0.47000002 36694.66103480  3629.46909498
0.47100002 36718.94896318  3379.61222275
0.47200002 36739.88954469  2867.36481542
0.47300002 36758.02013289  3920.24303298
0.47400002 36771.84880518  3405.99265702
0.47500002 36783.47954014  2888.97462001
0.47600002 36792.15331287  3158.97443317
0.47700002 36796.68719472  3165.98711630
