# SAXS profile: number of points = 501, q_min = 0, q_max = 0.5, delta_q = 0.001
#    q    intensity    error
0.00000000 1628779.37420970 268.74859674
0.00100000 1628712.35347796 684.05920471
0.00200000 1628511.23349448 879.39609393
0.00300000 1628176.19382211 1172.28690131
0.00400000 1627707.09123255 1587.01447426
0.00500000 1627104.35824236 1610.83337842
0.00600000 1626367.78250011 2390.76073761
0.00700000 1625497.96665801 3511.07575390
0.00800000 1624494.35792860 2631.68097095
0.00900000 1623358.29761843 2435.03755052
0.01000000 1622089.00793401 2676.44697866
0.01100000 1620687.64108054 4667.58060954
0.01200000 1619153.68552562 3788.81979025
0.01300000 1617488.49546833 3736.39858932
0.01400000 1615691.37410810 4725.89747877
0.01500000 1613763.95535863 3873.03366532
0.01600000 1611705.24287839 4520.83340837
0.01700000 1609517.24463452 4780.26643100
0.01800000 1607199.56407636 4580.51896373
0.01900000 1604752.95157349 5295.68497915
0.02000000 1602177.82855586 5046.86038825
0.02100000 1599475.97638356 5806.09805751
0.02200000 1596645.48504521 6610.11260840
0.02300000 1593689.44555797 6311.01049168
0.02400000 1590607.52375436 8350.68988048
0.02500000 1587400.94632747 7429.03676810
0.02600000 1584070.13897141 9623.22653440
0.02700000 1580615.87359399 9957.88045972
0.02800000 1577038.15973495 8232.13957134
0.02900000 1573339.54190426 7080.02826364
0.03000000 1569520.32625860 7298.26985257
0.03100000 1565580.60180776 7514.78723446
0.03200000 1561521.43331713 10048.39088621
0.03300000 1557345.63409658 10325.20203006
0.03400000 1553050.94961860 13045.62857873
0.03500000 1548641.10405995 12543.99352214
0.03600000 1544115.56546658 10283.81014126
0.03700000 1539475.94261100 10530.01593445
0.03800000 1534724.10139299 8978.13640865
0.03900000 1529860.45601885 10097.07947732
0.04000000 1524884.52072039 10315.84426070
0.04100000 1519800.06342708 14362.11126531
0.04200000 1514607.30922164 9769.21759770
0.04300000 1509306.42946131 12949.84976588
0.04400000 1503900.86565344 11166.46444607
0.04500000 1498390.26372604 11372.78263012
0.04600000 1492775.08294554 10524.06482400
0.04700000 1487058.31225889 12848.18441546
0.04800000 1481240.22655510 11975.82778891
0.04900000 1475323.48597215 12171.41932582
0.05000000 1469307.36773352 12364.22207523
0.05100000 1463195.57184537 13695.51119046
0.05200000 1456986.04197186 15057.95144550
0.05300000 1450684.37268877 18800.87034650
0.05400000 1444288.51373089 13106.91887333
0.05500000 1437802.80338330 20531.82499011
0.05600000 1431225.39409639 12236.97769055
0.05700000 1424561.34168984 21069.26322707
0.05800000 1417809.13178732 20076.17824351
0.05900000 1410971.19725976 13968.61550529
0.06000000 1404049.69449172 14131.76083528
0.06100000 1397046.21687058 14291.78346646
0.06200000 1389961.19647028 18389.18748888
0.06300000 1382797.85225745 15929.83200281
0.06400000 1375554.33132896 14752.82089344
0.06500000 1368236.88037069 14900.10032423
0.06600000 1360843.02692314 23250.00420282
0.06700000 1353375.96129522 16565.32254149
0.06800000 1345838.39502456 19501.19925674
0.06900000 1338231.24292059 19672.00019195
0.07000000 1330553.91893888 17004.47988033
0.07100000 1322811.32789992 14286.36301046
0.07200000 1315002.13312793 17279.12883877
0.07300000 1307131.21472975 18861.90431234
0.07400000 1299197.89302706 20462.36777413
0.07500000 1291204.33509269 14719.73011001
0.07600000 1283150.72008696 20748.54811651
0.07700000 1275042.59010191 17901.59880441
0.07800000 1266878.10416796 16513.75686226
0.07900000 1258659.14238628 15103.91041707
0.08000000 1250389.75587522 19749.90712054
0.08100000 1242069.78033020 22916.18852228
0.08200000 1233700.57278842 21503.40199275
0.08300000 1225284.40944347 21614.01799697
0.08400000 1216822.87001984 20168.84001728
0.08500000 1208318.98650192 17146.04722339
0.08600000 1199772.19650107 17222.73068941
0.08700000 1191186.21815092 15723.65881794
0.08800000 1182559.21786306 22102.03281986
0.08900000 1173897.62121196 17432.38049379
0.09000000 1165200.09015074 20676.47657101
0.09100000 1156469.24073754 22342.98678075
0.09200000 1147705.58637999 19212.59241874
0.09300000 1138913.07421694 19270.41012131
0.09400000 1130089.63738143 28986.80056114
0.09500000 1121239.82081741 17760.43959654
0.09600000 1112364.40839653 17803.39319328
0.09700000 1103466.52350490 21087.24625555
0.09800000 1094546.46828340 21130.22056370
0.09900000 1085606.97193875 24426.15801720
0.10000000 1076646.65348968 21204.55683767
0.10100000 1067668.97285152 19602.40326349
0.10200000 1058676.11158263 17992.20136263
0.10300000 1049668.68755236 21287.28198493
0.10400000 1040649.43301053 18029.25227510
0.10500000 1031621.22449934 22963.88953779
0.10600001 1022579.65316670 18053.64462615
0.10700001 1013533.46787827 22986.94013319
0.10800001 1004478.91442062 24634.84653552
0.10900001 995420.42100871 21351.76903557
0.11000001 986358.13180082 24634.29550125
0.11100001 977294.06231764 22985.95742774
0.11200001 968231.01800407 19693.81983333
0.11300001 959167.62947997 16401.76723632
0.11400001 950107.97791847 22945.10874709
0.11500001 941052.28394504 18011.74156284
0.11600001 932002.01004475 17992.29965120
0.11700001 922959.50264486 21237.29915603
0.11800001 913923.62316894 16313.53744191
0.11900001 904898.31232745 17916.98742800
0.12000001 895883.69865470 19512.34787583
0.12100001 886882.92579992 22721.94162938
0.12200001 877894.86354074 17816.87709494
0.12300001 868922.75113291 16161.96393253
0.12400001 859966.26034828 20961.67858365
0.12500001 851027.84830875 19301.31250913
0.12600001 842109.82578875 27271.72799331
0.12700001 833212.21760412 15997.67533191
0.12800001 824334.69835096 17545.96488133
0.12900001 815481.00535691 17492.06838934
0.13000001 806650.69653809 20605.89301432
0.13100001 797845.29488147 20536.53885829
0.13200001 789067.26952957 17316.08204611
0.13300001 780317.99054999 23526.58852420
0.13400001 771595.56432335 18749.77309703
0.13500001 762904.34517149 17119.57431281
0.13600001 754242.86038883 17049.66066299
0.13700001 745614.21728587 16977.63652815
0.13800001 737017.65550612 19976.86449452
0.13900001 728457.48715930 19886.89033728
0.14000001 719931.17490182 18271.85408072
0.14100001 711441.31393365 22730.55105222
0.14200001 702988.06015102 16587.00406159
0.14300001 694574.95415938 16503.10168924
0.14400001 686197.74499680 19402.24215499
0.14500001 677863.80936593 22267.82718809
0.14600001 669568.61480535 17716.78638353
0.14700001 661318.51830678 19085.65333873
0.14800001 653108.38874795 18976.06513034
0.14900001 644941.92899201 15962.31349567
0.15000001 636820.29996557 14423.98047479
0.15100001 628744.47028649 15768.91205884
0.15200001 620714.92480637 18519.03065546
0.15300001 612732.49510253 22646.59408766
0.15400001 604795.87076367 14061.50465883
0.15500001 596909.45451547 19554.75465277
0.15600001 589069.55602940 15259.84756913
0.15700001 581283.69717814 16531.70912799
0.15800001 573543.35173851 15046.91054305
0.15900001 565857.23230587 13580.57421635
0.16000001 558220.14654693 14829.11889299
0.16100001 550638.62508799 16056.62306551
0.16200001 543107.73673860 14606.88326912
0.16300001 535631.61440403 21082.46133820
0.16400001 528209.03415785 15687.80905510
0.16500001 520841.09203617 19453.41570597
0.16600001 513528.37295291 12863.88634981
0.16700001 506270.15761918 19137.01286155
0.16800001 499067.33266361 13916.49322841
0.16900001 491923.08580830 17561.65499258
0.17000001 484834.81314126 19897.62167088
0.17100001 477803.93533930 12327.34211387
0.17200001 470830.91380857 12218.06279030
0.17300001 463915.96395425 13319.02795411
0.17400001 457060.11163515 17996.74274555
0.17500001 450262.62999404 13075.62739256
0.17600001 443522.27326095 12953.06860235
0.17700001 436844.13712996 17495.60851838
0.17800001 430224.33809523 13861.82882815
0.17900001 423664.52233898 14870.62543649
0.18000001 417165.70142992 11326.04932881
0.18100001 410728.30645805 11212.88329596
0.18200001 404348.74227872 16649.06024979
0.18300001 398032.82331740 17577.13030803
0.18400001 391776.25070480 11958.97061771
0.18500001 385581.90540241 11833.50923584
0.18600001 379448.83253425 11707.89428097
0.18700001 373376.64352793 11582.14402943
0.18800001 367366.24312105 11456.31683300
0.18900001 361419.15867674 12360.53581075
0.19000001 355529.71190111 14260.29741813
0.19100001 349707.49328879 10071.57628260
0.19200001 343942.83785077 12944.28931415
0.19300001 338243.08276317 16732.88609497
0.19400001 332604.51359538 12647.28722710
0.19500001 327028.27993189 14421.94782651
0.19600001 321512.62499171 12350.90807272
0.19700001 316060.04096821 12203.07875847
0.19800001 310669.11713943 12055.51566032
0.19900001 305341.13115859 13740.35155150
0.20000001 300073.00830673 10856.64195363
0.20100001 294868.41359568 13401.77003132
0.20200001 289724.09870394 11468.72898925
0.20300001 284642.19515158 8710.05158332
0.20400001 279621.68728522 12037.71420660
0.20500001 274661.71569853 9335.75215786
0.20600001 269763.84993663 10889.01831739
0.20700001 264926.23728998 10745.40869241
0.20800001 260149.81955140 9786.83667415
0.20900001 255436.28536403 8850.86770626
0.21000001 250780.33998190 7937.19813564
0.21100001 246185.28159057 10960.16925454
0.21200001 241650.21061603 9264.86951301
0.21300001 237175.05513982 9897.31551889
0.21400001 232760.07135788 9758.46645303
0.21500001 228405.39694776 12580.56985866
0.21600001 224108.49408683 8024.20501015
0.21700001 219871.06983680 10065.69805303
0.21800001 215692.27193966 9211.13890869
0.21900001 211570.73757050 11170.93547190
0.22000001 207507.12951153 8942.52016912
0.22100001 203503.28399761 7454.32564530
0.22200001 199556.19932984 7342.67070154
0.22300001 195665.89751813 7231.81191423
0.22400001 191830.87166562 7769.15066983
0.22500001 188055.74619823 9562.63514637
0.22600001 184334.06374296 8159.54771743
0.22700001 180669.96803879 6796.80451903
0.22800001 177060.37276627 6690.22650135
0.22900001 173505.68887291 7183.13585904
0.23000001 170005.82075820 7657.91255821
0.23100001 166561.97782651 8114.89994348
0.23200001 163170.01369199 6843.35069789
0.23300001 159832.86192001 6171.14709059
0.23400001 156549.03440099 7725.69521308
0.23500001 153316.80673043 7055.63977944
0.23600001 150137.93119250 8006.10555951
0.23700001 147011.15501103 5773.12833034
0.23800001 143935.29653058 5676.08868716
0.23900001 140911.40563879 5580.09192723
0.24000001 137937.62157232 6482.37883241
0.24100001 135015.80910720 4901.07410242
0.24200001 132143.07079929 6261.59970601
0.24300001 129320.06552796 5679.73754666
0.24400001 126545.35046317 6510.75858931
0.24500001 123819.88414794 6396.53551767
0.24600001 121142.86516123 6732.51504982
0.24700001 118514.14745320 5731.34444196
0.24800001 115931.53769122 5196.05176513
0.24900001 113396.05664654 8504.70465083
0.25000001 110907.63124475 5010.80701669
0.25100001 108464.34569804 6149.92869203
0.25200001 106067.90117830 4830.33244818
0.25300001 103716.58977442 4346.76248309
0.25400001 101408.88830256 4654.66819331
0.25500001 99145.73132887  3807.19626315
0.25600001 96926.58664650  5604.78013801
0.25700001 94750.38492193  4033.52407697
0.25800001 92616.97974667  3598.16983340
0.25900001 90526.33885933  4236.63285907
0.26000001 88478.15212155  3810.31180140
0.26100001 86469.14049975  4757.53233540
0.26200001 84503.46613345  3667.02808637
0.26300001 82576.79202770  3597.04523093
0.26400001 80690.32610131  4169.67279859
0.26500001 78844.20166449  3460.47217480
0.26600001 77035.89888034  3702.34547538
0.26700001 75267.75808960  4236.06962573
0.26800001 73537.22549874  3263.94990821
0.26900001 71843.99553017  2909.68195666
0.27000001 70188.76397560  3994.44274688
0.27100001 68569.73571285  3636.93895432
0.27200001 66987.62813985  3017.45785236
0.27300001 65440.72462349  2689.61390931
0.27400001 63928.28260890  3955.56267362
0.27500001 62452.79347272  3619.76408099
0.27600001 61009.70467155  4309.42069342
0.27700001 59602.65732380  2733.97402083
0.27800001 58227.78748690  3167.88292815
0.27900001 56886.85872135  3583.87226906
0.28000001 55577.84775086  2576.86703293
0.28100001 54301.13994333  3675.10132530
0.28200001 53056.62462228  2702.70458618
0.28300001 51843.24218446  2429.37444375
0.28400001 50661.02542601  2382.33483342
0.28500001 49509.18909889  3398.31090059
0.28600001 48386.66510685  2291.35063459
0.28700001 47294.25749132  2656.04562643
0.28800001 46230.09665195  3607.33461250
0.28900001 45196.04267153  2162.63074420
0.29000001 44189.01691462  3857.70135925
0.29100001 43211.19715122  2081.91557729
0.29200001 42259.57127495  2043.03907000
0.29300001 41335.25654377  1822.88489987
0.29400001 40437.33919371  2326.15804723
0.29500001 39566.81020095  2635.14968412
0.29600001 38720.33301725  1897.49000933
0.29700001 37899.43268202  1863.51519319
0.29800001 37103.79477437  1664.10527441
0.29900001 36332.73301547  2125.46498202
0.30000001 35585.50097434  2249.35962307
0.30100001 34862.55706039  2526.83825536
0.30200001 34161.81987024  1707.92026527
0.30300001 33484.63059370  2137.65891830
0.30400001 32830.47402395  1952.59253501
0.30500001 32197.37955976  1921.21772929
0.30600001 31586.24642087  2181.82007481
0.30700001 30996.93436901  2004.88180991
0.30800001 30428.10181813  1692.41110325
0.30900001 29879.93680107  1389.41712703
0.31000001 29352.91291113  2053.97017820
0.31100001 28843.83968651  1889.84846574
0.31200001 28355.67594805  1597.55885855
0.31300001 27885.60071585  1444.75304149
0.31400001 27435.76476481  1814.87592512
0.31500001 27003.86979454  1919.97523330
0.31600002 26589.41572892  1770.05748888
0.31700002 26192.57688420  1499.26317184
0.31800002 25813.55128400  1358.69633617
0.31900002 25451.66632607  1343.84804565
0.32000002 25105.96907886  1329.73771522
0.32100002 24777.21274079  1436.08731846
0.32200002 24464.62987955  1896.49819806
0.32300002 24166.86888358  1879.21581337
0.32400002 23884.77900352  1630.13624418
0.32500002 23617.48591762  1963.32169730
0.32600002 23365.37463121  1260.67884792
0.32700002 23127.31942576  1365.43700355
0.32800002 22904.13061838  1356.38267945
0.32900002 22693.55397641  1235.66407253
0.33000002 22497.83425321  1228.71927592
0.33100002 22313.21053301  1666.79690575
0.33200002 22143.78831224  1327.29873429
0.33300002 21985.67413442  1211.63055893
0.33400002 21840.61377787  1426.73816260
0.33500002 21707.04103247  1312.84190381
0.33600002 21585.25224494  1200.24800792
0.33700002 21474.08076652  1197.60954106
0.33800002 21375.50022210  1195.63866155
0.33900002 21286.48130696  1194.17165787
0.34000002 21209.04680343  1193.32707491
0.34100002 21141.60444520  2060.67228286
0.34200002 21084.96229153  1193.30349740
0.34300002 21037.09869531  1519.72008172
0.34400002 20999.47456663  1086.72286029
0.34500002 20970.83957358  1414.90261304
0.34600002 20952.49632538  1526.80847954
0.34700002 20940.86532618  1530.35851052
0.34800002 20939.33553678  1205.79169399
0.34900002 20945.80775436  1319.58595102
0.35000002 20960.40289647  1434.63484420
0.35100002 20983.05788257  1440.27716127
0.35200002 21012.68655778  1780.19488949
0.35300002 21049.96123209  1229.52829380
0.35400002 21094.88077112  1684.95368140
0.35500002 21146.58013079  1242.15017572
0.35600002 21204.40622759  1816.79361163
0.35700002 21269.06190168  1484.79328168
0.35800002 21340.55868183  1493.94588128
0.35900002 21417.75914755  1619.18266825
0.36000002 21501.65532798  1513.60909851
0.36100002 21590.27244439  1641.29258896
0.36200002 21685.67472416  1180.78504466
0.36300002 21784.50337463  1427.32072871
0.36400002 21889.46245503  1677.82737665
0.36500002 21998.83658483  1570.05704143
0.36600002 22113.52168617  1460.81931178
0.36700002 22232.25558531  1595.38673637
0.36800002 22356.84364108  1484.94162498
0.36900002 22484.74347275  1622.27431840
0.37000002 22615.58804962  1761.98054841
0.37100002 22750.98468043  1777.30700743
0.37200002 22890.27764612  1664.92442346
0.37300002 23032.61719881  2196.62080631
0.37400002 23179.22839569  1564.59799083
0.37500002 23328.14121215  1578.84867203
0.37600002 23480.83119044  1991.76160008
0.37700002 23635.36701589  1608.15044794
0.37800002 23793.61101497  1352.66685028
0.37900002 23953.95101622  1365.37527261
0.38000002 24117.02501249  1653.94565371
0.38100002 24281.77417214  1530.48029857
0.38200002 24448.96276025  2106.88946568
0.38300002 24617.86284922  1559.78786402
0.38400002 24789.25644448  2433.68536673
0.38500002 24961.07858020  2023.34512557
0.38600002 25136.03450446  1605.06155932
0.38700002 25311.23791344  1915.04835126
0.38800002 25487.76311466  2082.09546748
0.38900002 25665.56261364  2252.15322604
0.39000002 25845.20434839  1667.40343753
0.39100002 26024.79531205  1683.28384053
0.39200002 26205.71980110  1699.30998101
0.39300002 26387.12958270  1715.42737544
0.39400002 26569.88345328  1889.11880303
0.39500002 26752.18822225  1747.98806126
0.39600002 26934.93557086  2085.16813601
0.39700002 27117.54813150  1780.80947017
0.39800002 27301.32197787  2614.37471647
0.39900002 27484.31052932  1813.96458088
0.40000002 27667.42481765  1830.61524979
0.40100002 27849.86103987  2015.21604032
0.40200002 28033.49328349  2033.54969913
0.40300002 28215.52304393  1880.84685522
0.40400002 28397.12766773  2587.68838133
0.40500002 28578.34779660  2088.50575593
0.40600002 28759.14225994  2633.61857724
0.40700002 28939.07377694  1948.17853897
0.40800002 29118.65581912  1786.42961915
0.40900002 29296.21432175  1801.71726616
0.41000002 29473.82407818  2180.47360862
0.41100002 29650.05410725  2382.08545984
0.41200002 29824.66869590  2217.16597591
0.41300002 29998.45778623  3166.93733855
0.41400002 30170.81033717  2441.57294222
0.41500002 30342.45286476  2082.70606332
0.41600002 30511.22650230  2671.86823141
0.41700002 30679.57622071  2115.97047221
0.41800002 30847.03836175  2326.48374348
0.41900002 31010.90725370  3125.89959929
0.42000002 31173.86357975  2756.08140968
0.42100002 31335.83466409  2380.27011387
0.42200002 31495.70173315  2398.08284360
0.42300002 31653.19341007  2214.45751590
0.42400002 31808.86146259  2636.15951863
0.42500002 31962.97182564  2246.67739609
0.42600002 32113.80142491  2056.88907873
0.42700002 32263.81606743  2485.60450762
0.42800002 32411.04039981  2711.34571313
0.42900002 32556.92391644  2309.91386133
0.43000002 32700.29927735  2114.07444846
0.43100002 32840.00612396  2766.44224698
0.43200002 32978.54719382  2998.73943844
0.43300002 33114.24226999  2802.45845611
0.43400002 33247.94429131  2169.42846781
0.43500002 33378.93399225  2182.98238654
0.43600002 33508.12669334  2196.45780884
0.43700002 33633.92916926  2651.69910137
0.43800002 33756.56182332  2222.86970141
0.43900002 33877.75895661  2683.11863652
0.44000002 33995.41316507  2923.43569367
0.44100002 34111.27567568  2487.73545292
0.44200002 34224.11058230  3411.28838395
0.44300002 34334.50173257  2515.34571613
0.44400002 34441.65750702  2528.87882230
0.44500002 34545.26207794  2542.18595679
0.44600002 34646.83389575  2787.68438736
0.44700002 34745.75606144  2568.40640978
0.44800002 34841.07861662  2346.54675604
0.44900002 34934.62034061  5423.60006491
0.45000002 35025.10523523  2606.39332960
0.45100002 35111.26877352  3808.87061706
0.45200002 35195.63752324  2869.85241965
0.45300002 35276.56104374  2642.56731303
0.45400002 35355.07312505  3136.87901169
0.45500002 35430.54042475  2423.44907991
0.45600002 35502.46640123  2677.06360586
0.45700002 35571.68519301  2688.15237744
0.45800002 35637.26705017  2944.35114323
0.45900002 35700.02838869  2709.63228312
0.46000002 35760.74058662  3214.71192739
0.46100002 35817.17187287  2482.13012843
0.46200002 35871.21388324  2740.38151449
0.46300002 35921.62661097  3250.18892980
0.46400002 35968.77559581  3261.46888173
0.46500002 36013.72190250  3020.83113636
0.46600002 36054.86391586  3030.77200441
0.46700002 36092.93074727  3293.84101611
0.46800002 36128.51070597  2541.64084863
0.46900002 36160.29385202  2804.23092113
0.47000002 36188.82913455  4090.78543926
0.47100002 36214.60247345  2563.99397665
0.47200002 36237.17461445  3342.33595898
0.47300002 36256.93525042  2577.86821849
0.47400002 36272.59632628  3359.74939396
0.47500002 36286.14360021  2849.91385344
0.47600002 36296.83629081  3116.44651164
0.47700002 36303.57060240  3383.85597624
