# SAXS profile: number of points = 501, q_min = 0, q_max = 0.5, delta_q = 0.001
#    q    intensity    error
0.00000000 1646666.22097351 271.69992646
0.00100000 1646598.36186921 592.77542435
0.00200000 1646394.73073664 1037.22871321
0.00300000 1646055.49441257 1283.92333138
0.00400000 1645580.53401079 1234.18544740
0.00500000 1644970.27828353 2072.66263268
0.00600000 1644224.49383763 2417.01010434
0.00700000 1643343.76901660 2563.61638621
0.00800000 1642327.64232528 3103.99937505
0.00900000 1641177.40962782 2461.76621968
0.01000000 1639892.23273049 3788.15122118
0.01100000 1638473.39452342 2949.25223855
0.01200000 1636920.25330419 4149.59302406
0.01300000 1635234.26203751 5150.98815260
0.01400000 1633414.72980509 5512.77495748
0.01500000 1631463.27405036 5090.16564170
0.01600000 1629378.83392483 4570.40783347
0.01700000 1627163.53866247 5711.34427691
0.01800000 1624816.96259132 6483.01997246
0.01900000 1622339.74716568 6327.12529944
0.02000000 1619732.55328945 7143.02088313
0.02100000 1616996.96847428 6936.91730926
0.02200000 1614131.25170221 6125.62837851
0.02300000 1611138.42531198 5800.09859513
0.02400000 1608018.01997782 6030.06784987
0.02500000 1604771.54012863 11265.49672621
0.02600000 1601399.31990402 8431.36780493
0.02700000 1597902.03635647 9395.66440411
0.02800000 1594279.74434294 9015.65236771
0.02900000 1590535.25437278 8588.89076797
0.03000000 1586668.39627377 8115.80921999
0.03100000 1582679.75148203 11395.29473500
0.03200000 1578570.18024299 9376.70730252
0.03300000 1574342.39589709 11240.80522491
0.03400000 1569994.52039664 10715.21309611
0.03500000 1565529.88156635 10990.02027609
0.03600000 1560948.19917798 11262.24177754
0.03700000 1556251.12204541 8870.63180590
0.03800000 1551440.26200742 13613.88892916
0.03900000 1546516.45324726 12062.82889396
0.04000000 1541478.98717898 12324.12507358
0.04100000 1536331.56137765 13550.44499964
0.04200000 1531074.62521679 10862.97496988
0.04300000 1525708.01358576 11076.64069279
0.04400000 1520235.71382538 14366.22816285
0.04500000 1514657.17157237 12541.36196335
0.04600000 1508972.60077412 15957.38599500
0.04700000 1503185.30497567 11905.22816909
0.04800000 1497295.44370404 15407.17083258
0.04900000 1491305.74740199 15658.71107659
0.05000000 1485215.62588798 20451.42012082
0.05100000 1479028.66702901 13843.70896829
0.05200000 1472742.73135276 12879.13578586
0.05300000 1466363.59749502 14253.05483210
0.05400000 1459889.23895059 16861.72149621
0.05500000 1453323.88209120 17091.08965068
0.05600000 1446665.81236378 19790.38923664
0.05700000 1439920.02657653 12527.30481597
0.05800000 1433085.28136709 16487.64693198
0.05900000 1426163.54870568 15402.56704541
0.06000000 1419157.35490670 12985.29040405
0.06100000 1412068.16158731 14445.45796809
0.06200000 1404896.70562113 18586.78428418
0.06300000 1397646.13664387 17442.62460085
0.06400000 1390314.23934887 21688.90314816
0.06500000 1382907.48685239 19167.09866437
0.06600000 1375423.79338492 15205.31074730
0.06700000 1367866.01062182 13952.23396129
0.06800000 1360236.83262186 18301.98743963
0.06900000 1352537.56106933 19882.30307859
0.07000000 1344767.01847092 22914.83106781
0.07100000 1336930.70192120 17326.62270844
0.07200000 1329026.91232926 16008.12990894
0.07300000 1321060.64472438 20529.28338093
0.07400000 1313031.66868367 17725.92835794
0.07500000 1304941.56737718 16363.96802193
0.07600000 1296790.88998926 16475.72902971
0.07700000 1288585.03041088 18091.73467526
0.07800000 1280322.44280688 19723.36815639
0.07900000 1272004.42908726 15264.05386499
0.08000000 1263636.01932183 21494.44969699
0.08100000 1255216.40855346 24702.66007934
0.08200000 1246746.66329677 15521.99668642
0.08300000 1238229.87731137 17161.86690498
0.08400000 1229667.02722840 20381.73193300
0.08500000 1221061.88754176 18902.03890651
0.08600000 1212413.18925050 18986.39143510
0.08700000 1203724.96663579 17478.08733628
0.08800000 1194995.42537662 20739.14658140
0.08900000 1186230.92496758 22419.76553494
0.09000000 1177430.15414035 22500.69130260
0.09100000 1168595.68589001 19351.94546752
0.09200000 1159728.33591965 22649.49546474
0.09300000 1150831.96265593 17849.40457958
0.09400000 1141904.36747459 16272.13800126
0.09500000 1132950.25359670 21208.82974420
0.09600000 1123970.37620198 16353.76974249
0.09700000 1114967.87800467 22946.04000809
0.09800000 1105943.33962342 18065.58530215
0.09900000 1096898.74483125 23034.87472461
0.10000000 1087833.70622979 21424.88585175
0.10100000 1078751.15333503 18155.38276451
0.10200000 1069653.33030260 23136.60262271
0.10300000 1060540.99689050 21507.77242868
0.10400000 1051416.82376429 16559.81575335
0.10500000 1042283.40307571 16572.30688862
0.10600001 1033137.26096849 18240.03920066
0.10700001 1023986.16395965 23224.00729147
0.10800001 1014826.82056495 16592.41929710
0.10900001 1005663.79478538 26549.52543190
0.11000001 996497.12779371 23228.34914222
0.11100001 987328.97024610 18245.84022904
0.11200001 978162.01809803 18237.83168602
0.11300001 968994.23674395 23197.72311982
0.11400001 959831.04152117 21524.21211957
0.11500001 950671.92667264 21504.19999392
0.11600001 941518.37447712 18176.01307522
0.11700001 932373.02186116 16503.00326415
0.11800001 923234.39543109 19775.68168154
0.11900001 914106.86444855 31262.45623665
0.12000001 904990.26359658 18068.13146380
0.12100001 895887.78928676 21313.17151116
0.12200001 886798.59450603 29450.58271100
0.12300001 877725.32128699 17958.26091962
0.12400001 868668.47735265 17916.28818957
0.12500001 859629.68237068 19496.40211485
0.12600001 850612.10314469 21065.40972705
0.12700001 841614.94106591 19390.80915598
0.12800001 832638.72265149 20945.02805542
0.12900001 823686.42048659 25699.01753043
0.13000001 814758.47969070 17611.00536861
0.13100001 805855.38210717 20742.71851320
0.13200001 796980.55908435 15899.76290325
0.13300001 788134.62739834 19009.80810903
0.13400001 779316.45993211 18937.39086917
0.13500001 770529.77603809 22006.33144121
0.13600001 761773.50952367 17219.89099471
0.13700001 753050.90092141 17146.96982252
0.13800001 744360.58117276 17071.91073424
0.13900001 735707.40244583 16994.84179794
0.14000001 727088.72264723 23066.89081383
0.14100001 718506.94611703 22956.29801113
0.14200001 709962.37682129 19797.30181141
0.14300001 701459.04925411 18181.81941426
0.14400001 692991.68922685 21101.59793232
0.14500001 684568.85421077 19489.67619875
0.14600001 676184.95370849 20873.83050569
0.14700001 667846.62210573 17791.43485223
0.14800001 659549.41075993 14740.93002594
0.14900001 651296.39504325 16119.58653786
0.15000001 643089.09075153 14565.96859279
0.15100001 634928.03873657 18819.26795614
0.15200001 626814.28108300 15823.92727262
0.15300001 618748.04086241 21439.62062760
0.15400001 610728.56625040 17039.32780249
0.15500001 602759.90832246 15515.04077242
0.15600001 594838.64882113 14008.45084087
0.15700001 586971.99809674 13911.23701146
0.15800001 579151.72518126 16575.32315702
0.15900001 571386.28726451 21941.23446660
0.16000001 563670.79122530 20418.97537596
0.16100001 556011.74422503 16213.30322694
0.16200001 548403.90072641 14749.32360629
0.16300001 540851.87612142 18626.93949296
0.16400001 533353.81798876 13200.50761841
0.16500001 525911.34662839 18333.27040900
0.16600001 518524.80849882 14287.95177276
0.16700001 511193.71157008 23187.74785162
0.16800001 503918.90451846 14051.77931597
0.16900001 496703.36316952 13932.52999477
0.17000001 489544.39544179 18835.22150402
0.17100001 482443.76825746 13691.75478969
0.17200001 475401.92034601 17271.35258177
0.17300001 468418.42396381 14670.86573137
0.17400001 461495.46206851 14537.10774169
0.17500001 454631.42430714 15602.95121911
0.17600001 447825.46237090 16645.67322249
0.17700001 441082.39179052 14132.28050044
0.17800001 434398.59397135 15162.68363874
0.17900001 427775.41643791 12704.93046831
0.18000001 421214.20539572 12579.56283834
0.18100001 414715.14082269 14718.24104304
0.18200001 408274.75066367 12327.85667863
0.18300001 401898.49107572 11092.39887769
0.18400001 395582.85581572 15368.39467445
0.18500001 389330.07608322 20638.38830817
0.18600001 383139.26872397 18269.99689224
0.18700001 377010.29556795 14884.36717223
0.18800001 370943.52108998 11567.87425173
0.18900001 364941.30702974 11440.91051594
0.19000001 358997.35014050 12342.32948099
0.19100001 353121.31865744 13220.86279522
0.19200001 347303.86257757 13070.78148572
0.19300001 341552.12049387 11927.00061123
0.19400001 335861.82334255 9823.95879699
0.19500001 330234.91165182 9708.90686136
0.19600001 324669.52269545 12472.18030374
0.19700001 319167.90075064 12323.07323034
0.19800001 313728.63556412 11237.76025699
0.19900001 308352.94974410 12025.76560836
0.20000001 303037.98912570 11877.57454513
0.20100001 297787.34645783 10827.54842894
0.20200001 292597.53647832 10691.51448824
0.20300001 287471.09031203 9676.27735725
0.20400001 282406.72416914 9552.40789652
0.20500001 277403.54094594 9428.94680243
0.20600001 272463.27922539 13535.97635174
0.20700001 267583.93232322 14192.65244130
0.20800001 262766.39885003 11532.81779069
0.20900001 258012.49400781 9752.87273453
0.21000001 253316.93951158 8017.48151455
0.21100001 248682.90742826 10280.55187908
0.21200001 244109.54034466 7799.30018272
0.21300001 239596.79649246 9229.26903721
0.21400001 235144.80257283 9100.10428979
0.21500001 230753.85890628 9719.35299664
0.21600001 226421.22111381 11792.01775312
0.21700001 222148.71754170 7990.68974777
0.21800001 217935.58003636 9306.93938549
0.21900001 213780.40660088 8465.70450167
0.22000001 209683.63703700 8341.21547573
0.22100001 205647.43308225 7532.86582998
0.22200001 201668.39657449 7420.38900283
0.22300001 197746.83265654 7973.15266973
0.22400001 193881.07115591 7852.18375312
0.22500001 190075.74120564 7732.28151788
0.22600001 186324.70690709 6978.79222722
0.22700001 182631.64953288 6870.60298033
0.22800001 178993.68107353 9222.64985345
0.22900001 175411.06050606 7262.01824838
0.23000001 171884.05398246 5955.78275215
0.23100001 168413.42071025 7619.02351326
0.23200001 164995.32698799 6343.24564605
0.23300001 161632.61121252 6807.96590625
0.23400001 158323.59836755 7255.17923833
0.23500001 155066.57270038 5489.35693322
0.23600001 151863.79609238 7558.26148900
0.23700001 148713.21319158 5309.06196205
0.23800001 145614.35255582 5742.30226464
0.23900001 142567.79104442 5645.68479240
0.24000001 139572.00193487 5045.52810860
0.24100001 136628.41337797 6447.49513228
0.24200001 133734.35968771 8286.84999003
0.24300001 130890.49803254 6227.77019098
0.24400001 128095.63000994 6119.76901321
0.24500001 125350.14680460 6013.04682666
0.24600001 122653.64967528 5453.18152253
0.24700001 120005.79835875 4910.63750114
0.24800001 117404.70619141 5262.07918043
0.24900001 114850.92671391 6029.67393773
0.25000001 112344.62020319 5921.68521105
0.25100001 109883.96481941 4153.61406668
0.25200001 107470.44736949 4486.35403769
0.25300001 105102.56491326 5205.73028644
0.25400001 102778.51914936 5503.78996084
0.25500001 100499.43796768 5402.85004076
0.25600001 98264.65090027  5303.34346000
0.25700001 96073.44020714  5577.06346789
0.25800001 93925.12186262  4743.68850411
0.25900001 91820.00798273  4297.17657691
0.26000001 89757.63067871  4216.81368881
0.26100001 87734.64636694  5171.95764805
0.26200001 85755.36932903  4059.65937613
0.26300001 83815.58835797  3651.00720163
0.26400001 81916.11757067  3907.39899301
0.26500001 80057.25930530  3833.14175692
0.26600001 78236.85545798  3760.06345123
0.26700001 76456.53182808  3073.55272493
0.26800001 74714.38149536  4522.08815400
0.26900001 73009.57443694  3548.26548554
0.27000001 71342.92749608  3770.11718194
0.27100001 69713.11789524  3982.01348262
0.27200001 68120.26200300  2789.52486103
0.27300001 66562.91091095  3009.30934470
0.27400001 65040.23707287  2682.90990622
0.27500001 63554.86303340  2631.17145410
0.27600001 62101.97914469  3354.43856225
0.27700001 60685.37763973  3542.81251428
0.27800001 59301.25064149  3226.28469384
0.27900001 57951.21207320  2433.95102227
0.28000001 56633.44422197  2625.80976563
0.28100001 55348.13179795  2341.22608586
0.28200001 54095.11225051  3214.87267321
0.28300001 52873.59546073  2477.65680056
0.28400001 51683.30281271  2430.40742980
0.28500001 50523.63346860  3251.19596759
0.28600001 49393.39445550  2976.94002474
0.28700001 48293.47770922  2503.53400294
0.28800001 47222.02516806  3275.31982069
0.28900001 46180.93560517  2410.64495269
0.29000001 45166.88967841  2168.68831056
0.29100001 44182.30792870  3096.29628621
0.29200001 43224.12020953  2659.58024238
0.29300001 42293.35026532  2238.16420199
0.29400001 41389.03308151  2197.75776066
0.29500001 40512.33631118  1798.74781736
0.29600001 39659.92747741  2296.90480858
0.29700001 38833.07134901  2256.58988291
0.29800001 38031.74737147  2046.86874043
0.29900001 37254.95581878  2011.76770945
0.30000001 36502.21823425  2472.11284694
0.30100001 35774.02740237  1944.67622165
0.30200001 35068.10522465  1912.61454950
0.30300001 34385.77355094  1881.58961778
0.30400001 33726.61204255  1851.59108879
0.30500001 33088.66039325  1670.64654235
0.30600001 32472.82289564  1495.37356514
0.30700001 31878.74851030  1472.79825090
0.30800001 31305.50573704  2321.61641537
0.30900001 30752.85868414  2288.01279442
0.31000001 30221.42563095  1691.79548692
0.31100001 29708.21342419  1390.34445408
0.31200001 29215.86275319  1920.35874969
0.31300001 28741.72728193  1895.22958670
0.31400001 28288.12746983  1470.27549486
0.31500001 27852.16771322  1584.23137454
0.31600002 27434.13267263  1695.84099145
0.31700002 27033.53331850  1805.29944049
0.31800002 26650.83375470  1530.29094665
0.31900002 26285.53182501  1387.87614608
0.32000002 25936.48522539  1873.26273410
0.32100002 25604.36732321  1360.36010029
0.32200002 25288.40592889  1960.35732043
0.32300002 24987.52330844  1457.27242835
0.32400002 24702.31954950  1806.35720259
0.32500002 24431.91301095  2031.02502477
0.32600002 24176.75691154  1423.04397920
0.32700002 23935.90921785  1413.17614714
0.32800002 23709.82695026  1287.08801694
0.32900002 23496.46029889  1163.07483987
0.33000002 23298.03055547  1272.42199904
0.33100002 23110.67473824  2186.73214728
0.33200002 22938.69642534  1145.78794070
0.33300002 22778.03030537  1141.17937234
0.33400002 22630.50034901  1592.05577495
0.33500002 22494.42919797  1360.46314232
0.33600002 22370.29183485  1696.22745870
0.33700002 22256.73227063  1579.78293138
0.33800002 22155.93189429  1351.95502821
0.33900002 22064.73585489  1237.83174008
0.34000002 21985.04622279  1349.44220106
0.34100002 21915.44678608  2023.67245206
0.34200002 21856.84106324  1461.89488375
0.34300002 21806.84916556  1462.80351130
0.34400002 21767.22255598  1239.09920268
0.34500002 21736.67809342  1240.94701112
0.34600002 21716.48742804  1243.37754658
0.34700002 21702.95442982  1472.76255736
0.34800002 21699.61240011  1363.16971554
0.34900002 21704.25988367  1139.47369786
0.35000002 21717.20821764  1143.41106681
0.35100002 21738.05326860  1492.10004703
0.35200002 21766.06855638  1267.76472311
0.35300002 21801.66870109  1504.96926172
0.35400002 21845.05250687  1163.24910109
0.35500002 21895.13081943  1519.96005348
0.35600002 21951.46756112  1763.25171536
0.35700002 22014.59491650  1655.05732421
0.35800002 22084.62886095  2021.73744484
0.35900002 22160.42055681  1794.99415012
0.36000002 22242.88152183  1686.23292804
0.36100002 22330.16905961  1576.28670858
0.36200002 22424.22477963  2075.69846505
0.36300002 22521.72925833  1229.68647575
0.36400002 22625.37362405  1238.73926459
0.36500002 22733.40864883  1248.06419394
0.36600002 22846.92772947  1383.49577419
0.36700002 22964.44616297  2154.98373001
0.36800002 23087.83744399  1533.49423567
0.36900002 23214.44778250  1674.92248685
0.37000002 23344.20649608  1558.92618365
0.37100002 23478.32929733  1572.10900422
0.37200002 23616.54327021  1453.48022442
0.37300002 23757.74192560  1466.09032368
0.37400002 23903.30488760  1613.47315634
0.37500002 24051.00807372  1492.12461158
0.37600002 24202.70569329  1505.52937897
0.37700002 24356.04709487  1519.08672927
0.37800002 24513.26898183  1811.65322992
0.37900002 24672.64447022  1406.34080142
0.38000002 24834.57188298  1845.08460545
0.38100002 24998.32727711  1575.64464292
0.38200002 25164.41989042  1590.26559031
0.38300002 25332.34989153  1605.05776517
0.38400002 25502.80666515  1620.06587015
0.38500002 25673.62249846  2378.40450093
0.38600002 25847.51566738  1650.49319113
0.38700002 26021.71351770  1968.80293802
0.38800002 26197.21644401  1987.18994750
0.38900002 26373.95881663  1851.45199664
0.39000002 26552.58496920  2335.96377333
0.39100002 26731.21006620  2043.33379427
0.39200002 26911.14308669  1745.05315613
0.39300002 27091.45209575  1761.21538419
0.39400002 27273.11907199  1615.93238157
0.39500002 27454.44430090  1956.95288248
0.39600002 27636.11425726  1645.73068199
0.39700002 27817.61516272  1826.78287429
0.39800002 28000.40609428  2346.15413780
0.39900002 28182.21144777  2198.21259707
0.40000002 28364.17163622  2388.54700665
0.40100002 28545.52147648  2065.55403190
0.40200002 28727.94701552  2604.90671905
0.40300002 28908.89464493  2277.44282803
0.40400002 29089.28548564  2827.47868317
0.40500002 29269.27925163  2138.99902906
0.40600002 29448.92526855  2696.78545924
0.40700002 29627.55008913  2357.16799678
0.40800002 29805.80486785  2377.16207987
0.40900002 29982.17709786  2028.29437677
0.41000002 30158.49167297  2045.19820971
0.41100002 30333.32243208  2062.05935664
0.41200002 30506.51539393  2078.86659002
0.41300002 30678.87730451  2095.67420797
0.41400002 30849.82184772  2304.48180122
0.41500002 31019.90203325  2903.46296789
0.41600002 31187.24325003  2340.91458927
0.41700002 31353.98793695  2555.66367784
0.41800002 31519.88018516  2179.12701986
0.41900002 31682.13711372  2594.76715256
0.42000002 31843.51998649  2212.01022068
0.42100002 32003.73130051  2633.58717351
0.42200002 32161.77753349  2040.66488120
0.42300002 32317.59407072  2466.47889635
0.42400002 32471.39397257  2277.05661023
0.42500002 32623.59894221  2710.04249255
0.42600002 32772.44389087  3148.61269602
0.42700002 32920.52976633  2324.84792226
0.42800002 33065.80540489  2127.78467863
0.42900002 33209.47902498  2356.21264848
0.43000002 33350.84980690  2156.13254219
0.43100002 33488.39624864  2604.05781569
0.43200002 33624.67457694  2402.31498899
0.43300002 33758.07912236  2856.94637151
0.43400002 33889.44863983  2874.67261710
0.43500002 34017.98681000  2224.77644280
0.43600002 34144.86383572  2238.19593050
0.43700002 34268.11552274  2701.69835584
0.43800002 34388.19286425  2490.90886816
0.43900002 34506.72118571  3643.90992989
0.44000002 34621.79550882  2519.25506959
0.44100002 34734.85815091  2533.21332499
0.44200002 34844.87406614  2546.98619057
0.44300002 34952.44676242  3491.74959704
0.44400002 35056.65413625  2574.03495194
0.44500002 35157.21176348  3763.22812551
0.44600002 35255.86420373  2836.68696827
0.44700002 35351.66114256  3801.01078618
0.44800002 35443.78196290  2864.56659400
0.44900002 35534.09573448  3357.97220605
0.45000002 35621.24209626  3132.71028462
0.45100002 35704.12932146  2662.81409099
0.45200002 35785.01728744  3404.22885589
0.45300002 35862.39777565  2686.45234469
0.45400002 35937.36940553  3679.08836725
0.45500002 36009.10137204  2709.32491564
0.45600002 36077.41570739  2720.41766035
0.45700002 36142.82977028  3227.91627977
0.45800002 36204.59379835  2991.22368139
0.45900002 36263.45519097  4253.70349550
0.46000002 36320.14327944  2511.53802681
0.46100002 36372.43643884  2772.67096114
0.46200002 36422.37090807  3288.39391329
0.46300002 36468.68748018  3299.68699960
0.46400002 36511.58844199  2801.35175598
0.46500002 36552.16339526  3832.49451364
0.46600002 36588.94197553  3331.97215892
0.46700002 36622.51140716  2827.99046490
0.46800002 36653.52848424  2578.57585108
0.46900002 36680.76315779  2844.59331771
0.47000002 36704.54505472  3630.44672343
0.47100002 36725.66029305  3640.24762078
0.47200002 36743.34814897  3910.41101210
0.47300002 36758.32343170  4442.97876377
0.47400002 36769.03703716  3143.75281568
0.47500002 36777.57835704  3413.69498490
0.47600002 36783.23812672  3421.39305652
0.47700002 36784.71266966  3692.44963280
