# SAXS profile: number of points = 501, q_min = 0, q_max = 0.5, delta_q = 0.001
#    q    intensity    error
0.00000000 1664650.74656091 299.63713438
0.00100000 1664582.24111254 599.24962103
0.00200000 1664376.67359362 898.76343220
0.00300000 1664034.20115499 1996.84111252
0.00400000 1663554.71561147 1621.96590935
0.00500000 1662938.65776907 1795.97382148
0.00600000 1662185.76776044 2094.35415264
0.00700000 1661296.67445787 2392.26731064
0.00800000 1660270.85017897 2465.50231661
0.00900000 1659109.67490634 2986.39754249
0.01000000 1657812.26595084 2735.39035693
0.01100000 1656379.87446106 4174.07746538
0.01200000 1654811.98662535 3549.57186694
0.01300000 1653109.90596700 4860.14333790
0.01400000 1651272.98135603 7430.72874551
0.01500000 1649302.93142686 4749.99265402
0.01600000 1647198.66731455 6300.53518413
0.01700000 1644962.20275754 5329.67777602
0.01800000 1642593.21464776 7490.22539584
0.01900000 1640092.34436686 6888.38815716
0.02000000 1637460.22756148 5673.79994516
0.02100000 1634698.52817219 6473.40646506
0.02200000 1631805.47906640 6192.70207441
0.02300000 1628783.99603392 6449.98491789
0.02400000 1625633.68715097 6705.73926526
0.02500000 1622356.21467371 8225.34638405
0.02600000 1618951.69629887 7868.10560389
0.02700000 1615420.92351501 7463.24500846
0.02800000 1611764.01026612 7011.17376619
0.02900000 1607983.53482901 7235.92623896
0.03000000 1604079.66668359 8950.76495152
0.03100000 1600052.69125793 9216.30392572
0.03200000 1595903.64823564 8689.69576487
0.03300000 1591635.27354607 8117.34026930
0.03400000 1587245.64524139 12499.56003301
0.03500000 1582738.05960386 11110.82169150
0.03600000 1578112.28821902 8758.52360438
0.03700000 1573370.00312015 8968.20943254
0.03800000 1568512.69182936 10093.37963904
0.03900000 1563541.45119429 12195.62388409
0.04000000 1558455.39542195 12459.85146378
0.04100000 1553258.28853223 11742.63320577
0.04200000 1547950.54613837 12979.56593153
0.04300000 1542532.07731043 11198.78340110
0.04400000 1537006.84643804 14524.71537340
0.04500000 1531374.16896828 11623.13048254
0.04600000 1525634.60275375 17209.15911906
0.04700000 1519791.14642987 12036.74643953
0.04800000 1513844.21256114 12239.43102803
0.04900000 1507796.30936354 12439.32013127
0.05000000 1501647.00780044 11487.60014461
0.05100000 1495399.77808420 12830.53069366
0.05200000 1489052.69986203 17756.95427335
0.05300000 1482611.26075342 16812.81248072
0.05400000 1476073.86762978 14613.13197100
0.05500000 1469444.37978573 14812.00003921
0.05600000 1462721.15053814 12506.26642070
0.05700000 1455909.50522844 12666.41328674
0.05800000 1449007.72778698 20517.95038350
0.05900000 1442018.19284607 14275.98077595
0.06000000 1434943.16391069 17068.64973214
0.06100000 1427784.49093373 14606.23602482
0.06200000 1420542.61620517 21478.60536101
0.06300000 1413220.59054438 17636.99379462
0.06400000 1405816.50818773 15077.38275543
0.06500000 1398336.56256654 15227.88587868
0.06600000 1390778.99405637 15375.06249867
0.06700000 1383146.55882254 15518.90511626
0.06800000 1375441.90625190 17082.98927529
0.06900000 1367666.26895115 17232.59579560
0.07000000 1359818.74359178 14482.07029743
0.07100000 1351904.53495676 20440.79752595
0.07200000 1343922.17172761 22073.92270472
0.07300000 1335876.69904095 17793.87846497
0.07400000 1327767.58896194 20912.34050619
0.07500000 1319596.85502444 19556.42630812
0.07600000 1311364.83130224 15146.26451161
0.07700000 1303077.01980055 16770.60203118
0.07800000 1294731.53861527 19945.34028773
0.07900000 1286330.16995727 20066.75159254
0.08000000 1277877.82243247 17078.83789800
0.08100000 1269373.34400286 18735.95143654
0.08200000 1260818.55016065 17266.91085470
0.08300000 1252216.07370154 18933.50792295
0.08400000 1243566.74341323 17441.02439503
0.08500000 1234874.47786069 19115.85781468
0.08600000 1226138.28936971 22401.54759857
0.08700000 1217361.99769350 25710.68659860
0.08800000 1208543.89320558 20974.28025161
0.08900000 1199690.35573114 17815.40261939
0.09000000 1190800.08841039 22756.19075851
0.09100000 1181875.48828866 21202.84725603
0.09200000 1172917.68519166 22907.08346812
0.09300000 1163930.46415914 21334.84641061
0.09400000 1154911.48187048 19748.98726814
0.09500000 1145865.56981165 18150.51147894
0.09600000 1136793.39998303 16540.34474728
0.09700000 1127698.54885931 21550.32028184
0.09800000 1118580.99794981 18272.02146062
0.09900000 1109443.05694622 19969.97596407
0.10000000 1100284.48538330 16669.31073747
0.10100000 1091108.14182071 23371.53749700
0.10200000 1081915.85880165 20058.72096567
0.10300000 1072709.13491483 21754.54227942
0.10400000 1063490.07431804 26799.95113362
0.10500000 1054261.71321185 23467.86684024
0.10600001 1045020.21805630 21804.34787572
0.10700001 1035773.40680097 18457.48297776
0.10800001 1026518.33361156 18461.93309885
0.10900001 1017259.35896987 21820.21427689
0.11000001 1007996.57645341 30209.65881826
0.11100001 998732.17448399 26845.92211386
0.11200001 989468.47277445 16771.49140308
0.11300001 980204.24006624 18437.64262371
0.11400001 970944.14641557 21773.42350856
0.11500001 961688.17820226 18406.71259753
0.11600001 952437.66495812 21729.86634931
0.11700001 943195.18951309 18364.01120467
0.11800001 933959.39784836 16671.17603678
0.11900001 924734.80046643 21638.79535014
0.12000001 915520.89170944 21601.71645743
0.12100001 906321.33722004 24878.52187867
0.12200001 897134.62735257 23172.98851623
0.12300001 887964.19571998 21470.97526410
0.12400001 878809.93818302 18125.45582905
0.12500001 869674.03823984 23011.57613614
0.12600001 860559.16136990 22951.11391527
0.12700001 851464.82995702 21252.56315728
0.12800001 842391.36971049 17930.30114933
0.12900001 833342.02911234 29250.30660047
0.13000001 824317.42563407 22676.97344807
0.13100001 815317.48678256 19371.94439910
0.13200001 806346.04092651 19303.92512977
0.13300001 797403.40730895 19233.37109101
0.13400001 788488.81266843 25547.03873489
0.13500001 779605.90899711 22265.54581074
0.13600001 770753.67805429 19006.78659700
0.13700001 761935.17247071 18926.47057662
0.13800001 753149.17140429 21984.42534998
0.13900001 744400.47324298 17195.65174283
0.14000001 735686.53641340 20227.70227264
0.14100001 727009.86214022 21679.43511149
0.14200001 718370.52029101 18490.85806442
0.14300001 709772.80083039 16864.20254317
0.14400001 701211.02684802 28977.54705136
0.14500001 692694.24475255 25789.00794866
0.14600001 684216.81761687 15086.98154017
0.14700001 675785.09345368 18002.91573892
0.14800001 667394.89190404 23866.04246046
0.14900001 659049.13086486 16311.46675849
0.15000001 650749.65554160 20635.27255086
0.15100001 642496.32605745 19043.59200291
0.15200001 634291.16919632 16012.68132195
0.15300001 626133.59503747 24588.26743742
0.15400001 618023.06584275 15805.94065483
0.15500001 609964.00419355 15700.47420889
0.15600001 601952.85487671 14175.99040138
0.15700001 593996.31949245 14077.71343639
0.15800001 586086.79745554 18171.62201279
0.15900001 578232.55842711 15265.34026301
0.16000001 570428.66502167 15153.43820158
0.16100001 562681.81907752 19142.43638862
0.16200001 554986.62074678 13569.42351782
0.16300001 547347.44409486 14811.22253641
0.16400001 539762.85160343 20038.69681180
0.16500001 532234.59292010 21204.22718302
0.16600001 524762.36248128 18403.41692110
0.16700001 517346.46163864 13037.13144884
0.16800001 509986.91242626 14220.98572447
0.16900001 502687.43168581 12818.53011325
0.17000001 495445.07426998 15249.80010612
0.17100001 488261.58543435 15116.57939887
0.17200001 481137.33608551 19976.82313763
0.17300001 474072.11315073 17322.59583258
0.17400001 467067.85219917 19616.85071879
0.17500001 460123.15260097 12147.25180235
0.17600001 453237.05720652 12033.44443716
0.17700001 446414.36716473 15495.04341613
0.17800001 439651.67832225 17706.97218077
0.17900001 432950.13524012 17534.48130544
0.18000001 426311.18260844 11574.34915453
0.18100001 419734.97005072 13750.51826839
0.18200001 413218.00529649 11342.83478120
0.18300001 406765.83720407 13472.08516461
0.18400001 400374.83194963 13332.48253376
0.18500001 394047.43111552 17590.27815600
0.18600001 387782.57627763 11965.03195632
0.18700001 381580.26266960 11836.62030723
0.18800001 375440.62710984 17029.98765030
0.18900001 369366.14371284 11579.62915251
0.19000001 363350.84641385 14574.00313826
0.19100001 357403.92876116 15439.85045202
0.19200001 351516.69320393 14246.97224874
0.19300001 345695.23137216 15089.59756242
0.19400001 339936.13775352 10937.44574906
0.19500001 334240.93709403 13757.35762090
0.19600001 328608.17337228 12623.48357664
0.19700001 323039.68665766 11513.13497656
0.19800001 317534.41513481 9478.40273971
0.19900001 312093.26399373 9362.79836230
0.20000001 306713.38744461 12021.63178905
0.20100001 301398.71345948 9132.38144944
0.20200001 296145.58110543 9919.39670795
0.20300001 290956.50040843 11574.25013330
0.20400001 285830.20028522 8789.27907420
0.20500001 280765.77014855 10410.79524919
0.20600001 275764.72973232 8562.49526292
0.20700001 270825.66934253 9294.73741119
0.20800001 265948.78839115 8337.49491018
0.20900001 261136.42160382 10693.53697017
0.21000001 256383.10751859 8114.52573656
0.21100001 251692.09847053 12005.71366460
0.21200001 247062.36596505 11051.10015205
0.21300001 242493.81730964 10897.67266509
0.21400001 237986.96660799 9977.60404675
0.21500001 233541.77792958 9836.78015145
0.21600001 229155.51168117 8950.81470945
0.21700001 224830.19551118 8087.14251489
0.21800001 220564.84623519 8694.66664968
0.21900001 216358.18666745 8567.78459713
0.22000001 212210.67445964 7738.26261006
0.22100001 208124.57742765 9009.71338285
0.22200001 204096.10424020 7509.71651061
0.22300001 200126.12341028 6724.23806454
0.22400001 196212.32479966 7946.59953015
0.22500001 192359.69687112 6520.99403229
0.22600001 188562.30318841 7062.60139990
0.22700001 184823.40247841 8217.24886278
0.22800001 181140.29725079 9333.25425722
0.22900001 177513.24019671 6736.62778405
0.23000001 173942.44752548 7232.52731015
0.23100001 170428.78781802 5930.92209656
0.23200001 166968.32501832 7002.65188245
0.23300001 163563.96647982 10333.97189093
0.23400001 160214.04203443 7341.80882346
0.23500001 156916.63650333 8332.27379241
0.23600001 153674.18185095 7102.05265015
0.23700001 150484.56184157 5372.29911184
0.23800001 147347.56636814 5810.65155456
0.23900001 144263.30960244 6751.52320874
0.24000001 141230.63000324 6126.58501933
0.24100001 138250.69512373 6524.05061148
0.24200001 135321.01244015 4932.45113676
0.24300001 132442.12175071 5332.12007391
0.24400001 129613.01906444 5239.60654353
0.24500001 126833.95764943 4680.17325866
0.24600001 124104.32305173 7816.71115718
0.24700001 121424.11855133 5872.07065093
0.24800001 118791.32030805 4880.54162574
0.24900001 116206.42759055 4793.51536488
0.25000001 113669.60793271 4279.66094113
0.25100001 111179.13735236 5463.34306796
0.25200001 108736.33570628 6189.81620292
0.25300001 106339.71254122 4861.85188740
0.25400001 103987.78550632 4375.28628218
0.25500001 101681.18241164 5466.38062507
0.25600001 99419.75802574  4599.15822387
0.25700001 97202.33956534  4514.07686299
0.25800001 95028.33437337  4799.40625461
0.25900001 92898.16888267  3623.02875785
0.26000001 90811.30081464  4266.31511413
0.26100001 88764.44046566  4883.81974550
0.26200001 86762.00360198  3422.76120405
0.26300001 84799.51003863  5037.09113464
0.26400001 82877.74689052  4612.14683270
0.26500001 80997.31117198  3878.15144242
0.26600001 79155.85119661  3804.23038852
0.26700001 77354.90853782  3420.63421741
0.26800001 75592.84004066  5490.30823196
0.26900001 73868.61518660  2991.67905663
0.27000001 72182.97282979  3814.50937970
0.27100001 70534.81709162  3741.16687558
0.27200001 68924.07684657  4233.66162065
0.27300001 67349.34665413  4982.50490127
0.27400001 65809.77424077  3257.58397908
0.27500001 64308.02784462  2662.35247876
0.27600001 62839.39605408  3655.36784146
0.27700001 61407.27186034  2560.68335776
0.27800001 60008.32162770  3515.88773056
0.27900001 58643.70839673  4187.16097770
0.28000001 57312.06935226  3381.98537254
0.28100001 56013.17931212  2369.35759704
0.28200001 54747.12119085  3253.62156637
0.28300001 53512.98380583  2507.61853983
0.28400001 52310.43717974  2683.52555433
0.28500001 51139.07802637  2632.63986140
0.28600001 49997.53449465  2582.87275425
0.28700001 48886.80856679  2111.91023005
0.28800001 47804.89444511  3108.51340843
0.28900001 46753.91338684  2237.17486145
0.29000001 45730.14766732  2395.34524820
0.29100001 44736.24465957  2155.39236972
0.29200001 43769.39242041  2885.49733190
0.29300001 42830.10680969  2833.21169957
0.29400001 41917.71665289  1854.85904969
0.29500001 41033.14503230  2004.05889824
0.29600001 40173.62328884  1789.73500224
0.29700001 39339.70483752  1758.48488948
0.29800001 38531.76994183  2073.77995644
0.29900001 37748.69360226  1868.56042177
0.30000001 36990.00298523  1837.10858523
0.30100001 36256.30411093  1970.89278477
0.30200001 35545.11181009  1777.07794907
0.30300001 34857.82342310  1589.51682334
0.30400001 34194.11609787  1877.25706265
0.30500001 33551.71303738  1848.02844159
0.30600001 32931.82239157  1971.46364081
0.30700001 32334.07993259  1792.60147633
0.30800001 31757.46541595  1913.54616923
0.30900001 31201.66026800  2176.31590673
0.31000001 30667.33314528  2289.00985434
0.31100001 30151.57999129  1411.09401040
0.31200001 29656.80286772  1810.10304873
0.31300001 29180.74770343  1511.85461010
0.31400001 28725.34959293  1493.00011578
0.31500001 28287.66803044  1340.83552813
0.31600002 27868.47867380  1855.20471315
0.31700002 27466.75266264  1703.21341325
0.31800002 27083.22288506  1295.93227641
0.31900002 26717.26758292  1795.40046658
0.32000002 26367.85057966  1396.57327208
0.32100002 26035.51270186  1383.26685535
0.32200002 25719.50152678  1246.10990798
0.32300002 25418.77565295  1482.42306627
0.32400002 25134.01196920  1470.33976982
0.32500002 24864.10511546  1337.44027749
0.32600002 24609.71829318  1689.94943522
0.32700002 24369.75492946  1798.48799896
0.32800002 24144.82776760  1668.16622946
0.32900002 23932.62493692  1658.53098667
0.33000002 23735.75665586  1178.48037377
0.33100002 23549.90837451  1524.62114036
0.33200002 23379.68207700  1985.28579758
0.33300002 23220.87992110  1396.03936697
0.33400002 23075.32315326  1739.30256504
0.33500002 22941.37763582  1503.11913388
0.33600002 22819.46475323  1614.93359706
0.33700002 22708.25687666  1266.43954599
0.33800002 22609.95463803  1724.57437169
0.33900002 22521.41290435  1378.31053502
0.34000002 22444.35780230  1377.63474715
0.34100002 22377.54159802  1492.35831985
0.34200002 22321.90909688  1148.46227742
0.34300002 22274.82467615  1953.94771313
0.34400002 22238.32496336  1381.00004563
0.34500002 22210.92326478  1498.57106365
0.34600002 22193.92837015  1501.75223429
0.34700002 22183.72322597  1157.99040724
0.34800002 22183.70352813  1277.44862817
0.34900002 22191.79191762  1631.09678320
0.35000002 22208.19512760  1520.03998750
0.35100002 22232.49702739  1643.42625810
0.35200002 22264.00798518  1296.76720652
0.35300002 22303.30414548  1302.73605684
0.35400002 22350.31455150  1309.16973686
0.35500002 22403.99168497  1316.01053391
0.35600002 22464.07690328  1684.13192521
0.35700002 22530.94647768  1572.88544811
0.35800002 22604.79423823  1704.17551834
0.35900002 22684.31193523  1469.94348303
0.36000002 22770.51345212  1233.02336184
0.36100002 22861.59588159  1613.80012972
0.36200002 22959.45286562  1250.14226775
0.36300002 23060.75981733  1385.02930023
0.36400002 23168.18568249  2156.37898454
0.36500002 23280.00164773  1533.68658120
0.36600002 23397.32505053  1416.82508555
0.36700002 23518.62729602  1817.51960353
0.36800002 23645.72174552  1701.42798879
0.36900002 23775.96176015  1715.43572225
0.37000002 23909.42756259  1463.61567757
0.37100002 24047.23626948  1476.01943214
0.37200002 24189.13774674  1488.72055314
0.37300002 24333.85701775  1638.15533203
0.37400002 24483.04712787  1514.88861280
0.37500002 24634.18269468  1667.24156376
0.37600002 24789.43867204  2523.31708196
0.37700002 24946.17771299  2121.67251500
0.37800002 25106.74356891  1712.78212741
0.37900002 25269.52308453  1440.36288405
0.38000002 25434.68659226  1598.95164837
0.38100002 25601.61954669  1760.36744342
0.38200002 25770.90081408  1480.53832191
0.38300002 25941.91899224  2091.95644664
0.38400002 26115.39089197  1960.61306410
0.38500002 26289.28464998  1674.36461868
0.38600002 26465.95718283  1689.98377597
0.38700002 26642.92209390  1705.67995326
0.38800002 26821.17661431  2504.02516734
0.38900002 27000.66124644  2211.35426085
0.39000002 27181.78269502  2391.31744589
0.39100002 27362.93896006  2091.62315320
0.39200002 27545.44518942  2435.70610627
0.39300002 27727.92257139  1966.46436193
0.39400002 27911.90620539  1653.78052102
0.39500002 28095.34325253  2503.29520240
0.39600002 28279.04626265  1684.01728473
0.39700002 28462.58640060  1869.13813748
0.39800002 28647.36053135  2057.45353084
0.39900002 28830.84509545  1902.83586645
0.40000002 29014.46316084  2617.83006272
0.40100002 29197.51054179  2288.79295981
0.40200002 29381.39901102  1953.71621980
0.40300002 29563.69338789  2508.18386587
0.40400002 29745.40312588  1987.73665807
0.40500002 29926.60158546  2187.03614749
0.40600002 30107.32371846  2205.66264012
0.40700002 30286.97499780  2780.34443653
0.40800002 30465.98096295  2242.90562476
0.40900002 30643.16008996  2073.00987831
0.41000002 30820.15307729  2090.06877997
0.41100002 30995.54653041  2490.18232624
0.41200002 31169.11539067  2510.20482693
0.41300002 31341.79092262  2335.59037022
0.41400002 31513.00897405  2157.85339174
0.41500002 31683.16442053  2372.43546422
0.41600002 31850.50068344  2589.92358579
0.41700002 32017.08418695  2208.21840101
0.41800002 32182.71875394  2629.48916039
0.41900002 32344.64251422  2852.79760493
0.42000002 32505.61905404  3079.09491080
0.42100002 32665.20010819  2481.24871779
0.42200002 32822.56744530  3123.88800463
0.42300002 32977.52876936  2307.10802203
0.42400002 33130.37628413  2534.47390583
0.42500002 33281.59453900  2764.70218936
0.42600002 33429.21795035  2355.25566230
0.42700002 33576.00891195  3233.36981144
0.42800002 33719.93993413  2386.86606134
0.42900002 33862.01668376  3494.56028736
0.43000002 34001.71579011  3517.13764800
0.43100002 34137.63669701  2875.75465163
0.43200002 34271.98940532  2893.75556257
0.43300002 34403.39116943  2911.55913264
0.43400002 34532.71042025  2929.23730021
0.43500002 34658.93471738  2946.70276931
0.43600002 34783.50942622  2508.06506603
0.43700002 34904.36211448  3439.82504939
0.43800002 35021.79885947  3228.65978986
0.43900002 35137.68628034  2550.99614484
0.44000002 35249.95497428  3730.85541128
0.44100002 35360.16856628  2578.81721575
0.44200002 35467.19329929  3063.83363835
0.44300002 35571.61837850  2605.97688591
0.44400002 35672.50464168  2857.36775721
0.44500002 35769.76088546  2871.59653997
0.44600002 35864.93697542  3607.11620725
0.44700002 35957.21296226  2657.95730813
0.44800002 36045.59961428  2427.67124907
0.44900002 36132.13660231  2438.91933624
0.45000002 36215.39533004  3429.96025426
0.45100002 36294.30920188  2952.90513661
0.45200002 36371.17244194  3212.84766992
0.45300002 36444.27754840  2481.85541867
0.45400002 36514.93490806  3239.78775326
0.45500002 36582.23861013  3753.33785928
0.45600002 36646.11072802  3014.50921136
0.45700002 36706.88677279  2773.93956489
0.45800002 36763.89233959  2784.31351830
0.45900002 36817.97141607  3302.57219254
0.46000002 36869.76101891  3569.36173341
0.46100002 36916.98256763  2814.18171451
0.46200002 36961.83892137  3080.39980170
0.46300002 37003.05036721  3348.03615591
0.46400002 37040.65966000  5425.53088084
0.46500002 37075.91524935  2850.76725864
0.46600002 37107.15500468  2859.29196440
0.46700002 37135.20466830  3128.26978953
0.46800002 37160.63948950  3398.52644559
0.46900002 37182.13528037  2621.34066151
0.47000002 37200.07336440  3153.82236931
0.47100002 37215.31168483  3425.29744982
0.47200002 37227.01566756  3169.50826416
0.47300002 37236.10690228  2912.23605886
0.47400002 37240.63426152  2918.73484859
0.47500002 37243.01137661  2925.06625216
0.47600002 37242.43149680  4796.45297981
0.47700002 37237.51136852  2936.92266084
