# SAXS profile: number of points = 501, q_min = 0, q_max = 0.5, delta_q = 0.001
#    q    intensity    error
0.00000000 1682732.95097188 353.37391970
0.00100000 1682663.88015453 555.27909364
0.00200000 1682456.62059776 908.52660389
0.00300000 1682111.32407603 1110.19351344
0.00400000 1681627.87938895 1387.34305321
0.00500000 1681006.74984997 2269.35920212
0.00600000 1680247.63697658 2117.11210878
0.00700000 1679351.19604090 2216.74367090
0.00800000 1678316.91911125 3851.73749198
0.00900000 1677146.17820983 2767.29131234
0.01000000 1675838.03641302 3041.64616743
0.01100000 1674393.82220732 3616.69081344
0.01200000 1672812.97610363 3588.18399106
0.01300000 1671096.82602842 3860.23383838
0.01400000 1669244.72413831 6009.28127330
0.01500000 1667258.39482311 4401.56235833
0.01600000 1665136.70143782 4670.70865633
0.01700000 1662881.75316402 6285.69330893
0.01800000 1660493.10648437 5205.64612307
0.01900000 1657971.50588703 6466.08916473
0.02000000 1655317.58160416 5214.25061792
0.02100000 1652533.00141098 7089.36689747
0.02200000 1649615.93910685 6829.41029818
0.02300000 1646569.36442676 7705.94497628
0.02400000 1643392.83159412 8011.54041933
0.02500000 1640088.13876579 7675.61283997
0.02600000 1636655.24694706 7291.29945864
0.02700000 1633095.12217821 7544.89981003
0.02800000 1629407.74941960 7796.71643853
0.02900000 1625595.72324441 9509.73541761
0.03000000 1621659.22045186 7540.71572171
0.03100000 1617598.63252762 13199.60544878
0.03200000 1613414.93428131 14375.52772656
0.03300000 1609110.83307225 8206.46562699
0.03400000 1604684.47503641 9267.05327092
0.03500000 1600139.06287344 9504.82647238
0.03600000 1595474.43042293 8854.88349806
0.03700000 1590692.35931125 12693.72561436
0.03800000 1585794.11359391 11132.27519263
0.03900000 1580781.08027488 11381.62430506
0.04000000 1575652.17167289 9690.26130483
0.04100000 1570411.21655694 9893.59112304
0.04200000 1565058.61781773 11104.09140857
0.04300000 1559594.39864127 14410.65291236
0.04400000 1554022.27749400 11538.61594627
0.04500000 1548341.85396338 11751.91521763
0.04600000 1542553.59589662 14137.50436360
0.04700000 1536660.46360853 12170.35143780
0.04800000 1530662.90915894 15750.52206809
0.04900000 1524563.48914731 12577.64937092
0.05000000 1518361.77281973 13938.56172355
0.05100000 1512061.15441917 14152.89306466
0.05200000 1505659.82027487 15560.99496770
0.05300000 1499163.10040366 14571.86601523
0.05400000 1492569.64540762 13545.07016373
0.05500000 1485883.15146503 12481.41905456
0.05600000 1479102.16903174 13910.95654889
0.05700000 1472231.70742414 14089.25809771
0.05800000 1465270.39657216 14264.40797667
0.05900000 1458220.35530531 19685.97571607
0.06000000 1451084.07668791 13277.41992200
0.06100000 1443863.25619510 14770.72180113
0.06200000 1436558.42960608 16290.57335321
0.06300000 1429172.68241339 20580.08758898
0.06400000 1421704.10305002 16633.93878360
0.06500000 1414158.74757956 19600.24115831
0.06600000 1406535.03596356 16962.81332739
0.06700000 1398835.63043439 15694.93650798
0.06800000 1391063.44531413 15837.25806623
0.06900000 1383219.48868495 15976.18584230
0.07000000 1375302.65916541 20505.76360841
0.07100000 1367318.57181406 19197.15364742
0.07200000 1359265.52888645 17860.74988629
0.07300000 1351148.81308835 17997.30303361
0.07400000 1342967.52906702 16619.22395105
0.07500000 1334724.10079602 15215.85546228
0.07600000 1326418.60625163 18384.16274451
0.07700000 1318056.64306730 18505.51613636
0.07800000 1309636.33783303 18623.02959734
0.07900000 1301159.58891311 20298.09053910
0.08000000 1292631.21058588 18846.56393445
0.08100000 1284050.27572131 22111.34678535
0.08200000 1275417.98740575 19054.74562599
0.08300000 1266737.81061364 22345.25602793
0.08400000 1258009.97503924 24059.44190194
0.08500000 1249238.60748145 16115.17879304
0.08600000 1240422.85681237 19425.02284972
0.08700000 1231566.20228790 17882.34209693
0.08800000 1222667.41369235 22851.65503511
0.08900000 1213732.57786957 22939.54679920
0.09000000 1204760.45600034 19733.97719630
0.09100000 1195753.49877672 23101.95868172
0.09200000 1186712.91537785 16554.64594737
0.09300000 1177642.30945081 18265.23307790
0.09400000 1168539.69082207 16651.69137680
0.09500000 1159409.38641830 25043.24392373
0.09600000 1150252.46091698 16736.17409307
0.09700000 1141072.47296566 26838.02582588
0.09800000 1131869.40140684 18489.08754129
0.09900000 1122645.32657658 21891.58489764
0.10000000 1113400.34478959 23615.22242354
0.10100000 1104137.10072829 20271.95812280
0.10200000 1094857.75337554 25373.32962795
0.10300000 1085563.52998311 16934.79186436
0.10400000 1076256.54543559 16951.04138807
0.10500000 1066939.83926241 30535.81963638
0.10600001 1057609.83443756 16974.63864144
0.10700001 1048273.98157683 20378.44716082
0.10800001 1038929.64892789 30575.70100689
0.10900001 1029581.15700863 16988.08989020
0.11000001 1020228.64828033 20384.16935211
0.11100001 1010874.19748007 20379.22478052
0.11200001 1001519.87363908 25463.64398603
0.11300001 992164.97521950 18662.62406253
0.11400001 982814.05394269 20344.25187451
0.11500001 973467.06303765 18632.16046389
0.11600001 964125.19117981 20304.47748241
0.11700001 954791.33333876 28729.67257319
0.11800001 945463.80628837 16876.52973710
0.11900001 936147.38933818 21905.84994231
0.12000001 926841.37414595 20186.60607979
0.12100001 917549.78630793 21828.51044457
0.12200001 908270.77916936 18433.35633166
0.12300001 899007.84259094 23410.16532402
0.12400001 889761.03822633 25024.53037921
0.12500001 880532.34732290 23298.88700802
0.12600001 871324.78391503 23238.23308208
0.12700001 862137.56308777 18208.34619051
0.12800001 852971.23484839 16504.99417218
0.12900001 843828.82169200 23036.52791795
0.13000001 834711.25114555 21322.69991556
0.13100001 825618.18726731 21251.41314200
0.13200001 816553.60325985 22806.34321415
0.13300001 807517.86172511 21100.44272161
0.13400001 798510.23398903 24254.74950092
0.13500001 789534.18679601 17717.14798703
0.13600001 780588.83939486 19249.32168710
0.13700001 771677.44137139 17571.09616856
0.13800001 762798.39111374 17494.78192517
0.13900001 753956.78793060 20583.02128116
0.14000001 745149.90686668 23639.88191022
0.14100001 736380.52120817 18821.88700978
0.14200001 727648.29419555 18729.66797598
0.14300001 718958.25893620 21741.29877572
0.14400001 710303.94815042 20083.84508131
0.14500001 701694.86462525 23050.67739029
0.14600001 693125.17976912 16811.75202838
0.14700001 684601.20905400 30396.29511599
0.14800001 676119.15127496 15111.26374392
0.14900001 667681.51409571 19529.68520873
0.15000001 659290.57651739 17919.51871524
0.15100001 650945.75944842 20778.18962201
0.15200001 642649.44672809 22123.20824754
0.15300001 634400.88163430 14654.66105729
0.15400001 626199.45530793 16015.05182527
0.15500001 618049.77792953 20247.31168050
0.15600001 609948.52491120 17237.14612750
0.15700001 601901.79677206 18544.59523379
0.15800001 593902.44059671 22663.31820285
0.15900001 585958.51510384 15469.30552890
0.16000001 578065.36015700 22336.44657080
0.16100001 570229.47377495 13856.57686682
0.16200001 562445.52266694 19252.51114972
0.16300001 554718.02809114 17739.88337582
0.16400001 547045.22890931 14893.30706016
0.16500001 539429.29116226 13431.78998407
0.16600001 531869.42344325 18652.66156080
0.16700001 524366.56093492 13214.03795946
0.16800001 516920.14642976 17035.10422993
0.16900001 509534.29545574 14292.43766239
0.17000001 502206.02008820 12881.58502353
0.17100001 494936.81823268 17877.11871875
0.17200001 487727.04826385 18984.77625019
0.17300001 480577.03896388 13797.36744023
0.17400001 473488.30490438 16157.78916793
0.17500001 466459.56340281 13545.98636096
0.17600001 459489.70375318 17079.23309514
0.17700001 452583.74211071 16917.58107913
0.17800001 445738.22627271 11968.07194070
0.17900001 438954.31003006 11851.76693061
0.18000001 432233.30031983 14082.16158959
0.18100001 425575.56316589 13941.85610788
0.18200001 418977.45414029 16101.30432320
0.18300001 412444.77258038 14798.51913926
0.18400001 405973.57465412 13518.92067463
0.18500001 399566.68688387 13377.49330885
0.18600001 393222.50026372 15441.84831488
0.18700001 386941.61302352 13094.10480334
0.18800001 380723.58588183 11872.86558667
0.18900001 374571.38536994 14945.39898239
0.19000001 368479.12280281 13724.00557723
0.19100001 362455.33597916 14614.19983720
0.19200001 356492.08974967 13416.58043168
0.19300001 350595.07013032 11222.54872517
0.19400001 344760.83665166 13109.53143316
0.19500001 338991.08780438 14949.50767861
0.19600001 333284.39075132 11818.26505453
0.19700001 327642.19591004 9730.97367839
0.19800001 322064.13802794 14420.42246169
0.19900001 316550.77379844 12345.48076159
0.20000001 311098.98559642 10317.59834493
0.20100001 305713.17813072 10189.42070867
0.20200001 300389.45229486 13720.28888204
0.20300001 295130.28940891 10837.18473931
0.20400001 289934.49162943 9807.03464290
0.20500001 284801.22799423 8800.35836099
0.20600001 279731.74232177 8685.67100965
0.20700001 274725.02344840 9428.56325043
0.20800001 269780.87866462 9303.39404052
0.20900001 264901.95919680 13351.05937464
0.21000001 260082.77486606 8231.62021364
0.21100001 255326.53549320 9743.26105502
0.21200001 250632.03599272 8808.46332138
0.21300001 245999.44133726 9475.89892829
0.21400001 241429.26152784 10121.92226808
0.21500001 236921.23049344 10746.74752326
0.21600001 232472.54285539 8323.67979047
0.21700001 228085.47786996 7458.39547898
0.21800001 223759.23894228 9555.63875083
0.21900001 219492.21810264 9416.21660182
0.22000001 215284.94337685 7850.36583142
0.22100001 211139.85557152 7734.05327528
0.22200001 207052.76373048 7618.50680170
0.22300001 203025.06848432 10914.62819782
0.22400001 199054.07652043 10748.92064038
0.22500001 195144.76777922 7938.48952865
0.22600001 191291.56375928 9118.86927562
0.22700001 187497.33771720 8336.13202912
0.22800001 183759.58886611 8205.78482887
0.22900001 180078.44016438 7455.24777537
0.23000001 176454.48011879 7336.97763032
0.23100001 172888.08081474 7821.45714596
0.23200001 169375.58264924 8287.54765098
0.23300001 165919.87162357 6406.16654636
0.23400001 162519.04804131 5728.79671440
0.23500001 159171.58327273 6198.14174579
0.23600001 155879.67774372 9420.58877001
0.23700001 152641.16010511 8718.86347759
0.23800001 149456.15716610 6429.60418540
0.23900001 146324.27512959 5794.44156921
0.24000001 143244.72273308 6731.78606326
0.24100001 140218.55040305 5598.92698243
0.24200001 137243.24628945 8004.02650221
0.24300001 134319.37861413 6390.91633677
0.24400001 131445.96048952 5313.70320415
0.24500001 128623.28870911 6644.67940903
0.24600001 125850.58304353 5129.04075457
0.24700001 123128.04237565 5038.39973236
0.24800001 120453.56687485 5398.72912273
0.24900001 117827.58635158 6185.94857610
0.25000001 115250.16003795 4773.08560378
0.25100001 112719.86614315 5965.13559850
0.25200001 110237.92919111 5438.58849394
0.25300001 107802.72261982 4928.74071136
0.25400001 105412.91933292 4838.45322629
0.25500001 103068.97691930 5540.98846134
0.25600001 100770.86633658 4661.66049729
0.25700001 98517.35398399  6100.19484731
0.25800001 96307.99367997  3741.56573150
0.25900001 94142.99442382  4405.89234750
0.26000001 92021.83163357  4683.45134259
0.26100001 89941.46059665  4241.63948244
0.26200001 87906.02691995  5201.83938912
0.26300001 85911.22285079  5443.33533739
0.26400001 83957.56137220  5005.96983369
0.26500001 82045.90880367  6219.90064072
0.26600001 80174.05650872  4816.45667267
0.26700001 78343.09506782  3149.39257076
0.26800001 76551.67103129  3397.74607951
0.26900001 74798.61721319  3332.27855454
0.27000001 73084.60988239  2970.88953231
0.27100001 71409.01381026  3204.83669147
0.27200001 69771.19632996  4571.40899987
0.27300001 68170.00215430  3081.96594325
0.27400001 66604.44553618  2747.43350839
0.27500001 65077.51472817  3233.05108470
0.27600001 63584.10984487  3698.68784472
0.27700001 62127.75995811  3627.01879801
0.27800001 60705.07292577  3048.60890661
0.27900001 59317.29795206  3238.72462146
0.28000001 57963.24408222  2443.15085370
0.28100001 56642.21355661  2635.56232153
0.28200001 55354.72459104  2584.78898712
0.28300001 54099.69370808  2765.57647325
0.28400001 52876.71924441  4068.86373844
0.28500001 51685.57025165  2439.04217562
0.28600001 50524.60912076  2610.10143072
0.28700001 49394.97050266  3840.95308809
0.28800001 48294.80302625  2302.93779131
0.28900001 47226.06899136  2465.20091804
0.29000001 46184.99226168  2419.17000918
0.29100001 45174.12680172  2374.35221709
0.29200001 44191.03611765  1942.19612931
0.29300001 43235.91786637  2288.04488179
0.29400001 42308.16015152  2995.41788052
0.29500001 41408.66033919  2573.96244853
0.29600001 40534.84262997  1986.41005711
0.29700001 39686.94903812  2128.80804718
0.29800001 38865.52314685  2266.05443435
0.29900001 38069.43666887  1884.43720432
0.30000001 37298.12283393  2020.81239081
0.30100001 36552.36340442  1986.98656873
0.30200001 35829.53234237  2768.36894749
0.30300001 35130.99983860  1922.36840218
0.30400001 34456.46142343  1734.02150323
0.30500001 33803.66423467  1861.90591419
0.30600001 33173.82255663  1833.18552127
0.30700001 32566.46924080  1955.94223520
0.30800001 31980.77182768  1927.00149771
0.30900001 31416.26755724  1606.94216163
0.31000001 30873.53518858  1872.32563016
0.31100001 30349.89453231  1420.37513136
0.31200001 29847.49713919  1821.74207414
0.31300001 29364.31755240  1936.28319108
0.31400001 28902.26387745  1638.75843944
0.31500001 28457.94127995  1753.57842470
0.31600002 28032.77772891  1999.43796618
0.31700002 27625.28825871  1713.04420603
0.31800002 27236.40586451  1694.24070702
0.31900002 26865.49041418  1547.45232113
0.32000002 26511.48633271  1404.18094010
0.32100002 26174.86435125  2022.79361284
0.32200002 25854.81399868  1252.66579755
0.32300002 25550.34693517  1738.44568779
0.32400002 25262.31524426  1600.99930441
0.32500002 24989.32094988  1221.97785231
0.32600002 24732.16749345  1698.35802220
0.32700002 24489.81700565  1325.38895911
0.32800002 24262.75724546  1436.84055212
0.32900002 24048.76456575  1785.62085356
0.33000002 23850.40168438  1776.25874956
0.33100002 23663.18601068  1767.64007870
0.33200002 23491.94278970  1290.76485770
0.33300002 23332.49656061  1519.64557296
0.33400002 23186.37980707  1281.62720453
0.33500002 23052.20420675  1161.83114704
0.33600002 22930.35657922  1159.12957997
0.33700002 22819.44372229  1504.02960696
0.33800002 22721.60272713  1733.09033009
0.33900002 22633.91960328  1269.76294988
0.34000002 22557.72845764  1269.21065178
0.34100002 22492.11601362  1384.61472737
0.34200002 22438.01039590  1500.76639640
0.34300002 22392.45027255  1617.63068430
0.34400002 22357.87659850  1735.53025315
0.34500002 22332.47850221  1622.67796482
0.34600002 22317.70714322  1277.80038300
0.34700002 22309.90105684  1281.03457935
0.34800002 22312.52668349  1284.86690992
0.34900002 22323.34222497  1640.76573124
0.35000002 22342.83355559  1411.62029090
0.35100002 22370.18804900  1771.71897739
0.35200002 22404.96361174  1423.61145532
0.35300002 22447.66903868  1549.56266713
0.35400002 22498.31652737  1198.03541183
0.35500002 22555.66427410  1324.91978221
0.35600002 22619.78568535  1938.06332932
0.35700002 22690.55934781  1340.33140416
0.35800002 22768.63385252  1961.74558565
0.35900002 22852.40198798  1974.44762528
0.36000002 22942.97725084  1739.30718777
0.36100002 23038.60194124  1376.09575913
0.36200002 23141.06609839  1890.04666311
0.36300002 23247.11769712  1396.22195502
0.36400002 23359.41142288  1918.39175397
0.36500002 23476.15078130  1417.72481284
0.36600002 23598.47457765  1558.91530444
0.36700002 23724.94195926  1440.57854400
0.36800002 23857.18256433  2112.79218798
0.36900002 23992.60761168  1597.90774263
0.37000002 24131.51094659  1477.21051257
0.37100002 24274.62331723  1760.88125884
0.37200002 24422.13506256  1503.06037363
0.37300002 24572.32769955  1792.05994402
0.37400002 24727.11858921  1529.99053518
0.37500002 24883.81224418  1964.82590788
0.37600002 25044.74667769  1699.53659006
0.37700002 25207.17187164  1429.24671283
0.37800002 25373.50412280  1875.22891103
0.37900002 25542.10365508  2329.43996369
0.38000002 25713.09123200  1763.40388023
0.38100002 25885.79280154  1779.90719735
0.38200002 26060.95714638  1796.64247078
0.38300002 26237.85313379  2418.08065936
0.38400002 26417.24480468  1678.15555572
0.38500002 26597.10248500  1539.97230684
0.38600002 26779.68737356  1710.01701825
0.38700002 26962.45914621  1726.13671632
0.38800002 27146.61714618  2059.20674118
0.38900002 27332.06323286  1758.81835236
0.39000002 27519.06288695  1613.99311478
0.39100002 27706.05257730  2443.67395309
0.39200002 27894.48610956  1973.25604088
0.39300002 28082.77649524  2157.59982035
0.39400002 28272.53061982  2512.72127788
0.39500002 28461.71425759  2028.75108840
0.39600002 28651.18140406  2559.26690017
0.39700002 28840.41710080  1721.77298249
0.39800002 29030.95957448  1911.25331414
0.39900002 29220.08297550  2980.44860471
0.40000002 29409.12567897  2122.75079208
0.40100002 29597.88923265  1963.22808582
0.40200002 29787.19190386  2160.76300308
0.40300002 29974.98451403  1998.13256238
0.40400002 30162.09898806  2748.52140051
0.40500002 30348.68905543  2772.35287657
0.40600002 30534.63362386  1864.13947106
0.40700002 30719.53249134  2256.04257306
0.40800002 30903.55792910  2275.12004254
0.40900002 31085.95156035  2102.96472270
0.41000002 31267.91508663  2313.20046771
0.41100002 31448.27315925  2720.90472266
0.41200002 31626.65482904  2155.19849544
0.41300002 31804.10996074  3950.07064429
0.41400002 31980.02386820  1990.75658012
0.41500002 32154.77258293  3410.97843722
0.41600002 32326.67453479  2224.23694676
0.41700002 32497.72366341  2241.36810727
0.41800002 32667.70338093  2258.48178026
0.41900002 32833.89542759  2482.24261195
0.42000002 32999.12453756  2292.28429462
0.42100002 33162.71369877  2728.95983958
0.42200002 33324.08885417  2960.17895318
0.42300002 33482.99045340  2129.51829374
0.42400002 33639.61920676  2787.88357387
0.42500002 33794.53349634  2375.41787202
0.42600002 33945.67057967  2826.48639475
0.42700002 34095.97100362  2188.96144216
0.42800002 34243.32283416  2423.91372168
0.42900002 34388.64435025  2439.87443227
0.43000002 34531.54525043  2678.95740748
0.43100002 34670.55835908  2695.98274576
0.43200002 34807.80750232  2712.92064529
0.43300002 34942.06972313  2274.72884677
0.43400002 35074.13710106  2517.44630973
0.43500002 35202.90181390  2762.72386528
0.43600002 35330.00633029  2779.05842964
0.43700002 35453.34720247  2562.21352374
0.43800002 35572.98701662  2576.72943666
0.43900002 35690.99604126  3768.96936057
0.44000002 35805.35929598  4026.49187044
0.44100002 35917.41942297  3810.12003295
0.44200002 36026.24900178  3590.91653943
0.44300002 36132.33409857  2647.05492151
0.44400002 36234.71641146  2902.40092210
0.44500002 36333.48152906  3402.99404128
0.44600002 36430.04990132  2686.89845781
0.44700002 36523.54448130  2699.82053601
0.44800002 36612.89851535  2712.46671506
0.44900002 36700.41751164  2725.00612938
0.45000002 36784.50245955  2986.16605119
0.45100002 36864.18729670  2749.33121889
0.45200002 36941.63948106  2761.20297387
0.45300002 37015.18989905  3529.02837223
0.45400002 37086.16597059  4302.92261067
0.45500002 37153.70030274  2541.31322115
0.45600002 37217.73756891  3571.78644377
0.45700002 37278.45176149  2561.02975739
0.45800002 37335.30087318  3598.74982173
0.45900002 37389.21178564  3869.78360322
0.46000002 37440.55607105  3106.81749002
0.46100002 37487.16756953  2857.64691926
0.46200002 37531.43713715  3649.18180580
0.46300002 37571.95319951  3399.51048661
0.46400002 37608.68277862  2885.52632295
0.46500002 37642.99648193  3683.74381031
0.46600002 37673.09103794  3430.70019797
0.46700002 37699.88566909  3175.83851929
0.46800002 37723.96196133  2919.26893474
0.46900002 37744.08369202  3725.34123697
0.47000002 37760.34485779  2934.54533971
0.47100002 37773.91907413  3209.27231665
0.47200002 37783.81809676  4289.21923364
0.47300002 37791.13444872  3493.03472266
0.47400002 37793.49758657  4039.18024601
0.47500002 37793.83056848  3508.02351964
0.47600002 37790.99716594  2703.94597538
0.47700002 37783.59149488  3521.80873016
