# SAXS profile: number of points = 501, q_min = 0, q_max = 0.5, delta_q = 0.001
#    q    intensity    error
0.00000000 1664650.74656091 274.66737318
0.00100000 1664582.27605339 599.24963361
0.00200000 1664376.80760079 1123.45438070
0.00300000 1664034.50954437 1297.94696368
0.00400000 1663555.25856020 1372.43314046
0.00500000 1662939.50037617 1646.31017054
0.00600000 1662186.97508343 2094.35567387
0.00700000 1661298.30100944 1993.55804406
0.00800000 1660272.98945931 2465.50549344
0.00900000 1659112.37824542 2737.53554113
0.01000000 1657815.58248542 3282.47499506
0.01100000 1656383.90991365 3279.64028442
0.01200000 1654816.77395140 4194.96070589
0.01300000 1653115.53169767 4860.15987755
0.01400000 1651279.53030968 3715.37910790
0.01500000 1649310.43603013 5541.68331183
0.01600000 1647207.14485015 4200.37840714
0.01700000 1644971.81616328 5329.70892345
0.01800000 1642603.98481054 5149.56372410
0.01900000 1640104.34638589 6396.40723953
0.02000000 1637473.51634073 6705.45435274
0.02100000 1634713.17400084 5934.00909066
0.02200000 1631821.51148306 7318.71981151
0.02300000 1628801.50029673 6450.05423477
0.02400000 1625652.75690663 9753.91698619
0.02500000 1622376.84929620 10123.63200196
0.02600000 1618973.96797509 7868.21384424
0.02700000 1615444.93822536 12891.25119747
0.02800000 1611789.79656176 8413.54312389
0.02900000 1608011.18919614 10854.07602543
0.03000000 1604109.15923957 8205.01872666
0.03100000 1600084.20326067 8448.44498196
0.03200000 1595937.18590139 10269.85626429
0.03300000 1591670.88880515 8929.27409784
0.03400000 1587283.37340444 9166.56190436
0.03500000 1582777.99856896 12820.50238043
0.03600000 1578154.46466672 11386.38498878
0.03700000 1573414.53322598 8968.46325416
0.03800000 1568559.54805618 13764.11067119
0.03900000 1563590.77873524 11257.85412825
0.04000000 1558507.21004391 10543.30176451
0.04100000 1553312.62620679 9785.86999884
0.04200000 1548007.40711911 11981.57788696
0.04300000 1542591.64288573 15271.65797345
0.04400000 1537069.09720700 13487.78195439
0.04500000 1531439.18520812 15850.39630339
0.04600000 1525702.40098109 16134.30364041
0.04700000 1519861.80748363 16414.50828423
0.04800000 1513917.68250775 15578.21367783
0.04900000 1507872.79097300 18094.47433393
0.05000000 1501726.41780600 17232.31144677
0.05100000 1495482.30234877 13997.71500205
0.05200000 1489138.38962279 11838.65074920
0.05300000 1482700.05318148 16813.81938690
0.05400000 1476165.82986075 14614.04239713
0.05500000 1469539.56000014 17281.78603178
0.05600000 1462819.60668282 17509.95150908
0.05700000 1456011.23580354 16467.48784562
0.05800000 1449112.90635579 20519.43971210
0.05900000 1442126.67146510 12979.14064939
0.06000000 1435055.11407643 15756.90588870
0.06100000 1427899.85292571 14607.41617805
0.06200000 1420661.46072842 16110.30171771
0.06300000 1413342.97341895 16281.71181504
0.06400000 1405942.53155970 13707.94032378
0.06500000 1398466.33995921 13844.81741323
0.06600000 1390912.35552349 16774.40379246
0.06700000 1383283.49976897 14109.49235795
0.06800000 1375582.71680403 14237.28178536
0.06900000 1367810.92199503 15798.21688870
0.07000000 1359967.08411066 20277.11017364
0.07100000 1352056.77021381 16062.43518247
0.07200000 1344078.26327308 16189.42343955
0.07300000 1336036.64035587 16313.00814310
0.07400000 1327931.54022121 16433.15358036
0.07500000 1319764.64271259 15045.31763213
0.07600000 1311536.68825623 18177.89935142
0.07700000 1303252.65940954 16772.86251306
0.07800000 1294911.23853616 18413.63867551
0.07900000 1286513.86148719 16981.98376815
0.08000000 1278065.53410997 18634.19636147
0.08100000 1269565.39826384 18738.78615756
0.08200000 1261014.58349884 25119.41168203
0.08300000 1252416.18597558 18936.53362068
0.08400000 1243771.02488286 15858.08131161
0.08500000 1235082.96987903 17525.82816534
0.08600000 1226350.90498189 20805.04407985
0.08700000 1217578.80197731 17679.24503489
0.08800000 1208764.90023556 24205.51826400
0.08900000 1199915.56290275 19438.63303205
0.09000000 1191029.50785961 16257.55354599
0.09100000 1182109.19658743 22838.35075104
0.09200000 1173155.54477286 16365.52061854
0.09300000 1164172.49832847 18056.31629758
0.09400000 1155157.86636454 18107.10040625
0.09500000 1146116.25702455 21455.29733996
0.09600000 1137048.29712034 23161.67490112
0.09700000 1127957.66055495 18239.07622864
0.09800000 1118844.44399251 23260.77708427
0.09900000 1109710.82415109 21639.36208848
0.10000000 1100556.38379033 21675.45899809
0.10100000 1091384.14441723 18367.99601442
0.10200000 1082196.42696443 21735.91625796
0.10300000 1072993.83035390 21760.31590320
0.10400000 1063779.02896477 18429.97254385
0.10500000 1054554.92573126 23474.39375123
0.10600001 1045317.81885686 16777.35178209
0.10700001 1036075.10135481 16784.41743178
0.10800001 1026824.31546220 21825.15185228
0.10900001 1017569.47541928 25184.84570197
0.11000001 1008310.92702649 18467.21549773
0.11100001 999050.76536486 25176.08047232
0.11200001 989791.27978246 16776.96298212
0.11300001 980530.93842597 23473.91177109
0.11400001 971275.12387919 20105.39601095
0.11500001 962023.26185197 26782.72887110
0.11600001 952776.84168408 20065.48123078
0.11700001 943538.46915723 18370.69485966
0.11800001 934306.82513400 26683.80418259
0.11900001 925086.18582509 26642.48340667
0.12000001 915876.26523092 18285.47049667
0.12100001 906680.64067760 26547.61040965
0.12200001 897498.06460384 16558.84007205
0.12300001 888331.57764601 18175.26493495
0.12400001 879181.27913124 23078.50966460
0.12500001 870049.10787287 23021.50047910
0.12600001 860938.24967501 18040.96187209
0.12700001 851847.72617098 21262.12024723
0.12800001 842778.14016544 21200.08511501
0.12900001 833732.55130526 26012.45682675
0.13000001 824711.49517911 17826.13980853
0.13100001 815715.29489942 19381.39632040
0.13200001 806747.41471188 17704.07285043
0.13300001 797808.54889436 17639.54784764
0.13400001 788897.62896203 15975.17773964
0.13500001 780018.11866815 15912.37037107
0.13600001 771169.29344722 23771.29459134
0.13700001 762354.40195174 20514.95792387
0.13800001 753571.69124076 23567.95575492
0.13900001 744826.43947172 21897.89835313
0.14000001 736115.74933584 21796.38836576
0.14100001 727442.49483064 24791.24139306
0.14200001 718806.26487138 18502.07413045
0.14300001 710211.83432561 21476.80688302
0.14400001 701653.08521919 18313.14638805
0.14500001 693139.37873600 16697.72842142
0.14600001 684665.04717455 24154.98400381
0.14700001 676236.29124966 19516.18028617
0.14800001 667848.98643632 17911.71066127
0.14900001 659506.13525961 16322.77761780
0.15000001 651209.39545923 16224.88285340
0.15100001 642958.99200323 21989.19856407
0.15200001 634756.40827734 16024.42628311
0.15300001 626601.52434900 15921.94548505
0.15400001 618493.59471636 14379.97675576
0.15500001 610436.94111944 14284.22509631
0.15600001 602428.38950073 18443.34601500
0.15700001 594474.25350417 18315.75261491
0.15800001 586567.07903054 16787.55059421
0.15900001 578715.13864806 16666.99677976
0.16000001 570913.51861995 13787.56212548
0.16100001 563168.65706865 17790.49871659
0.16200001 555475.50063348 19013.92728426
0.16300001 547838.39274244 14824.50760744
0.16400001 540255.78987793 14708.46457381
0.16500001 532729.33057592 15917.95314912
0.16600001 525258.91100171 18420.83087853
0.16700001 517844.75919414 14354.65740261
0.16800001 510486.97588272 16823.09908454
0.16900001 503189.11718690 12831.32309414
0.17000001 495948.21275002 16537.39393504
0.17100001 488766.23931097 13871.18652666
0.17200001 481643.31543905 14998.37355104
0.17300001 474579.37768983 13625.17457692
0.17400001 467576.46948373 14728.65948431
0.17500001 460632.88837722 15808.92147572
0.17600001 453747.88901967 14456.40842693
0.17700001 446926.26589251 14319.51823552
0.17800001 440164.46719707 16545.78310343
0.17900001 433463.81997914 14044.22843068
0.18000001 426825.52376061 16223.63892447
0.18100001 420250.07012384 17209.24118448
0.18200001 413733.66828434 11356.98973089
0.18300001 407282.08499489 16861.47911531
0.18400001 400891.67260842 13349.69332851
0.18500001 394564.58707923 12109.18774952
0.18600001 388300.12735376 18516.09244763
0.18700001 382098.00054429 12930.19694930
0.18800001 375958.47082731 11724.26546668
0.18900001 369884.11994968 14758.37708329
0.19000001 363868.76373271 16679.74491760
0.19100001 357921.78805889 11338.96278147
0.19200001 352034.19126394 12229.66838238
0.19300001 346212.59075761 11082.26555382
0.19400001 340453.20678794 13941.55947676
0.19500001 334757.61272542 13778.62399089
0.19600001 329124.27918784 12643.30978248
0.19700001 323555.16784721 12492.46562094
0.19800001 318049.18573260 9493.76864278
0.19900001 312607.33682215 13129.50876703
0.20000001 307226.68096621 11115.46184269
0.20100001 301910.97706532 14636.64485989
0.20200001 296656.90177609 9033.20308602
0.20300001 291466.71862925 13378.32301740
0.20400001 286339.14318759 12326.90069687
0.20500001 281273.53591457 9560.48793763
0.20600001 276271.13794845 10293.86308653
0.20700001 271330.65467435 11005.17187380
0.20800001 266452.33729904 8353.28116919
0.20900001 261638.26514799 9065.76631593
0.21000001 256883.33765448 10569.46542744
0.21100001 252190.50052491 10425.55578455
0.21200001 247558.86482638 12655.20976819
0.21300001 242988.48060211 9359.91671529
0.21400001 238479.69183944 8460.06746797
0.21500001 234032.36378611 10615.70852322
0.21600001 229643.87510860 11212.36273228
0.21700001 225316.33970480 9578.19805370
0.21800001 221048.63978654 9439.88260841
0.21900001 216839.61500211 7871.27839674
0.22000001 212689.63044045 10575.99237371
0.22100001 208600.95076494 11114.25918228
0.22200001 204569.86952354 10264.29368869
0.22300001 200596.97828418 6740.05878905
0.22400001 196680.43200979 8629.35436248
0.22500001 192824.85184532 9151.46790133
0.22600001 189024.50569694 8367.17014034
0.22700001 185282.48737243 6970.32750457
0.22800001 181596.34632129 7485.40174935
0.22900001 177966.04510598 6753.81173117
0.23000001 174391.99208154 8459.75593595
0.23100001 170874.92982938 5946.44783929
0.23200001 167411.03501821 7606.32073578
0.23300001 164003.10437900 6332.16015955
0.23400001 160649.61562675 6229.18914054
0.23500001 157348.64211985 6684.17063339
0.23600001 154102.39347451 8765.34455541
0.23700001 150908.90622224 7542.42748973
0.23800001 147768.09621292 9005.72704966
0.23900001 144679.85664730 5729.32259423
0.24000001 141643.16018164 6656.52062759
0.24100001 138659.09311445 5536.65784995
0.24200001 135725.35095125 7420.78391428
0.24300001 132842.19267900 6320.63182665
0.24400001 130008.68638953 5733.38334099
0.24500001 127225.24801890 5633.53424877
0.24600001 124491.15582158 5073.63729552
0.24700001 121806.46102107 6343.68079007
0.24800001 119169.14146416 6231.35470195
0.24900001 116579.61599150 6120.43012910
0.25000001 114038.02058334 5152.23801370
0.25100001 111542.86680769 4216.32056480
0.25200001 109095.29844164 6624.26683477
0.25300001 106693.77910693 5691.04644681
0.25400001 104336.89893790 3990.88657319
0.25500001 102025.41519878 4701.33135479
0.25600001 99758.84348894  4614.84431814
0.25700001 97536.30006023  5284.51698729
0.25800001 95357.22613975  4445.55409297
0.25900001 93221.80267173  4726.34561908
0.26000001 91129.69410313  4994.81877012
0.26100001 89077.49948437  3850.82048492
0.26200001 87069.66503376  4808.85782735
0.26300001 85101.74027687  4718.04070420
0.26400001 83174.63265138  5289.90688694
0.26500001 81288.59412388  4540.78108262
0.26600001 79441.62428479  4136.12836411
0.26700001 77635.13690532  4057.21244666
0.26800001 75867.36333622  3979.62273212
0.26900001 74137.44496375  3603.07999574
0.27000001 72446.09788907  2944.93401855
0.27100001 70792.16331269  4043.64855978
0.27200001 69175.65585288  3399.29188948
0.27300001 67595.08796596  3889.42154562
0.27400001 66049.61659403  3269.45617613
0.27500001 64542.01004703  4008.05901360
0.27600001 63067.42522360  2882.49680626
0.27700001 61629.33504828  2826.93773245
0.27800001 60224.35554453  3276.50621847
0.27900001 58853.71640513  3460.59868840
0.28000001 57516.04083236  2909.16148299
0.28100001 56211.02055177  3328.81679463
0.28200001 54938.81835753  3731.44471945
0.28300001 53698.64960397  2973.83135582
0.28400001 52489.90045701  2243.94335074
0.28500001 51312.39968129  2421.43225557
0.28600001 50164.63483531  2807.46392144
0.28700001 49047.67580081  2118.85969489
0.28800001 47959.51536813  2494.85410754
0.28900001 46902.20413485  2244.27057408
0.29000001 45872.21587759  3203.71570854
0.29100001 44872.04644615  2161.93530011
0.29200001 43898.89316627  2122.29209058
0.29300001 42953.29284607  2651.93642585
0.29400001 42034.60208382  2046.03435328
0.29500001 41143.72387885  2557.49399737
0.29600001 40277.76778689  1973.81210383
0.29700001 39437.55691287  2291.71654069
0.29800001 38623.34083828  2598.38537790
0.29900001 37833.88299220  2043.02977829
0.30000001 37068.79256678  1841.02166998
0.30100001 36328.74155967  1974.83048467
0.30200001 35611.29186902  2104.09327969
0.30300001 34917.69798976  1910.69652445
0.30400001 34247.59548619  1723.51032444
0.30500001 33598.91880501  1542.19044616
0.30600001 32972.66834808  2581.26546383
0.30700001 32368.62710993  1495.43064328
0.30800001 31785.65919087  1915.24498522
0.30900001 31223.63488221  1887.46881799
0.31000001 30683.06482523  1574.50154605
0.31100001 30160.96341584  1411.53315469
0.31200001 29660.00465790  2088.80592693
0.31300001 29177.67333318  1649.12217487
0.31400001 28716.12572083  1628.20440546
0.31500001 28272.32047557  1608.12966479
0.31600002 27846.83463922  1588.94045975
0.31700002 27439.03416871  1570.61039018
0.31800002 27049.33889056  1294.31092720
0.31900002 26677.22965403  1920.76062604
0.32000002 26321.76334083  1267.39296487
0.32100002 25983.38488824  1254.99754953
0.32200002 25661.41230536  1491.95458208
0.32300002 25354.72373972  1601.91152173
0.32400002 25064.02193012  1344.05823965
0.32500002 24788.23966322  1454.57397231
0.32600002 24527.91060699  1443.71288669
0.32700002 24282.19714172  1314.15257154
0.32800002 24051.39345965  1305.62995578
0.32900002 23833.49905311  1887.61321439
0.33000002 23630.84624785  1759.90735765
0.33100002 23439.33381139  1284.00676699
0.33200002 23263.39554782  1510.60866143
0.33300002 23099.00345787  1851.61620487
0.33400002 22947.90092856  1729.69811440
0.33500002 22808.44651907  1609.36406260
0.33600002 22681.04143504  1490.48470849
0.33700002 22564.55564649  1601.63223564
0.33800002 22460.80145039  1484.77135019
0.33900002 22366.98142313  1254.78771726
0.34000002 22284.58954942  1595.79953321
0.34100002 22212.60691802  1595.30950440
0.34200002 22151.81098243  1139.71072902
0.34300002 22099.63026386  1254.37507318
0.34400002 22058.14897632  1255.66018994
0.34500002 22025.69972886  1486.07403109
0.34600002 22003.81063160  1145.29839762
0.34700002 21988.66929165  1262.58945052
0.34800002 21983.88291221  1611.19885494
0.34900002 21987.21298346  1385.19448356
0.35000002 21998.92611752  1389.89221793
0.35100002 22018.62173445  1395.09993917
0.35200002 22045.56523690  1517.50655496
0.35300002 22080.35524516  1641.45368667
0.35400002 22122.93574549  1413.65566109
0.35500002 22172.34543654  1184.00330239
0.35600002 22228.10230116  1666.44090845
0.35700002 22290.72653264  1436.41448580
0.35800002 22360.38642634  1806.16029914
0.35900002 22435.81458252  1332.68744933
0.36000002 22518.03954739  1341.28708917
0.36100002 22605.21275987  1963.94097760
0.36200002 22699.14925656  1606.75935623
0.36300002 22796.70434796  2489.40023271
0.36400002 22900.37930086  1253.79582611
0.36500002 23008.52995867  1389.48519002
0.36600002 23122.25183352  1654.74403085
0.36700002 23240.07140141  1795.99280297
0.36800002 23363.77140000  1422.50328907
0.36900002 23490.73943293  1303.73610028
0.37000002 23620.92188608  1577.40523827
0.37100002 23755.46194357  1855.77677494
0.37200002 23894.26411972  1336.88414083
0.37300002 24036.00738980  2022.63011766
0.37400002 24182.18518997  1904.34717392
0.37500002 24330.53815506  2058.36362543
0.37600002 24482.93073379  2215.21567773
0.37700002 24636.99338078  1536.60934995
0.37800002 24794.92019734  1832.46866399
0.37900002 24955.13797382  1422.44293189
0.38000002 25117.85977700  1435.48575426
0.38100002 25282.44876445  2752.50032738
0.38200002 25449.36081641  2485.51194188
0.38300002 25618.17677440  2656.09269380
0.38400002 25789.57985213  1489.34830702
0.38500002 25961.41961975  2254.74940079
0.38600002 26136.13072341  1668.92270641
0.38700002 26311.26881624  1837.57910118
0.38800002 26487.72940861  1700.11499264
0.38900002 26665.47182624  1715.92319331
0.39000002 26845.02567206  1574.46083026
0.39100002 27024.61065337  1589.04718170
0.39200002 27205.59717735  1764.14703254
0.39300002 27386.79603609  2751.55152811
0.39400002 27569.50250062  2123.54103072
0.39500002 27751.74795882  1978.14468822
0.39600002 27934.34136551  1663.49010713
0.39700002 28116.85900209  2182.14953054
0.39800002 28300.63689071  2032.55183779
0.39900002 28483.39322895  1709.00367471
0.40000002 28666.20966266  2586.40888935
0.40100002 28848.53894539  1913.52367891
0.40200002 29031.84156035  1754.97490547
0.40300002 29213.64453434  3009.58980252
0.40400002 29394.92470056  1964.31593618
0.40500002 29575.78829672  1801.16559261
0.40600002 29756.29778932  2543.27089256
0.40700002 29935.71012418  2015.27210105
0.40800002 30114.66779367  2401.79544368
0.40900002 30291.86749672  2235.53992718
0.41000002 30468.91140660  2066.24932494
0.41100002 30644.51000451  2083.21388881
0.41200002 30818.30962382  2100.11380882
0.41300002 30991.36362714  2309.47652692
0.41400002 31162.91952436  2909.83774846
0.41500002 31333.53058974  1955.21240144
0.41600002 31501.51973910  2167.46216835
0.41700002 31668.77571781  2184.19556475
0.41800002 31835.15316815  3001.25920714
0.41900002 31997.94925953  2620.63216853
0.42000002 32159.72496872  3046.33009201
0.42100002 32320.29190428  3068.81186173
0.42200002 32478.74375975  2679.00930597
0.42300002 32634.86101452  2283.13498476
0.42400002 32788.89265951  2926.40880853
0.42500002 32941.36210453  2736.43907969
0.42600002 33090.38876801  2755.27135133
0.42700002 33238.60624773  2987.48607111
0.42800002 33384.02730827  3222.39338863
0.42900002 33527.69707632  2162.53656390
0.43000002 33669.12381026  2829.72164473
0.43100002 33806.73235586  2409.74399652
0.43200002 33942.91525850  2425.05169556
0.43300002 34076.21796304  2662.03427342
0.43400002 34207.46414202  2901.64828335
0.43500002 34335.69025285  2470.10967384
0.43600002 34462.38661991  2484.91050499
0.43700002 34585.40988943  2499.48769116
0.43800002 34705.10453617  3199.46373881
0.43900002 34823.23798550  3217.66734234
0.44000002 34937.90166590  2773.37076567
0.44100002 35050.48036037  2556.23165382
0.44200002 35160.00198449  3738.21158815
0.44300002 35266.98543661  2583.65947553
0.44400002 35370.55767054  2360.98483640
0.44500002 35470.43525240  2372.97223084
0.44600002 35568.33075255  4054.25637297
0.44700002 35663.47647995  2636.24430633
0.44800002 35754.65922351  2408.07641283
0.44900002 35844.16275936  2661.42921101
0.45000002 35930.37801013  2916.82822510
0.45100002 36012.35354619  2929.96522338
0.45200002 36092.23262389  2942.96078763
0.45300002 36168.46791950  3201.99461667
0.45400002 36242.34945385  2473.54046745
0.45500002 36312.88429841  3228.94182484
0.45600002 36380.06862814  3491.39535171
0.45700002 36444.19213641  3505.20256580
0.45800002 36504.60648232  3267.34495805
0.45900002 36562.14297568  3531.90317884
0.46000002 36617.40338895  2785.30292079
0.46100002 36668.14410608  3049.32300838
0.46200002 36716.61418063  3059.96277084
0.46300002 36761.41722500  2814.45423614
0.46400002 36802.70524969  4107.18210053
0.46500002 36841.65791928  3347.80161380
0.46600002 36876.64413149  3099.85085261
0.46700002 36908.47103429  3368.26722623
0.46800002 36937.72407730  3118.28281440
0.46900002 36963.09756734  3127.07820241
0.47000002 36984.95860310  2874.28619407
0.47100002 37004.09280306  3405.85686302
0.47200002 37019.79224914  3151.86526148
0.47300002 37032.88474460  3159.64587617
0.47400002 37041.39259430  2639.19934744
0.47500002 37047.82663957  3703.30092642
0.47600002 37051.37257502  3711.43616675
0.47700002 37050.52516774  2922.17505848
