# SAXS profile: number of points = 501, q_min = 0, q_max = 0.5, delta_q = 0.001
#    q    intensity    error
0.00000000 1682732.95097189 328.13292544
0.00100000 1682663.90782409 908.63853180
0.00200000 1682456.72452640 832.81610501
0.00300000 1682111.56466175 1211.12036970
0.00400000 1681628.30737066 1513.46553414
0.00500000 1681007.41562480 1512.90673395
0.00600000 1680248.59043209 2469.96552849
0.00700000 1679352.49101411 3022.83460946
0.00800000 1678318.62143102 2492.30325805
0.00900000 1677148.31052600 2767.29483066
0.01000000 1675840.66627503 3871.19210625
0.01100000 1674397.02173138 3315.30624737
0.01200000 1672816.77177334 3914.39141757
0.01300000 1671101.29734810 3860.24416713
0.01400000 1669249.90624533 3755.81245555
0.01500000 1667264.33826717 6002.15188503
0.01600000 1665143.42942474 4670.72752833
0.01700000 1662889.36899018 6285.72209675
0.01800000 1660501.64826492 6152.15888365
0.01900000 1657981.02030442 6963.52059949
0.02000000 1655328.10461525 5735.71214195
0.02100000 1652544.59052374 7089.41661477
0.02200000 1649628.65518980 7967.70676656
0.02300000 1646583.22131044 6520.46985319
0.02400000 1643407.95847943 8011.61416290
0.02500000 1640104.51438370 7036.04868805
0.02600000 1636672.90693545 7291.37813389
0.02700000 1633114.18843125 8916.80387723
0.02800000 1629428.22093739 9214.41701197
0.02900000 1625617.65681201 11704.44766645
0.03000000 1621682.64961339 9803.07206751
0.03100000 1617623.65254724 8541.05327845
0.03200000 1613441.52129951 9583.84307793
0.03300000 1609139.07403567 9847.93158709
0.03400000 1604714.38624257 8424.75091649
0.03500000 1600170.76646510 12097.29155311
0.03600000 1595507.89105984 11511.58996599
0.03700000 1590727.66961978 13600.72220425
0.03800000 1585831.30844649 9277.11358375
0.03900000 1580820.23811730 13278.89061513
0.04000000 1575693.30678222 9690.51428576
0.04100000 1570454.36222076 9893.86294074
0.04200000 1565103.80833127 12113.90403848
0.04300000 1559641.72259386 13381.72660101
0.04400000 1554071.76568513 11538.98339610
0.04500000 1548393.50445466 11752.30724488
0.04600000 1542607.46341280 11962.92143488
0.04700000 1536716.59347698 13277.23198514
0.04800000 1530721.36985019 14626.04336944
0.04900000 1524624.30185984 14865.08763507
0.05000000 1518424.84803774 15100.73581692
0.05100000 1512126.76312385 14153.50716217
0.05200000 1505727.95653032 13167.59159348
0.05300000 1499233.63855983 14572.55164614
0.05400000 1492642.75005450 16008.59424088
0.05500000 1485958.86425380 16226.67155461
0.05600000 1479180.41936390 13911.69249329
0.05700000 1472312.62183946 16651.85653029
0.05800000 1465354.03559126 12968.38382051
0.05900000 1458306.62808926 14437.23629239
0.06000000 1451173.13524869 13278.23480787
0.06100000 1443955.12288653 17457.41825151
0.06200000 1436653.06550045 19006.92094502
0.06300000 1429270.07086490 21953.58931493
0.06400000 1421804.41650289 18021.37182197
0.06500000 1414262.09164569 19601.67350713
0.06600000 1406641.22007357 25446.14086172
0.06700000 1398944.70872876 18550.00770586
0.06800000 1391175.57296999 21598.00178134
0.06900000 1383334.59045532 15977.51526781
0.07000000 1375420.82719045 16113.05574509
0.07100000 1367439.75841225 16245.18509083
0.07200000 1359389.85719746 25305.04337719
0.07300000 1351276.18173231 22498.74948004
0.07400000 1343098.16561032 15109.85507123
0.07500000 1334857.84649492 16739.11817965
0.07600000 1326555.61848829 18386.06173420
0.07700000 1318196.69010087 20049.77259654
0.07800000 1309779.64306059 23281.33424721
0.07900000 1301306.16671741 17177.24220635
0.08000000 1292780.92059315 18848.74670646
0.08100000 1284203.42651553 15795.70288725
0.08200000 1275574.46292987 17468.99308956
0.08300000 1266897.54165684 20751.78270626
0.08400000 1258173.01490602 17645.87736233
0.08500000 1249404.97673494 17729.05745216
0.08600000 1240592.54274804 19427.68013159
0.08700000 1231739.28218529 21136.64707483
0.08800000 1222843.86430584 19589.95962620
0.08900000 1213912.46051732 19665.38278406
0.09000000 1204943.72206497 21381.72735246
0.09100000 1195940.22533147 18154.37347345
0.09200000 1186902.93176159 19868.75601126
0.09300000 1177835.73879513 19928.98163692
0.09400000 1168736.59824662 31643.54488469
0.09500000 1159609.79003985 16698.38176144
0.09600000 1150456.24445592 21760.88088681
0.09700000 1141279.62826191 16776.81132417
0.09800000 1132080.04793578 25217.08425342
0.09900000 1122859.46108765 18527.18197914
0.10000000 1113617.84449301 23619.83559247
0.10100000 1104357.96937108 18586.34549866
0.10200000 1095082.21121490 23686.62934271
0.10300000 1085791.33230550 22019.84925499
0.10400000 1076487.81431408 22041.08903501
0.10500000 1067174.54625177 20361.69130049
0.10600001 1057848.10579980 25467.69434548
0.10700001 1048515.45639639 16985.95119294
0.10800001 1039174.74889488 18689.55873844
0.10900001 1029829.61527022 22089.84628722
0.11000001 1020480.47439558 16991.00069845
0.11100001 1011129.37245376 16986.97425686
0.11200001 1001778.63641167 20376.17842387
0.11300001 992426.93639400 18667.55155245
0.11400001 983079.39726360 16958.12040126
0.11500001 973735.76030091 22025.90393516
0.11600001 964397.23753273 23695.24124202
0.11700001 955066.67355094 18595.14900977
0.11800001 945742.62179131 25322.25989110
0.11900001 936429.36532013 16855.72936969
0.12000001 927126.55985523 23558.28699563
0.12100001 917838.16156936 18476.08306276
0.12200001 908562.40856935 21791.87039618
0.12300001 899302.84747704 18399.73712627
0.12400001 890059.26841232 21695.19568977
0.12500001 880833.67918685 18312.53305319
0.12600001 871629.36186444 19925.44815118
0.12700001 862445.17848204 26494.31713155
0.12800001 853282.02804058 16511.00802074
0.12900001 844142.66126367 21399.01747161
0.13000001 835028.04421808 18049.13202652
0.13100001 825938.00977957 16353.57336450
0.13200001 816876.46655913 21185.69215891
0.13300001 807843.69309506 19485.19079604
0.13400001 798839.05885219 29117.68506793
0.13500001 789865.84256305 17724.59034280
0.13600001 780923.33648398 24071.96298213
0.13700001 772014.75478889 20774.91803097
0.13800001 763138.48064838 20684.86949338
0.13900001 754299.68095288 20592.38226111
0.14000001 745495.36257199 17343.95042819
0.14100001 736728.84032465 15692.32503901
0.14200001 727999.36810573 23423.38077357
0.14300001 719311.91616589 18644.56574644
0.14400001 710660.06016565 18548.22844524
0.14500001 702053.38466285 21524.95778914
0.14600001 693486.33876456 15291.37449112
0.14700001 684964.86388721 18247.46483481
0.14800001 676485.30055697 19655.28133499
0.14900001 668049.92536955 15031.12403000
0.15000001 659661.19773196 16435.45951696
0.15100001 651318.80297252 19305.09023102
0.15200001 643024.68886790 23611.86768940
0.15300001 634778.31785573 21995.06975163
0.15400001 626579.03089177 16024.75947128
0.15500001 618431.32451443 18812.68177956
0.15600001 610332.24072485 18685.32243164
0.15700001 602287.41526001 19983.89738150
0.15800001 594289.97036089 17008.57975451
0.15900001 586348.08592875 16886.82567182
0.16000001 578456.81030331 15366.70589105
0.16100001 570622.63311303 19412.58289486
0.16200001 562840.37344813 16513.73733652
0.16300001 555114.50352931 15021.39917463
0.16400001 547443.47305142 24388.60787582
0.16500001 539828.95404835 18818.43822657
0.16600001 532270.68907784 17333.39580818
0.16700001 524769.25178206 14546.60434621
0.16800001 517324.28622406 14425.58840248
0.16900001 509939.73865775 13003.46394977
0.17000001 502612.70976534 14181.21827566
0.17100001 495344.76012375 14057.88495614
0.17200001 488136.18662083 20267.41542558
0.17300001 480987.22847537 13809.14398166
0.17400001 473899.57408157 13683.85084784
0.17500001 466871.72500447 13557.95553444
0.17600001 459902.92091122 12210.42312688
0.17700001 452997.70711064 13304.54328622
0.17800001 446153.00605595 13177.12965625
0.17900001 439369.82168613 15421.88146961
0.18000001 432649.46620474 12921.07691853
0.18100001 425992.33958966 18607.34627222
0.18200001 419394.71668987 12663.62406865
0.18300001 412862.55425455 11395.00703572
0.18400001 406391.83555649 15788.32355722
0.18500001 399985.25532573 14507.46589603
0.18600001 393641.47806471 12145.80837950
0.18700001 387360.71327021 12015.92989333
0.18800001 381142.78259459 11885.93823678
0.18900001 374990.73767820 14962.13114028
0.19000001 368898.34319129 16910.30085088
0.19100001 362874.62010088 10450.78955271
0.19200001 356911.13453980 17565.38231636
0.19300001 351013.92775273 13278.85751435
0.19400001 345179.49291737 11106.15070943
0.19500001 339409.46207971 10976.50252235
0.19600001 333702.28569924 10846.99330924
0.19700001 328059.73473450 13640.72441489
0.19800001 322480.94014259 9626.05651817
0.19900001 316966.99599107 10459.91136204
0.20000001 311514.61714267 9392.16615074
0.20100001 306127.96626655 13913.51672440
0.20200001 300803.38773908 10075.40994852
0.20300001 295543.33313455 17182.89020059
0.20400001 290346.49603339 12499.41724503
0.20500001 285212.29395629 8813.06029982
0.20600001 280141.69952986 11307.92023603
0.20700001 275133.94292028 11159.43325234
0.20800001 270188.47449705 12705.61361382
0.20900001 265308.20183754 8357.20875294
0.21000001 260487.73626221 11542.21213941
0.21100001 255729.94007423 9758.65497456
0.21200001 251033.95853878 8020.53535448
0.21300001 246399.68323319 13446.03134970
0.21400001 241827.92262355 10918.53122264
0.21500001 237318.05711868 12302.56866267
0.21600001 232867.55765141 8337.82329591
0.21700001 228478.82938204 8218.38388143
0.21800001 224150.49332766 7363.34405396
0.21900001 219881.44468910 8707.30562138
0.22000001 215672.11977750 9294.39044127
0.22100001 211524.84752618 9861.28885795
0.22200001 207435.65450436 8326.46756552
0.22300001 203405.53265098 8201.31146429
0.22400001 199432.23349571 7403.92201863
0.22500001 195520.49934946 6628.14524137
0.22600001 191664.84528778 7178.80711973
0.22700001 187868.03268126 8995.12183015
0.22800001 184127.72466898 6957.26640563
0.22900001 180443.87821214 7470.37691126
0.23000001 176817.12970280 6739.38521734
0.23100001 173247.80381860 7234.82862962
0.23200001 169732.43519183 5932.14889051
0.23300001 166273.70051493 6419.82788050
0.23400001 162870.01823652 8037.63578012
0.23500001 159519.52324319 6776.38966787
0.23600001 156224.33322318 6664.53037051
0.23700001 152982.64450690 6007.62873393
0.23800001 149794.36211330 6981.16657649
0.23900001 146659.14501375 7391.62125831
0.24000001 143576.27788359 8823.48057469
0.24100001 140546.57229012 5612.02489700
0.24200001 137567.91625904 6518.65602028
0.24300001 134640.44121658 7391.76057244
0.24400001 131763.33780833 4842.30289351
0.24500001 128936.90188929 7136.65785717
0.24600001 126160.33136730 4674.24049827
0.24700001 123434.14993251 5050.92565418
0.24800001 120755.75818789 5863.29611619
0.24900001 118125.88251827 6644.58120599
0.25000001 115544.50799009 4785.27602479
0.25100001 113010.26855855 5126.14602433
0.25200001 110524.21513251 4194.39416271
0.25300001 108084.86081889 4941.64007043
0.25400001 105690.86397424 4851.21088593
0.25500001 103342.71303308 5158.86847869
0.25600001 101040.32022074 4674.12543456
0.25700001 98782.54372710  4587.46154773
0.25800001 96568.72903454  5627.54295075
0.25900001 94399.25704928  4049.72831903
0.26000001 92273.73968362  4696.27220340
0.26100001 90188.75061775  3898.85987368
0.26200001 88148.75714097  4172.96236051
0.26300001 86149.31080664  3752.66415630
0.26400001 84191.17512639  4685.23911748
0.26500001 82274.78717038  3939.31699612
0.26600001 80398.09807692  3863.93277642
0.26700001 78562.46181252  4737.31667147
0.26800001 76766.12733383  3097.51338450
0.26900001 75008.31038637  3341.62038584
0.27000001 73289.56652380  4170.90942825
0.27100001 71608.92408364  3798.13751313
0.27200001 69966.17419700  4584.18395033
0.27300001 68360.02131012  3652.47611145
0.27400001 66789.45614804  3306.07823579
0.27500001 65257.45197210  3782.32209530
0.27600001 63758.99220073  2914.10487645
0.27700001 62297.49346706  2857.58616057
0.27800001 60869.83562447  3056.88328973
0.27900001 59476.82545970  2747.82946629
0.28000001 58117.54749811  3184.55116588
0.28100001 56791.34648759  3363.18369817
0.28200001 55498.53038769  2591.50399911
0.28300001 54238.34226438  2772.66418779
0.28400001 53010.00357589  2946.03108817
0.28500001 51813.55513500  2222.80162050
0.28600001 50647.28024964  2180.36551795
0.28700001 49512.41178714  2566.72354853
0.28800001 48406.80705340  2727.96574062
0.28900001 47332.64871458  2470.76437985
0.29000001 46286.15674207  2222.42992117
0.29100001 45270.03106034  2577.67569059
0.29200001 44281.43023843  2140.78584621
0.29300001 43320.92108176  2292.54325217
0.29400001 42387.72915847  2063.22281445
0.29500001 41482.82039490  2026.02104399
0.29600001 40603.37464517  2170.65651128
0.29700001 39750.06553038  2309.87641732
0.29800001 38923.33317368  2443.99620567
0.29900001 38121.68605240  2058.57114428
0.30000001 37344.88382257  1854.73374285
0.30100001 36593.64992917  1989.23090432
0.30200001 35865.39623085  2934.14820455
0.30300001 35161.44110195  2084.37032720
0.30400001 34481.41706148  1577.52490525
0.30500001 33823.16568772  1862.98005428
0.30600001 33187.77468063  1681.12680604
0.30700001 32575.03815765  1805.96020096
0.30800001 31983.83561595  1778.94102118
0.30900001 31413.91602661  1752.89659727
0.31000001 30865.82391857  1583.87982937
0.31100001 30336.66768673  2129.63417244
0.31200001 29828.87894299  2240.74549229
0.31300001 29340.32060687  1658.31499922
0.31400001 28872.81236156  2046.36067301
0.31500001 28423.30357749  1616.71758403
0.31600002 27992.66600741  1863.47186434
0.31700002 27579.99292625  1315.56572487
0.31800002 27185.72647241  1691.08819529
0.31900002 26809.41166902  1286.85182104
0.32000002 26450.15602221  1528.29008733
0.32100002 26108.22663029  1387.13014655
0.32200002 25783.06197124  2123.62199982
0.32300002 25473.43727740  1609.41184339
0.32400002 25180.16724285  1595.79317458
0.32500002 24902.10390199  1217.71293847
0.32600002 24639.75579393  1571.15410260
0.32700002 24392.37565783  1440.12592703
0.32800002 24160.21737673  1549.99881920
0.32900002 23941.22446650  1422.10880065
0.33000002 23737.81269792  1296.44070189
0.33100002 23545.67283726  1641.60438795
0.33200002 23369.47612898  1284.03592671
0.33300002 23205.05008153  1278.83037055
0.33400002 23054.15852151  1274.31867262
0.33500002 22915.22055798  1154.92717082
0.33600002 22788.46934254  1151.95717982
0.33700002 22672.95263245  1494.37437877
0.33800002 22570.35099174  1377.24288274
0.33900002 22477.99298831  1375.65323603
0.34000002 22397.20943357  1374.74078014
0.34100002 22327.03101265  1488.98976875
0.34200002 22268.34809034  1489.41853256
0.34300002 22218.36188968  1490.40778614
0.34400002 22179.41191686  1606.89846948
0.34500002 22149.54444390  1494.42983441
0.34600002 22130.46670940  1267.07993146
0.34700002 22118.32168826  1616.40702553
0.34800002 22116.78835492  1389.37671026
0.34900002 22123.41115912  1393.77496904
0.35000002 22138.65435564  1748.40031054
0.35100002 22162.04700825  1287.17175120
0.35200002 22192.72059092  1645.14645532
0.35300002 22231.51839045  1534.64178718
0.35400002 22278.19117880  1779.47060469
0.35500002 22331.78894761  1550.27286217
0.35600002 22391.99168895  1438.90945409
0.35700002 22459.06954821  2170.89376535
0.35800002 22533.42490327  1456.10998622
0.35900002 22613.56348583  1587.47223190
0.36000002 22700.57451657  1229.23616830
0.36100002 22792.75100898  1608.94036993
0.36200002 22891.72122508  1869.68141962
0.36300002 22994.43185043  1381.04564235
0.36400002 23103.36937083  1391.40048627
0.36500002 23216.84523782  1274.60486393
0.36600002 23335.94352244  1284.64375176
0.36700002 23459.24526986  2071.92064038
0.36800002 23588.50861326  1566.74881631
0.36900002 23721.01490622  1579.81966759
0.37000002 23856.91660996  1327.63747223
0.37100002 23997.16319065  2276.37100810
0.37200002 24141.78863670  2296.24633495
0.37300002 24289.32097957  1771.42026295
0.37400002 24441.39467081  1787.27706997
0.37500002 24595.63113759  2080.79049281
0.37600002 24753.95162096  1539.81963353
0.37700002 24913.99906046  1695.14857638
0.37800002 25077.86046582  1710.81172202
0.37900002 25244.13236672  1870.59029699
0.38000002 25412.91832144  2178.52252631
0.38100002 25583.48881879  2052.30757027
0.38200002 25756.51941630  2219.56816585
0.38300002 25931.36342352  1643.01126435
0.38400002 26108.76449904  1658.55934337
0.38500002 26286.77693166  2739.60802160
0.38600002 26467.47757687  1690.08086074
0.38700002 26648.64218761  2016.23636343
0.38800002 26831.10776910  1565.59521250
0.38900002 27014.88430544  1738.40788741
0.39000002 27200.41022861  1754.83454904
0.39100002 27385.91626551  2254.40873378
0.39200002 27572.93667843  1625.42469420
0.39300002 27759.96143735  2460.92069801
0.39400002 27948.51012708  1821.54423383
0.39500002 28136.51107683  1838.43972086
0.39600002 28324.92844302  2192.77443931
0.39700002 28513.13578284  1872.45771557
0.39800002 28702.67935771  2920.35424961
0.39900002 28891.09834435  1733.46598279
0.40000002 29079.32174692  1924.03341454
0.40100002 29267.30175859  1764.81837966
0.40200002 29456.02837030  2136.74039922
0.40300002 29643.19580459  2155.65330104
0.40400002 29829.85998640  1812.16408003
0.40500002 30015.99117703  2010.77134422
0.40600002 30201.66483540  1843.81172556
0.40700002 30386.16264403  2045.59656612
0.40800002 30570.10218478  2813.21378685
0.40900002 30752.27565355  1891.26504230
0.41000002 30934.21587890  2097.80394923
0.41100002 31114.58056966  2115.16928735
0.41200002 31293.02918104  2520.18422451
0.41300002 31470.75373094  2149.76728922
0.41400002 31646.78231442  2561.01598014
0.41500002 31821.86756063  2581.39001883
0.41600002 31994.20058828  2601.60854411
0.41700002 32165.65413031  2420.14393144
0.41800002 32336.20139492  2438.79642476
0.41900002 32503.01074784  2047.68977414
0.42000002 32668.75009935  2475.63799984
0.42100002 32833.15219644  2701.84022227
0.42200002 32995.33273704  2512.26475364
0.42300002 33155.07694381  2741.26189161
0.42400002 33312.63416912  3822.62495204
0.42500002 33468.47887906  2352.49949188
0.42600002 33620.76054647  2584.09177805
0.42700002 33772.13573631  3035.43970382
0.42800002 33920.69450229  2401.07647412
0.42900002 34067.26846564  2636.80670419
0.43000002 34211.50483174  3317.66083827
0.43100002 34351.85249882  2448.60016215
0.43200002 34490.58329044  2464.17983996
0.43300002 34626.39048008  2705.01375249
0.43400002 34760.01718110  3175.32771997
0.43500002 34890.40411528  3194.56555218
0.43600002 35019.21251098  2525.06043776
0.43700002 35144.27978832  2308.97929151
0.43800002 35265.79021852  3483.37859391
0.43900002 35385.69242539  3036.09255398
0.44000002 35501.96177997  3287.83683625
0.44100002 35615.98194400  2833.60765775
0.44200002 35726.86324356  2611.45519255
0.44300002 35835.03258659  3341.25859672
0.44400002 35939.72776853  3838.36310758
0.44500002 36040.57927203  3375.56081459
0.44600002 36139.37201672  2665.45950941
0.44700002 36235.25091112  3165.51166961
0.44800002 36326.92646287  3180.60419719
0.44900002 36416.93045924  2703.95721474
0.45000002 36503.53146177  2963.35682451
0.45100002 36585.67360572  2728.55966683
0.45200002 36665.66482128  3238.86165549
0.45300002 36741.79217425  3252.75101534
0.45400002 36815.51971094  3015.19120723
0.45500002 36885.75994644  3027.58331989
0.45600002 36952.57468009  4052.95858300
0.45700002 37016.06528143  3051.60456643
0.45800002 37075.78327693  2807.93457956
0.45900002 37132.55007955  3330.78990000
0.46000002 37186.82267818  3857.20336510
0.46100002 37236.43213454  2838.53335615
0.46200002 37283.76693783  3366.16505752
0.46300002 37327.28158015  2857.77681322
0.46400002 37367.12261660  2866.99261864
0.46500002 37404.57189148  2876.03766905
0.46600002 37437.81363190  3409.27465997
0.46700002 37467.84381094  3156.29131223
0.46800002 37495.17129381  3165.34251065
0.46900002 37518.54848499  3703.08091098
0.47000002 37538.15825645  2917.27810717
0.47100002 37554.97183150  2924.78134486
0.47200002 37568.25652615  5597.48264642
0.47300002 37578.95207886  3740.60906722
0.47400002 37584.73232155  2945.70353532
0.47500002 37588.46112738  2952.19787687
0.47600002 37589.20415684  2958.45845339
0.47700002 37585.30621956  2964.35324204
