# SAXS profile: number of points = 501, q_min = 0, q_max = 0.5, delta_q = 0.001
#    q    intensity    error
0.00000000 1664650.74656091 249.69761198
0.00100000 1664582.29970832 898.87446319
0.00200000 1664376.90499999 973.66052026
0.00300000 1664034.73157363 1098.26296196
0.00400000 1663555.65857272 1497.20014961
0.00500000 1662940.11938200 2544.29848336
0.00600000 1662187.86077783 1745.29732487
0.00700000 1661299.52394770 2591.62736507
0.00800000 1660274.58368580 2913.78201739
0.00900000 1659114.38520756 3235.27318946
0.01000000 1657818.06748561 3008.93992241
0.01100000 1656386.90218360 2981.49655374
0.01200000 1654820.32633623 3549.58975562
0.01300000 1653119.69139121 4513.01695654
0.01400000 1651284.34267791 4830.00691645
0.01500000 1649315.95106612 5145.86599647
0.01600000 1647213.42975105 5460.51276373
0.01700000 1644978.87757463 5773.87611930
0.01800000 1642611.88246586 6085.87729839
0.01900000 1640113.12409392 8364.57731031
0.02000000 1637483.22797575 7221.30136203
0.02100000 1634723.87818436 7552.42465963
0.02200000 1631833.23282480 6755.78989083
0.02300000 1628814.25627430 6450.10474844
0.02400000 1625666.59553642 6705.87501236
0.02500000 1622391.82994912 8858.25979608
0.02600000 1618990.09473828 9179.67425703
0.02700000 1615462.33601316 6784.94212201
0.02800000 1611808.44993017 8413.64049448
0.02900000 1608031.09204942 9406.98232040
0.03000000 1604130.38860107 9696.96864482
0.03100000 1600106.77065992 7680.51285257
0.03200000 1595961.17781659 8690.00901346
0.03300000 1591696.30319996 12176.47728082
0.03400000 1587310.26598540 12500.06892139
0.03500000 1582806.38424337 11111.30133049
0.03600000 1578184.31292736 11386.60034399
0.03700000 1573445.91613836 10762.37056412
0.03800000 1568592.51271560 11929.14661128
0.03900000 1563625.37608818 12196.27849830
0.04000000 1558543.41486985 10543.54669017
0.04100000 1553350.43247215 12721.94063182
0.04200000 1548046.94721462 9984.90327276
0.04300000 1542632.90260234 12217.65315573
0.04400000 1537111.94309636 13488.15792709
0.04500000 1531483.74962646 12680.68603611
0.04600000 1525748.72975940 15059.14066278
0.04700000 1519909.88774753 12037.68687081
0.04800000 1513967.64008329 15578.72774131
0.04900000 1507924.50829964 12440.37777254
0.05000000 1501779.93152686 16084.06381563
0.05100000 1495537.59610774 11665.19379305
0.05200000 1489195.47751532 16574.74643715
0.05300000 1482758.96390970 15613.45261783
0.05400000 1476226.55303343 17050.41748266
0.05500000 1469602.14345743 18516.98787137
0.05600000 1462884.18373595 13758.42639006
0.05700000 1456077.54437828 20268.60036385
0.05800000 1449181.05258166 12825.25291419
0.05900000 1442196.67192261 12979.77065353
0.06000000 1435127.02675343 13131.41290828
0.06100000 1427973.62347943 18592.21744654
0.06200000 1420737.05239977 16111.15892731
0.06300000 1413420.41086304 17639.48755231
0.06400000 1406021.72787069 13708.71248785
0.06500000 1398547.40546912 15230.18195799
0.06600000 1390995.22343970 13979.50264965
0.06700000 1383368.15311615 15521.39140435
0.06800000 1375669.15443474 14238.17641488
0.06900000 1367899.10038057 21544.41183968
0.07000000 1360056.95195704 21726.91082495
0.07100000 1352148.33294356 21904.80401966
0.07200000 1344171.58494226 20606.15136250
0.07300000 1336131.76454004 17797.27593758
0.07400000 1328028.13604909 16434.34895379
0.07500000 1319862.99043835 19560.37043514
0.07600000 1311636.49638219 21209.16314080
0.07700000 1303354.10010568 22873.86552938
0.07800000 1295014.22330059 18415.10311893
0.07900000 1286618.58792381 21615.19329095
0.08000000 1278171.59138844 17082.76412028
0.08100000 1269672.93039472 18740.37333189
0.08200000 1261123.50312603 21981.38369097
0.08300000 1252526.53778067 17360.01862838
0.08400000 1243882.86691037 17445.45802728
0.08500000 1235195.99509134 27087.84944400
0.08600000 1226465.32622875 19206.44791051
0.08700000 1217694.38115905 22502.99322051
0.08800000 1208881.69669151 19366.28569051
0.08900000 1200033.52846619 17820.49873475
0.09000000 1191148.55975404 24388.76790664
0.09100000 1182229.33588112 22840.67184230
0.09200000 1173276.69789917 19640.65284568
0.09300000 1164294.52840303 19699.86434632
0.09400000 1155280.97609934 23047.85655637
0.09500000 1146240.05352721 18156.44330127
0.09600000 1137173.03420097 18200.45526795
0.09700000 1128083.08104400 18241.10427805
0.09800000 1118970.59795430 19940.05699308
0.09900000 1109837.60198546 21641.83425637
0.10000000 1100683.81481758 23345.50481015
0.10100000 1091512.19890932 20040.16491450
0.10200000 1082324.82298736 20066.30316203
0.10300000 1073122.80788680 18414.78824958
0.10400000 1063908.39665178 18432.21383914
0.10500000 1054684.50764120 23477.27824468
0.10600001 1045447.56278044 18457.37758937
0.10700001 1036205.15276350 21822.48154411
0.10800001 1026954.45116907 23506.98849354
0.10900001 1017699.77278528 20150.45644954
0.11000001 1008441.18502413 23506.76512937
0.11100001 999180.88555038 23500.73553440
0.11200001 989921.10227025 20134.99616807
0.11300001 980660.87936156 23477.02255723
0.11400001 971404.56139999 20108.07536776
0.11500001 962152.53071237 16741.45482272
0.11600001 952905.56222311 20068.19208546
0.11700001 943666.81276017 25054.35505872
0.11800001 934434.59552185 20015.58997878
0.11900001 925213.34858911 19984.60927083
0.12000001 916002.69493213 16625.44969616
0.12100001 906806.35462031 23232.37989981
0.12200001 897622.96351016 18217.25890268
0.12300001 888455.52609224 29745.49241501
0.12400001 879304.24069812 16486.95528991
0.12500001 870170.96399685 19735.47839339
0.12600001 861058.90157692 26245.07655682
0.12700001 851967.28306437 22900.88164801
0.12800001 842896.43148518 17941.05138971
0.12900001 833849.54202378 22764.09357017
0.13000001 824827.04886302 22690.99318376
0.13100001 815829.44095088 22614.79316917
0.13200001 806859.88902339 20925.91220828
0.13300001 797919.44142389 19245.81783445
0.13400001 789006.77978618 22368.34326151
0.13500001 780125.57656088 17506.01876340
0.13600001 771274.91669474 19019.64034248
0.13700001 762457.96968534 20517.74493171
0.13800001 753673.39661393 21999.72748457
0.13900001 744926.06590887 15643.44812180
0.14000001 736213.25101529 18685.09319197
0.14100001 727537.72717982 17046.20975177
0.14200001 718899.31304615 18504.46919058
0.14300001 710302.46846062 16876.78744666
0.14400001 701741.42769923 18315.45212689
0.14500001 693225.21775996 16699.79628360
0.14600001 684748.27713723 18118.44026778
0.14700001 676316.95466800 18017.08452234
0.14800001 667927.00312903 17913.80306907
0.14900001 659581.30432092 14840.58004741
0.15000001 651281.73385994 16226.68516474
0.15100001 643028.41061561 19059.36298996
0.15200001 634822.97773843 16026.10682923
0.15300001 626665.09616363 18818.75372583
0.15400001 618554.09619261 15819.52175667
0.15500001 610494.34822123 21428.35263383
0.15600001 602482.53928064 18445.00381059
0.15700001 594525.15578941 15499.27154295
0.15800001 586614.72252899 16788.91415120
0.15900001 578759.28325164 15279.24579903
0.16000001 570954.28385363 16546.25592710
0.16100001 563205.93340002 15054.49531042
0.16200001 555509.20106610 14940.42066795
0.16300001 547868.58811429 16173.08148463
0.16400001 540282.29128408 17383.58354274
0.16500001 532752.23147366 14592.08430898
0.16600001 525278.04598010 14474.03724034
0.16700001 517860.13062184 15660.09108939
0.16800001 510498.43287623 15529.36306134
0.16900001 503196.56404372 20530.42078239
0.17000001 495952.03660575 15265.40440755
0.17100001 488765.94628650 18915.24301449
0.17200001 481638.89644736 13748.38294833
0.17300001 474571.14215643 14863.56887426
0.17400001 467563.98518191 13500.91070972
0.17500001 460616.42693420 15808.35651897
0.17600001 453727.15238203 15660.39340409
0.17700001 446901.27378675 14318.71748841
0.17800001 440135.22898634 12999.39460210
0.17900001 433430.36677864 14043.14454694
0.18000001 426787.82187260 11587.28991117
0.18100001 420207.98313027 14913.18202574
0.18200001 413687.25607796 14762.43043049
0.18300001 407231.33697605 16859.37814723
0.18400001 400836.41531687 11123.21105051
0.18500001 394505.10201930 14308.70072621
0.18600001 388235.99014268 15246.02805318
0.18700001 382029.49588202 12927.87875142
0.18800001 375885.55021592 12787.62702251
0.18900001 369806.65297060 12647.38812915
0.19000001 363786.88097189 11464.74409552
0.19100001 357835.33772977 15458.48732034
0.19200001 351943.23509769 10188.75713751
0.19300001 346117.12503606 12086.41057737
0.19400001 340353.21159136 12941.93148232
0.19500001 334653.11107387 11806.56231661
0.19600001 329015.19471035 10694.63940945
0.19700001 323441.50456227 14409.31970920
0.19800001 317931.05895360 11388.29106991
0.19900001 312484.72527179 12186.90486155
0.20000001 307099.53619748 12036.76689013
0.20100001 301779.35648592 10058.30642705
0.20200001 296520.82144799 9931.96538382
0.20300001 291326.12685611 11588.95387408
0.20400001 286194.08128553 11440.60894014
0.20500001 281123.97435186 10424.07746168
0.20600001 276117.07184320 12002.80968037
0.20700001 271172.21817726 12690.86041058
0.20800001 266289.38909496 12522.25911412
0.20900001 261470.98000198 11530.87076317
0.21000001 256711.75598635 12187.39119158
0.21100001 252014.54086474 8014.06277835
0.21200001 247378.63566831 7903.74778325
0.21300001 242803.99385948 8573.40942849
0.21400001 238291.06104550 7684.88708203
0.21500001 233839.51760553 7576.40072861
0.21600001 229446.85064967 7468.49534175
0.21700001 225115.04723030 13250.27230644
0.21800001 220843.36083156 8705.64569559
0.21900001 216630.27028762 10723.19888625
0.22000001 212476.23652594 10565.38136081
0.22100001 208383.56965353 10408.75979636
0.22200001 204348.46360262 10253.18464608
0.22300001 200371.81663580 8078.99202877
0.22400001 196451.47316760 8619.30879280
0.22500001 192592.21890773 8487.53948862
0.22600001 188788.08381419 8999.52838099
0.22700001 185042.44296230 8226.98740315
0.22800001 181352.62574414 6852.40928779
0.22900001 177718.77128454 7357.55747913
0.23000001 174141.34730857 6033.99796960
0.23100001 170620.81196489 5937.60453718
0.23200001 167153.58478664 6426.21987104
0.23300001 163742.41883054 6896.83100732
0.23400001 160385.55619854 7349.66846040
0.23500001 157081.47975069 6116.75311079
0.23600001 153832.16497630 5468.73372356
0.23700001 150635.71632587 5377.69532719
0.23800001 147491.92859831 7402.62024648
0.23900001 144400.77066276 7277.79918564
0.24000001 141361.20113868 5110.20766288
0.24100001 138374.51386401 5022.99509086
0.24200001 135438.07598742 8392.42077554
0.24300001 132552.34659607 5821.69933788
0.24400001 129716.33338234 6673.90566822
0.24500001 126930.52380553 5152.11020498
0.24600001 124194.21314044 5981.81455888
0.24700001 121507.26344952 4972.07745556
0.24800001 118867.75724924 6215.59532060
0.24900001 116276.17983166 5232.42833996
0.25000001 113732.62420853 5138.44020483
0.25100001 111235.51396297 4625.17288939
0.25200001 108786.10623221 4541.27621951
0.25300001 106382.92452007 4458.50857757
0.25400001 104024.46390076 5570.51030543
0.25500001 101711.39781127 5077.43321896
0.25600001 99443.40849745  4600.25229474
0.25700001 97219.52877005  4138.63553555
0.25800001 95039.18070353  3692.27234503
0.25900001 92902.65754367  3985.52419720
0.26000001 90809.40000433  4266.22581406
0.26100001 88756.38407454  4883.37648284
0.26200001 86747.64641959  4791.07273845
0.26300001 84778.98117776  4028.69737620
0.26400001 82851.07138286  4939.99536495
0.26500001 80964.49959827  4199.62879288
0.26600001 79117.10023611  4119.23201871
0.26700001 77310.24623111  3729.44645467
0.26800001 75542.13453032  4267.37538155
0.26900001 73812.04393123  3288.32671275
0.27000001 72120.64570916  4104.38614154
0.27100001 70466.86834584  4312.57254685
0.27200001 68850.38287198  3383.30797444
0.27300001 67270.07061402  3870.72004631
0.27400001 65724.88932345  3524.49735677
0.27500001 64217.73182905  3190.33706825
0.27600001 62743.72926882  2867.70228195
0.27700001 61306.29995391  3067.76739488
0.27800001 59902.00511912  3760.34854932
0.27900001 58532.20063057  2704.18779712
0.28000001 57195.50995245  2651.86994445
0.28100001 55891.47329582  2364.20943231
0.28200001 54620.49503504  3941.68821076
0.28300001 53381.54148734  2501.45915249
0.28400001 52174.14111253  2899.57802957
0.28500001 50998.05489905  2844.16165634
0.28600001 49851.92136575  2360.73784801
0.28700001 48736.57579657  3158.13026110
0.28800001 47650.22596052  3098.45608974
0.28900001 46594.78132015  3445.68424172
0.29000001 45566.77016545  2983.48441780
0.29100001 44568.55462774  2537.73362063
0.29200001 43597.51860263  2299.33323994
0.29300001 42654.18894572  2069.15480370
0.29400001 41737.88543724  2216.28182163
0.29500001 40849.44988190  2901.94505698
0.29600001 39986.04628487  1781.37844632
0.29700001 39148.41271752  2099.92095757
0.29800001 38336.97058902  1891.35453354
0.29900001 37550.32007712  1858.74093181
0.30000001 36788.12418038  2823.67260514
0.30100001 36051.06472713  2286.35863323
0.30200001 35336.65352211  1927.26117433
0.30300001 34646.26964614  2527.79195305
0.30400001 33979.43754389  1710.01527535
0.30500001 33334.09536586  1836.04205967
0.30600001 32711.31718361  2410.16996419
0.30700001 32110.72059560  1780.21843410
0.30800001 31531.44585149  1607.63084285
0.30900001 30973.03321970  1872.31994677
0.31000001 30436.17463125  1703.81713652
0.31100001 29918.04572422  1820.21398804
0.31200001 29420.94882525  1519.44497402
0.31300001 28942.65368541  1772.15876906
0.31400001 28485.18782419  1884.29526379
0.31500001 28045.45182620  1595.22537540
0.31600002 27624.23021830  1838.94509270
0.31700002 27220.68612419  1947.64018440
0.31800002 26835.41874450  1540.88981727
0.31900002 26467.86272303  1524.54896503
0.32000002 26116.87425255  1257.52755480
0.32100002 25783.03920065  1369.85293759
0.32200002 25465.71854010  1850.72118253
0.32300002 25163.66813784  1712.13606117
0.32400002 24877.75704907  1212.79071357
0.32500002 24606.72423877  1203.26887225
0.32600002 24351.29086213  1194.43087335
0.32700002 24110.49243849  1304.85991256
0.32800002 23884.67198334  1178.70861819
0.32900002 23671.82369580  1757.63299264
0.33000002 23474.34596160  1398.60159862
0.33100002 23287.92972842  1391.68674647
0.33200002 23117.13366625  1385.64105757
0.33300002 22958.10617543  1380.24140863
0.33400002 22812.23391115  1260.94628915
0.33500002 22678.06181849  1714.46155467
0.33600002 22556.06516525  1254.23006291
0.33700002 22444.90295983  1251.75229735
0.33800002 22346.65709667  1590.85859405
0.33900002 22258.26639994  1816.27462425
0.34000002 22181.43520962  1361.49655764
0.34100002 22114.90978343  1701.74238843
0.34200002 22059.72125249  1588.96179707
0.34300002 22013.09640431  1476.63857673
0.34400002 21977.27397982  1137.32398232
0.34500002 21950.49904449  1367.07714524
0.34600002 21934.21435994  1370.01109381
0.34700002 21924.82053713  1716.71352936
0.34800002 21925.67845908  1606.93305037
0.34900002 21934.74624460  1266.73165562
0.35000002 21952.28400717  1502.52415003
0.35100002 21977.68765915  1392.50635604
0.35200002 22010.35010950  1515.08252155
0.35300002 22050.89193510  1287.99265893
0.35400002 22099.20733205  1529.81770002
0.35500002 22154.38382018  1301.34856723
0.35600002 22216.02428933  1427.60178845
0.35700002 22284.33613166  1436.00268834
0.35800002 22359.82001635  1324.48400140
0.35900002 22441.04895663  1696.54338148
0.36000002 22528.97681729  1463.93298293
0.36100002 22621.89133794  1474.04250940
0.36200002 22721.63298763  1360.91227226
0.36300002 22824.85096145  1495.48430583
0.36400002 22934.38590345  1632.35499400
0.36500002 23048.18200437  1391.87977717
0.36600002 23167.62839388  1402.91580384
0.36700002 23291.11510625  1671.37049919
0.36800002 23420.39913347  1944.47873016
0.36900002 23552.93374944  1699.34425052
0.37000002 23688.84072652  1450.11245376
0.37100002 23828.96317942  1728.55307092
0.37200002 23973.36100535  1475.44057297
0.37300002 24120.57313998  2435.69559106
0.37400002 24272.27844368  1638.37887256
0.37500002 24426.02379151  1515.39058781
0.37600002 24583.81720490  1668.25791455
0.37700002 24743.27797823  1823.82710617
0.37800002 24906.52832988  1415.93620263
0.37900002 25072.10626720  2429.48721238
0.38000002 25240.11584154  1875.21449528
0.38100002 25409.83756178  1601.58213739
0.38200002 25582.00765054  2498.46689555
0.38300002 25755.91182697  1631.89465067
0.38400002 25932.37957175  1497.59499122
0.38500002 26109.24391398  2116.41541193
0.38600002 26289.02227004  1678.68559658
0.38700002 26468.94930949  2002.64079963
0.38800002 26650.30878624  1710.55015048
0.38900002 26832.91089878  1726.69789814
0.39000002 27017.21979061  1743.01601737
0.39100002 27201.53326391  2559.12037071
0.39200002 27387.18424452  1775.92204647
0.39300002 27572.93674589  2444.34095833
0.39400002 27760.09380002  2467.17845336
0.39500002 27946.80063092  2324.05605058
0.39600002 28133.78677282  2177.97720621
0.39700002 28320.63456489  2874.26133817
0.39800002 28508.67630469  2388.74210074
0.39900002 28695.52711328  1893.90487921
0.40000002 28882.39685290  1911.00387831
0.40100002 29068.89757519  1928.14006752
0.40200002 29256.09572034  1945.38417710
0.40300002 29441.80540524  2319.42553972
0.40400002 29626.87368696  2339.78246029
0.40500002 29811.52241518  2178.62616133
0.40600002 29995.56059826  2197.47487355
0.40700002 30178.66519552  2216.32127697
0.40800002 30361.04133420  1862.64997411
0.40900002 30541.73975916  1878.31708419
0.41000002 30722.04476184  2651.61980903
0.41100002 30900.90905666  2864.51440528
0.41200002 31077.88451265  2117.80254046
0.41300002 31253.95105116  2523.13158791
0.41400002 31428.60934420  2152.07412682
0.41500002 31602.13819537  3155.15762693
0.41600002 31772.90899093  2186.13510671
0.41700002 31942.91406620  2203.10288754
0.41800002 32111.93279163  2421.88208590
0.41900002 32277.28297806  2033.46892397
0.42000002 32441.58941543  3073.02970299
0.42100002 32604.47648386  2270.24980515
0.42200002 32765.28288201  2078.95729738
0.42300002 32923.61500503  2722.12461760
0.42400002 33079.75288011  2530.60121524
0.42500002 33234.28111192  2548.40479642
0.42600002 33385.23195798  2779.82147071
0.42700002 33535.31134452  2583.56050841
0.42800002 33682.51030464  3467.95142530
0.42900002 33827.83600530  2400.08507831
0.43000002 33970.82184381  3953.18472529
0.43100002 34109.90943897  3536.51557822
0.43200002 34247.47037058  2669.24796717
0.43300002 34382.08850564  2462.10147456
0.43400002 34514.51053538  2477.27911107
0.43500002 34643.86444278  2718.85061031
0.43600002 34771.52559866  2735.12833321
0.43700002 34895.58919184  2521.90435041
0.43800002 35016.04016328  3458.70953103
0.43900002 35134.95899883  3014.57962496
0.44000002 35250.26982759  3264.52764344
0.44100002 35363.35494621  2579.04959845
0.44200002 35473.35957083  2592.92534071
0.44300002 35580.69821473  2606.64207474
0.44400002 35684.50755469  3334.71738902
0.44500002 35784.65027835  2633.39253878
0.44600002 35882.69717386  2405.93495953
0.44700002 35977.79402709  3143.02023516
0.44800002 36068.89814094  2915.08848590
0.44900002 36158.22264503  2684.74815863
0.45000002 36244.12894647  2942.29852732
0.45100002 36325.77208323  2462.88746397
0.45200002 36405.27281020  3710.60760704
0.45300002 36481.03824779  2981.23058690
0.45400002 36554.21399500  3492.75531275
0.45500002 36624.09689153  4258.65018838
0.45600002 36690.43849496  3269.66858144
0.45700002 36753.69338861  3282.47251211
0.45800002 36813.17071690  3548.42169358
0.45900002 36869.70973752  2798.41110171
0.46000002 36923.82437300  2808.61083404
0.46100002 36973.32143541  2818.47642660
0.46200002 37020.54311229  2828.18452511
0.46300002 37063.95035758  3611.51149401
0.46400002 37103.78887024  2587.98939636
0.46500002 37141.22941900  3115.40647132
0.46600002 37174.61908983  2864.49040973
0.46700002 37204.74310233  3656.48232540
0.46800002 37232.17724495  3666.99731066
0.46900002 37255.76109037  2626.53128136
0.47000002 37275.68696152  2896.88014952
0.47100002 37292.84390753  2640.33347380
0.47200002 37306.48959964  3705.65378757
0.47300002 37317.44162597  2653.27022536
0.47400002 37323.77396767  3457.11472761
0.47500002 37327.99725272  3731.30678224
0.47600002 37329.15220552  3205.08116028
0.47700002 37325.88638498  3211.51941678
