# SAXS profile: number of points = 501, q_min = 0, q_max = 0.5, delta_q = 0.001
#    q    intensity    error
0.00000000 1646666.22097351 370.49989972
0.00100000 1646598.33885420 592.77541607
0.00200000 1646394.63628961 889.05313175
0.00300000 1646055.28536961 987.63320640
0.00400000 1645580.16837056 1357.60369049
0.00500000 1644969.69812468 1628.52006560
0.00600000 1644223.66049987 1726.43491381
0.00700000 1643342.66472886 2760.81579148
0.00800000 1642326.17169678 3325.71063810
0.00900000 1641175.53671011 2707.93975133
0.01000000 1639889.94877180 4058.72779846
0.01100000 1638470.59292304 3539.09663480
0.01200000 1636916.97328407 3191.98823785
0.01300000 1635230.40303838 4464.17919719
0.01400000 1633410.22235783 5145.24242852
0.01500000 1631458.10071487 5481.69946250
0.01600000 1629373.00913488 4154.90135903
0.01700000 1627156.92641648 5271.98867808
0.01800000 1624809.56923641 4630.70748069
0.01900000 1622331.53846905 6813.79276903
0.02000000 1619723.43275951 7142.98066159
0.02100000 1616986.96360101 5869.66294399
0.02200000 1614120.31472977 8353.07300823
0.02300000 1611126.42044440 6380.06091537
0.02400000 1608004.95793733 7839.02452738
0.02500000 1604757.40195924 8761.97581486
0.02600000 1601384.02367737 7782.72671104
0.02700000 1597885.60010191 7382.23181059
0.02800000 1594262.15304645 7628.54475217
0.02900000 1590516.33590704 10735.98576031
0.03000000 1586648.24409628 8115.70614159
0.03100000 1582658.22469657 9875.78777652
0.03200000 1578547.26466502 8595.19025198
0.03300000 1574318.11679627 8029.02276580
0.03400000 1569968.78462692 9066.57014956
0.03500000 1565502.69379731 10144.45792426
0.03600000 1560919.47174758 9529.41381541
0.03700000 1556220.83728054 11531.59693756
0.03800000 1551408.34887943 10890.88711316
0.03900000 1546482.97429355 12990.45758565
0.04000000 1541443.85665423 9479.88015771
0.04100000 1536294.69892547 9678.65705200
0.04200000 1531036.01607149 10862.70103798
0.04300000 1525667.72827635 11076.34822143
0.04400000 1520193.62608968 15391.96117899
0.04500000 1514613.14623733 11495.91431410
0.04600000 1508926.79768397 11701.72786002
0.04700000 1503137.61239519 12987.10957510
0.04800000 1497245.94098211 14306.18563172
0.04900000 1491254.30252283 13421.28934743
0.05000000 1485162.11499351 12497.63977964
0.05100000 1478973.14047607 13843.18923973
0.05200000 1472685.21878271 11707.84803492
0.05300000 1466303.99067759 14252.47545381
0.05400000 1459827.57156447 18065.36704057
0.05500000 1453260.14494670 17090.34010183
0.05600000 1446599.91571756 14842.11582786
0.05700000 1439852.07701643 13779.38502025
0.05800000 1433015.06817123 20291.49431276
0.05900000 1426091.17758457 16685.26755704
0.06000000 1419082.73543512 16879.98992661
0.06100000 1411991.43577309 18384.12935288
0.06200000 1404817.78121973 14603.08151838
0.06300000 1397564.82881553 16099.94758071
0.06400000 1390230.61138748 14910.22400443
0.06500000 1382821.65948671 13689.93506930
0.06600000 1375335.59028920 22115.39732660
0.06700000 1367775.44263481 20926.96525167
0.06800000 1360143.92178224 18300.73732422
0.06900000 1352442.15630603 15620.70763668
0.07000000 1344669.26264257 15752.80114954
0.07100000 1336830.49408144 17325.32401477
0.07200000 1328924.37357172 16006.89482954
0.07300000 1320955.78357543 16128.87087318
0.07400000 1312924.24565518 20678.55783815
0.07500000 1304831.74537450 19337.60737285
0.07600000 1296678.69878095 17971.96760764
0.07700000 1288470.42709990 16582.61517431
0.07800000 1280205.30501769 19721.56364866
0.07900000 1271885.01833992 15262.62093595
0.08000000 1263514.02608103 18422.03536446
0.08100000 1255091.74511246 18525.15502703
0.08200000 1246619.76039931 18624.50009432
0.08300000 1238100.46243504 17160.07321471
0.08400000 1229535.23837201 25082.52004013
0.08500000 1220927.43182651 17324.96107094
0.08600000 1212276.26990882 33222.43273669
0.08700000 1203585.64524508 17476.06438959
0.08800000 1194853.56320116 22331.81414502
0.08900000 1186086.65385078 24018.25586861
0.09000000 1177283.48448663 17676.91234995
0.09100000 1168446.57418170 17737.01982938
0.09200000 1159576.61617743 24264.14183361
0.09300000 1150677.85623391 19469.47024239
0.09400000 1141747.83613733 21150.87965848
0.09500000 1132791.24924940 17943.41423150
0.09600000 1123808.92378352 21256.84679260
0.09700000 1114804.08471217 19665.14497884
0.09800000 1105777.02274246 18062.86851577
0.09900000 1096730.16743369 26321.52525611
0.10000000 1087662.70968980 21421.51807473
0.10100000 1078577.91643009 24753.36434627
0.10200000 1069477.55579513 19828.11481708
0.10300000 1060362.98973319 26466.66146875
0.10400000 1051236.43451264 21524.06700925
0.10500000 1042100.84395053 16569.40419839
0.10600001 1032952.31224717 19894.66246999
0.10700001 1023798.92237007 18244.09765516
0.10800001 1014637.39469965 28201.84771290
0.10900001 1005472.18400169 23226.40854361
0.11000001 996303.26326287 19906.14013697
0.11100001 987132.92801116 21558.98416262
0.11200001 977963.66768159 23207.07892661
0.11300001 968794.08910985 23192.93158523
0.11400001 959628.54538068 21519.67114340
0.11500001 950467.45208425 16538.13444501
0.11600001 941311.76909166 19824.02679061
0.11700001 932164.32209714 24748.96391723
0.11800001 923023.76375373 18123.57245489
0.11900001 913894.30103304 23030.13747079
0.12000001 904775.69060332 18063.84751379
0.12100001 895671.27320368 19668.94208612
0.12200001 886580.12645027 16357.40410363
0.12300001 877505.11265798 21218.07462375
0.12400001 868446.29641114 19540.04258993
0.12500001 859405.76298837 21115.60059160
0.12600001 850386.30433028 16199.85986089
0.12700001 841387.54406145 16154.64160729
0.12800001 832409.43015089 20939.26020230
0.12900001 823455.62052715 17663.12389281
0.13000001 814525.93788298 19206.52252058
0.13100001 805621.39109975 17546.43472525
0.13200001 796744.86260437 17484.56683408
0.13300001 787897.49400775 28506.13267706
0.13400001 779077.73296384 15776.32483630
0.13500001 770289.65725101 15713.90974880
0.13600001 761531.99845579 17214.43163677
0.13700001 752807.89101577 18699.74889459
0.13800001 744116.26650704 20169.27235477
0.13900001 735461.75857176 18533.63719002
0.14000001 726841.86724735 18447.24746072
0.14100001 718258.93926341 16828.80774064
0.14200001 709713.28416983 18268.02079615
0.14300001 701208.67320000 16660.71886108
0.14400001 692740.14897657 16573.80884605
0.14500001 684316.12179621 16485.17615171
0.14600001 675931.32100182 25337.28676302
0.14700001 667592.21541177 16302.60266946
0.14800001 659294.03579228 19155.78911369
0.14900001 651040.09376267 17578.08336094
0.15000001 642831.94839002 14560.14431802
0.15100001 634669.96916627 14470.47597978
0.15200001 626555.63416026 23007.12397200
0.15300001 618488.62605229 18573.21431680
0.15400001 610468.44932190 15612.73132819
0.15500001 602499.20640181 21147.72314273
0.15600001 594577.36923853 21003.44655961
0.15700001 586710.15623041 13905.03135893
0.15800001 578889.43644059 19329.11919506
0.15900001 571123.65893455 16448.36215369
0.16000001 563407.74711128 21770.07637598
0.16100001 555748.36514562 14855.15450157
0.16200001 548140.31060458 14742.23434963
0.16300001 540587.92159347 15958.15619879
0.16400001 533089.69498793 13193.97057383
0.16500001 525647.27925956 15706.34144579
0.16600001 518260.62148589 19473.64377174
0.16700001 510929.60291112 16738.05458165
0.16800001 503654.60933981 14044.40944457
0.16900001 496439.07745825 17722.87590210
0.17000001 489280.30453255 16315.05252503
0.17100001 482179.85946901 14928.28915409
0.17200001 475138.19606596 18494.75515524
0.17300001 468155.14725691 13440.73491248
0.17400001 461232.38358884 14528.82076919
0.17500001 454368.77478580 15593.93708711
0.17600001 447563.14045842 14259.36232846
0.17700001 440820.48006712 16477.87032317
0.17800001 434137.09332668 12822.23965702
0.17900001 427514.53478199 11542.89298433
0.18000001 420953.88946623 14857.56823051
0.18100001 414455.52656699 18103.41825559
0.18200001 408015.83934624 13440.04238294
0.18300001 401640.35946288 15519.38422277
0.18400001 395325.57070080 10970.28510519
0.18500001 389073.61501786 11940.66980900
0.18600001 382883.68611869 16109.83185453
0.18700001 376755.63933423 11686.96048430
0.18800001 370689.97915107 12610.87368653
0.18900001 364688.69342656 11432.99107910
0.19000001 358745.82503672 12333.68204751
0.19100001 352871.04051581 15244.02967056
0.19200001 347054.80674133 13061.40826888
0.19300001 341304.14654281 9931.95113371
0.19400001 335615.28182514 12761.77169444
0.19500001 329989.59976488 11642.03362985
0.19600001 324425.52349329 12462.80707394
0.19700001 318925.40629390 11366.50201747
0.19800001 313487.64966212 12164.88882004
0.19900001 308113.44249679 18486.80742349
0.20000001 302800.02394156 9129.42115331
0.20100001 297550.90581818 9917.37215964
0.20200001 292362.84909271 9792.69409320
0.20300001 287238.13189725 9668.43597664
0.20400001 282175.45458252 12147.65389395
0.20500001 277174.10773062 9421.14836707
0.20600001 272235.47127422 10988.78531740
0.20700001 267358.15302063 10009.88972225
0.20800001 262542.51870603 13169.13336080
0.20900001 257790.50540624 8932.44143457
0.21000001 253096.99524919 12816.83244530
0.21100001 248464.98867807 8691.30571483
0.21200001 243893.67878792 11688.60510848
0.21300001 239382.98873717 11526.29145261
0.21400001 234933.26070924 9091.91761928
0.21500001 230544.49901183 8963.57054536
0.21600001 226214.10207372 11044.90405594
0.21700001 221943.88307018 7983.32185148
0.21800001 217732.98679459 7867.78184982
0.21900001 213580.12513757 8457.77335534
0.22000001 209485.78531599 8333.34493389
0.22100001 205451.99324606 8894.01720816
0.22200001 201475.34179039 7413.28555171
0.22300001 197556.26572029 7301.67992628
0.22400001 193693.02613476 7844.56792940
0.22500001 189890.30528211 7081.00981881
0.22600001 186141.83524611 8239.56872680
0.22700001 182451.46610745 6863.82447955
0.22800001 178816.14489537 9213.50230144
0.22900001 175236.23250518 6650.21533807
0.23000001 171711.86501712 8329.74296591
0.23100001 168243.99961811 7611.35890269
0.23200001 164828.68778260 6336.83920149
0.23300001 161468.70175573 10768.34822937
0.23400001 158162.60206996 6690.27838398
0.23500001 154908.48011470 6032.13650096
0.23600001 151708.45209013 7011.20644495
0.23700001 148560.80869941 6364.34534570
0.23800001 145464.91370377 5736.40914323
0.23900001 142421.24426723 5127.16503613
0.24000001 139428.39472817 5544.37037862
0.24100001 136487.81217978 4954.50781648
0.24200001 133596.88149405 5356.56721688
0.24300001 130756.02028934 5264.23762586
0.24400001 127964.16556972 7054.02496071
0.24500001 125221.84972456 6931.02971012
0.24600001 122528.48708919 6809.52099211
0.24700001 119883.71452609 5351.60926961
0.24800001 117285.80142630 5256.74986861
0.24900001 114735.19088658 5163.08383415
0.25000001 112232.06644400 4648.09125167
0.25100001 109774.63122325 4979.37750786
0.25200001 107364.27133227 4074.47428982
0.25300001 104999.54317543 6000.72417637
0.25400001 102678.79632124 5498.44980314
0.25500001 100402.97930163 6168.75934015
0.25600001 98171.50006875  4919.86495872
0.25700001 95983.55396456  4086.02008559
0.25800001 93838.45994744  4374.74920974
0.25900001 91736.64225115  4293.27506049
0.26000001 89677.50651935  3861.96200099
0.26100001 87657.93804365  4133.94855374
0.26200001 85682.02721103  4732.21858678
0.26300001 83745.53292834  4642.85256524
0.26400001 81849.38206708  3904.21570934
0.26500001 79993.88725684  4149.28312835
0.26600001 78176.76739045  5009.56749143
0.26700001 76399.79539026  3992.65349603
0.26800001 74660.95444270  3615.08358518
0.26900001 72959.55489917  3250.34832457
0.27000001 71296.28078832  4347.29092679
0.27100001 69669.79926050  3411.03353321
0.27200001 68080.33133143  3624.25660994
0.27300001 66526.31377889  3554.50111342
0.27400001 65006.98217027  2949.69195557
0.27500001 63524.90172585  2629.93105591
0.27600001 62075.49574181  2837.16066715
0.27700001 60662.19988380  4553.30493877
0.27800001 59281.45414813  2729.02187087
0.27900001 57934.69079242  3649.88569266
0.28000001 56620.29789486  2386.54566922
0.28100001 55338.19334629  3745.28910294
0.28200001 54088.54907673  2296.05901698
0.28300001 52870.31454901  2252.27550639
0.28400001 51683.24688301  2872.29658147
0.28500001 50526.83358980  2384.36138996
0.28600001 49399.98405838  2552.00329725
0.28700001 48303.33867861  2295.37476265
0.28800001 47235.13288037  2866.70035020
0.28900001 46197.27871383  3014.37257876
0.29000001 45186.50118940  2169.62995731
0.29100001 44205.03998610  2904.27126456
0.29200001 43250.14840004  2471.09734581
0.29300001 42322.50492784  2426.34932237
0.29400001 41421.38864498  1832.89653430
0.29500001 40547.78273075  2160.38596616
0.29600001 39698.56408166  2299.14244763
0.29700001 38874.77483815  2259.01327278
0.29800001 38076.60053727  2049.28273793
0.29900001 37302.91487645  2685.80999825
0.30000001 36553.14909186  1815.41223559
0.30100001 35828.00410481  2759.11472673
0.30200001 35125.10794006  2075.36710089
0.30300001 34445.79009637  2199.01934386
0.30400001 33789.64930392  2318.81479326
0.30500001 33154.55159335  2130.51158625
0.30600001 32541.61128587  1948.10365186
0.30700001 31950.45617488  2509.38894678
0.30800001 31380.12760526  2036.25657671
0.30900001 30830.29586833  1720.33059090
0.31000001 30301.70558793  1979.00448564
0.31100001 29791.28269202  1394.23209600
0.31200001 29301.69431299  1650.85753575
0.31300001 28830.38546231  1765.28458544
0.31400001 28379.41835806  1743.20585518
0.31500001 27946.16874202  1457.11330720
0.31600002 27530.79945856  1963.63436436
0.31700002 27132.83085218  1682.50692081
0.31800002 26752.76614707  1408.13191282
0.31900002 26390.01419588  1393.39281552
0.32000002 26043.49060289  1630.19237148
0.32100002 25713.84136924  1738.77003572
0.32200002 25400.38682381  1230.64879989
0.32300002 25101.91946407  1585.93934684
0.32400002 24819.13532535  1451.91948528
0.32500002 24551.07542949  1560.71193895
0.32600002 24298.25069686  1191.82925312
0.32700002 24059.65991844  1657.22945366
0.32800002 23835.85838939  1411.55960066
0.32900002 23624.65982713  1286.36278850
0.33000002 23428.52902117  1163.22652098
0.33100002 23243.32670020  1736.27658673
0.33200002 23073.41526411  1383.02057642
0.33300002 22914.89537097  1148.03631245
0.33400002 22769.39472569  1372.99456698
0.33500002 22635.31855421  1483.06614190
0.33600002 22513.14950400  1138.03976132
0.33700002 22401.55762106  1362.91083021
0.33800002 22302.64073694  1587.72506925
0.33900002 22213.28689657  1132.87768538
0.34000002 22135.43484665  1585.11856444
0.34100002 22067.56559768  1358.47940253
0.34200002 22010.72809147  1358.94241673
0.34300002 21962.41914831  1359.91305807
0.34400002 21924.52272501  1474.97233618
0.34500002 21895.55372959  1477.29308010
0.34600002 21876.92234941  1366.43263466
0.34700002 21864.95976755  1369.62114471
0.34800002 21863.07409642  1487.89157810
0.34900002 21869.24105582  1377.76225177
0.35000002 21883.58491334  1382.60496031
0.35100002 21905.75956238  1156.62415967
0.35200002 21935.03717100  1626.04438250
0.35300002 21971.98693809  1166.71256167
0.35400002 22016.57722601  1406.85935138
0.35500002 22067.87248006  1531.95178013
0.35600002 22125.37724008  1777.22101099
0.35700002 22189.62337849  1429.89939824
0.35800002 22260.76277585  1678.23898516
0.35900002 22337.58755045  1447.47574183
0.36000002 22421.02006541  1699.73761167
0.36100002 22509.19587238  1222.24939376
0.36200002 22604.19379911  1353.87825173
0.36300002 22702.50825096  1983.29121475
0.36400002 22807.02035850  1498.42130853
0.36500002 22915.79569770  1509.69269208
0.36600002 23030.07208022  1267.80552807
0.36700002 23148.26211098  1405.56254196
0.36800002 23272.23791361  1416.93027249
0.36900002 23399.42200972  2077.86877289
0.37000002 23529.74587038  1964.14562957
0.37100002 23664.44026483  1584.57099519
0.37200002 23803.13310619  1864.49950453
0.37300002 23944.69451063  2283.60562365
0.37400002 24090.65386092  1761.62914703
0.37500002 24238.68375599  1777.18037718
0.37600002 24390.66402205  2482.72580842
0.37700002 24544.27984241  2504.98931938
0.37800002 24701.67881495  1685.14860858
0.37900002 24861.24232211  1558.79996744
0.38000002 25023.31694671  2145.12394688
0.38100002 25187.08102729  1731.86377348
0.38200002 25353.25298724  1893.50778905
0.38300002 25521.14385449  1911.02334236
0.38400002 25691.52575271  1928.79138726
0.38500002 25862.27167258  2246.13840117
0.38600002 26036.04022605  1662.53142740
0.38700002 26209.99757787  1830.50631756
0.38800002 26385.29917025  2309.37341928
0.38900002 26561.83857208  2175.41468212
0.39000002 26740.09772677  1568.30680597
0.39100002 26918.40746818  2057.64316435
0.39200002 27098.00684207  2076.65585273
0.39300002 27277.82002144  2095.75501154
0.39400002 27459.06937182  1789.64493110
0.39500002 27639.84107642  1641.80663772
0.39600002 27820.98211273  1822.41351964
0.39700002 28001.95269794  2006.05998632
0.39800002 28184.10140971  1855.50040422
0.39900002 28365.18554195  1701.91121315
0.40000002 28546.48450257  1888.77823660
0.40100002 28727.13184270  2078.69535862
0.40200002 28908.72612573  1922.28583481
0.40300002 29088.84232327  1762.78392831
0.40400002 29268.35789486  1955.85810899
0.40500002 29447.52256351  1972.68963000
0.40600002 29626.16564245  1989.54524798
0.40700002 29803.92411238  2006.40026631
0.40800002 29981.08220549  2575.07527264
0.40900002 30156.43703315  2596.46935158
0.41000002 30331.62827974  2430.92846366
0.41100002 30505.39455404  2073.75682004
0.41200002 30677.44343412  2660.65479511
0.41300002 30848.59788448  2107.26782134
0.41400002 31018.37980207  2317.07308100
0.41500002 31187.19132900  2335.29699737
0.41600002 31353.22827138  2549.48787769
0.41700002 31518.68176725  2173.84358449
0.41800002 31683.20664606  2986.93444809
0.41900002 31844.11568137  2407.41525959
0.42000002 32004.06447578  2829.47947438
0.42100002 32162.80170006  2646.67707731
0.42200002 32319.43205658  2255.73486728
0.42300002 32473.69881970  2065.32734280
0.42400002 32625.94468855  2911.86570143
0.42500002 32776.65604693  2513.31410477
0.42600002 32923.90479984  2319.65382259
0.42700002 33070.35051128  2760.05158446
0.42800002 33213.97280655  2992.24695193
0.42900002 33355.94503983  3012.04197983
0.43000002 33495.58108448  2815.13624565
0.43100002 33631.45475159  2397.25020829
0.43200002 33765.98370734  3289.65111858
0.43300002 33897.57234658  2427.40527077
0.43400002 34027.14711089  2664.32574504
0.43500002 34153.83182504  2680.39284865
0.43600002 34278.81789967  2921.06960575
0.43700002 34400.25005179  3164.13514971
0.43800002 34518.37731515  3636.85640627
0.43900002 34635.00960679  3428.86611356
0.44000002 34748.11550602  2988.16433455
0.44100002 34859.21556776  2542.28271184
0.44200002 34967.27689924  3253.00592410
0.44300002 35072.83540378  3503.77642288
0.44400002 35174.96981378  2347.92934634
0.44500002 35273.51167756  2595.77784737
0.44600002 35370.01081356  3320.18307242
0.44700002 35463.76696455  2383.16525296
0.44800002 35553.76238845  4070.72821758
0.44900002 35641.95873661  2886.99879449
0.45000002 35726.89804041  2658.61724367
0.45100002 35807.67580030  2670.53658775
0.45200002 35886.41530315  2682.33023896
0.45300002 35961.61712392  3428.58073908
0.45400002 36034.34230775  2951.21277487
0.45500002 36103.86971595  2716.45528617
0.45600002 36169.92084772  3223.28264911
0.45700002 36233.10455145  3235.97872086
0.45800002 36292.57944423  3248.36747711
0.45900002 36349.19089619  3009.71314885
0.46000002 36403.59945794  3524.23263055
0.46100002 36453.57780138  3536.72628591
0.46200002 36501.23708768  3549.01545024
0.46300002 36545.21272950  4832.73916040
0.46400002 36585.78063374  3572.60164821
0.46500002 36624.06169691  3584.03084753
0.46600002 36658.46066693  4108.68046628
0.46700002 36689.69682063  4120.98694221
0.46800002 36718.36553434  2583.13713777
0.46900002 36743.20716846  3108.47547378
0.47000002 36764.63872773  3896.13277383
0.47100002 36783.36145985  3906.39317219
0.47200002 36798.68112681  3133.03985963
0.47300002 36811.30054657  2879.01195220
0.47400002 36819.63355653  2885.73891677
0.47500002 36825.78758143  2892.29749373
0.47600002 36829.03828236  2635.11781400
0.47700002 36828.14844375  3168.69404229
