# SAXS profile: number of points = 501, q_min = 0, q_max = 0.5, delta_q = 0.001
#    q    intensity    error
0.00000000 1682732.95097188 277.65093691
0.00100000 1682663.76402953 656.23888356
0.00200000 1682456.15164065 984.23687988
0.00300000 1682110.27318518 1211.11943984
0.00400000 1681626.00898900 1639.58542107
0.00500000 1681003.83498106 1815.48421364
0.00600000 1680243.43368658 2117.10681264
0.00700000 1679345.47566890 2216.73612001
0.00800000 1678309.44762616 3398.57677493
0.00900000 1677136.71741601 3018.84622040
0.01000000 1675826.36453460 3594.64770714
0.01100000 1674379.74896143 3616.66041522
0.01200000 1672796.19116018 4240.53853051
0.01300000 1671077.19459869 3860.18848978
0.01400000 1669221.96446678 3755.74958655
0.01500000 1667232.31752172 5201.76506230
0.01600000 1665107.01860816 5519.83001344
0.01700000 1662848.30893107 6734.53595327
0.01800000 1660455.67481903 5205.52877479
0.01900000 1657929.83157014 5968.54766297
0.02000000 1655271.54075339 6778.33726601
0.02100000 1652482.28321547 5998.51096004
0.02200000 1649560.36934422 6829.18023935
0.02300000 1646508.72942936 6520.17486533
0.02400000 1643327.01980241 6778.72426578
0.02500000 1640016.83190525 6396.06593654
0.02600000 1636578.25367974 7953.77067668
0.02700000 1633012.29873033 7544.51716568
0.02800000 1629318.83744301 9922.55217507
0.02900000 1625500.55780540 8046.22813057
0.03000000 1621557.64624980 7540.24340165
0.03100000 1617490.42004060 8540.34981078
0.03200000 1613299.96471715 11180.16927043
0.03300000 1608988.83920290 9847.01214987
0.03400000 1604555.30700792 10951.09047562
0.03500000 1600002.60797173 12960.02172304
0.03600000 1595330.49497320 11510.31005317
0.03700000 1590540.73927712 14505.73221306
0.03800000 1585634.73259757 10203.55997648
0.03900000 1580613.66045134 11380.41888228
0.04000000 1575476.60523377 18409.44498523
0.04100000 1570227.38861606 13849.40620974
0.04200000 1564866.44408343 11102.72793586
0.04300000 1559393.54198107 14408.79699673
0.04400000 1553812.72523190 11537.06002065
0.04500000 1548123.55415698 12818.46362403
0.04600000 1542326.23583365 13048.08056172
0.04700000 1536424.02437715 16593.38023500
0.04800000 1530417.20902374 14623.13711261
0.04900000 1524308.44109656 13718.77660844
0.05000000 1518097.36504045 12774.78992169
0.05100000 1511787.17553081 16508.71672584
0.05200000 1505376.19096348 17951.61191381
0.05300000 1498869.76760803 13354.93025197
0.05400000 1492266.44794288 13542.31864661
0.05500000 1485570.03698943 16222.42556069
0.05600000 1478779.01908749 16436.62956416
0.05700000 1471898.37355746 12805.51644769
0.05800000 1464926.97055721 15557.52515374
0.05900000 1457866.55537553 14432.87957232
0.06000000 1450720.09737407 14601.49846223
0.06100000 1443488.99257532 14766.89308412
0.06200000 1436173.73714123 14929.02669542
0.06300000 1428777.55625421 13716.26518135
0.06400000 1421298.48016610 22172.25732751
0.06500000 1413742.57975178 16795.26263310
0.06600000 1406108.30655759 16957.66697051
0.06700000 1398398.18758703 14263.66218091
0.06800000 1390615.32939922 18710.73013290
0.06900000 1382760.68373457 18874.68421667
0.07000000 1374833.30138469 23427.16055265
0.07100000 1366838.51869414 22142.78503996
0.07200000 1358774.74004024 14878.58410045
0.07300000 1350647.33905118 20989.06063231
0.07400000 1342455.41623795 18123.14896854
0.07500000 1334201.41561497 15209.89685094
0.07600000 1325885.15121952 24502.35874322
0.07700000 1317512.59505362 21580.85731887
0.07800000 1309081.74827609 15512.61944455
0.07900000 1300594.33259666 15607.13272319
0.08000000 1292055.30754642 18838.16726775
0.08100000 1283463.95106348 18943.92880651
0.08200000 1274821.24716330 15871.52527196
0.08300000 1266130.58142248 15953.24607464
0.08400000 1257392.29718497 20841.27830410
0.08500000 1248610.75756937 19328.49543455
0.08600000 1239784.62215478 22650.86611026
0.08700000 1230917.90881291 16248.11715930
0.08800000 1222009.22259337 17945.20627656
0.08900000 1213064.44307797 21289.28197597
0.09000000 1204082.14920818 19722.86653052
0.09100000 1195065.41240942 19790.28415927
0.09200000 1186015.19183986 19853.89524427
0.09300000 1176934.90329792 23232.69608286
0.09400000 1167822.71202312 21633.91675697
0.09500000 1158683.02932335 28364.56189105
0.09600000 1149516.94546555 18398.01957703
0.09700000 1140327.49291129 18439.09642725
0.09800000 1131115.60592586 21836.18779909
0.09900000 1121882.48266713 26925.18085010
0.10000000 1112628.85276963 18541.96070338
0.10100000 1103356.63534925 23633.90024073
0.10200000 1094068.87486312 21974.37438522
0.10300000 1084766.07513330 23691.29219537
0.10400000 1075450.94388321 22019.85911193
0.10500000 1066126.04783731 25427.10743725
0.10600001 1056788.08113361 18657.59445032
0.10700001 1047444.39792547 23756.04006285
0.10800001 1038092.49773842 22064.65707783
0.10900001 1028736.47594431 18671.56791718
0.11000001 1019376.67653676 20367.14695588
0.11100001 1010014.89965492 18665.07622425
0.11200001 1000653.98163074 18657.19436583
0.11300001 991292.06546172 18646.20462921
0.11400001 981934.53455427 32182.90588533
0.11500001 972581.12051238 20307.49475254
0.11600001 963233.13490814 18595.21654508
0.11700001 953893.30559873 20260.69476509
0.11800001 944559.91504678 21918.51386099
0.11900001 935237.69368425 20201.13513509
0.12000001 925926.22915668 20166.67422098
0.12100001 916629.33258183 28516.33987997
0.12200001 907345.26085197 20088.62502166
0.12300001 898077.35615809 20045.08753386
0.12400001 888826.01503561 24998.23285073
0.12500001 879593.02605363 18286.73987334
0.12600001 870381.00495279 28187.29017368
0.12700001 861189.73378238 18188.32803463
0.12800001 852019.50955839 18135.23611565
0.12900001 842873.70818363 18079.64189267
0.13000001 833752.70158952 22936.53790184
0.13100001 824656.53050604 21226.66009580
0.13200001 815589.06577667 24406.50394390
0.13300001 806550.66465579 22696.33677339
0.13400001 797540.58026612 22610.27651652
0.13500001 788562.25408202 22521.33903842
0.13600001 779614.93124328 16021.08759246
0.13700001 770701.53639761 23930.28383354
0.13800001 761820.85057760 17472.36203192
0.13900001 752977.88158151 18975.04351068
0.14000001 744169.96783342 17313.11511814
0.14100001 735399.72308019 15664.01484037
0.14200001 726667.04867443 18704.41071508
0.14300001 717976.34794589 21711.60578597
0.14400001 709321.85068573 23141.62647021
0.14500001 700712.79001438 21483.85515528
0.14600001 692143.41728813 19840.29199252
0.14700001 683620.00890201 19729.27438767
0.14800001 675138.73908230 18107.22183646
0.14900001 666702.09854003 25501.35647233
0.15000001 658312.33871975 14910.77517554
0.15100001 649968.80740314 14819.28950804
0.15200001 641674.24566294 17671.70955943
0.15300001 633427.66019508 17558.61556918
0.15400001 625228.44633304 18897.53068221
0.15500001 617080.99402531 14439.69594164
0.15600001 608982.35281600 14341.53508566
0.15700001 600938.44577249 14242.24183700
0.15800001 592942.14331609 16970.00494267
0.15900001 585001.62032360 22464.06328074
0.16000001 577111.94265281 16724.70488753
0.16100001 569279.75553248 15216.84858368
0.16200001 561499.74399860 15101.53632773
0.16300001 553776.36690926 14985.18919598
0.16400001 546108.09248897 16219.41111263
0.16500001 538496.52928713 13408.56421229
0.16600001 530941.57140174 15960.10438986
0.16700001 523443.58004167 15828.93460782
0.16800001 516002.49386270 15696.79660445
0.16900001 508622.15064101 20751.78472601
0.17000001 501299.38366753 14144.16277806
0.17100001 494036.00777563 19119.19440375
0.17200001 486832.57147843 13896.63640909
0.17300001 479688.79010772 18779.81701958
0.17400001 472606.43189601 14887.10330778
0.17500001 465584.22837293 15978.85147240
0.17600001 458621.28410129 17046.95393516
0.17700001 451722.25955391 16885.37885963
0.17800001 444884.02696070 15528.67769452
0.17900001 438107.59089836 15377.57716687
0.18000001 431394.16202425 15226.05766785
0.18100001 424744.08402941 12755.06544591
0.18200001 418154.10794420 14921.83004686
0.18300001 411629.58738686 11360.97714856
0.18400001 405166.63067503 14616.38689209
0.18500001 398768.24081184 15575.88822195
0.18600001 392432.65481939 15410.83108282
0.18700001 386160.53263985 16334.59130239
0.18800001 379951.47174653 15080.27462610
0.18900001 373808.56334687 13849.60792636
0.19000001 367725.28598668 16856.52790608
0.19100001 361710.98201126 13542.45980638
0.19200001 355757.30483540 11329.09190780
0.19300001 349870.01907472 13235.58344701
0.19400001 344045.55966175 11069.66640520
0.19500001 338285.72000409 10940.16070191
0.19600001 332589.03120084 14742.00950463
0.19700001 326957.29838674 14565.94833148
0.19800001 321389.53460874 12471.52147988
0.19900001 315886.46337615 13267.23208881
0.20000001 310445.38764082 14975.88620757
0.20100001 305070.05852185 9243.62321009
0.20200001 299757.11906060 13691.40706020
0.20300001 294508.95101589 11715.56662514
0.20400001 289324.24773796 13345.08155768
0.20500001 284201.96433143 13172.76166940
0.20600001 279143.75143156 13867.86222663
0.20700001 274148.21779854 9408.76727959
0.20800001 269215.52584529 10127.88856105
0.20900001 264347.95488413 14988.52975046
0.21000001 259540.41172404 9035.89986132
0.21100001 254795.62674231 8102.50131344
0.21200001 250112.88039733 11187.54966906
0.21300001 245491.95757819 10244.37987405
0.21400001 240933.59859066 10101.14159846
0.21500001 236437.29961001 9192.68264344
0.21600001 232000.53466685 8306.77953648
0.21700001 227625.56742728 8187.69204747
0.21800001 223311.20919567 8802.92828270
0.21900001 219056.25132209 8674.62796250
0.22000001 214861.09867720 8547.17490951
0.22100001 210728.04235894 8420.69297082
0.22200001 206653.26938767 7603.80740666
0.22300001 202637.56019586 9532.07128234
0.22400001 198678.71067745 7375.94748268
0.22500001 194781.66786261 7263.40873806
0.22600001 190940.66306380 11052.60080411
0.22700001 187158.63875149 7040.90832279
0.22800001 183433.21369292 7561.11742599
0.22900001 179764.31133542 7442.24284124
0.23000001 176152.51936208 6714.05359301
0.23100001 172598.33887547 7808.34922000
0.23200001 169098.00609196 8273.96582939
0.23300001 165654.48991278 7558.81473221
0.23400001 162265.93987927 7435.83704665
0.23500001 158930.65377386 5626.14540969
0.23600001 155650.84226816 7193.40401565
0.23700001 152424.48241472 7074.02056345
0.23800001 149251.43862984 7490.93005914
0.23900001 146131.72416683 6312.89078260
0.24000001 143064.17259756 5688.94709243
0.24100001 140049.96262547 6608.95804891
0.24200001 137086.67157715 5996.17129842
0.24300001 134174.72069217 7857.27201540
0.24400001 131313.06788219 6273.48211483
0.24500001 128502.14454025 5215.90229362
0.24600001 125741.17475585 5124.58181959
0.24700001 123030.29947275 5034.40009258
0.24800001 120367.43672305 5844.44116657
0.24900001 117752.99356681 4857.31121442
0.25000001 115187.10075312 5637.83291308
0.25100001 112668.30057108 6388.29294460
0.25200001 110197.56837125 6272.99687631
0.25300001 107773.60920548 4516.79217549
0.25400001 105395.00010166 4434.49483908
0.25500001 103062.11794796 3957.58551644
0.25600001 100774.96158922 4273.36244837
0.25700001 98532.41241755  5719.80681146
0.25800001 96333.83948925  3742.56984123
0.25900001 94179.57205128  4040.30383217
0.26000001 92068.99767762  4325.40171555
0.26100001 89999.10518162  4598.05450129
0.26200001 87974.20675095  4511.75740670
0.26300001 85989.66754544  4426.74829470
0.26400001 84046.28538099  4009.00800237
0.26500001 82144.79548605  3933.09299398
0.26600001 80282.88630975  5466.06057305
0.26700001 78461.73860678  4731.24306187
0.26800001 76680.08581826  4641.06241377
0.26900001 74936.77977857  3034.93972465
0.27000001 73232.40381883  3274.58709172
0.27100001 71566.05286987  4379.84264290
0.27200001 69937.52589253  2863.94182083
0.27300001 68345.60091661  3651.70562979
0.27400001 66789.13555858  3306.06236661
0.27500001 65271.02124276  2972.44244807
0.27600001 63786.42091448  3180.39109731
0.27700001 62338.73600483  2859.47795587
0.27800001 60924.68931097  2549.69836833
0.27900001 59545.39917468  4001.45101392
0.28000001 58199.54399452  2943.73307457
0.28100001 56886.78084982  2887.57313260
0.28200001 55607.21502151  3540.78958408
0.28300001 54359.99553388  2778.88310322
0.28400001 53144.80329562  2726.32853810
0.28500001 51961.21653438  2452.04992432
0.28600001 50807.80224214  2406.00358906
0.28700001 49685.43120118  3004.97502128
0.28800001 48592.43140357  2106.48200105
0.28900001 47530.79043242  3514.90211885
0.29000001 46496.62272495  2435.49321362
0.29100001 45492.53958594  2191.83066100
0.29200001 44516.06677952  2152.12935033
0.29300001 43567.41565700  1921.32312142
0.29400001 42646.00106860  1887.08563661
0.29500001 41752.65705870  2039.19986728
0.29600001 40884.83493023  2914.27117178
0.29700001 40042.82806297  2147.89739897
0.29800001 39227.28002313  2111.21231079
0.29900001 38436.76796603  2421.51649649
0.30000001 37670.94733112  1870.92768777
0.30100001 36930.53953664  2342.13492829
0.30200001 36212.91803041  2633.40352384
0.30300001 35519.32005028  2105.58539226
0.30400001 34849.72572557  1594.37502743
0.30500001 34201.70756044  2040.81598675
0.30600001 33576.46908176  1700.81612186
0.30700001 32973.56061559  1828.05428707
0.30800001 32392.19001413  2101.92930953
0.30900001 31831.89657205  2072.25656495
0.31000001 31293.17627017  1897.77476475
0.31100001 30773.42276131  2016.27475478
0.31200001 30274.80025521  1563.54213321
0.31300001 29795.30108591  2105.03812139
0.31400001 29336.65147197  2079.23527152
0.31500001 28895.74286688  1506.62410441
0.31600002 28473.76244972  1895.49845603
0.31700002 28069.44604137  1472.80390353
0.31800002 27683.41342332  1457.11653453
0.31900002 27315.26999301  1704.47292827
0.32000002 26963.96597735  1687.80953027
0.32100002 26629.84796361  1543.46606105
0.32200002 26312.20116427  1402.30882745
0.32300002 26010.05537833  1390.49762637
0.32400002 25724.10159884  1504.86001479
0.32500002 25453.19152182  1742.52557410
0.32600002 25197.93125635  1977.53373864
0.32700002 24957.33601871  1473.48118832
0.32800002 24731.91509896  1708.72809510
0.32900002 24519.40101998  1456.45248956
0.33000002 24322.41846089  1207.60813377
0.33100002 24136.50046093  1322.19755786
0.33200002 23966.44212079  1436.54860875
0.33300002 23807.85267545  1192.77347552
0.33400002 23662.75103686  1307.95862550
0.33500002 23529.36497431  2015.99608647
0.33600002 23408.12197721  1183.28062198
0.33700002 23297.82300150  1535.55958675
0.33800002 23200.45524386  1297.71752552
0.33900002 23113.03066319  1296.64108161
0.34000002 23037.11420067  1531.85298132
0.34100002 22971.66595292  1296.29117111
0.34200002 22917.46921115  1650.74538546
0.34300002 22871.89667674  1416.22790930
0.34400002 22837.14533424  1654.55125782
0.34500002 22811.39982945  1183.91170722
0.34600002 22796.27916176  1542.51030253
0.34700002 22787.93325326  1427.43620659
0.34800002 22790.00573151  1431.66822786
0.34900002 22800.09601675  1197.00509757
0.35000002 22818.75434478  1321.54822047
0.35100002 22845.33705523  1809.35078047
0.35200002 22879.06786498  1696.02538116
0.35300002 22920.82453380  1338.80542443
0.35400002 22970.23442356  1345.48154509
0.35500002 23026.39626422  1475.53154250
0.35600002 23089.12292458  1607.34936853
0.35700002 23158.58117836  1367.97745500
0.35800002 23235.10324100  1376.33140567
0.35900002 23317.34514837  1510.96403718
0.36000002 23406.25612987  1520.93859536
0.36100002 23500.16909957  1658.87701531
0.36200002 23600.80212589  1670.58285761
0.36300002 23705.03638954  1553.15405781
0.36400002 23815.37319220  1564.67009284
0.36500002 23930.04630454  1313.75960435
0.36600002 24050.33026516  1588.76489257
0.36700002 24174.58540590  1734.76833090
0.36800002 24304.70114681  1883.37138108
0.36900002 24437.86191633  2034.45210090
0.37000002 24574.41426662  1504.32284059
0.37100002 24715.15779302  2068.65880527
0.37200002 24860.07884210  1669.10577252
0.37300002 25007.84721232  1964.11641310
0.37400002 25160.01415206  1698.30103571
0.37500002 25314.13072949  1856.03215301
0.37600002 25472.34545259  1728.55344430
0.37700002 25632.11154991  1598.67487310
0.37800002 25795.57034734  1613.12606809
0.37900002 25961.26112050  1627.77114937
0.38000002 26129.41794829  1642.62593713
0.38100002 26299.17806546  1808.33156945
0.38200002 26471.41108198  1977.01743032
0.38300002 26645.25552150  1534.76679075
0.38400002 26821.49603894  2168.51805748
0.38500002 26998.29815813  1875.84184489
0.38600002 27177.69610018  1893.19840003
0.38700002 27357.34212725  2229.07634213
0.38800002 27538.18911082  2249.59477504
0.38900002 27720.36353390  2108.13374663
0.39000002 27904.06583688  1963.88824664
0.39100002 28087.69752299  2147.02370038
0.39200002 28272.72846573  2333.34839082
0.39300002 28457.64568505  1681.84693967
0.39400002 28643.98003572  2036.58707703
0.39500002 28829.62982488  1712.48009273
0.39600002 29015.69701358  1727.88483902
0.39700002 29201.37197078  2440.65078495
0.39800002 29388.32252246  2110.66942356
0.39900002 29573.91245448  1774.43483134
0.40000002 29759.40028177  2327.03641529
0.40100002 29944.45517981  2347.34595276
0.40200002 30130.13235804  3278.45985721
0.40300002 30314.18652752  2204.44774873
0.40400002 30497.66206716  2038.00636420
0.40500002 30680.47321589  2989.50545180
0.40600002 30862.76227712  2261.00607155
0.40700002 31043.83331264  2089.87095763
0.40800002 31224.15635214  2681.84291615
0.40900002 31402.66145084  2317.51652488
0.41000002 31580.88370229  2725.74620150
0.41100002 31757.42082775  2747.65218021
0.41200002 31931.98748806  2176.00539048
0.41300002 32105.61907094  2591.88675041
0.41400002 32277.58249364  2812.99144761
0.41500002 32448.49592144  2834.70073801
0.41600002 32616.54481214  2448.19796960
0.41700002 32783.68455024  3083.30567805
0.41800002 32949.81252753  2485.07497858
0.41900002 33112.07663628  2294.66701963
0.42000002 33273.35933204  2101.21274138
0.42100002 33433.04713522  2116.31198394
0.42200002 33590.47814631  2557.57912725
0.42300002 33745.38297003  2360.82710445
0.42400002 33898.05727553  3241.50188057
0.42500002 34049.02493041  2393.30607577
0.42600002 34196.22675166  3504.42948357
0.42700002 34342.54362947  2425.27054604
0.42800002 34485.90778942  2441.08509855
0.42900002 34627.23986182  2456.80278462
0.43000002 34766.16997896  2697.15959478
0.43100002 34901.15463612  2487.75442035
0.43200002 35034.45095074  2503.03646679
0.43300002 35164.69447015  3204.91040588
0.43400002 35292.73261298  3914.84655061
0.43500002 35417.57003042  3242.83286566
0.43600002 35540.66264370  2795.62865603
0.43700002 35659.92040751  3514.28532270
0.43800002 35775.63133205  3298.15560880
0.43900002 35889.62271847  3316.20129634
0.44000002 36000.01956294  3095.82182903
0.44100002 36108.03628690  2633.35921120
0.44200002 36212.87803962  2887.61503172
0.44300002 36314.97982849  3144.15110255
0.44400002 36413.44082299  2916.71674815
0.44500002 36508.10397256  3663.58840727
0.44600002 36600.66943452  4171.92750321
0.44700002 36690.16082736  3205.25260178
0.44800002 36775.47925334  2476.82864509
0.44900002 36859.07934545  2985.58556847
0.45000002 36939.20988101  3248.61896694
0.45100002 37014.88638619  3011.53129910
0.45200002 37088.30784268  3024.18076482
0.45300002 37157.84929327  3795.67448520
0.45400002 37224.88359725  3048.71811110
0.45500002 37288.43232083  3825.79333743
0.45600002 37348.55617634  2816.26801195
0.45700002 37405.30953412  3340.66835282
0.45800002 37458.17151875  2836.89475442
0.45900002 37508.05687708  3105.66725661
0.46000002 37555.43012180  3116.34973920
0.46100002 37598.17896923  3387.22010387
0.46200002 37638.45826084  2875.39015512
0.46300002 37675.05006582  3933.27541329
0.46400002 37707.82995322  3156.14551667
0.46500002 37738.19453707  3693.05989243
0.46600002 37764.43048598  2909.93832902
0.46700002 37787.27587617  3448.46695990
0.46800002 37807.48900907  2659.75697785
0.46900002 37823.65517766  4533.16528790
0.47000002 37836.03584931  2940.42766540
0.47100002 37845.70177451  3483.31855642
0.47200002 37851.73340211  2685.58061217
0.47300002 37855.06665576  3229.79444015
0.47400002 37853.61965575  3236.48463397
0.47500002 37850.05287022  3783.49146424
0.47600002 37843.34823856  2978.46086429
0.47700002 37832.13421972  2983.82056734
