# SAXS profile: number of points = 501, q_min = 0, q_max = 0.5, delta_q = 0.001
#    q    intensity    error
0.00000000 1664650.74656090 399.51617917
0.00100000 1664582.14064023 749.06198108
0.00200000 1664376.27068032 973.66014918
0.00300000 1664033.30008800 1297.94602031
0.00400000 1663553.10564061 1621.96433963
0.00500000 1662936.14898474 1945.63537132
0.00600000 1662182.13904359 2094.34958046
0.00700000 1661291.72975625 2790.97022198
0.00800000 1660264.40208459 3137.89985242
0.00900000 1659101.52129511 2737.51762716
0.01000000 1657802.18405343 3008.91109398
0.01100000 1656367.74488060 3279.60827766
0.01200000 1654797.48429547 4194.91180661
0.01300000 1653092.96959197 3818.64492818
0.01400000 1651253.36150238 5201.44831932
0.01500000 1649280.45722979 4749.92792833
0.01600000 1647173.06104684 5880.40809081
0.01700000 1644933.38015907 4441.32032566
0.01800000 1642560.93883484 6553.81844086
0.01900000 1640056.42454697 5412.18644522
0.02000000 1637420.55492955 9799.96246456
0.02100000 1634654.86107042 8091.54192916
0.02200000 1631757.59257331 8444.34592521
0.02300000 1628731.76898632 7622.46502582
0.02400000 1625577.02741861 6705.50554386
0.02500000 1622294.82348187 6326.95010054
0.02600000 1618885.39794577 7212.13477772
0.02700000 1615349.63498277 8141.36253320
0.02800000 1611687.48133351 9815.17721144
0.02900000 1607901.67694726 9406.22524202
0.03000000 1603992.24204961 8204.42069520
0.03100000 1599959.64970244 11519.71000792
0.03200000 1595804.79678025 9479.08092946
0.03300000 1591530.39853616 13798.56919143
0.03400000 1587134.65470068 13331.93171463
0.03500000 1582620.83656302 11109.99878571
0.03600000 1577988.61936952 10509.40469068
0.03700000 1573239.82655447 9864.21416869
0.03800000 1568375.82549958 10092.49890417
0.03900000 1563397.78571910 12194.50329334
0.04000000 1558304.79769204 9583.57494990
0.04100000 1553100.64238697 11741.44140086
0.04200000 1547785.74282610 12978.18405569
0.04300000 1542359.89467200 12215.49093282
0.04400000 1536827.25700457 13485.65980652
0.04500000 1531187.22655346 11621.71158954
0.04600000 1525439.95185240 13980.65780864
0.04700000 1519588.84328115 12035.14419852
0.04800000 1513633.96510179 13350.25219336
0.04900000 1507578.18011882 14698.88794035
0.05000000 1501420.92569275 12634.45767804
0.05100000 1495165.63152144 17493.43870372
0.05200000 1488810.44645294 11836.04360088
0.05300000 1482360.82544435 18010.68486877
0.05400000 1475815.08475577 14610.57002043
0.05500000 1469177.25472459 19745.74322462
0.05600000 1462445.66821553 18755.86657009
0.05700000 1455625.38010310 17729.51795724
0.05800000 1448715.21390383 15385.35629004
0.05900000 1441717.04438602 16868.09020715
0.06000000 1434633.39609179 15752.27542502
0.06100000 1427466.05109260 14602.97838509
0.06200000 1420215.42669520 20131.55461442
0.06300000 1412884.77712101 23058.28064071
0.06400000 1405472.05525245 17814.35913344
0.06500000 1397983.36470631 23528.06112860
0.06600000 1390416.98561209 22357.90617474
0.06700000 1382775.59128457 15514.74286029
0.06800000 1375062.14010839 24194.21948772
0.06900000 1367277.85788166 18663.34363388
0.07000000 1359421.51061393 23164.54362562
0.07100000 1351498.55662844 14596.18509524
0.07200000 1343507.39922317 22067.11006601
0.07300000 1335453.18487420 14823.53104667
0.07400000 1327335.35089893 19412.28041664
0.07500000 1319155.97578555 15038.37882884
0.07600000 1310915.14923455 16655.17775183
0.07700000 1302618.67779269 15240.63924479
0.07800000 1294264.59621377 15337.03618438
0.07900000 1285854.59415942 15430.25585365
0.08000000 1277393.62599111 23280.49992580
0.08100000 1268880.96556899 17167.96026964
0.08200000 1260317.61174507 21967.33700354
0.08300000 1251706.86490954 18925.80868566
0.08400000 1243049.08655919 15848.87659755
0.08500000 1234348.79569693 19107.72025440
0.08600000 1225604.40224372 17593.55202025
0.08700000 1216820.08382652 19274.43103290
0.08800000 1207994.08926063 16126.72184900
0.08900000 1199132.77940603 24282.43992351
0.09000000 1190234.45796863 17871.37122592
0.09100000 1181302.28840140 17932.16958041
0.09200000 1172336.98657487 19624.92207737
0.09300000 1163342.25834466 21324.06459752
0.09400000 1154315.85376708 21383.70219602
0.09500000 1145262.72532755 21439.31922584
0.09600000 1136183.59607101 18184.61930994
0.09700000 1127081.42691191 24852.14663178
0.09800000 1117957.24961360 19921.99912480
0.09900000 1108812.47358803 18295.40667450
0.10000000 1099647.34522904 28321.41870825
0.10100000 1090464.29623681 20020.92542053
0.10200000 1081265.86975176 18376.11432078
0.10300000 1072052.79100264 26758.43892216
0.10400000 1062827.82586458 18413.49294937
0.10500000 1053593.39917836 16752.13583511
0.10600001 1044346.16210629 20114.10802861
0.10700001 1035093.89765409 20122.22631730
0.10800001 1025833.30044390 16772.37525159
0.10900001 1016569.02840133 16773.38975807
0.11000001 1007301.27350882 16771.56699335
0.11100001 998031.73613337 23473.70753884
0.11200001 988763.45343271 31843.12851688
0.11300001 979494.40339742 23449.09712134
0.11400001 970229.95471926 26778.34801109
0.11500001 960969.76433974 18392.96215555
0.11600001 951715.09573414 18372.86078835
0.11700001 942469.07333691 20018.04406042
0.11800001 933229.44605924 18323.96103640
0.11900001 924001.27382951 18295.22608356
0.12000001 914784.09634018 23244.66498294
0.12100001 905581.48691384 19886.57038945
0.12200001 896391.89932902 19846.11758612
0.12300001 887218.52796458 19802.71847716
0.12400001 878061.90745248 31280.95692687
0.12500001 868923.69893560 24633.98802559
0.12600001 859806.65547492 24568.97633797
0.12700001 850710.26749723 24500.45685854
0.12800001 841635.10896637 24428.46018904
0.12900001 832584.30217735 17858.93412343
0.13000001 823558.39113740 27510.96935267
0.13100001 814557.37272323 17741.06041418
0.13200001 805584.92839881 19285.70409500
0.13300001 796641.75259062 22417.49997473
0.13400001 787726.82509976 20736.90964841
0.13500001 778843.52553383 19066.09040400
0.13600001 769991.33525432 18987.98722267
0.13700001 761172.97671691 17331.90949710
0.13800001 752387.15488825 17256.00021108
0.13900001 743639.17367491 18739.70806034
0.14000001 734926.01864158 18652.42323278
0.14100001 726250.36227517 15469.13344603
0.14200001 717612.22506490 21549.89613511
0.14300001 709016.02168469 15314.74679075
0.14400001 700455.87169942 18281.89911371
0.14500001 691941.06932432 15153.51013303
0.14600001 683465.63537457 16577.45976804
0.14700001 675036.22542725 22478.70736719
0.14800001 666648.52038491 22349.39270032
0.14900001 658305.50066763 14811.87446386
0.15000001 650008.93548006 23556.32493325
0.15100001 641758.77780777 16095.31090688
0.15200001 633556.84457236 20356.18237666
0.15300001 625402.95989745 17336.17086643
0.15400001 617296.32320379 17222.56823014
0.15500001 609241.10480072 19958.73953518
0.15600001 601234.04948677 22654.50005384
0.15700001 593281.99202331 15466.86226203
0.15800001 585377.03160156 18149.61572145
0.15900001 577527.54118110 16632.79397109
0.16000001 569728.72572244 19262.52912591
0.16100001 561986.86366493 17753.16586120
0.16200001 554297.00368320 18973.58733174
0.16300001 546663.46414019 20171.88277904
0.16400001 539084.66201177 14676.58061615
0.16500001 531562.10744423 14559.48681027
0.16600001 524096.08793119 18380.05067152
0.16700001 516686.39143771 16926.64698269
0.16800001 509333.43441378 18076.24444084
0.16900001 502040.71599992 14082.24274873
0.17000001 494805.00970946 15230.09891802
0.17100001 487628.46648564 21387.38555000
0.17200001 480511.57295051 17456.98626966
0.17300001 473453.58892758 12357.13925457
0.17400001 466456.87993761 17142.29114727
0.17500001 459519.88650729 13344.45813440
0.17600001 452641.59831860 14421.16200353
0.17700001 445826.84841977 16665.00838103
0.17800001 439072.37701807 12968.00326773
0.17900001 432379.08173418 14009.08290989
0.18000001 425748.51913455 12714.98012455
0.18100001 419180.91742037 14876.73146197
0.18200001 412672.62975877 18124.58275517
0.18300001 406229.44952880 11211.93333664
0.18400001 399847.45608120 12205.34417347
0.18500001 393529.14353407 12077.40998562
0.18600001 387273.47731540 14121.92801747
0.18700001 381080.64406422 13970.41707142
0.18800001 374950.38595075 10629.84394392
0.18900001 368885.71666689 11564.56776390
0.19000001 362879.98858970 14555.11703004
0.19100001 356942.88093675 11307.95100238
0.19200001 351065.53082652 13212.35187696
0.19300001 345254.38664293 13060.97406387
0.19400001 339505.33150234 10923.58455727
0.19500001 333820.40027030 10795.75225490
0.19600001 328197.85335095 12607.72113227
0.19700001 322639.90414967 12457.12728791
0.19800001 317145.07449172 10413.45901306
0.19900001 311714.51111301 18702.87155068
0.20000001 306345.39577244 12007.20835478
0.20100001 301041.25558721 11858.01561802
0.20200001 295798.95126477 10808.49419006
0.20300001 290620.76022689 12450.19395657
0.20400001 285505.40273597 9657.22070400
0.20500001 280451.89389885 12998.94589663
0.20600001 275461.96538943 12829.64164444
0.20700001 270533.93605660 9284.72512434
0.20800001 265668.16122964 9161.56697307
0.20900001 260866.87792245 8217.30704300
0.21000001 256124.85847904 10538.25780029
0.21100001 251445.07912201 10394.74006230
0.21200001 246826.55939854 12617.77431295
0.21300001 242269.28115844 7776.84429284
0.21400001 237773.74354614 8435.02395108
0.21500001 233339.81405481 10584.29446593
0.21600001 228964.81037348 8198.08542302
0.21700001 224651.00819008 10284.52364119
0.21800001 220396.93207466 10136.05538535
0.21900001 216201.65268331 7848.12036348
0.22000001 212065.45620203 7732.96722604
0.22100001 207990.70373800 9003.91799055
0.22200001 203973.61352956 7505.20946470
0.22300001 200014.79648344 6720.49747963
0.22400001 196112.24773293 7280.66754136
0.22500001 192270.93686993 9125.17909535
0.22600001 188484.72539200 7701.48624371
0.22700001 184756.95957239 8846.16364265
0.22800001 181085.12022052 8708.38384322
0.22900001 177469.13763242 6734.95409165
0.23000001 173909.49662794 9038.94651471
0.23100001 170406.78983525 7116.18788006
0.23200001 166957.23291676 7002.18667969
0.23300001 163563.82249419 10333.96279392
0.23400001 160224.75309635 6777.50737652
0.23500001 156938.24325128 6666.73688863
0.23600001 153706.49323212 8196.39913927
0.23700001 150527.57272449 5911.21806048
0.23800001 147401.15724077 7398.06443183
0.23900001 144327.50897064 6754.52773931
0.24000001 141305.28001091 6640.64194822
0.24100001 138335.72442769 7030.22184795
0.24200001 135416.32576883 7403.88796163
0.24300001 132547.66213822 7276.86699560
0.24400001 129728.64654694 7151.29197918
0.24500001 126959.58170748 5153.28966528
0.24600001 124239.84476841 4603.08646642
0.24700001 121569.56580096 5426.86567408
0.24800001 118946.41326245 5331.17849462
0.24900001 116371.16688968 5236.70275777
0.25000001 113843.92442829 7286.58072775
0.25100001 111362.91481894 5472.37389310
0.25200001 108929.38269916 4133.87026901
0.25300001 106541.98344193 4465.17473730
0.25400001 104199.12934442 4384.17857459
0.25500001 101901.43073599 5478.22117555
0.25600001 99648.83780248  4609.75545484
0.25700001 97440.11978029  6033.49250226
0.25800001 95274.71869997  4071.56529629
0.25900001 93153.03794301  4722.85924717
0.26000001 91074.43850989  3922.12088001
0.26100001 89035.72394750  3499.10411670
0.26200001 87041.38761747  4120.53948478
0.26300001 85086.77754549  4380.26751531
0.26400001 83172.92085979  3636.73613668
0.26500001 81300.12042548  4541.42494186
0.26600001 79466.16409735  4137.40602951
0.26700001 77672.61528995  4371.41499537
0.26800001 75917.78991092  4288.59615501
0.26900001 74200.66333788  4207.17781035
0.27000001 72521.94789225  2948.01732133
0.27100001 70880.49529778  4627.07895201
0.27200001 69276.36057502  2836.86709980
0.27300001 67708.17203854  3061.08660273
0.27400001 66174.97666806  3821.60508344
0.27500001 64679.41047687  3481.04603661
0.27600001 63216.69934410  3414.65017667
0.27700001 61790.53890298  3607.33183188
0.27800001 60397.27653354  2527.62614255
0.27900001 59038.36631968  3223.49495362
0.28000001 57712.05564864  4135.35754322
0.28100001 56418.51514029  2386.50330339
0.28200001 55157.47502348  2575.57841812
0.28300001 53928.23392830  2527.07716149
0.28400001 52730.55418712  2930.50068765
0.28500001 51563.83681564  2654.50644491
0.28600001 50426.75486716  2170.87189978
0.28700001 49320.30865274  3195.95615197
0.28800001 48242.54743833  2300.44598348
0.28900001 47195.52934932  2668.90731103
0.29000001 46175.65904904  2620.23789676
0.29100001 45185.39055256  1979.12019988
0.29200001 44222.04313594  2720.98244295
0.29300001 43286.15151670  2290.70324670
0.29400001 42376.95938035  2062.69859548
0.29500001 41495.43924893  3132.07590277
0.29600001 40638.71921451  2715.68254006
0.29700001 39807.56380551  2491.15746088
0.29800001 39002.25386947  1924.17628574
0.29900001 38221.54288090  2407.95731549
0.30000001 37465.19048863  1860.70877370
0.30100001 36733.61237919  2995.25889520
0.30200001 36024.35743039  1801.03783499
0.30300001 35338.79854300  2900.60872173
0.30400001 34676.79530528  1903.75615239
0.30500001 34035.94142003  2030.92472068
0.30600001 33417.41508440  2000.53364874
0.30700001 32820.82983732  1516.32241027
0.30800001 32245.27628855  1793.48235208
0.30900001 31690.43677540  2063.04753175
0.31000001 31156.78158675  1744.15671580
0.31100001 30641.69334289  2294.45010615
0.31200001 30147.44919224  2264.67649054
0.31300001 29671.73396139  1397.53873575
0.31400001 29216.50467563  1518.52790241
0.31500001 28778.93422272  1773.35801077
0.31600002 28359.57338976  1483.34755638
0.31700002 27957.71506159  1466.94137874
0.31800002 27573.81507342  1583.28853648
0.31900002 27207.35582479  2220.12034042
0.32000002 26857.35510446  1293.18170951
0.32100002 26524.32321164  1921.68730768
0.32200002 26207.40627333  1396.72378347
0.32300002 25905.71529520  1259.01782296
0.32400002 25619.80239854  1623.65505389
0.32500002 25348.74685718  1983.28604802
0.32600002 25093.01637634  1230.81251154
0.32700002 24851.60985886  1222.69926295
0.32800002 24625.07819062  1458.29719950
0.32900002 24411.22540745  1812.53357233
0.33000002 24212.49548829  1442.58054950
0.33100002 24024.72267986  1316.07437072
0.33200002 23852.54727931  1429.72175163
0.33300002 23691.46121616  1543.02494208
0.33400002 23543.72045720  1301.37920990
0.33500002 23407.48631713  1769.60604938
0.33600002 23283.05478131  2000.82940738
0.33700002 23169.39948061  1409.62633116
0.33800002 23068.48412422  1524.94221525
0.33900002 22977.13225935  1406.20056087
0.34000002 22897.31975881  1405.43755335
0.34100002 22827.61451218  1288.16234793
0.34200002 22768.89056926  1874.33516043
0.34300002 22718.83517425  1523.97953566
0.34400002 22679.18596966  1173.64792951
0.34500002 22648.47681014  1175.45600212
0.34600002 22628.22027898  1413.35870556
0.34700002 22614.54668549  1298.52733218
0.34800002 22611.15672749  1420.43293289
0.34900002 22615.61620066  1424.78388812
0.35000002 22628.44701663  1548.80412941
0.35100002 22649.16426263  1554.63870862
0.35200002 22676.90431968  1320.81635466
0.35300002 22712.43286625  1326.63326655
0.35400002 22755.57315500  1332.90776069
0.35500002 22805.33184434  1704.92668944
0.35600002 22861.40897865  1346.65135967
0.35700002 22924.29458052  1354.13814501
0.35800002 22994.00080512  1362.04970220
0.35900002 23069.44532253  1744.05014899
0.36000002 23151.44489642  1379.01588057
0.36100002 23238.35521074  1766.57984680
0.36200002 23331.92038382  1524.50775009
0.36300002 23428.92114014  1535.06298581
0.36400002 23532.02570868  1932.56770287
0.36500002 23639.42875548  1687.14611019
0.36600002 23752.33770798  1569.07950331
0.36700002 23869.19091548  1581.09528114
0.36800002 23991.89786276  1593.54193153
0.36900002 24117.67445630  1472.38409530
0.37000002 24246.61190508  1889.05362301
0.37100002 24379.83210265  2040.59204365
0.37200002 24517.11652642  1783.25255502
0.37300002 24657.32505356  1659.93120124
0.37400002 24801.85324804  1953.14603581
0.37500002 24948.43743591  1407.09193804
0.37600002 25098.98178732  1987.08648223
0.37700002 25251.15636682  2004.43688735
0.37800002 25407.02887881  2166.58449028
0.37900002 25565.04732580  1602.92854326
0.38000002 25725.62238272  2352.35102211
0.38100002 25887.83918903  1928.38523254
0.38200002 26052.52513148  1496.71763971
0.38300002 26218.78236708  1963.26251665
0.38400002 26387.50668329  1828.65429978
0.38500002 26556.75786277  2460.21816496
0.38600002 26728.81263473  2482.57223512
0.38700002 26901.14768982  2818.16436550
0.38800002 27074.67446671  1737.78806297
0.38900002 27249.46648724  2391.14079754
0.39000002 27425.99388027  1608.53461728
0.39100002 27602.48953559  1785.32910774
0.39200002 27780.27714016  1801.41215650
0.39300002 27958.24903971  1817.56585618
0.39400002 28137.63258166  2000.58577134
0.39500002 28316.43884182  2186.59551096
0.39600002 28495.70046211  1866.61094721
0.39700002 28674.61034402  2054.24918237
0.39800002 28854.86185701  2590.44534594
0.39900002 29033.91276317  2264.64530282
0.40000002 29213.04680822  2811.46375803
0.40100002 29391.59807094  1772.31344765
0.40200002 29571.07306414  2323.84288685
0.40300002 29748.92451600  1802.78491109
0.40400002 29926.38290947  1999.83063268
0.40500002 30103.15349352  2016.61034808
0.40600002 30279.60660553  2033.42707794
0.40700002 30454.93264053  2050.22616250
0.40800002 30629.72654876  1879.13381280
0.40900002 30802.63619309  2083.79843720
0.41000002 30975.50790567  1909.64015287
0.41100002 31146.69498814  2502.32559391
0.41200002 31316.18032613  2328.04495575
0.41300002 31484.81945466  2150.72811885
0.41400002 31651.91176875  2167.36476106
0.41500002 31818.11182697  2382.54032650
0.41600002 31981.49049755  2800.61925557
0.41700002 32144.15730579  3023.15813786
0.41800002 32305.94583785  2842.60030897
0.41900002 32463.97701523  2045.23064887
0.42000002 32621.10404216  2472.02738145
0.42100002 32776.95024497  2282.25915370
0.42200002 32930.61034845  2298.39205818
0.42300002 33081.87291976  3366.41154783
0.42400002 33231.07926104  2118.48140328
0.42500002 33378.66088070  2346.18618448
0.42600002 33522.73564759  2576.55758397
0.42700002 33666.02630208  3242.03848652
0.42800002 33806.43489617  2828.07744525
0.42900002 33945.10627603  2408.40540441
0.43000002 34081.44839729  2864.37546629
0.43100002 34213.95253670  3103.88992122
0.43200002 34345.06247050  2453.78310448
0.43300002 34473.20697451  2693.04705647
0.43400002 34599.26782340  2934.88303220
0.43500002 34722.41730297  3179.18467892
0.43600002 34843.82564035  2512.41416686
0.43700002 34961.56517137  2756.36992873
0.43800002 35076.05237354  3233.66142156
0.43900002 35188.93627370  3483.70485619
0.44000002 35298.31695153  2801.98053240
0.44100002 35405.49502289  3521.07664689
0.44200002 35509.72700116  2359.62147105
0.44300002 35611.32904785  2371.71462698
0.44400002 35709.53940027  2383.61186793
0.44500002 35804.02461436  3113.87616828
0.44600002 35896.55445016  3610.29613492
0.44700002 35986.14691967  2418.26918761
0.44800002 36071.89653817  2915.33081638
0.44900002 36155.99215934  2684.58254506
0.45000002 36236.76966895  3431.98461800
0.45100002 36313.20317008  2954.44234994
0.45200002 36387.62741214  2719.79333982
0.45300002 36458.32375005  2482.81196505
0.45400002 36526.70780114  3240.83230325
0.45500002 36591.72351340  3253.73620902
0.45600002 36653.39022973  2512.59001933
0.45700002 36711.99158844  2774.32533582
0.45800002 36766.80157858  3543.95217212
0.45900002 36818.73467215  2540.49281278
0.46000002 36868.41482103  2804.39610627
0.46100002 36913.67169915  3581.36459799
0.46200002 36956.49594105  2823.29164123
0.46300002 36995.77275941  3089.88708731
0.46400002 37031.40928078  2841.23501173
0.46500002 37064.77926289  2849.91101260
0.46600002 37094.27029674  2858.29913319
0.46700002 37120.44766656  3648.19776958
0.46800002 37144.13809175  4180.94438177
0.46900002 37163.92842284  3144.06849359
0.47000002 37180.17473606  3152.13536352
0.47100002 37193.74511916  3686.64419095
0.47200002 37203.82419448  3695.45603239
0.47300002 37211.24625470  3439.43565434
0.47400002 37214.25462919  2916.66734481
0.47500002 37215.08386997  2657.15711426
0.47600002 37213.04572553  3993.89032179
0.47700002 37206.69596068  2934.49224951
