# SAXS profile: number of points = 501, q_min = 0, q_max = 0.5, delta_q = 0.001
#    q    intensity    error
0.00000000 1682732.95097188 277.65093691
0.00100000 1682663.70288774 656.23885971
0.00200000 1682455.90756724 757.10518238
0.00300000 1682109.72328139 1211.11904391
0.00400000 1681625.03107516 1639.58446760
0.00500000 1681002.29972199 1512.90212963
0.00600000 1680241.23095478 2117.10403719
0.00700000 1679342.49114454 3022.81660969
0.00800000 1678305.53335725 2718.85507883
0.00900000 1677131.78448110 3521.97689797
0.01000000 1675820.27240071 3318.12428263
0.01100000 1674372.36039273 4520.80556989
0.01200000 1672787.43729748 3914.32277489
0.01300000 1671066.91311407 4912.93694124
0.01400000 1669210.05543426 6384.72874508
0.01500000 1667218.64443233 4401.45741729
0.01600000 1665091.51360670 4670.58190446
0.01700000 1662830.80853900 5836.53639979
0.01800000 1660436.07955502 5205.46734364
0.01900000 1657908.05857531 5471.09684017
0.02000000 1655247.42605096 6778.23851630
0.02100000 1652455.75273403 8179.65634689
0.02200000 1649531.29130533 6829.05985626
0.02300000 1646477.00253179 5927.31747892
0.02400000 1643292.51783242 7394.81666743
0.02500000 1639979.49018396 9593.88045573
0.02600000 1636537.95504286 7290.77692318
0.02700000 1632968.89365307 8916.01056771
0.02800000 1629272.28901898 9922.26869516
0.02900000 1625450.72691433 10971.79291043
0.03000000 1621504.48829330 9047.99546057
0.03100000 1617433.77014346 10092.78719010
0.03200000 1613239.73067964 10381.19814506
0.03300000 1608924.95182428 9026.06939584
0.03400000 1604487.65243024 11792.98478950
0.03500000 1599931.11297291 8639.62840902
0.03600000 1595255.11263052 13280.49942639
0.03700000 1590461.37572536 11785.31933917
0.03800000 1585551.15121318 10203.02213025
0.03900000 1580525.95291654 9483.15615666
0.04000000 1575384.64513740 13564.06242318
0.04100000 1570131.08522104 14837.73944331
0.04200000 1564765.66771383 16148.38243998
0.04300000 1559288.23947997 19553.47543071
0.04400000 1553702.94129505 12584.99440896
0.04500000 1548009.09272239 14953.76853052
0.04600000 1542207.11913008 13047.07283436
0.04700000 1536300.17391088 14379.77029658
0.04800000 1530288.43702711 14621.90669612
0.04900000 1524174.82351770 13717.57405018
0.05000000 1517958.73613490 12773.62335939
0.05100000 1511643.49539408 14148.98377601
0.05200000 1505227.47973341 13163.21492369
0.05300000 1498715.87637596 14567.51899748
0.05400000 1492107.48932486 14771.86483319
0.05500000 1485405.82132691 12477.40948121
0.05600000 1478609.49375267 13906.32293767
0.05700000 1471723.65251576 15364.79564947
0.05800000 1464746.84348349 15555.61220412
0.05900000 1457681.15468622 13119.13100492
0.06000000 1450529.09736673 17254.04441927
0.06100000 1443292.53279398 16107.14541869
0.06200000 1435971.87265740 17640.91528019
0.06300000 1428570.12657712 17828.55601326
0.06400000 1421085.54901745 18012.26017617
0.06500000 1413524.03860181 15393.27750044
0.06600000 1405884.17430868 15542.05027417
0.06700000 1398168.51441504 14261.31951445
0.06800000 1390380.04645242 17268.52098526
0.06900000 1382519.81849945 18871.39640606
0.07000000 1374586.77844984 14639.34987603
0.07100000 1366586.37146863 16235.04685346
0.07200000 1358517.00725684 16363.33811898
0.07300000 1350383.97863537 17987.11543822
0.07400000 1342186.39156550 19629.47689656
0.07500000 1333926.71865167 16727.44183595
0.07600000 1325604.95349551 18372.88551678
0.07700000 1317226.84418910 18493.86575956
0.07800000 1308790.29566676 18610.99887717
0.07900000 1300297.30916670 18724.28213024
0.08000000 1291752.74027186 15694.79653056
0.08100000 1283155.77601096 23674.22517815
0.08200000 1274507.55406766 31735.23958547
0.08300000 1265811.52547456 17544.14856646
0.08400000 1257067.71439608 19233.13693304
0.08500000 1248280.75028135 17713.10467804
0.08600000 1239449.21280621 22644.73818117
0.08700000 1230577.24550430 16243.62040342
0.08800000 1221663.09209288 19571.04365446
0.08900000 1212713.02959268 24557.44000271
0.09000000 1203725.58686847 18073.94053586
0.09100000 1194703.71877045 18135.60330297
0.09200000 1185648.32965984 18193.77447350
0.09300000 1176563.05707406 21566.40184962
0.09400000 1167445.73745469 18299.71279464
0.09500000 1158301.16456593 18347.49130911
0.09600000 1149130.14567100 21735.79772712
0.09700000 1139935.91220856 18432.76456699
0.09800000 1130719.18785852 23507.65302085
0.09900000 1121481.43223945 20186.66672954
0.10000000 1112223.08503259 21905.23468986
0.10100000 1102946.40026894 21937.60493311
0.10200000 1093654.06189287 20276.34726122
0.10300000 1084346.95539113 21990.55728978
0.10400000 1075027.42508862 20318.01929004
0.10500000 1065698.32161377 22027.98534416
0.10600001 1056356.18129961 22040.87275992
0.10700001 1047008.46766482 18657.69177177
0.10800001 1037652.44522263 18662.18010560
0.10900001 1028292.57977300 18663.51120129
0.11000001 1018929.00661380 18661.68563453
0.11100001 1009563.61558178 20352.80344820
0.11200001 1000198.81256452 25430.05600663
0.11300001 990833.56534246 23720.55667108
0.11400001 981472.53114903 18623.44215543
0.11500001 972115.88994496 21989.26246599
0.11600001 962764.51450392 21965.47343279
0.11700001 953421.63685979 18563.12014389
0.11800001 944085.05863371 21907.49481740
0.11900001 934760.13695823 21873.38823509
0.12000001 925445.85126189 25195.26448743
0.12100001 916146.43206129 18442.02854616
0.12200001 906859.72375704 25097.34403734
0.12300001 897589.32917902 18364.67854024
0.12400001 888335.56992350 21653.18053713
0.12500001 879100.36983301 16614.99777275
0.12600001 869886.38413672 21542.73731831
0.12700001 860693.04964669 19830.36879839
0.12800001 851520.87855873 23067.70168732
0.12900001 842373.35358203 22996.79363668
0.13000001 833250.78643502 18010.71659773
0.13100001 824153.17179005 19581.88028477
0.13200001 815084.27106136 17887.02517164
0.13300001 806044.58832295 17821.64668799
0.13400001 797033.37352662 19367.91188981
0.13500001 788053.99942986 20899.19305024
0.13600001 779105.92274335 24015.94120093
0.13700001 770191.88766366 20725.86467432
0.13800001 761310.56376348 30159.31940568
0.13900001 752467.17464813 23702.71711919
0.14000001 743658.82792125 22019.73893321
0.14100001 734888.45941839 15653.12492386
0.14200001 726155.56156191 20248.84878920
0.14300001 717465.05686343 18596.69515106
0.14400001 708810.62983805 16958.29511880
0.14500001 700201.96303390 18401.30845656
0.14600001 691633.16482355 18300.61440455
0.14700001 683110.28109506 24264.07832919
0.14800001 674629.62672758 19601.36472934
0.14900001 666194.05352486 16488.30360267
0.15000001 657805.26524053 17879.14795283
0.15100001 649462.92900667 14807.75548006
0.15200001 641169.51881405 17657.80938136
0.15300001 632924.29810910 24854.93835962
0.15400001 624726.69361309 23239.83409912
0.15500001 616580.90229132 18756.39193287
0.15600001 608484.03726499 14329.79975388
0.15700001 600442.12387765 15653.52690829
0.15800001 592447.77065075 22607.80799509
0.15900001 584509.46468300 15431.05059599
0.16000001 576622.23441781 16710.51314220
0.16100001 568792.38068093 16585.98660358
0.16200001 561015.08110038 20575.22907063
0.16300001 553294.35783180 17694.35439877
0.16400001 545628.95114145 14854.74889611
0.16500001 538020.42839512 17415.72208937
0.16600001 530468.60661998 15945.88706785
0.16700001 522973.99039044 17132.62873410
0.16800001 515536.11808774 15682.60945271
0.16900001 508159.36718110 15549.67736997
0.17000001 500840.08768683 19269.82328367
0.17100001 493580.50901383 12734.37773389
0.17200001 486380.89100599 15145.90166116
0.17300001 479241.10564610 21263.92886170
0.17400001 472162.87326311 13633.70360934
0.17500001 465144.96360338 18419.74142861
0.17600001 458186.34605028 12164.84806217
0.17700001 451291.79020924 13254.44050446
0.17800001 444458.16968393 14320.44290360
0.17900001 437686.25155800 14181.03522030
0.18000001 430977.71574651 12871.15008874
0.18100001 424332.60759911 12742.70880812
0.18200001 417747.51888267 13760.60392202
0.18300001 411228.11153037 14754.86533872
0.18400001 404770.48588850 14602.09596824
0.18500001 398377.21958825 13337.66994191
0.18600001 392047.25646889 14296.00388253
0.18700001 385780.57594751 11966.91403127
0.18800001 379577.15559525 20445.92445213
0.18900001 373439.90910165 13835.94928593
0.19000001 367362.52112335 11577.43040022
0.19100001 361354.13933168 10406.99970448
0.19200001 355406.54466302 14404.62793583
0.19300001 349525.30959276 10171.18698976
0.19400001 343707.07405425 14074.80534761
0.19500001 337953.39868463 12916.57950810
0.19600001 332263.07228981 14727.56137522
0.19700001 326637.75974522 9701.14192289
0.19800001 321076.46398810 16293.02593506
0.19900001 315580.09050233 12307.62411125
0.20000001 310145.54220788 12156.15510135
0.20100001 304776.97535792 9234.74278980
0.20200001 299470.83818163 11854.55368971
0.20300001 294229.43022107 11704.44728740
0.20400001 289051.63428269 9777.17199174
0.20500001 283936.42379501 13160.45386495
0.20600001 278885.14390576 9525.32254034
0.20700001 273896.83156948 11109.25601358
0.20800001 268971.21217636 10118.69748039
0.20900001 264110.84825898 9151.44132477
0.21000001 259310.56791836 11490.05180762
0.21100001 254573.15972085 8904.96954800
0.21200001 249897.72846128 9581.07936215
0.21300001 245284.13351452 12597.79369287
0.21400001 240733.20537898 11645.46936077
0.21500001 236244.45033453 9185.18466326
0.21600001 231815.14493511 9054.69998926
0.21700001 227447.77063389 11156.31367706
0.21800001 223140.93513083 8063.19807219
0.21900001 218893.61000058 8668.18736587
0.22000001 214706.00593690 9252.75576334
0.22100001 210580.70187447 7012.33770399
0.22200001 206513.50841123 7598.66490129
0.22300001 202505.54663544 8165.02402643
0.22400001 198554.31541494 8041.45015456
0.22500001 194665.00202385 7259.05826873
0.22600001 190831.77838853 9096.95130596
0.22700001 187057.41522984 10875.51863576
0.22800001 183339.75253191 6927.49287702
0.22900001 179678.58732072 9918.25848915
0.23000001 176074.47245117 6711.07883486
0.23100001 172528.05500112 9606.36255677
0.23200001 169035.46480828 5907.78977445
0.23300001 165599.61306306 5812.54669341
0.23400001 162218.78953785 7433.67638215
0.23500001 158891.26367423 7312.17630013
0.23600001 155619.06321311 6085.48375477
0.23700001 152400.38015918 7072.90197772
0.23800001 149234.99171552 6420.08964726
0.23900001 146122.91682670 5260.42525458
0.24000001 143062.91706819 7757.58704496
0.24100001 140056.25605136 8134.46773623
0.24200001 137100.55559510 5996.77858539
0.24300001 134196.00732728 6876.20374071
0.24400001 131341.89098744 5792.17766654
0.24500001 128538.43130134 6165.98884120
0.24600001 125784.77986221 5126.35894579
0.24700001 123081.33348549 5952.21356893
0.24800001 120425.68411631 5847.26936888
0.24900001 117818.55006176 4860.01541996
0.25000001 115259.87410143 5641.39480478
0.25100001 112748.22125736 5114.25955818
0.25200001 110284.59518100 4603.83064364
0.25300001 107867.64425065 5753.66041654
0.25400001 105496.02564196 4842.26780606
0.25500001 103170.03441073 5546.42131233
0.25600001 100889.82534607 4667.16354133
0.25700001 98654.05216485  5726.86799913
0.25800001 96462.18304004  5246.57838378
0.25900001 94314.61821411  4781.75136970
0.26000001 92210.65367999  4693.06144110
0.26100001 90147.23758980  3542.78660491
0.26200001 88128.77677953  3476.68040846
0.26300001 86150.64809924  3752.72240877
0.26400001 84213.59663479  4351.73781202
0.26500001 82318.29347412  3941.40007804
0.26600001 80462.54349241  3544.77752130
0.26700001 78647.46967234  4742.44264566
0.26800001 76871.82502454  4032.31177247
0.26900001 75134.41821754  3955.82730635
0.27000001 73435.79390441  4179.23122887
0.27100001 71775.10909414  2928.42458962
0.27200001 70152.25679231  2872.73505159
0.27300001 68565.77970060  4790.69125440
0.27400001 67014.78551411  3317.23203994
0.27500001 65502.05402615  3254.14219802
0.27600001 64022.69367137  2926.15735273
0.27700001 62580.14989921  2870.55161173
0.27800001 61171.12024472  3584.01610476
0.27900001 59796.75898408  3013.75679543
0.28000001 58455.75028373  2956.69198929
0.28100001 57147.67731263  3384.28561063
0.28200001 55872.77986840  3320.51946474
0.28300001 54630.11456148  3025.41588761
0.28400001 53419.28271317  2968.77677730
0.28500001 52240.08965895  4258.08990964
0.28600001 51090.73695718  2199.45633011
0.28700001 49972.57292565  2374.69677783
0.28800001 48883.51540181  2542.92059157
0.28900001 47825.73716553  2288.46163169
0.29000001 46795.30457159  2246.87665536
0.29100001 45794.83222645  2406.97649576
0.29200001 44821.90759211  2166.91522511
0.29300001 43876.72807257  2515.45293947
0.29400001 42958.59828929  2661.28529000
0.29500001 42068.49260572  3175.32997219
0.29600001 41203.68246277  2202.74896873
0.29700001 40364.67955630  2706.45189237
0.29800001 39551.89119539  2306.07312531
0.29900001 38764.13164623  2093.26320799
0.30000001 38000.94750773  1715.74286120
0.30100001 37262.97664466  1856.81421411
0.30200001 36547.70984150  1993.31218912
0.30300001 35856.39907196  2452.57781263
0.30400001 35188.92721644  2414.84024455
0.30500001 34542.88674206  1902.62229183
0.30600001 33919.61060753  1718.19795667
0.30700001 33318.54072165  1539.31665422
0.30800001 32738.76728250  2276.16290308
0.30900001 32180.00863187  2094.91866112
0.31000001 31642.74177657  1476.13397376
0.31100001 31124.27974528  1602.27799715
0.31200001 30626.84319351  1869.30946282
0.31300001 30148.43554152  2271.98620998
0.31400001 29690.68839258  2104.32763946
0.31500001 29250.61273953  1941.07075330
0.31600002 28829.33527226  1370.83495710
0.31700002 28425.62502625  1762.67309134
0.31800002 28040.13712172  1475.89268728
0.31900002 27672.33530957  1593.92658930
0.32000002 27321.26752056  1841.72673077
0.32100002 26987.29176019  1564.18350448
0.32200002 26669.65809481  1938.21749382
0.32300002 26367.42441714  1281.45688735
0.32400002 26081.24983427  1780.04538548
0.32500002 25810.07421226  1893.16903311
0.32600002 25554.34940112  1504.12907697
0.32700002 25313.28586550  1245.41372356
0.32800002 25087.17758121  1361.85749948
0.32900002 24873.95372657  1354.38684455
0.33000002 24676.05018769  1470.19913980
0.33100002 24489.20510125  1463.47496615
0.33200002 24318.06727527  1336.15626971
0.33300002 24158.31098402  1452.39772514
0.33400002 24011.87573950  1327.25649435
0.33500002 23877.20474725  1925.45788200
0.33600002 23754.38746266  1561.01964603
0.33700002 23642.56918033  1198.67831421
0.33800002 23543.52409237  1197.18825679
0.33900002 23454.29183750  1674.63651650
0.34000002 23376.54280502  1554.42328743
0.34100002 23309.08404504  1554.48288858
0.34200002 23252.85532264  1674.90324821
0.34300002 23205.13215271  2155.29277642
0.34400002 23168.11668500  1438.74011428
0.34500002 23139.98399921  1801.44783966
0.34600002 23122.43064444  1323.87482925
0.34700002 23111.59091255  1447.71012333
0.34800002 23111.12924176  1209.86767311
0.34900002 23118.53465214  1456.46775207
0.35000002 23134.39754642  1461.63130621
0.35100002 23158.14616086  1467.30021025
0.35200002 23188.93370771  1227.85409798
0.35300002 23227.67176139  1973.42308632
0.35400002 23274.04507804  1363.27725502
0.35500002 23326.97947892  1743.92506844
0.35600002 23386.53600971  1377.58396890
0.35700002 23452.66475608  1385.34897276
0.35800002 23525.83635235  1520.23961710
0.35900002 23604.61882602  1402.11442468
0.36000002 23690.05017142  1539.37953305
0.36100002 23780.42054151  1549.53227588
0.36200002 23877.42201114  1300.12569009
0.36300002 23977.92044891  1701.95287408
0.36400002 24084.46510139  1714.21188479
0.36500002 24195.39764835  1461.16013320
0.36600002 24311.79915862  1338.36460708
0.36700002 24432.13457173  1348.65389224
0.36800002 24558.27814547  1495.23083571
0.36900002 24687.46250285  1507.16965719
0.37000002 24819.86679493  1381.22565257
0.37100002 24956.52271927  1531.83143707
0.37200002 25097.27259374  1404.19246814
0.37300002 25240.80546033  1557.61017874
0.37400002 25388.75850426  1999.36482692
0.37500002 25538.58610534  1728.45158949
0.37600002 25692.46074848  2179.36308623
0.37700002 25847.88098950  1758.68990584
0.37800002 26006.93226065  2217.74125359
0.37900002 26168.17002160  1789.90291427
0.38000002 26331.84751493  1655.35167244
0.38100002 26497.15999903  2125.60227582
0.38200002 26664.85188263  1531.89581323
0.38300002 26834.16050090  1854.77726169
0.38400002 27005.81668935  1871.50318523
0.38500002 27178.01643166  1888.32867113
0.38600002 27352.80024813  1905.39615555
0.38700002 27527.87273017  2082.75894944
0.38800002 27704.07523095  1939.83943957
0.38900002 27881.50265348  1631.06798250
0.39000002 28060.62011641  1974.90653736
0.39100002 28239.55473689  2324.68025608
0.39200002 28419.90333261  2010.42405700
0.39300002 28600.06249627  2028.31652833
0.39400002 28781.75646407  1705.31915129
0.39500002 28962.69496747  2580.57624386
0.39600002 29144.03883131  1735.52759463
0.39700002 29325.01668448  2100.84429481
0.39800002 29507.24719002  2825.61412479
0.39900002 29688.13395056  3206.31861857
0.40000002 29868.93300645  1976.27804601
0.40100002 30049.29648556  1811.97266393
0.40200002 30230.31483261  2741.13392732
0.40300002 30409.66420174  2027.10831173
0.40400002 30588.52886947  2229.90386024
0.40500002 30766.64262348  2623.16407436
0.40600002 30944.31214159  2266.98041490
0.40700002 31120.73110579  2285.50660070
0.40800002 31296.46464527  2304.04583635
0.40900002 31470.38597750  2128.97171225
0.41000002 31644.08079979  1950.85767374
0.41100002 31816.01102749  2752.72140453
0.41200002 31986.05904351  2575.99738713
0.41300002 32155.24657251  2196.52499745
0.41400002 32322.72863209  2012.08995269
0.41500002 32489.24085280  2635.52734286
0.41600002 32652.83336814  2246.67830635
0.41700002 32815.62012132  2674.80132283
0.41800002 32977.41095972  2694.41949014
0.41900002 33135.39035091  2087.52969102
0.42000002 33292.32526326  2312.65148400
0.42100002 33447.81840411  2328.97170584
0.42200002 33601.08080823  2131.98867831
0.42300002 33751.79735336  2575.93729607
0.42400002 33900.34471384  2377.26178571
0.42500002 34047.21775923  2610.74078149
0.42600002 34190.39838081  2627.87414407
0.42700002 34332.72703280  2644.99341594
0.42800002 34472.10956581  2661.93642681
0.42900002 34609.50229236  3571.70080582
0.43000002 34744.58002260  2470.86092539
0.43100002 34875.74002754  2711.93767305
0.43200002 35005.26090172  2500.95098364
0.43300002 35131.82283839  2287.08177516
0.43400002 35256.21408099  2990.60850114
0.43500002 35377.41427114  2776.41960357
0.43600002 35496.92827327  2326.82375858
0.43700002 35612.68394766  2573.72879086
0.43800002 35724.93676251  3528.73079594
0.43900002 35835.54475088  4020.74831159
0.44000002 35942.56645039  3566.40132505
0.44100002 36047.29499922  3106.91650322
0.44200002 36148.91795005  2882.51485394
0.44300002 36247.79611030  3621.15500303
0.44400002 36343.20542202  4124.04543070
0.44500002 36434.77652648  3899.97866422
0.44600002 36524.33071751  2693.85213973
0.44700002 36610.85704966  2706.27468137
0.44800002 36693.30399052  2965.55296906
0.44900002 36774.08505503  2730.47594474
0.45000002 36851.46760834  3490.20266259
0.45100002 36924.38843279  2753.82101983
0.45200002 36995.23317259  4022.12194114
0.45300002 37062.16512535  3028.72027758
0.45400002 37126.68497294  2533.89636949
0.45500002 37187.79618325  3052.37445538
0.45600002 37245.50896405  2553.17976049
0.45700002 37299.96364431  2562.50762381
0.45800002 37350.58490679  2828.74668198
0.45900002 37398.25614882  3096.57575588
0.46000002 37443.49743691  3365.98336162
0.46100002 37484.22358661  2597.65681767
0.46200002 37522.44184888  2605.93370991
0.46300002 37557.14332534  3136.77275920
0.46400002 37587.99606007  3932.64427417
0.46500002 37616.64466761  2892.34394558
0.46600002 37641.10662837  2636.75964429
0.46700002 37662.26768536  4230.22610692
0.46800002 37680.86022686  3181.01837112
0.46900002 37695.48990836  3189.03859740
0.47000002 37706.44660891  3463.14875294
0.47100002 37714.65663890  3471.25716157
0.47200002 37719.35639297  3479.04500180
0.47300002 37721.41856627  2681.99298718
0.47400002 37718.71599022  2687.45864168
0.47500002 37713.97061067  2692.77762923
0.47600002 37706.25573420  2967.67099822
0.47700002 37694.00366537  3783.72426727
