# SAXS profile: number of points = 501, q_min = 0, q_max = 0.5, delta_q = 0.001
#    q    intensity    error
0.00000000 1682732.95097188 302.89193117
0.00100000 1682663.69679953 656.23885734
0.00200000 1682455.88235626 832.81568814
0.00300000 1682109.66752671 1412.97217106
0.00400000 1681624.93488270 2017.94999854
0.00500000 1681002.14956118 1966.77259283
0.00600000 1680241.02290039 2646.37971881
0.00700000 1679342.21240536 2821.29503409
0.00800000 1678305.16550502 4304.85293127
0.00900000 1677131.31042418 2767.26678049
0.01000000 1675819.70219930 3041.61289083
0.01100000 1674371.65224373 3918.02983684
0.01200000 1672786.61534859 3588.12744724
0.01300000 1671065.93958014 5614.78180463
0.01400000 1669208.91894292 4506.86428094
0.01500000 1667217.34365529 4801.58616354
0.01600000 1665090.04731325 5519.77375360
0.01700000 1662829.14053253 6285.49443317
0.01800000 1660434.21880183 5205.46151018
0.01900000 1657905.99124231 5471.09001797
0.02000000 1655245.11595113 7821.03352666
0.02100000 1652453.21018538 5998.40542493
0.02200000 1649528.52670611 7967.22314596
0.02300000 1646473.96437150 6520.03719569
0.02400000 1643289.21895712 7394.80182249
0.02500000 1639975.92876739 7675.08769716
0.02600000 1636534.10642108 9941.94515124
0.02700000 1632964.75320273 8915.98796085
0.02800000 1629267.83823027 7087.31542132
0.02900000 1625445.95437685 8045.95784359
0.03000000 1621499.42491148 9047.96720690
0.03100000 1617428.32784431 13198.21576250
0.03200000 1613233.94458521 10381.16091154
0.03300000 1608918.82003216 8205.48636044
0.03400000 1604481.13350562 10108.23160748
0.03500000 1599924.23433335 8639.59126436
0.03600000 1595247.84752976 10624.35115554
0.03700000 1590453.69811092 17224.61434714
0.03800000 1585543.10862009 10202.97037616
0.03900000 1580517.47780544 10431.41583659
0.04000000 1575375.73982657 11626.27349867
0.04100000 1570121.75315753 11870.12100425
0.04200000 1564755.94457649 14129.74683505
0.04300000 1559278.06585666 14407.72999729
0.04400000 1553692.31377635 12584.90832606
0.04500000 1547997.95520202 10681.18638719
0.04600000 1542195.53258898 10872.47901018
0.04700000 1536288.05916046 14379.65690251
0.04800000 1530275.92067242 15746.53995638
0.04900000 1524161.81370766 17146.82120235
0.05000000 1517945.18658920 12773.50933996
0.05100000 1511629.45713950 17686.06547242
0.05200000 1505212.87794591 16753.02011225
0.05300000 1498700.73446640 15781.31946962
0.05400000 1492091.83847866 16002.68571395
0.05500000 1485389.64956600 14972.72836609
0.05600000 1478592.74013806 15170.36222173
0.05700000 1471706.42135790 19205.76969522
0.05800000 1464728.98567315 14259.13734132
0.05900000 1457662.72484136 13118.96513630
0.06000000 1450510.13962214 13272.16839760
0.06100000 1443273.10661957 16106.92862257
0.06200000 1435951.86595818 16283.69492112
0.06300000 1428549.47959175 15085.48320982
0.06400000 1421064.28484794 13855.37742524
0.06500000 1413502.18293976 16792.40671884
0.06600000 1405861.72257895 15541.80207029
0.06700000 1398145.52411337 14261.08501336
0.06800000 1390356.37482689 20146.26481427
0.06900000 1382495.45689348 18871.06387012
0.07000000 1374561.87178823 26350.35231613
0.07100000 1366560.79343659 17710.62871246
0.07200000 1358490.82717847 23800.76040716
0.07300000 1350357.16928145 16487.86180948
0.07400000 1342158.91688167 21139.00393155
0.07500000 1333898.68053330 19768.37937210
0.07600000 1325576.28415454 15310.40679975
0.07700000 1317197.54390099 16952.33318488
0.07800000 1308760.37173167 26364.97892495
0.07900000 1300266.85601817 18723.84360488
0.08000000 1291721.58910084 18833.30165258
0.08100000 1283123.85540458 15782.42416196
0.08200000 1274475.10201992 19040.65891766
0.08300000 1265778.36505175 19138.56977779
0.08400000 1257033.93737018 17629.90179914
0.08500000 1248246.25770542 17712.61522836
0.08600000 1239414.13103643 17791.79068638
0.08700000 1230541.48632896 17867.46322051
0.08800000 1221626.68816024 22832.20387400
0.08900000 1212675.98773919 19645.35192411
0.09000000 1203687.95573782 21359.44377794
0.09100000 1194665.37153714 18135.02119194
0.09200000 1185609.33086685 18193.17603699
0.09300000 1176523.42678217 18247.87920690
0.09400000 1167405.46744078 19962.63443143
0.09500000 1158260.23731366 18346.84302140
0.09600000 1149088.52913059 18391.16277326
0.09700000 1139893.76258172 26810.30255635
0.09800000 1130676.29074722 20148.65244846
0.09900000 1121437.93775660 21868.04081454
0.10000000 1112178.98878718 28644.17120327
0.10100000 1102901.71498668 18561.83673622
0.10200000 1093608.65230026 16896.25447278
0.10300000 1084300.94220984 25372.64324126
0.10400000 1074980.74560756 27089.51606374
0.10500000 1065651.06946820 27110.16448279
0.10600001 1056308.27810321 18649.12352742
0.10700001 1046959.88851623 18656.82609131
0.10800001 1037603.34293145 27143.70472852
0.10900001 1028242.91193290 23752.41238357
0.11000001 1018878.68422961 22053.63015820
0.11100001 1009512.63778322 16959.81311311
0.11200001 1000147.29879591 22038.24676646
0.11300001 990781.58905308 18636.60256751
0.11400001 981419.94007821 20315.39371616
0.11500001 972062.65555189 18605.28010335
0.11600001 962710.81656307 25343.36343948
0.11700001 953367.27994946 20249.52197978
0.11800001 944030.24079920 35386.97524302
0.11900001 934704.70139795 26919.49666821
0.12000001 925389.87888527 16795.82709293
0.12100001 916089.82317494 23470.22237538
0.12200001 906802.55270844 20076.60946280
0.12300001 897531.76958730 16694.09170086
0.12400001 888277.46344900 18320.72354686
0.12500001 879041.80610294 21598.05819366
0.12600001 869827.24346196 18227.23074568
0.12700001 860633.43611561 21481.41157779
0.12800001 851460.78500890 19770.92035970
0.12900001 842312.81881231 18067.61081509
0.13000001 833189.73966895 19646.61498743
0.13100001 824091.68195301 21212.12089336
0.13200001 815022.41499726 16259.69794568
0.13300001 805982.21699799 19440.29199047
0.13400001 796970.50024046 19366.38406888
0.13500001 787990.76617089 22505.01734291
0.13600001 779042.27380002 16009.31948144
0.13700001 770127.70213650 25506.63069748
0.13800001 761246.06790302 20633.57564350
0.13900001 752402.26697376 20540.58285704
0.14000001 743593.53861051 17299.70449164
0.14100001 734822.77193686 18782.07093652
0.14200001 726089.61194839 18689.54749305
0.14300001 717398.67127639 20144.55563961
0.14400001 708743.92890245 18498.21741691
0.14500001 700134.82218658 18399.54399501
0.14600001 691565.78547814 25923.34469156
0.14700001 683042.63862823 16679.90202220
0.14800001 674561.76691093 16584.10182192
0.14900001 666125.76126457 17985.39640271
0.15000001 657736.74835927 14897.73805326
0.15100001 649394.06874014 22209.27819886
0.15200001 641100.47881768 22069.88502471
0.15300001 632854.96656693 14618.95041755
0.15400001 624657.12828328 18880.26259334
0.15500001 616511.08699297 20196.90416304
0.15600001 608414.01894127 25790.67148011
0.15700001 600371.90448871 17074.57776952
0.15800001 592377.30944872 14128.19949718
0.15900001 584438.93200311 22442.45604822
0.16000001 576551.44797750 15316.08993848
0.16100001 568721.62716613 19347.91066950
0.16200001 560944.10170965 15086.59232766
0.16300001 553223.21271273 14970.22084272
0.16400001 545557.76456964 18903.57743477
0.16500001 537949.16572520 16073.92183074
0.16600001 530397.20931899 15943.74086488
0.16700001 522902.54589941 17130.28821247
0.16800001 515464.55947219 15680.43263952
0.16900001 508087.69430615 15547.48417989
0.17000001 500768.46576480 14129.18292873
0.17100001 493508.83023518 15279.03410558
0.17200001 486309.18019094 17667.61335065
0.17300001 479169.45815637 16258.22048303
0.17400001 472091.20035352 12392.39459452
0.17500001 465073.23567137 18416.90100237
0.17600001 458114.72323231 17028.12506677
0.17700001 451220.15037005 13252.33644228
0.17800001 444386.58474511 15511.31447316
0.17900001 437614.79380314 15360.27998801
0.18000001 430906.37010127 12869.01935094
0.18100001 424261.29937348 12740.56742201
0.18200001 417676.43549233 14904.78430461
0.18300001 411157.14506513 13617.52528784
0.18400001 404699.55683211 14599.53720241
0.18500001 398306.51444878 14446.57796154
0.18600001 391976.75944474 13193.93834624
0.18700001 385710.12361123 11964.72859969
0.18800001 379506.99005038 16138.53551438
0.18900001 373369.94422973 10641.04391331
0.19000001 367292.71022967 15784.40496791
0.19100001 361284.65141400 14566.99783330
0.19200001 355337.33830523 14401.82300202
0.19300001 349456.19708895 10169.17581581
0.19400001 343638.23967839 13066.84468123
0.19500001 337884.90107783 9933.81656111
0.19600001 332194.84447341 10797.99392988
0.19700001 326569.87159766 12608.86333825
0.19800001 321008.90400611 9582.11623742
0.19900001 315512.83779319 13251.53981358
0.20000001 310078.59002155 10283.75692409
0.20100001 304710.46715999 13849.09138696
0.20200001 299404.61481361 10028.55804717
0.20300001 294163.63550650 12601.97074073
0.20400001 288986.20512796 9774.95885047
0.20500001 283871.39559444 12280.27715387
0.20600001 278820.56630189 14717.54428791
0.20700001 273832.67646250 10252.29589137
0.20800001 268907.48900093 9273.27519655
0.20900001 264047.58583219 9980.99921627
0.21000001 259247.76324727 9025.71130412
0.21100001 254510.80096932 8902.78823877
0.21200001 249835.94000508 11973.38799078
0.21300001 245222.80687723 8658.81772018
0.21400001 240672.36405198 12418.69457219
0.21500001 236184.12943005 10713.31261745
0.21600001 231755.37413258 8298.00156313
0.21700001 227388.51543610 7435.60480631
0.21800001 223082.24414384 8061.07727327
0.21900001 218835.45929469 8665.88459781
0.22000001 214648.41943806 8538.71452898
0.22100001 210523.63398939 9113.56854632
0.22200001 206457.12879607 7596.59041325
0.22300001 202449.75475412 7482.54328953
0.22400001 198499.19340008 7369.28290344
0.22500001 194610.47505893 8576.48404141
0.22600001 190777.89928556 7795.18533343
0.22700001 187004.20539464 8953.76177771
0.22800001 183287.13917321 8184.68758683
0.22900001 179626.71328888 8056.25847199
0.23000001 176023.18059104 9148.80524388
0.23100001 172477.50370458 6002.21741278
0.23200001 168985.58486621 7087.25576447
0.23300001 165550.45397939 6391.90333045
0.23400001 162170.33077753 8574.75664541
0.23500001 158843.51987523 6185.36695649
0.23600001 155572.03717206 6636.70341966
0.23700001 152354.13198235 6526.85132283
0.23800001 149189.38566129 5348.43972893
0.23900001 146078.09130314 7362.33614991
0.24000001 143018.85223593 6204.15810345
0.24100001 140012.92176653 7623.70395080
0.24200001 137058.07297377 5994.92039544
0.24300001 134154.30883471 6383.06231629
0.24400001 131300.95417397 5307.84132356
0.24500001 128498.27212737 5215.74511238
0.24600001 125745.38748167 6056.52687456
0.24700001 123042.78916453 4577.19197345
0.24800001 120387.95364520 5395.78833763
0.24900001 117781.67655630 7066.90092770
0.25000001 115223.81686574 5639.62998329
0.25100001 112712.98429150 5538.71631012
0.25200001 110250.16501361 4602.39335623
0.25300001 107834.06294013 4108.47799239
0.25400001 105463.28881283 4840.76518553
0.25500001 103138.18033938 4356.55694365
0.25600001 100858.80729042 4276.91792550
0.25700001 98623.90311835  4580.09427752
0.25800001 96432.89125567  4121.05980280
0.25900001 94286.19142692  5515.74245945
0.26000001 92183.10635864  4330.76254164
0.26100001 90120.56690732  4958.43382585
0.26200001 88103.03727754  3823.23148356
0.26300001 86125.76473989  3751.63848959
0.26400001 84189.58318494  4685.15052594
0.26500001 82295.24033663  3611.93826929
0.26600001 80440.30741567  4510.28825022
0.26700001 78626.12396913  5057.23253300
0.26800001 76851.36002639  4651.42878571
0.26900001 75114.89297693  3042.15330953
0.27000001 73417.21537249  3879.73292996
0.27100001 71757.38827462  4098.78221221
0.27200001 70135.45105678  3446.45622803
0.27300001 68549.91041828  4226.10217728
0.27400001 66999.81781354  3316.49113872
0.27500001 65487.98243941  3253.44312156
0.27600001 64009.57194088  3191.51740801
0.27700001 62567.91787765  2869.99052887
0.27800001 61159.81680784  2559.53845454
0.27900001 59786.34868475  2762.12943996
0.28000001 58446.22447440  3448.91186947
0.28100001 57139.10286212  3142.07941510
0.28200001 55865.11738622  2845.76921434
0.28300001 54623.34881126  2792.34572339
0.28400001 53413.41959378  3653.47807314
0.28500001 52235.12589412  2689.06440831
0.28600001 51086.68066893  3518.85073103
0.28700001 49969.43929416  3453.88780749
0.28800001 48881.28304163  2119.00372015
0.28900001 47824.41629577  2704.47086954
0.29000001 46794.84070838  2655.37336169
0.29100001 45795.31597621  2607.58541511
0.29200001 44823.24259332  2166.97976575
0.29300001 43879.00727850  2128.57074384
0.29400001 42961.73797558  2281.26839449
0.29500001 42072.51582916  2241.62374949
0.29600001 41208.58064635  2203.01082564
0.29700001 40370.48770752  1985.01697455
0.29800001 39558.53214255  2306.46032576
0.29900001 38771.71195630  2268.14525682
0.30000001 38009.35875568  2059.34715487
0.30100001 37272.26479898  2363.80714545
0.30200001 36557.83434147  1993.86437937
0.30300001 35867.36141696  1635.55175804
0.30400001 35200.75371135  1932.52147024
0.30500001 34555.54895535  1903.31972657
0.30600001 33933.12757528  2343.93089823
0.30700001 33332.91173024  1693.97865433
0.30800001 32753.88968270  2277.21428800
0.30900001 32195.99444688  1796.53657519
0.31000001 31659.60659858  1919.99693307
0.31100001 31141.87531310  1748.92780039
0.31200001 30645.23151674  1582.67305661
0.31300001 30167.64273692  1420.89604018
0.31400001 29710.60553385  1965.35664912
0.31500001 29271.39785421  1664.95718878
0.31600002 28850.91353954  1509.04710414
0.31700002 28447.99209743  1628.36314476
0.31800002 28063.22119155  2148.52031615
0.31900002 27696.14561737  1462.35655784
0.32000002 27345.82789783  2106.72268100
0.32100002 27012.56416622  1565.64829321
0.32200002 26695.70055844  1810.76945462
0.32300002 26394.20683605  1924.13776946
0.32400002 26108.68735847  1654.63813969
0.32500002 25838.21658223  1516.18662084
0.32600002 25583.19003887  1380.34108391
0.32700002 25342.76320673  1246.86400881
0.32800002 25117.39322808  1363.49775595
0.32900002 24904.78997908  1602.62331104
0.33000002 24707.56336347  1594.74975281
0.33100002 24521.36979927  1953.86283813
0.33200002 24350.87017388  2189.38684101
0.33300002 24191.71751145  1575.60663613
0.33400002 24045.91997952  1691.63055067
0.33500002 23911.87109424  1807.73754033
0.33600002 23789.62931890  1563.33556473
0.33700002 23678.39190723  1200.49452655
0.33800002 23579.88239446  1558.74819950
0.33900002 23491.23812882  1677.27448183
0.34000002 23414.01539256  1437.15233286
0.34100002 23347.16735604  1437.25169050
0.34200002 23291.45430784  1318.17991898
0.34300002 23244.23777624  1439.28327127
0.34400002 23207.74033827  1561.30080520
0.34500002 23180.09101490  1563.96081484
0.34600002 23163.01704451  1326.19860369
0.34700002 23152.64980296  1571.13889004
0.34800002 23152.67263347  1212.04246977
0.34900002 23160.54567747  1580.70731735
0.35000002 23176.78088512  1464.30908567
0.35100002 23201.00156686  1470.01552890
0.35200002 23232.17584366  1353.15814610
0.35300002 23271.32254940  1482.84874308
0.35400002 23318.09212922  1862.53269704
0.35500002 23371.39938278  1372.83606477
0.35600002 23431.28497199  1254.74536968
0.35700002 23497.82419339  2145.11647222
0.35800002 23571.33437968  1269.31641647
0.35900002 23650.39555134  1404.83356229
0.36000002 23736.15694927  1285.31295968
0.36100002 23826.84391960  1423.17745473
0.36200002 23924.09096034  2084.26690319
0.36300002 24024.91657395  1442.93655778
0.36400002 24131.67660379  1585.45122797
0.36500002 24242.88474740  2129.49509708
0.36600002 24359.52585638  1609.19035430
0.36700002 24480.06607729  1621.55965377
0.36800002 24606.41971957  1634.35847519
0.36900002 24735.82514173  1372.83836040
0.37000002 24868.37718173  1522.31778129
0.37100002 25005.22722172  2371.99596661
0.37200002 25146.12047326  1688.31060855
0.37300002 25289.79085408  1560.63306753
0.37400002 25437.89766572  1717.05817377
0.37500002 25587.85739345  2164.73283803
0.37600002 25741.84863251  2474.69273552
0.37700002 25897.38837603  2055.73478667
0.37800002 26056.44828201  1629.44007051
0.37900002 26217.76369680  1494.41260151
0.38000002 26381.51031536  1809.24406314
0.38100002 26546.88724492  1977.47772455
0.38200002 26714.57857706  1688.22787315
0.38300002 26883.95158775  2322.77352722
0.38400002 27055.54043469  2031.19479436
0.38500002 27227.75489079  2049.43320772
0.38600002 27402.44177542  1908.85418451
0.38700002 27577.52814001  1765.51343516
0.38800002 27753.66715918  1619.42655546
0.38900002 27931.03735613  1960.75891529
0.39000002 28110.05409514  1813.52022586
0.39100002 28288.88787147  1663.38668565
0.39200002 28469.15207709  2181.73357279
0.39300002 28649.15078146  1862.48138054
0.39400002 28830.74236810  2391.51019274
0.39500002 29011.51518547  1723.28408366
0.39600002 29192.68452031  2259.95177921
0.39700002 29373.51760726  2455.03871793
0.39800002 29555.56654851  2653.35111260
0.39900002 29736.25773562  2141.01065840
0.40000002 29916.85319138  1979.44868519
0.40100002 30096.97129518  1996.33220059
0.40200002 30277.78519555  2562.40908251
0.40300002 30456.87625871  1845.68678873
0.40400002 30635.46845371  2419.43623577
0.40500002 30813.31092450  2439.48994148
0.40600002 30990.71278911  2081.18141596
0.40700002 31166.80061947  2098.14911712
0.40800002 31342.26500287  2691.98726865
0.40900002 31515.79062732  2325.86545850
0.41000002 31689.16883391  2149.00108630
0.41100002 31860.78763188  3544.19418410
0.41200002 32030.45478135  2182.71544450
0.41300002 32199.32338117  3199.32492275
0.41400002 32366.35449783  2417.76679555
0.41500002 32532.53812742  2436.03657041
0.41600002 32695.70287587  2658.65120533
0.41700002 32858.04973233  2678.25976059
0.41800002 33019.44274325  2282.79928222
0.41900002 33176.97485579  2299.16446645
0.42000002 33333.46815725  2736.51119804
0.42100002 33488.51603770  2755.77011532
0.42200002 33641.29805927  2988.35664821
0.42300002 33791.48933628  2364.05270599
0.42400002 33939.58472396  3461.83780589
0.42500002 34085.95128793  2613.71086861
0.42600002 34228.62930810  2411.57819218
0.42700002 34370.41065574  2427.23851553
0.42800002 34509.29060632  3775.14402477
0.42900002 34646.17262631  3798.95300850
0.43000002 34780.65213775  2698.28312071
0.43100002 34911.25337210  2940.92412343
0.43200002 35040.20974894  2503.44790415
0.43300002 35166.21791767  2289.32089493
0.43400002 35290.05101509  3684.28150057
0.43500002 35410.62215640  2547.44027865
0.43600002 35529.53010133  3260.54513191
0.43700002 35644.64306433  3044.40910840
0.43800002 35756.28573937  3767.28244403
0.43900002 35866.26744628  3077.32589272
0.44000002 35972.62140551  2617.54792062
0.44100002 36076.78396296  3587.83633514
0.44200002 36177.73180629  3125.21351019
0.44300002 36275.93573080  4107.16163808
0.44400002 36370.68596901  2913.29208418
0.44500002 36461.57656956  3658.91938215
0.44600002 36550.38890287  2450.70369208
0.44700002 36636.26817119  3446.74027289
0.44800002 36718.01616036  2720.25435616
0.44900002 36798.08948576  2732.25827380
0.45000002 36874.78689528  2744.03739686
0.45100002 36946.96901776  2505.00461812
0.45200002 37017.09570921  2515.31177265
0.45300002 37083.27141430  3030.44508360
0.45400002 37147.05612716  2788.81537092
0.45500002 37207.45371300  3817.48493188
0.45600002 37264.44316979  3065.37324043
0.45700002 37318.10094337  4358.38121574
0.45800002 37367.98391680  3859.17872191
0.45900002 37414.89792818  3614.27931116
0.46000002 37459.35586183  3626.44041286
0.46100002 37499.31370981  3118.44307591
0.46200002 37536.77387434  3128.31488295
0.46300002 37570.69214448  3137.90435663
0.46400002 37600.78528262  2884.92038754
0.46500002 37628.66396671  3156.29248312
0.46600002 37652.28503483  3956.31403755
0.46700002 37672.68490055  2644.62260536
0.46800002 37690.50566856  3446.98535929
0.46900002 37704.32248281  2923.97034713
0.47000002 37714.47921024  4263.24493199
0.47100002 37721.87195159  2937.77952683
0.47200002 37725.77262778  2944.30806429
0.47300002 37727.07227157  3755.35295191
0.47400002 37723.51069825  2956.58029111
0.47500002 37717.95603578  3770.28706404
0.47600002 37709.45473758  2698.11161436
0.47700002 37696.38501676  2973.11402719
