# SAXS profile: number of points = 501, q_min = 0, q_max = 0.5, delta_q = 0.001
#    q    intensity    error
0.00000000 1700912.83420644 433.73277272
0.00100000 1700843.04013705 561.27821657
0.00200000 1700633.60104513 1224.45623152
0.00300000 1700284.68950269 1428.23919006
0.00400000 1699796.16797014 1402.33189186
0.00500000 1699168.52959759 1529.25173717
0.00600000 1698401.42692545 1961.65372796
0.00700000 1697495.58786169 2648.09322712
0.00800000 1696450.45346960 2519.22902976
0.00900000 1695267.41789930 4068.64197688
0.01000000 1693945.52603317 3354.01228637
0.01100000 1692486.18511229 4569.71289877
0.01200000 1690888.71927962 3956.67977659
0.01300000 1689154.59517427 4256.66976758
0.01400000 1687283.01911267 4176.02565743
0.01500000 1685275.87202003 5258.06095484
0.01600000 1683131.86151639 5579.58237035
0.01700000 1680853.25747005 5445.96479850
0.01800000 1678439.52426242 6218.61871722
0.01900000 1675891.43392306 5530.44198149
0.02000000 1673209.68340581 5797.67181526
0.02100000 1670395.88003824 6614.76798485
0.02200000 1667448.18656028 9779.58405849
0.02300000 1664369.53235749 6590.90364814
0.02400000 1661159.73796370 7475.21916169
0.02500000 1657820.37437945 8405.14968197
0.02600000 1654351.32738939 8040.14781886
0.02700000 1650753.91077785 9013.11676566
0.02800000 1647027.82701778 7164.57137609
0.02900000 1643175.69387349 11091.43644290
0.03000000 1639197.84071070 11433.40546450
0.03100000 1635094.62138289 8633.29999815
0.03200000 1630866.96446053 11301.90858426
0.03300000 1626517.59036928 8295.24009330
0.03400000 1622044.74349761 9367.30882591
0.03500000 1617451.62687103 11354.51094496
0.03600000 1612737.92834642 8950.69591597
0.03700000 1607905.69578625 9165.06288984
0.03800000 1602955.89935542 11252.75093425
0.03900000 1597890.23481154 9587.34185286
0.04000000 1592707.40376869 12733.69628320
0.04100000 1587411.39474311 15001.03837587
0.04200000 1582002.56261448 12244.70040270
0.04300000 1576480.86492914 12485.72902980
0.04400000 1570850.20517741 10603.23937738
0.04500000 1565110.08950421 10799.26011937
0.04600000 1559260.96156804 14290.62737710
0.04700000 1553305.85356683 20130.84479847
0.04800000 1547245.20463855 13646.70333987
0.04900000 1541081.65543881 11558.11295379
0.05000000 1534814.65408439 17611.99897574
0.05100000 1528447.82084374 14306.27226954
0.05200000 1521979.33845535 19359.57808733
0.05300000 1515414.08075320 20867.25286476
0.05400000 1508751.35731722 18670.79891749
0.05500000 1501994.52419850 17663.45642856
0.05600000 1495142.16207276 12783.46608225
0.05700000 1488199.36804457 18126.26914889
0.05800000 1481164.91057245 17040.80309181
0.05900000 1474040.53728055 18572.91163720
0.06000000 1466829.18568868 14763.63644370
0.06100000 1459532.52117231 16288.38369746
0.06200000 1452150.79608870 17839.67336384
0.06300000 1444687.19701532 18029.69706174
0.06400000 1437140.23652879 16814.54155375
0.06500000 1429515.45153544 14152.20363221
0.06600000 1421811.36154224 15718.12533728
0.06700000 1414030.73884738 15865.42563235
0.06800000 1406176.77166409 16009.32329478
0.06900000 1398250.26342334 23490.60552532
0.07000000 1390250.12347630 16286.78095921
0.07100000 1382181.89511182 20898.59123293
0.07200000 1374044.04662588 16550.36131694
0.07300000 1365841.87534714 18193.01463207
0.07400000 1357574.43058897 19854.52697783
0.07500000 1349244.25723311 18457.66230411
0.07600000 1340851.32196596 20132.88354316
0.07700000 1332401.17369125 17148.00390945
0.07800000 1323892.05016974 18825.74583627
0.07900000 1315326.11322362 20519.08832871
0.08000000 1306707.67860926 26990.04836781
0.08100000 1298036.54645652 17562.43529755
0.08200000 1289313.33025182 22472.73240083
0.08300000 1280541.74752071 30656.17087440
0.08400000 1271721.76623814 17835.89860868
0.08500000 1262857.95657024 19549.04208544
0.08600000 1253949.20615224 16364.03790860
0.08700000 1244999.27904862 21364.18863169
0.08800000 1236006.82541621 16500.69189424
0.08900000 1226977.90171633 23189.88343166
0.09000000 1217910.99889869 21611.83169068
0.09100000 1208809.15825633 18349.72388442
0.09200000 1199673.18055503 21756.07415161
0.09300000 1190507.05735675 20143.38035706
0.09400000 1181308.49824820 18517.01158029
0.09500000 1172082.03919121 16877.98215766
0.09600000 1162828.54458768 23686.81856672
0.09700000 1153551.67889808 18652.93152471
0.09800000 1144251.71698060 30585.84983297
0.09900000 1134930.34575381 20428.74718418
0.10000000 1125587.94414198 22168.45560240
0.10100000 1116226.86712486 17078.27187023
0.10200000 1106849.87071481 23941.16382967
0.10300000 1097457.60083286 20544.40725402
0.10400000 1088052.55053660 23991.55986802
0.10500000 1078637.58789238 22295.43999072
0.10600001 1069209.42213067 20592.97443921
0.10700001 1059774.91311819 17168.35440042
0.10800001 1050332.27207385 24042.10683923
0.10900001 1040885.29523298 17174.60817968
0.11000001 1031434.31207669 20608.05852530
0.11100001 1021981.13401998 24036.99740365
0.11200001 1012528.39257148 24027.29988686
0.11300001 1003074.81770654 17152.58019034
0.11400001 993625.38890701 18854.04264224
0.11500001 984179.86323388 18837.20346930
0.11600001 974739.57400964 22238.68442828
0.11700001 965307.63302329 25628.91886376
0.11800001 955881.90761125 17062.49285448
0.11900001 946467.28947906 17036.41201307
0.12000001 937063.18099901 18708.46728991
0.12100001 927673.92831618 20371.72042550
0.12200001 918297.17384203 20331.10038669
0.12300001 908936.78240259 23668.71492890
0.12400001 899592.75469265 18554.10143976
0.12500001 890267.05950885 21873.86268284
0.12600001 880962.62493091 20138.80655493
0.12700001 871678.54647969 18409.85176924
0.12800001 862415.74355868 21694.06905164
0.12900001 853177.29529728 21628.04545516
0.13000001 843963.88869044 18242.28031389
0.13100001 834775.20802823 18181.40488788
0.13200001 825615.51437969 18118.13331716
0.13300001 816484.77076343 24617.01699904
0.13400001 807382.61794618 17984.44866264
0.13500001 798312.11346095 22799.79503541
0.13600001 789272.91833372 19463.47108383
0.13700001 780267.85239425 24227.31795924
0.13800001 771295.49596183 17689.66303405
0.13900001 762361.13759128 25615.33543104
0.14000001 753461.74318098 19122.85994378
0.14100001 744600.67495414 23789.99268679
0.14200001 735776.97838384 20517.14200993
0.14300001 726995.86802653 17273.42263906
0.14400001 718250.67282085 18746.34344489
0.14500001 709551.21521319 23308.75851928
0.14600001 700892.06796402 18545.60499320
0.14700001 692278.91079355 15368.59254465
0.14800001 683708.19754164 18337.05472318
0.14900001 675182.14436250 18229.91875789
0.15000001 666703.45173921 24161.33423103
0.15100001 658271.25232937 21012.01936580
0.15200001 649888.36508234 22372.40802365
0.15300001 641553.67787148 19265.85785562
0.15400001 633266.70364116 19140.48702081
0.15500001 625031.63420863 16088.31502379
0.15600001 616846.20542730 15979.40170574
0.15700001 608715.41139740 17311.86711721
0.15800001 600632.51260720 24352.64637307
0.15900001 592605.93310498 19911.56029216
0.16000001 584630.78846010 18354.48447008
0.16100001 576713.18978396 18218.37052526
0.16200001 568848.26679151 15299.17485757
0.16300001 561040.23808084 13801.59050833
0.16400001 553287.91844711 17802.03961646
0.16500001 545592.65809284 13585.25782789
0.16600001 537954.31571853 13475.75624498
0.16700001 530373.68039542 20048.12606551
0.16800001 522849.92926750 15905.09559930
0.16900001 515387.60108186 18399.33822740
0.17000001 507983.32598148 15635.72751202
0.17100001 500638.80298998 16791.42624520
0.17200001 493354.60678846 12802.55265073
0.17300001 486130.71673864 13956.81353667
0.17400001 478968.64059298 17602.09837307
0.17500001 471867.18860295 18685.94155117
0.17600001 464825.51100259 13575.22968998
0.17700001 457848.10212386 14669.45388490
0.17800001 450932.18481748 19372.04757474
0.17900001 444078.33494343 13189.12717079
0.18000001 437288.09785829 11872.37241764
0.18100001 430561.87140843 11754.33964468
0.18200001 423895.87300818 19781.10184834
0.18300001 417296.25862996 17276.06592339
0.18400001 410758.63651286 18237.68432273
0.18500001 404286.01002228 15791.41229749
0.18600001 397876.84625993 14508.57988430
0.18700001 391531.66754141 12145.31290094
0.18800001 385249.79598880 12014.01545553
0.18900001 379034.86444938 12962.99297664
0.19000001 372880.16114910 17092.82739469
0.19100001 366794.88405333 13732.80110783
0.19200001 360771.02846550 12533.18612110
0.19300001 354813.82377239 11357.59103563
0.19400001 348920.22798000 12247.10058082
0.19500001 343091.74391224 11095.58752244
0.19600001 337326.92970506 10964.81236822
0.19700001 331627.61537017 12804.14283453
0.19800001 325992.73417087 11677.06028984
0.19900001 320423.43616704 9612.70353931
0.20000001 314916.48373159 11393.67891989
0.20100001 309475.97707352 15941.10833247
0.20200001 304098.47749058 10185.77898496
0.20300001 298786.20971102 9142.85844929
0.20400001 293537.98722427 9928.92288716
0.20500001 288353.03187943 15147.18548059
0.20600001 283232.34261119 9673.80111915
0.20700001 278175.44990661 10414.88933681
0.20800001 273181.47417088 13702.78339214
0.20900001 268253.42414051 12674.97488980
0.21000001 263386.05152745 8336.16892491
0.21100001 258582.07104736 10689.78332244
0.21200001 253840.61090829 10543.27027250
0.21300001 249161.46188041 8797.89163492
0.21400001 244545.76703572 10252.58176768
0.21500001 239992.57650814 10108.48780043
0.21600001 235499.37121225 7665.50489537
0.21700001 231068.93954462 9067.14561642
0.21800001 226699.32690647 8191.78056508
0.21900001 222389.88928149 11742.18670925
0.22000001 218140.81717750 7231.36843135
0.22100001 213954.64244282 9262.09690929
0.22200001 209827.08872481 7720.58809469
0.22300001 205759.40393804 9678.92281892
0.22400001 201749.06780026 8170.83763228
0.22500001 197801.00360427 6705.45433927
0.22600001 193909.85329745 7262.89389871
0.22700001 190078.09754459 9751.00686515
0.22800001 186303.61240574 7039.48232765
0.22900001 182586.08617627 6929.14229808
0.23000001 178926.49778803 6819.78378571
0.23100001 175324.78529289 9762.08450678
0.23200001 171777.78628557 8405.08748046
0.23300001 168288.12269116 8269.67874015
0.23400001 164854.02330633 5811.10459639
0.23500001 161473.88158494 8002.64594984
0.23600001 158149.44354487 6746.65558072
0.23700001 154879.18623440 6635.02465210
0.23800001 151663.10164127 8699.39592161
0.23900001 148500.56268111 6949.82666220
0.24000001 145391.13272644 7883.83454500
0.24100001 142335.16371722 6716.79669353
0.24200001 139331.03408023 6602.20136219
0.24300001 136378.62652953 6488.89535722
0.24400001 133477.09654479 4905.28353006
0.24500001 130626.80407456 5784.15515804
0.24600001 127826.87291862 5683.18303881
0.24700001 125078.04785948 6048.77468063
0.24800001 122377.50542473 5484.96005261
0.24900001 119725.94032921 5387.66756969
0.25000001 117123.49116426 5291.63958114
0.25100001 114568.68046174 5629.90522423
0.25200001 112062.51771296 4252.77274840
0.25300001 109603.50950402 5011.07269160
0.25400001 107190.49981409 4510.04049305
0.25500001 104823.69709440 5635.32222241
0.25600001 102503.30400967 3951.50255653
0.25700001 100227.92822130 5042.46730739
0.25800001 97996.88271871  4187.89698113
0.25900001 95810.80274951  4483.94578083
0.26000001 93668.90000684  4767.27889141
0.26100001 91568.06794209  5397.93786060
0.26200001 89512.93376863  5296.92810639
0.26300001 87498.49669842  6236.89313978
0.26400001 85525.93886792  4419.55310012
0.26500001 83595.45711507  4002.55067607
0.26600001 81705.14361851  4908.43673515
0.26700001 79856.27404479  4173.28907906
0.26800001 78047.13399496  4723.80300858
0.26900001 76276.94659453  4015.98142824
0.27000001 74546.08678239  4242.41799955
0.27100001 72853.71794320  2972.43183275
0.27200001 71199.68136629  2915.62708993
0.27300001 69582.61770188  2859.84572289
0.27400001 68001.49079786  3085.56779098
0.27500001 66459.18320885  3851.97444108
0.27600001 64950.87547500  2968.57990408
0.27700001 63479.76480537  3176.52758120
0.27800001 62043.00911174  4414.05009216
0.27900001 60641.04448269  2801.61638769
0.28000001 59273.19768250  2748.20194062
0.28100001 57938.70370790  3921.29165254
0.28200001 56637.87668968  3125.56137305
0.28300001 55369.96930128  2594.63688426
0.28400001 54134.20552136  3008.50861424
0.28500001 52930.77633850  3406.09561860
0.28600001 51757.63358752  2673.79947769
0.28700001 50616.12904231  2186.61687813
0.28800001 49504.31284784  2360.61326988
0.28900001 48424.16756323  2317.09652758
0.29000001 47371.86308745  2481.33830597
0.29100001 46350.06304978  2233.14614344
0.29200001 45356.31072248  2591.43293580
0.29300001 44390.71727135  2544.91994163
0.29400001 43452.65283316  1922.77997889
0.29500001 42542.91776596  1888.90563822
0.29600001 41659.16244808  2598.28208488
0.29700001 40801.63554634  2553.36647336
0.29800001 39970.92755364  1971.96580421
0.29900001 39165.41531183  2114.93252696
0.30000001 38384.95954563  2079.69720663
0.30100001 37630.38719387  2556.98493087
0.30200001 36898.88572681  2347.87620995
0.30300001 36191.70249350  1815.37588302
0.30400001 35508.84515838  1949.43569148
0.30500001 34847.75788332  2079.36581134
0.30600001 34209.70342897  2520.57106798
0.30700001 33594.51788286  1862.48015960
0.30800001 33001.01738502  1988.47639668
0.30900001 32428.97916582  1507.94760260
0.31000001 31878.75127198  1635.85819897
0.31100001 31347.67238280  1613.77825067
0.31200001 30838.06931427  1882.20164971
0.31300001 30348.00941248  1715.26957321
0.31400001 29878.89136016  2117.66652542
0.31500001 29427.82287380  1394.87887026
0.31600002 28995.94017216  1516.63272251
0.31700002 28582.08741205  1636.03876093
0.31800002 28186.61405888  1618.47545589
0.31900002 27809.19412366  1868.77793359
0.32000002 27449.04450008  1453.83871079
0.32100002 27106.26002537  1963.84863183
0.32200002 26780.22249435  1427.25202542
0.32300002 26469.89026663  1672.36774623
0.32400002 26175.93794156  1786.50784911
0.32500002 25897.31758906  1646.29255709
0.32600002 25634.41098089  1634.57829360
0.32700002 25386.49926455  1249.01582296
0.32800002 25154.00075872  1365.48499585
0.32900002 24934.56768418  1357.68727469
0.33000002 24730.89772349  1596.25586915
0.33100002 24538.41630450  1710.81846576
0.33200002 24362.07682729  1216.88579515
0.33300002 24197.31140620  1697.19950240
0.33400002 24046.23846653  1329.15589418
0.33500002 23907.16444023  1566.39748830
0.33600002 23780.21493078  1682.92589035
0.33700002 23664.69570812  1559.74016799
0.33800002 23561.95657341  1917.00087760
0.33900002 23469.54683770  1915.11511265
0.34000002 23388.68783235  1555.23087106
0.34100002 23318.44964092  1794.35478485
0.34200002 23259.70917156  2034.41055904
0.34300002 23209.68057305  1317.38153172
0.34400002 23170.78908247  1318.99723099
0.34500002 23140.77193696  2161.81101673
0.34600002 23121.68725096  1684.87742977
0.34700002 23109.44914095  1447.57596275
0.34800002 23107.92499976  1330.66992413
0.34900002 23114.40630333  1941.61022144
0.35000002 23129.58318123  1704.88165704
0.35100002 23152.88642762  1344.71970741
0.35200002 23183.36148195  1227.55904861
0.35300002 23222.09415249  1233.09325790
0.35400002 23268.56882018  1486.86161803
0.35500002 23321.86066048  1369.92616008
0.35600002 23381.82770745  1878.14539956
0.35700002 23448.69373818  2014.71186141
0.35800002 23522.73926530  1900.04935415
0.35900002 23602.53861283  1656.89828910
0.36000002 23689.13601044  1795.87348601
0.36100002 23780.96598188  1678.69846817
0.36200002 23879.43799858  1690.30609879
0.36300002 23981.70442273  1571.28134820
0.36400002 24090.11404293  1318.93380632
0.36500002 24202.94434164  1594.49004875
0.36600002 24321.41609858  1606.67282358
0.36700002 24444.09809456  1484.24570661
0.36800002 24572.66683504  1632.11660849
0.36900002 24704.32910379  1508.19936323
0.37000002 24839.39052101  1520.54336277
0.37100002 24978.73899116  1672.57644208
0.37200002 25122.43068895  1686.72007636
0.37300002 25268.98134729  1984.62588903
0.37400002 25420.00333724  1572.86278100
0.37500002 25573.14208471  1442.32528190
0.37600002 25730.24322837  1891.55892054
0.37700002 25889.14020082  1467.91431892
0.37800002 26051.63866582  1777.24287397
0.37900002 26216.47392651  2092.07471844
0.38000002 26383.90636285  1507.84032007
0.38100002 26552.90415985  1977.92592457
0.38200002 26724.49328122  1995.91887526
0.38300002 26897.63825058  1859.16484396
0.38400002 27073.26010052  1719.82892936
0.38500002 27249.63789735  1735.52951990
0.38600002 27428.45799694  1751.44426837
0.38700002 27607.67377547  2088.79669681
0.38800002 27788.14628741  2270.01377776
0.38900002 27969.91794969  1799.86430533
0.39000002 28153.25937085  2146.54536243
0.39100002 28336.54771239  2166.04580975
0.39200002 28521.38742733  2017.60304220
0.39300002 28706.01802017  1866.17831990
0.39400002 28892.22228880  2396.60995240
0.39500002 29077.54710168  2245.36829357
0.39600002 29263.50309911  2091.17003054
0.39700002 29449.00064562  2109.72650621
0.39800002 29635.93757939  1951.08204298
0.39900002 29821.56950490  2326.08253159
0.40000002 30006.84535344  2165.89420023
0.40100002 30191.90260978  2002.62899499
0.40200002 30377.54687605  2938.11647306
0.40300002 30561.48421899  3148.44425341
0.40400002 30745.10265329  2054.54158215
0.40500002 30927.97255928  2071.86497991
0.40600002 31110.32062568  2089.21368061
0.40700002 31291.40213529  2106.53729156
0.40800002 31471.68959117  2510.02472227
0.40900002 31650.31340552  2335.79324000
0.41000002 31828.59916787  2550.90320118
0.41100002 32005.25608360  2373.50990362
0.41200002 32179.84115364  2392.24950471
0.41300002 32353.73766716  2210.08392476
0.41400002 32525.65551491  2024.72215174
0.41500002 32696.76125222  2040.27799881
0.41600002 32864.93426652  2055.70173578
0.41700002 33032.19422611  3106.67801417
0.41800002 33198.47628590  2086.52433344
0.41900002 33360.90438969  2311.91078375
0.42000002 33522.14884051  2963.69331942
0.42100002 33682.02727339  2984.90139841
0.42200002 33839.58627525  2576.54622109
0.42300002 33994.63909286  3026.88280826
0.42400002 34147.38517106  2612.27508937
0.42500002 34298.44518889  2849.17197685
0.42600002 34445.72938275  3088.74870012
0.42700002 34592.07331133  2442.89233301
0.42800002 34735.53600602  3129.32458707
0.42900002 34876.98380224  2924.43523040
0.43000002 35015.95862395  2490.16001554
0.43100002 35151.01989426  3872.23653505
0.43200002 35284.35540536  3895.92228670
0.43300002 35414.67101348  2536.04471145
0.43400002 35542.74703995  2319.16435426
0.43500002 35667.55531050  3032.45569620
0.43600002 35790.63171667  3753.72163233
0.43700002 35909.95320920  2359.28403765
0.43800002 36025.60897931  2846.74375645
0.43900002 36139.62120267  3816.34417986
0.44000002 36249.93808415  2637.72686969
0.44100002 36357.81682002  3133.68038022
0.44200002 36462.65623431  2422.94362159
0.44300002 36564.62997059  4383.36804860
0.44400002 36662.99969618  2691.98088027
0.44500002 36757.56453543  2459.08118396
0.44600002 36849.91333419  2470.78680615
0.44700002 36939.35350091  2978.78960748
0.44800002 37024.34265427  4737.82023229
0.44900002 37107.81988064  3506.68914491
0.45000002 37187.77050985  3522.05391191
0.45100002 37263.20643825  3284.37917112
0.45200002 37336.35678721  3298.10723310
0.45300002 37405.54747357  3820.97685551
0.45400002 37472.37997590  2813.23906002
0.45500002 37535.59434574  3080.92172991
0.45600002 37595.45124300  3608.03562679
0.45700002 37651.81924128  2845.34811492
0.45800002 37704.23935712  3893.90550415
0.45900002 37753.79581393  3647.01684847
0.46000002 37800.71608293  3398.09553333
0.46100002 37842.97970897  3147.02234175
0.46200002 37882.83223047  2894.05910541
0.46300002 37918.96901700  2903.07640553
0.46400002 37951.23160850  3970.64779523
0.46500002 37981.13596419  2920.36968270
0.46600002 38006.73833480  3194.84657585
0.46700002 38029.04268118  3737.49449185
0.46800002 38048.66852851  2944.39635363
0.46900002 38064.28864485  2683.53247665
0.47000002 38075.97500782  2959.07453798
0.47100002 38084.92174620  3505.33636366
0.47200002 38090.21651927  3513.25128717
0.47300002 38093.03220182  3250.09766151
0.47400002 38090.71004770  3528.15218539
0.47500002 38086.37983356  4350.98823841
0.47600002 38079.01991272  3541.92020506
0.47700002 38066.96619220  3002.34176588
