# SAXS profile: number of points = 501, q_min = 0, q_max = 0.5, delta_q = 0.001
#    q    intensity    error
0.00000000 1682732.95097189 302.89193117
0.00100000 1682663.72464591 605.75895526
0.00200000 1682455.98704092 1059.94730540
0.00300000 1682109.91093388 1110.19258076
0.00400000 1681625.36589673 1513.46288682
0.00500000 1681002.82140560 2118.06363881
0.00600000 1680241.97946178 1940.67956529
0.00700000 1679343.51493018 2418.25476200
0.00800000 1678306.87562899 2945.42869108
0.00900000 1677133.45870610 4025.12047296
0.01000000 1675822.34804425 3594.63909177
0.01100000 1674374.87519440 3616.64988789
0.01200000 1672790.43726483 4240.52394439
0.01300000 1671070.44103399 4211.09769714
0.01400000 1669214.12235471 4131.30513597
0.01500000 1667223.32876925 5601.87063411
0.01600000 1665096.82970614 4670.59681612
0.01700000 1662836.80618718 4938.62553592
0.01800000 1660442.80739077 7571.61954241
0.01900000 1657915.56098834 4973.74690739
0.02000000 1655255.71382806 6256.86688130
0.02100000 1652464.90360870 6543.76131497
0.02200000 1649541.33630588 7967.28501633
0.02300000 1646487.91326741 8298.29946059
0.02400000 1643304.43850528 8627.34869554
0.02500000 1639992.41878359 10233.55316058
0.02600000 1636551.89456129 7290.83902374
0.02700000 1632983.95313233 8230.23950074
0.02800000 1629288.47197990 8504.88621377
0.02900000 1625468.05123379 9508.98853632
0.03000000 1621522.99630223 8294.09050733
0.03100000 1617453.51347676 10869.28811069
0.03200000 1613260.71506991 7985.64090740
0.03300000 1608947.26199088 9026.19455588
0.03400000 1604511.30527677 10950.79016379
0.03500000 1599956.16628304 9503.74006659
0.03600000 1595281.52325282 11509.95672219
0.03700000 1590489.30258723 9972.36838842
0.03800000 1585580.59736881 11130.77630866
0.03900000 1580556.92041796 13276.67874635
0.04000000 1575417.16927133 12595.46085199
0.04100000 1570165.18760793 11870.44936871
0.04200000 1564801.42096759 13120.86052353
0.04300000 1559325.76481180 14408.17073566
0.04400000 1553742.17404118 16780.41625896
0.04500000 1548049.97667708 13886.00893601
0.04600000 1542249.81504083 13047.43404178
0.04700000 1536344.59827054 12167.84978420
0.04800000 1530334.83974532 11247.96159547
0.04900000 1524223.07713090 12574.84097166
0.05000000 1518008.77708763 12774.04445403
0.05100000 1511695.56655081 14149.47116206
0.05200000 1505281.54045480 20343.88096730
0.05300000 1498771.88252749 15782.06865874
0.05400000 1492165.46562759 14772.43879861
0.05500000 1485465.91113369 22460.24562410
0.05600000 1478671.61361803 15171.17146367
0.05700000 1471787.95002922 12804.55576295
0.05800000 1464813.27259989 16852.67748815
0.05900000 1457749.71939256 13119.74808730
0.06000000 1450599.89390082 15927.58757915
0.06100000 1443365.70884323 22819.61292320
0.06200000 1436047.26209096 14927.71198721
0.06300000 1428647.69509461 15086.52036557
0.06400000 1421165.49229435 16627.63703746
0.06500000 1413606.42269175 16793.64508715
0.06600000 1405968.81751808 18368.98346033
0.06700000 1398255.55703243 18540.86955394
0.06800000 1390469.43592208 18708.76713607
0.06900000 1382611.58055726 15969.16450310
0.07000000 1374681.05685772 16104.38933523
0.07100000 1366683.03291845 14760.17744685
0.07200000 1358616.28317007 17852.21879717
0.07300000 1350485.69193261 17988.47025940
0.07400000 1342290.71076871 15100.77120383
0.07500000 1334033.66932184 16728.78299742
0.07600000 1325714.49008774 19905.60400185
0.07700000 1317338.87675521 23119.29837108
0.07800000 1308905.00230252 18612.63000560
0.07900000 1300414.79771314 17165.47613494
0.08000000 1291872.82133358 21974.75772174
0.08100000 1283278.47698240 22098.05641044
0.08200000 1274633.12868333 20629.93815580
0.08300000 1265939.66344561 20736.09266043
0.08400000 1257198.58017826 19235.13917960
0.08500000 1248414.30191761 19325.45430092
0.08600000 1239585.54955726 17794.25139936
0.08700000 1230716.34827756 19494.54787214
0.08800000 1221804.92424162 21204.42545605
0.08900000 1212857.69398648 29472.44334818
0.09000000 1203873.14240499 19719.44299892
0.09100000 1194854.04108268 21435.68250410
0.09200000 1185801.34983332 23158.70145040
0.09300000 1176718.96045080 18250.91193424
0.09400000 1167604.53899759 23293.71164775
0.09500000 1158462.83027352 18350.05209403
0.09600000 1149294.52330800 18394.45971023
0.09700000 1140103.24971321 23463.32598217
0.09800000 1130889.24724832 20152.44733349
0.09900000 1121654.46667277 20189.78134948
0.10000000 1112398.96536518 18538.12962961
0.10100000 1103125.24764136 23628.94391579
0.10200000 1093835.78414307 21969.69275789
0.10300000 1084531.48449873 28761.77632188
0.10400000 1075214.74203875 23708.48617732
0.10500000 1065888.62257936 18642.39288603
0.10600001 1056549.37517373 28827.95105807
0.10700001 1047204.41341901 18661.18352528
0.10800001 1037851.43146121 28847.08189506
0.10900001 1028494.48660163 23758.22375869
0.11000001 1019133.76784350 23756.00924662
0.11100001 1009771.14278236 18660.57159703
0.11200001 1000409.43744912 18652.63483935
0.11300001 991046.98719340 18641.59470677
0.11400001 981688.93506400 20320.96191263
0.11500001 972334.83976635 23686.07781204
0.11600001 962986.43041493 28730.70150440
0.11700001 953646.35294055 21943.40361458
0.11800001 944312.79155238 23598.37777234
0.11900001 934990.52645762 23561.76237653
0.12000001 925679.09595292 23521.50693614
0.12100001 916382.29000360 18446.77636677
0.12200001 907098.40717326 23430.35296112
0.12300001 897831.02590001 20039.58944224
0.12400001 888580.02850416 18326.96395142
0.12500001 879347.62471676 23267.53924638
0.12600001 870136.36204463 16576.09847807
0.12700001 860945.72905424 21489.20640990
0.12800001 851776.36863981 23074.62291394
0.12900001 842631.48467422 16431.31472559
0.13000001 833511.49411633 22929.90228394
0.13100001 824416.54334685 19588.13799326
0.13200001 815350.35395703 19519.48839389
0.13300001 806313.29375783 17827.58776543
0.13400001 797304.70056442 17759.96304238
0.13500001 788327.89302184 20906.45670864
0.13600001 779382.33549554 22422.83084946
0.13700001 770470.74679254 19138.49425277
0.13800001 761591.93730212 17467.11190570
0.13900001 752751.01411050 23711.65806268
0.14000001 743945.19536513 23601.66243603
0.14100001 735177.27188076 17225.20429256
0.14200001 726446.83402395 17140.51385723
0.14300001 717758.72430290 21705.02484669
0.14400001 709106.59732865 18507.68306328
0.14500001 700500.06023493 19943.23765565
0.14600001 691933.65378183 19834.27912133
0.14700001 683413.22861309 16688.95183006
0.14800001 674934.87403550 19610.23369029
0.14900001 666501.24209875 17995.53438571
0.15000001 658114.63175491 14906.29711257
0.15100001 649774.44574936 17777.82967455
0.15200001 641483.30523370 19138.65531474
0.15300001 633240.10789946 19016.20133758
0.15400001 625044.49453674 17438.74222053
0.15500001 616900.62789266 14435.47537394
0.15600001 608805.81772749 14337.37768413
0.15700001 600765.77557435 24204.85424028
0.15800001 592773.37861245 16965.17489662
0.15900001 584837.00359013 15439.69762354
0.16000001 576951.48502864 16720.05482536
0.16100001 569123.63696343 16595.64603724
0.16200001 561347.84134268 15097.45090560
0.16300001 553628.81709717 17705.05040658
0.16400001 545965.15000679 16215.16572071
0.16500001 538358.22281830 21448.19260968
0.16600001 530807.92765385 19945.10882326
0.16700001 523314.88780664 15825.04295445
0.16800001 515878.60907673 15693.02802908
0.16900001 508503.09711665 15560.19550649
0.17000001 501185.44411636 14140.94797347
0.17100001 493927.10034213 12743.31979058
0.17200001 486728.81952987 21472.04288753
0.17300001 479590.31929093 20027.69267939
0.17400001 472513.34566014 12403.47590935
0.17500001 465496.47329575 15975.83971801
0.17600001 458539.07647385 13391.63436089
0.17700001 451645.49949300 13264.82894662
0.17800001 444812.90757429 13137.54984572
0.17900001 438041.97228890 13009.84719148
0.18000001 431334.36928137 16395.02015080
0.18100001 424690.18701648 12753.44691853
0.18200001 418105.91097519 14920.11013794
0.18300001 411587.27108531 18175.69474973
0.18400001 405130.34898667 11242.36771548
0.18500001 398737.84422218 15574.70093110
0.18600001 392408.49710025 13208.47063641
0.18700001 386142.36668408 14155.97983143
0.18800001 379939.51472281 14002.67147668
0.18900001 373802.74469561 10653.37872717
0.19000001 367725.62010667 11588.87346522
0.19100001 361717.71766110 11459.21783695
0.19200001 355770.35866998 11329.50760718
0.19300001 349889.24202093 12218.13290871
0.19400001 344071.33173867 10064.08692892
0.19500001 338317.86681856 10941.20032994
0.19600001 332627.49462328 10812.05722367
0.19700001 327002.33150540 11654.36364561
0.19800001 321440.90814239 12473.51502995
0.19900001 315944.39969979 11373.99892673
0.20000001 310509.82009497 11234.24582198
0.20100001 305140.99013927 10170.34968202
0.20200001 299834.60703730 11868.95348054
0.20300001 294592.97172958 10817.45443319
0.20400001 289414.70720795 9789.45293401
0.20500001 284299.01409523 11420.29193601
0.20600001 279247.34253372 11271.81951417
0.20700001 274258.52169815 10268.23953775
0.20800001 269332.34372179 10132.28324977
0.20900001 264471.28877188 9163.93058914
0.21000001 259670.31932342 8218.56599510
0.21100001 254932.07181030 10538.89234685
0.21200001 250255.88943226 8795.24364989
0.21300001 245641.30167302 8673.59477212
0.21400001 241089.52325141 9330.16499093
0.21500001 236599.66073381 8432.41230722
0.21600001 232169.37591394 8312.82489762
0.21700001 227800.88976221 12663.45206060
0.21800001 223492.92900415 9544.26598438
0.21900001 219244.28877624 11576.09899472
0.22000001 215055.47039383 7841.99809870
0.22100001 210928.74254464 7726.32020474
0.22200001 206860.19256857 6919.47376860
0.22300001 202850.61642901 8178.93724116
0.22400001 198898.00705004 8055.36966644
0.22500001 195007.13088313 8593.96466440
0.22600001 191172.22148782 7160.35589443
0.22700001 187396.22115550 7049.84617325
0.22800001 183676.83855341 7571.15964321
0.22900001 180013.87856794 9315.71865644
0.23000001 176407.92942135 6723.78854788
0.23100001 172859.55255397 6015.51271337
0.23200001 169365.01156143 8287.03040762
0.23300001 165927.13588487 5824.04274500
0.23400001 162544.28102753 7448.59203037
0.23500001 159214.62524041 6763.43760010
0.23600001 155940.22886500 6098.04293819
0.23700001 152719.20848666 5452.07600085
0.23800001 149551.58856269 5897.56717392
0.23900001 146437.02004040 6326.07956497
0.24000001 143374.81463333 7256.19971181
0.24100001 140365.53912405 7133.37703570
0.24200001 137407.47383596 6511.05345570
0.24300001 134500.38246492 6399.52850040
0.24400001 131643.61818346 5805.48383651
0.24500001 128837.44989233 6655.74297628
0.24600001 126081.13059213 5605.56733130
0.24700001 123374.83927611 7802.22520491
0.24800001 120716.51243164 4959.63814788
0.24900001 118106.41121354 4871.88969304
0.25000001 115544.83228181 4785.28945533
0.25100001 113030.21184195 4699.79643073
0.25200001 110563.60330985 5035.06673294
0.25300001 108143.60609933 5768.38022224
0.25400001 105768.88644645 4854.79211758
0.25500001 103439.85026270 4369.29948182
0.25600001 101156.41401545 4289.53793927
0.25700001 98917.44912132  5742.15819317
0.25800001 96722.30237976  4509.19395029
0.25900001 94571.38588038  5532.42633577
0.26000001 92464.03673847  3981.96393055
0.26100001 90397.22779526  5328.91683067
0.26200001 88375.42198943  3486.41056245
0.26300001 86393.69005315  4105.42834558
0.26400001 84453.22904185  5035.52401989
0.26500001 82554.32504171  4282.09304254
0.26600001 80694.88981509  3231.83049002
0.26700001 78876.30473485  3804.99312046
0.26800001 77096.88168533  3733.03118785
0.26900001 75355.79945722  3967.48302917
0.27000001 73653.51247678  3592.81850864
0.27100001 71989.05358028  2937.15352507
0.27200001 70362.38357696  4610.14359013
0.27300001 68772.10937125  3391.84059471
0.27400001 67217.19068856  3881.79294597
0.27500001 65700.46557319  3807.99916484
0.27600001 64217.31142707  3201.87529929
0.27700001 62770.76900624  3141.04942973
0.27800001 61357.78707796  3594.95291504
0.27900001 59979.38120428  2519.13412980
0.28000001 58634.34437671  3212.86905218
0.28100001 57322.11288524  3152.14313675
0.28200001 56043.12792175  3806.44942860
0.28300001 54796.41130173  2567.75995513
0.28400001 53581.38495602  2519.66474681
0.28500001 52397.98661283  3596.59797134
0.28600001 51244.54322524  2647.29322832
0.28700001 50122.12949802  2381.80370648
0.28800001 49028.95560518  2763.02692391
0.28900001 47966.79656351  2921.17804899
0.29000001 46932.13335246  3072.88157670
0.29100001 45927.39592874  2212.78204059
0.29200001 44950.18545169  2370.67289294
0.29300001 44000.67385421  1940.42980882
0.29400001 43078.24211751  2096.83353433
0.29500001 42183.66973314  2060.25052729
0.29600001 41314.59108930  2208.67814419
0.29700001 40471.17904046  1989.96796762
0.29800001 39654.13075891  2845.58055796
0.29900001 38861.97049345  1923.66763049
0.30000001 38094.28296247  2407.93974005
0.30100001 37351.98303651  2030.45389399
0.30200001 36632.35489366  2164.42279136
0.30300001 35936.62104145  1966.45199648
0.30400001 35264.78931677  1774.70060638
0.30500001 34614.27823628  1747.67499089
0.30600001 33986.49030370  2034.60133835
0.30700001 33381.00457446  1850.64298122
0.30800001 32796.86527409  1520.13477742
0.30900001 32233.64797039  1798.63764190
0.31000001 31692.02460213  1478.43301769
0.31100001 31169.06060219  1750.45452629
0.31200001 30667.24339997  1871.77528954
0.31300001 30184.44002411  2132.53078867
0.31400001 29722.26380064  2247.00324972
0.31500001 29277.85292810  1387.77029450
0.31600002 28852.18891796  2195.07463681
0.31700002 28444.16093147  2306.53711914
0.31800002 28054.19832050  1610.87214384
0.31900002 27682.04814036  1727.35988575
0.32000002 27326.61574170  1447.35427129
0.32100002 26988.29508389  1955.30207141
0.32200002 26666.42320976  1421.18709226
0.32300002 26359.93091326  2049.74832487
0.32400002 26069.43166418  1906.32728071
0.32500002 25793.90337265  1261.32193465
0.32600002 25533.96190575  1878.66133617
0.32700002 25288.54659317  1866.29482695
0.32800002 25058.31295899  1731.27892432
0.32900002 24840.76851699  1352.57990980
0.33000002 24638.80821361  2201.97039432
0.33100002 24447.74818784  1826.24687611
0.33200002 24272.47531616  1454.89223935
0.33300002 24108.63084546  1207.84246256
0.33400002 23958.16753703  1324.28777332
0.33500002 23819.36286164  1320.54553959
0.33600002 23692.52492181  1317.42291067
0.33700002 23576.72110369  1434.40777988
0.33800002 23473.62630101  1432.36074472
0.33900002 23380.51460823  1669.36882208
0.34000002 23298.79422641  1191.73338112
0.34100002 23227.43201190  1668.19424610
0.34200002 23167.36584847  2026.33374990
0.34300002 23115.76924009  1550.60587406
0.34400002 23075.02083190  1194.13238460
0.34500002 23043.14998001  1554.72140278
0.34600002 23021.88234693  1318.11793620
0.34700002 23007.33551826  1321.08126803
0.34800002 23003.13446173  1806.32121916
0.34900002 23006.99646551  1207.86737165
0.35000002 23019.23318565  1211.96268463
0.35100002 23039.40066939  1581.42453685
0.35200002 23066.72563084  2076.35140600
0.35300002 23102.02279335  1594.73270896
0.35400002 23144.93633265  1602.20829351
0.35500002 23194.56411813  1610.16671734
0.35600002 23250.67408780  1494.08838765
0.35700002 23313.57975962  1377.13322163
0.35800002 23383.47545185  1762.88029781
0.35900002 23459.03335996  1520.14543373
0.36000002 23541.30633579  1529.71415816
0.36100002 23628.54507473  1796.24208166
0.36200002 23722.49938133  1420.85916775
0.36300002 23819.99743832  3121.37261217
0.36400002 23923.60146802  1571.78069090
0.36500002 24031.48447470  1978.99284023
0.36600002 24145.01140141  1595.01952873
0.36700002 24262.55127157  2008.93934045
0.36800002 24385.88303329  2159.61390373
0.36900002 24512.30203793  2176.69252408
0.37000002 24642.04784307  1782.72903565
0.37100002 24776.03190776  1520.75291054
0.37200002 24914.26019649  1672.74350883
0.37300002 25055.25403417  2108.39972685
0.37400002 25200.68398663  1559.29239554
0.37500002 25348.13198602  2144.45206760
0.37600002 25499.60382275  1586.20293094
0.37700002 25652.70959019  1454.50870267
0.37800002 25809.47542613  1613.99562223
0.37900002 25968.51176622  1628.22576487
0.38000002 26130.06202955  1642.66642731
0.38100002 26293.22175613  2410.56268480
0.38200002 26458.87179703  2128.08715945
0.38300002 26626.17082092  1687.03426313
0.38400002 26795.90650107  1856.95640850
0.38500002 26966.24609089  1717.48029489
0.38600002 27139.17551684  1575.42921339
0.38700002 27312.43647047  1907.50065347
0.38800002 27486.93621320  2085.02164523
0.38900002 27662.81821133  2265.58491884
0.39000002 27840.20850792  1959.39396762
0.39100002 28017.62741704  2141.66754122
0.39200002 28196.49120333  1828.40155870
0.39300002 28375.23889840  1676.97669835
0.39400002 28555.58703699  2537.87791815
0.39500002 28735.15084438  2218.92845333
0.39600002 28915.24554832  2755.04472637
0.39700002 29095.03760421  2258.06597545
0.39800002 29276.15672899  2277.83148222
0.39900002 29455.96384293  1944.09370574
0.40000002 29635.74878948  2852.14459863
0.40100002 29815.13967069  2516.99421025
0.40200002 29995.21202821  2719.81597952
0.40300002 30173.70307871  2925.64238913
0.40400002 30351.70999597  1843.86646962
0.40500002 30529.22939009  2416.99920533
0.40600002 30706.15067583  2062.07164634
0.40700002 30882.02967860  2078.97833647
0.40800002 31057.12850822  1905.35492426
0.40900002 31230.58310193  2304.81714213
0.41000002 31403.72850490  2516.85194028
0.41100002 31575.38086260  2536.76621870
0.41200002 31745.07457677  2949.91119482
0.41300002 31914.00412357  2378.23169998
0.41400002 32081.27717624  3195.29535816
0.41500002 32247.60476371  2012.25063260
0.41600002 32411.11447558  3649.16755172
0.41700002 32573.83819369  2042.37975152
0.41800002 32735.65484688  2263.17960508
0.41900002 32893.68889128  2486.76299801
0.42000002 33050.74878988  2504.58586198
0.42100002 33206.39094337  3573.33989874
0.42200002 33359.83507459  2751.68612652
0.42300002 33510.92189238  2983.81262669
0.42400002 33659.76300175  2574.97199165
0.42500002 33807.06602487  2592.32594563
0.42600002 33950.66296281  2174.54006581
0.42700002 34093.44813508  2407.67942139
0.42800002 34233.36947856  2863.79265943
0.42900002 34371.43457413  2216.95763509
0.43000002 34507.14438124  2453.97568896
0.43100002 34639.02567764  2469.06986731
0.43200002 34769.32529424  2484.09456336
0.43300002 34896.66717809  2726.12776914
0.43400002 35021.92756884  2742.21705859
0.43500002 35144.03480824  2758.10398245
0.43600002 35264.49802271  2773.90554592
0.43700002 35381.29120227  2789.46113058
0.43800002 35494.53503027  3038.50981526
0.43900002 35606.29121792  2585.01686492
0.44000002 35714.45009491  3071.26428146
0.44100002 35820.39883122  2612.38181056
0.44200002 35923.28171331  2864.52261957
0.44300002 36023.49518439  2399.16489298
0.44400002 36120.11697733  2411.01792250
0.44500002 36213.19134710  3149.46140071
0.44600002 36304.02441972  3164.44043851
0.44700002 36392.15784979  2690.10843574
0.44800002 36476.08402350  2456.66437541
0.44900002 36558.40367067  2961.23083766
0.45000002 36637.32533228  2478.51517619
0.45100002 36711.98451175  3235.79446822
0.45200002 36784.41310668  2999.40118687
0.45300002 36853.11600790  2509.69731908
0.45400002 36919.40236588  3275.67413016
0.45500002 36982.28169005  3794.38228123
0.45600002 37041.82392952  4062.74744114
0.45700002 37098.14495307  3058.37121488
0.45800002 37150.63347734  2813.60335975
0.45900002 37200.32073632  3336.86892820
0.46000002 37247.52345477  2575.66636897
0.46100002 37290.18722128  3101.05211629
0.46200002 37330.56436862  3629.65094559
0.46300002 37367.24088613  3120.91210673
0.46400002 37400.29116064  3391.27156172
0.46500002 37431.03302885  3663.00106581
0.46600002 37457.62249227  2886.29723794
0.46700002 37481.05326240  3420.52108285
0.46800002 37501.91784335  4221.21607252
0.46900002 37518.76799950  2909.58059626
0.47000002 37532.01358386  2916.80057392
0.47100002 37542.55908962  2923.81464048
0.47200002 37549.52098504  3463.38023221
0.47300002 37554.06214558  2937.10333962
0.47400002 37553.74484881  3210.84533676
0.47500002 37551.41886714  2949.28857761
0.47600002 37546.10185485  4029.63557257
0.47700002 37536.37124642  2691.35794593
