# SAXS profile: number of points = 501, q_min = 0, q_max = 0.5, delta_q = 0.001
#    q    intensity    error
0.00000000 1700912.83420645 306.16431016
0.00100000 1700843.03174207 561.27821380
0.00200000 1700633.56960030 841.81364361
0.00300000 1700284.61217795 1122.18788401
0.00400000 1699796.03394525 1784.78590346
0.00500000 1699168.31945575 1835.10185765
0.00600000 1698401.13652192 2139.98551914
0.00700000 1697495.18237272 2851.79202491
0.00800000 1696449.91772417 2290.20748562
0.00900000 1695266.74458138 3051.48027069
0.01000000 1693944.70607522 3074.50977428
0.01100000 1692485.17193260 4265.06281897
0.01200000 1690887.53875629 3956.67701417
0.01300000 1689153.20351607 4966.11063737
0.01400000 1687281.40262916 3796.38332421
0.01500000 1685274.00240695 4449.12356447
0.01600000 1683129.75248349 4721.17916677
0.01700000 1680850.88012161 5899.78685388
0.01800000 1678436.85117630 8132.02690987
0.01900000 1675888.46095386 9552.56465847
0.02000000 1673206.37963854 7378.84046799
0.02100000 1670392.22870501 8268.44190697
0.02200000 1667444.20022774 5752.68275214
0.02300000 1664365.20156209 6590.88649819
0.02400000 1661154.99464028 9966.93042231
0.02500000 1657815.20304197 7758.57550458
0.02600000 1654345.77123512 7370.11074795
0.02700000 1650747.89544570 10399.71221763
0.02800000 1647021.36358135 9313.90623818
0.02900000 1643168.77244914 8873.11177863
0.03000000 1639190.48010729 9146.68329943
0.03100000 1635086.72736637 8633.25831774
0.03200000 1630858.59465434 8072.75041535
0.03300000 1626508.70496607 9124.71425551
0.03400000 1622035.28638221 16179.80272820
0.03500000 1617441.61554984 8734.18512730
0.03600000 1612727.40591619 10740.76501977
0.03700000 1607894.53486166 9164.99927257
0.03800000 1602944.17243652 13128.11337982
0.03900000 1597877.84506610 10545.99426582
0.04000000 1592694.39491879 13713.09937570
0.04100000 1587397.72647348 10000.60614048
0.04200000 1581988.25058126 11224.20715860
0.04300000 1576465.87933504 12485.61034389
0.04400000 1570834.50916626 13784.07345809
0.04500000 1565093.66473353 10799.14678844
0.04600000 1559243.81263934 12091.93632913
0.04700000 1553287.98011883 15657.14356778
0.04800000 1547226.60030110 15920.96245787
0.04900000 1541062.26765196 12713.76429992
0.05000000 1534794.61821605 12915.29731370
0.05100000 1528426.91396405 13113.90353271
0.05200000 1521957.56333982 14519.47583089
0.05300000 1515391.59853667 12274.67252037
0.05400000 1508728.00364941 17425.80925478
0.05500000 1501970.31114658 13878.20632240
0.05600000 1495117.08218753 15339.90197907
0.05700000 1488173.46346207 14241.82071012
0.05800000 1481138.05288133 15729.68685606
0.05900000 1474012.77314334 17245.95025126
0.06000000 1466800.58100057 16105.47113181
0.06100000 1459503.01561011 14930.71654742
0.06200000 1452120.37206644 16467.04578896
0.06300000 1444655.88316425 18029.30626486
0.06400000 1437107.83892444 21017.70312720
0.06500000 1429482.08433835 14151.87329694
0.06600000 1421777.07583964 17146.63233689
0.06700000 1413995.51817302 15865.03045637
0.06800000 1406140.52212913 17464.26610233
0.06900000 1398212.91159806 19085.60713688
0.07000000 1390211.80327905 16286.33203808
0.07100000 1382142.55125805 19405.28232856
0.07200000 1374003.62193734 16549.87440154
0.07300000 1365800.43416647 16676.42408256
0.07400000 1357531.88587694 18326.68131820
0.07500000 1349200.64441459 21533.24329417
0.07600000 1340806.58289296 18583.58011011
0.07700000 1332355.44001528 18706.27125492
0.07800000 1323845.24803472 17256.32361739
0.07900000 1315278.04889613 17361.67105976
0.08000000 1306658.63641763 22226.26444812
0.08100000 1297986.25141938 17561.75480567
0.08200000 1289261.91362621 24076.96736679
0.08300000 1280489.14972215 16134.16404371
0.08400000 1271668.02068818 24320.65203724
0.08500000 1262803.07088662 22806.22453085
0.08600000 1253893.10913888 19635.96701105
0.08700000 1244941.98045262 24649.85237046
0.08800000 1235948.39471801 19799.89421326
0.08900000 1226918.25675703 24845.09586630
0.09000000 1217850.15012788 18286.02086317
0.09100000 1208747.05024137 20016.85209241
0.09200000 1199609.97308790 18408.01590197
0.09300000 1190442.60586147 20142.28983771
0.09400000 1181242.75762994 20199.25210479
0.09500000 1172015.08767526 21940.12347253
0.09600000 1162760.32429101 20301.79621646
0.09700000 1153482.21697565 25434.28408005
0.09800000 1144181.06987644 20389.30762386
0.09900000 1134858.45055980 17022.87755885
0.10000000 1125514.84083861 18756.70570465
0.10100000 1116152.39735112 22200.27222743
0.10200000 1106774.16229108 22229.56009521
0.10300000 1097380.61129473 27390.62134639
0.10400000 1087974.22366487 20562.71379464
0.10500000 1078558.06551666 18863.98145342
0.10600001 1069128.55508276 17159.51411649
0.10700001 1059692.73658761 25750.53471084
0.10800001 1050248.83617050 17171.56927951
0.10900001 1040800.50689352 20607.85100641
0.11000001 1031348.21749778 22323.53321850
0.11100001 1021893.82569023 20601.38049569
0.11200001 1012439.84192607 24025.19857994
0.11300001 1002984.85031910 18866.14592274
0.11400001 993534.15469976 18852.31147308
0.11500001 984087.32921400 18835.43236808
0.11600001 974645.88392932 18815.53967531
0.11700001 965212.51532559 17084.26232584
0.11800001 955785.51733755 23885.08120321
0.11900001 946369.58645558 23848.51470198
0.12000001 936964.26762666 20407.08271018
0.12100001 927573.61373685 20369.51751723
0.12200001 918195.54983337 22022.92130028
0.12300001 908833.88982137 21975.60449125
0.12400001 899488.52978018 23611.57501925
0.12500001 890161.60798203 18506.46070198
0.12600001 880855.76237173 23492.42428950
0.12700001 871570.57182833 25101.23365159
0.12800001 862306.33645724 20022.75407619
0.12900001 853066.77421701 19961.76345752
0.13000001 843852.02093477 18239.86229224
0.13100001 834662.11077478 24789.46585853
0.13200001 825501.09880255 23056.24677643
0.13300001 816369.14819436 16409.02065228
0.13400001 807265.68931651 21251.27027316
0.13500001 798194.03993177 16283.15918233
0.13600001 789153.58321382 24325.66034954
0.13700001 780147.22859727 16149.04839344
0.13800001 771173.67032924 19294.76614150
0.13900001 762238.03024651 19208.39926805
0.14000001 753337.55952199 23899.63520296
0.14100001 744475.23112049 22200.25243904
0.14200001 735650.30681771 22091.57975569
0.14300001 726867.96697797 18840.41859273
0.14400001 718121.60553079 17181.06022275
0.14500001 709421.00050814 15536.32064401
0.14600001 700760.63087220 15451.77263966
0.14700001 692146.32888838 19975.34399409
0.14800001 683574.43184774 18333.46712710
0.14900001 675047.35005595 16707.42270215
0.15000001 666567.59037471 16607.53229778
0.15100001 658134.19522805 16506.00639515
0.15200001 649750.19315028 19385.29792737
0.15300001 641414.44806585 17780.00933941
0.15400001 633126.29120717 17664.22435827
0.15500001 624890.24395218 33631.59451668
0.15600001 616703.72727933 14523.37346286
0.15700001 608571.90019573 17307.78565844
0.15800001 600488.11188178 17185.97057321
0.15900001 592460.54057292 17062.86437388
0.16000001 584484.17333215 19761.41083315
0.16100001 576565.79340589 15411.60438523
0.16200001 568699.83294797 15295.18272916
0.16300001 560890.84566326 13797.91545469
0.16400001 553137.49035115 13690.15353250
0.16500001 545441.46393387 17655.94102110
0.16600001 537802.09705478 22902.30338437
0.16700001 530220.54417783 16033.87001297
0.16800001 522695.95651646 22525.58330965
0.16900001 515232.80211167 18393.81190391
0.17000001 507827.63604231 16933.51332343
0.17100001 500482.31281717 15494.93313651
0.17200001 493197.28291630 17917.85813448
0.17300001 485972.62229605 20294.21766547
0.17400001 478809.80188715 13825.63368242
0.17500001 471707.54898331 16189.00384567
0.17600001 464665.13733356 14804.23197464
0.17700001 457687.03094049 12220.24430328
0.17800001 450770.37661394 16944.45925724
0.17900001 443915.86596624 16780.02052610
0.18000001 437124.99178874 11867.94408765
0.18100001 430398.08080579 12924.85497712
0.18200001 423731.62399356 12794.57699087
0.18300001 417131.34336539 12664.10818282
0.18400001 410593.09394364 11393.95889519
0.18500001 404119.99725378 11274.94845603
0.18600001 397710.25775672 16733.65988567
0.18700001 391364.45679291 19865.66076536
0.18800001 385082.24816513 15283.91515178
0.18900001 378866.82376904 14037.01648386
0.19000001 372711.70966054 11746.01008494
0.19100001 366626.00576593 19005.89303694
0.19200001 360601.74972604 10439.42114785
0.19300001 354644.14799898 12384.17423331
0.19400001 348750.19545361 19381.79302820
0.19500001 342921.34274232 10081.88795304
0.19600001 337156.28574479 14944.45307186
0.19700001 331456.63973832 10828.68893199
0.19800001 325821.67423196 10698.35517900
0.19900001 320252.07283094 12489.83143068
0.20000001 314744.90052660 11387.47103924
0.20100001 309304.22742911 14057.87780106
0.20200001 303926.57581266 11105.47760508
0.20300001 298614.25844858 9137.59674041
0.20400001 293365.97697497 9923.10464020
0.20500001 288180.84800269 9795.26748660
0.20600001 283060.16902888 10546.82239654
0.20700001 278003.08170205 10408.43587092
0.20800001 273009.26746342 13694.14550329
0.20900001 268081.22721980 10977.92677359
0.21000001 263213.87161088 12496.07914545
0.21100001 258409.96901214 11504.41236427
0.21200001 253668.64101274 8104.71346350
0.21300001 248989.72094035 9591.08450405
0.21400001 244374.14716951 9457.27994257
0.21500001 239821.13360499 10878.28713462
0.21600001 235328.23616482 9191.92133918
0.21700001 230897.87597660 7550.36090141
0.21800001 226528.71141190 8185.61537389
0.21900001 222219.51950736 8066.56893952
0.22000001 217970.84666369 10838.60086283
0.22100001 213785.04986804 7830.94674694
0.22200001 209657.83334479 11220.88777119
0.22300001 205590.54703802 11052.54833139
0.22400001 201580.60569297 12246.02237492
0.22500001 197633.05900302 8039.71322042
0.22600001 193742.35556475 9895.39127840
0.22700001 189911.13201703 8443.44932876
0.22800001 186137.24872798 6393.81479617
0.22900001 182420.31976985 6293.50132969
0.23000001 178761.23600929 8052.30025685
0.23100001 175160.44229567 7924.25878422
0.23200001 171614.01908308 9596.65640099
0.23300001 168125.06890316 6491.30921735
0.23400001 164691.62453791 6385.91804348
0.23500001 161312.17129073 8565.67670066
0.23600001 157988.65180448 8986.39493967
0.23700001 154719.20682608 7180.51872842
0.23800001 151503.93248420 6517.69948375
0.23900001 148342.29502473 8544.51659758
0.24000001 145233.64121032 6825.25529152
0.24100001 142178.64458182 6709.41055518
0.24200001 139175.45203984 5580.24001349
0.24300001 136224.06650183 6481.54139075
0.24400001 133323.53918303 6859.49641545
0.24500001 130474.36928107 5295.95489964
0.24600001 127675.57467719 5203.41829212
0.24700001 124927.68877432 5576.77229070
0.24800001 122228.37528601 5021.75303619
0.24900001 119577.95526216 8071.51236204
0.25000001 116976.65448032 4404.17124954
0.25100001 114423.07247181 6920.30775049
0.25200001 111918.12624554 5521.48101954
0.25300001 109460.35450525 5421.57161514
0.25400001 107048.67330252 4913.53433705
0.25500001 104683.21774078 5225.78647686
0.25600001 102364.10910800 7497.65952635
0.25700001 100090.03198471 5035.52974740
0.25800001 97860.53814605  5322.63492160
0.25900001 95675.82871045  4477.62899551
0.26000001 93535.28717732  4760.47866613
0.26100001 91436.01660523  4312.12274714
0.26200001 89382.40006341  3878.74943428
0.26300001 87369.56123895  3805.81826765
0.26400001 85398.41041029  4412.96306677
0.26500001 83469.54688282  3663.47858604
0.26600001 81580.92329764  3267.31613268
0.26700001 79733.50850663  3525.81591301
0.26800001 77926.13837757  4087.61578202
0.26900001 76157.56607991  3392.81972941
0.27000001 74428.31238371  3933.16435404
0.27100001 72737.69216088  3561.23757672
0.27200001 71085.40838792  3493.13713349
0.27300001 69470.09377904  3426.26518733
0.27400001 67890.71309084  2800.49204753
0.27500001 66350.25616825  2746.90073536
0.27600001 64843.81190849  3233.11261477
0.27700001 63374.52041567  2642.71762640
0.27800001 61939.49707169  2851.38488264
0.27900001 60539.47928809  3051.18990053
0.28000001 59173.54075307  2743.58134687
0.28100001 57840.95559687  2691.33979130
0.28200001 56542.17810575  2880.25868903
0.28300001 55276.11749360  3061.19153168
0.28400001 54042.44862134  3003.40922428
0.28500001 52840.91782792  2266.87548211
0.28600001 51669.86524426  2669.26536486
0.28700001 50530.26207377  2619.48890989
0.28800001 49420.53671484  3427.80858879
0.28900001 48342.56260649  3154.35235938
0.29000001 47292.29786440  3715.75601909
0.29100001 46272.55126974  2026.73784155
0.29200001 45280.96403993  2189.10831013
0.29300001 44317.45779524  1954.39998128
0.29400001 43381.53126581  2303.55941926
0.29500001 42473.93995702  2074.42732570
0.29600001 41592.49337118  2038.24023414
0.29700001 40737.09836754  2003.04322155
0.29800001 39908.42531020  2147.87155187
0.29900001 39105.25382936  2463.63110788
0.30000001 38327.02113987  2249.60461230
0.30100001 37574.69892529  2042.56073027
0.30200001 36845.41710311  1842.08671528
0.30300001 36140.40815858  1812.80295905
0.30400001 35459.83198578  2108.97360720
0.30500001 34801.00698699  2236.31281486
0.30600001 34165.29673216  1730.64318790
0.30700001 33552.33933052  1550.11815046
0.30800001 32961.13396971  1680.52349501
0.30900001 32391.40216127  2711.16048926
0.31000001 31843.44865710  1782.59634022
0.31100001 31314.72214039  1612.08197211
0.31200001 30807.43067664  1880.33162037
0.31300001 30319.69397104  1570.86341901
0.31400001 29852.92790414  1551.60600128
0.31500001 29404.13671741  2090.63421959
0.31600002 28974.62747201  1928.84104214
0.31700002 28563.00064274  1771.19175372
0.31800002 28169.90222215  1752.30885070
0.31900002 27794.87559309  1467.56950080
0.32000002 27437.07374168  1453.20467954
0.32100002 27096.62784198  1439.64390541
0.32200002 26772.90753822  1556.57691798
0.32300002 26464.89070249  1286.19374904
0.32400002 26173.28382400  1275.94764684
0.32500002 25896.97072476  1772.90669977
0.32600002 25636.49274880  1634.71103753
0.32700002 25390.81701066  1249.22825608
0.32800002 25160.67765560  1241.67950110
0.32900002 24943.54114203  1481.64641400
0.33000002 24742.22442859  1719.83210147
0.33100002 24552.04107112  1344.96087357
0.33200002 24378.02867151  1461.21910777
0.33300002 24215.60822538  1819.80304431
0.33400002 24066.81045472  1572.16446741
0.33500002 23929.96457728  1206.07027181
0.33600002 23805.41399713  1323.70010800
0.33700002 23692.04657210  1441.42418171
0.33800002 23591.58980759  1439.55887823
0.33900002 23501.50905372  1917.72322960
0.34000002 23422.77626631  1317.88256904
0.34100002 23354.86801453  1317.91526447
0.34200002 23298.37143999  1438.44152083
0.34300002 23250.51003020  1319.69901181
0.34400002 23213.75442557  1681.83658778
0.34500002 23185.99929757  1805.03013080
0.34600002 23169.07628445  1567.73562104
0.34700002 23158.99739031  1934.23955365
0.34800002 23159.52997627  1818.60217752
0.34900002 23168.17896623  1337.96239867
0.35000002 23185.53709058  1342.79044420
0.35100002 23210.90552566  1838.30380470
0.35200002 23243.46303952  1353.81556886
0.35300002 23284.21261172  1236.39174824
0.35400002 23332.76457890  1242.46977267
0.35500002 23388.06689326  1373.81511438
0.35600002 23450.11205805  1883.63034028
0.35700002 23518.96422067  1641.85897001
0.35800002 23594.96745448  1270.58905761
0.35900002 23676.71892361  1534.25145892
0.36000002 23765.24830379  1415.57708227
0.36100002 23858.90095379  1684.19989810
0.36200002 23959.28462890  1304.58310984
0.36300002 24063.43908553  1839.40937083
0.36400002 24173.65521664  1588.20922296
0.36500002 24288.34270808  1866.80210897
0.36600002 24408.62561121  1612.43388425
0.36700002 24533.07547772  1625.07099662
0.36800002 24663.33533695  1638.13881068
0.36900002 24796.71869575  1789.08333865
0.37000002 24933.47755802  1803.81251938
0.37100002 25074.48614800  1818.90331134
0.37200002 25219.88551394  1552.15792748
0.37300002 25368.02282610  2134.71922194
0.37400002 25520.64308993  1435.53624181
0.37500002 25675.23618952  1882.50840659
0.37600002 25833.98832191  1607.00331969
0.37700002 25994.31821205  1768.65349493
0.37800002 26158.35286684  1635.81267402
0.37900002 26324.63443636  2100.70592754
0.38000002 26493.45782153  1665.51130485
0.38100002 26663.83002156  1986.18879240
0.38200002 26836.75329420  2004.30301473
0.38300002 27011.28059989  1555.84983626
0.38400002 27188.25717072  1727.13411859
0.38500002 27365.83241378  2059.82630337
0.38600002 27545.90261973  1758.94369511
0.38700002 27726.28200619  2259.13756489
0.38800002 27907.89978447  1954.11123549
0.38900002 28090.86933490  1807.64752734
0.39000002 28275.31368147  1824.18194858
0.39100002 28459.63422119  3012.16782868
0.39200002 28645.49648582  1688.65209784
0.39300002 28831.14756920  2385.48926289
0.39400002 29018.31162811  2235.13555905
0.39500002 29204.60390724  1734.75355428
0.39600002 29391.40814850  1750.25843817
0.39700002 29577.82619957  2648.69446166
0.39800002 29765.57620401  2315.91076628
0.39900002 29951.89890609  1976.82542146
0.40000002 30137.95450917  2719.19707442
0.40100002 30323.79782195  2742.78764295
0.40200002 30510.06104541  2213.19993309
0.40300002 30694.74233175  2418.13191547
0.40400002 30878.86797414  3376.60437296
0.40500002 31062.32666699  2270.03494038
0.40600002 31245.19191984  3242.78239705
0.40700002 31426.83235279  2884.98334668
0.40800002 31607.58796390  2520.86329750
0.40900002 31786.65153816  2345.85499467
0.41000002 31965.30148576  2167.72702297
0.41100002 32142.36661825  2582.31785647
0.41200002 32317.23835976  2602.66891462
0.41300002 32491.33802169  2421.25462410
0.41400002 32663.58667192  2643.30087667
0.41500002 32834.84420061  2663.56268776
0.41600002 33003.15983421  2890.08684362
0.41700002 33170.58261675  2287.77519148
0.41800002 33336.90689984  2095.22469794
0.41900002 33499.35674834  2954.64340521
0.42000002 33660.76133748  2338.24489710
0.42100002 33820.55091724  2997.17736431
0.42200002 33978.01998584  4096.22039349
0.42300002 34132.95091570  2822.11251544
0.42400002 34285.58047644  2404.27644484
0.42500002 34436.48410472  3300.73715785
0.42600002 34583.52722488  3322.61253558
0.42700002 34729.66983578  3567.43185458
0.42800002 34872.84715086  2917.28816665
0.42900002 35013.96868742  2935.92141357
0.43000002 35152.58059645  2954.39877623
0.43100002 35287.28532300  2743.93943674
0.43200002 35420.14069544  2530.59207190
0.43300002 35549.97828580  2777.16443529
0.43400002 35677.58918584  2560.75908516
0.43500002 35801.80217104  2341.43797294
0.43600002 35924.31311599  3296.77437088
0.43700002 36043.01896980  4025.64497951
0.43800002 36158.00044459  2619.10488632
0.43900002 36271.28902403  3830.24830245
0.44000002 36380.92343704  3850.55711905
0.44100002 36488.11617430  2661.07843870
0.44200002 36592.10093465  3890.47235574
0.44300002 36693.25799515  3421.27953760
0.44400002 36790.66885930  3192.51044156
0.44500002 36884.39607418  4194.86256431
0.44600002 36975.79516509  2727.14990164
0.44700002 37064.29432265  2988.86483582
0.44800002 37148.30803064  3002.32639732
0.44900002 37230.70286590  3769.60884382
0.45000002 37309.55158367  2523.99128425
0.45100002 37383.95420118  3548.48510095
0.45200002 37455.96998439  3054.15993727
0.45300002 37524.03526586  3577.54169180
0.45400002 37589.60803029  3078.58904358
0.45500002 37651.59014412  3090.44266550
0.45600002 37710.19754338  2585.03416411
0.45700002 37765.28323513  3632.26511370
0.45800002 37816.40807705  2864.02580145
0.45900002 37864.62110926  2612.65898036
0.46000002 37910.14558426  3407.93269881
0.46100002 37950.96879772  3156.00271480
0.46200002 37989.39204526  2638.36340259
0.46300002 38024.07810533  3175.77115387
0.46400002 38054.84285798  3185.19049818
0.46500002 38083.21210072  3726.82331281
0.46600002 38107.25450928  3470.23729636
0.46700002 38127.99115433  2944.24361648
0.46800002 38146.02355392  2951.93017263
0.46900002 38159.98085545  3497.36241116
0.47000002 38170.01483467  5123.75218418
0.47100002 38177.33659967  3243.54667124
0.47200002 38180.94768089  2708.93836635
0.47300002 38182.02060349  4886.53522844
0.47400002 38177.95239209  3264.21508424
0.47500002 38171.87869553  2725.47226804
0.47600002 38162.64359587  2730.53727871
0.47700002 38148.78157050  3555.84809873
