# SAXS profile: number of points = 501, q_min = 0, q_max = 0.5, delta_q = 0.001
#    q    intensity    error
0.00000000 1682732.95097189 277.65093691
0.00100000 1682663.73100654 605.75895755
0.00200000 1682456.01351161 832.81575306
0.00300000 1682109.97000444 1110.19261975
0.00400000 1681625.46651943 1891.82872172
0.00500000 1681002.97996103 2571.93466114
0.00600000 1680242.19840927 2999.23244627
0.00700000 1679343.80660871 2216.73391685
0.00800000 1678307.25899742 3172.00085343
0.00900000 1677133.95438081 3521.98145476
0.01000000 1675822.94636598 3594.64037517
0.01100000 1674375.61155946 5123.58959445
0.01200000 1672791.29637993 4240.52612224
0.01300000 1671071.46486273 4211.10027718
0.01400000 1669215.31814504 6384.74887495
0.01500000 1667224.69402741 4401.47338822
0.01600000 1665098.36806888 5095.20123406
0.01700000 1662838.55265846 4489.66429358
0.01800000 1660444.76347097 5678.72134660
0.01900000 1657917.73408465 5968.50411202
0.02000000 1655258.12539062 5214.06333084
0.02100000 1652467.56793092 6543.77186569
0.02200000 1649544.23789595 7967.29903101
0.02300000 1646491.09405161 6520.10502923
0.02400000 1643307.89613902 6778.64538066
0.02500000 1639996.15621911 7035.58383150
0.02600000 1636555.91820015 9942.07765780
0.02700000 1632988.29042964 9601.97158751
0.02800000 1629293.12303606 7796.16795126
0.02900000 1625473.05569798 8046.09199513
0.03000000 1621528.30245363 10556.14973419
0.03100000 1617459.22966591 8540.18512560
0.03200000 1613266.78335386 10381.37222903
0.03300000 1608953.68064803 9846.79697951
0.03400000 1604518.12308837 8423.72053489
0.03500000 1599963.38802962 11231.74350263
0.03600000 1595289.14652859 13280.78275861
0.03700000 1590497.33133479 9972.41872867
0.03800000 1585589.02284871 11130.83545553
0.03900000 1580565.80977502 9483.39529783
0.04000000 1575426.51305679 10657.76085470
0.04100000 1570174.98871519 13848.94404260
0.04200000 1564811.62680036 16148.85673777
0.04300000 1559336.40855251 12349.94492900
0.04400000 1553753.31034242 11536.61886508
0.04500000 1548061.67899914 14954.27651398
0.04600000 1542261.96940243 13047.53686768
0.04700000 1536357.31506130 14380.30513777
0.04800000 1530347.97908355 13497.66980354
0.04900000 1524236.74153302 12574.95370298
0.05000000 1518022.98407416 12774.16400583
0.05100000 1511710.29380741 20045.27942968
0.05200000 1505296.85554223 15557.24372702
0.05300000 1498787.76607794 14568.21776542
0.05400000 1492181.90078136 14772.60150664
0.05500000 1485482.88810867 12478.05684221
0.05600000 1478689.19163319 12642.79317843
0.05700000 1471806.04425849 15365.65581930
0.05800000 1464831.99614554 19445.64565680
0.05900000 1457769.06194473 18367.89103839
0.06000000 1450619.79646881 14600.48893358
0.06100000 1443386.11718077 18792.88812391
0.06200000 1436068.25529532 13570.84564689
0.06300000 1428669.38397626 16458.27207292
0.06400000 1421187.82023298 20784.87284295
0.06500000 1413629.39515569 15394.42483336
0.06600000 1405992.43581144 14130.22464104
0.06700000 1398279.69509948 15688.69891323
0.06800000 1390494.28598083 21587.42480034
0.06900000 1382637.17078219 24680.07465396
0.07000000 1374707.22346419 14640.63261549
0.07100000 1366709.94166197 20664.65528582
0.07200000 1358643.77261172 22315.72501057
0.07300000 1350513.87023575 14990.70466202
0.07400000 1342319.60141799 15101.09622365
0.07500000 1334063.13190563 19770.81654155
0.07600000 1325744.66257608 16843.58672767
0.07700000 1317369.72480886 16954.54915326
0.07800000 1308936.47463275 23266.34692770
0.07900000 1300446.83511510 24968.58040533
0.08000000 1291905.59465315 21975.31519594
0.08100000 1283312.08313809 20520.16117215
0.08200000 1274667.30196181 22217.45211575
0.08300000 1265974.58831481 19141.53667367
0.08400000 1257234.14539494 20838.65693806
0.08500000 1248450.62609089 24157.52074894
0.08600000 1239622.49234118 24265.61142689
0.08700000 1230753.97050447 21119.73912559
0.08800000 1221843.28162517 19573.93029090
0.08900000 1212896.75221120 19648.92830873
0.09000000 1203912.80072958 18076.75155212
0.09100000 1194894.45491543 18138.49867778
0.09200000 1185842.43352905 16542.50272501
0.09300000 1176760.77520573 23229.25879415
0.09400000 1167646.97249776 24958.45521012
0.09500000 1158505.99219434 18350.73577889
0.09600000 1149338.39347905 20067.44929347
0.09700000 1140147.75003915 25140.25907028
0.09800000 1130934.52212462 20153.25413182
0.09900000 1121700.41378527 23555.70979714
0.10000000 1112445.49499779 18538.90504597
0.10100000 1103172.40193716 21942.10010651
0.10200000 1093883.72601116 25350.75654271
0.10300000 1084580.05296571 20303.33954660
0.10400000 1075264.06893780 20322.49185900
0.10500000 1065938.55369197 18643.26618123
0.10600001 1056600.01094878 18654.27407105
0.10700001 1047255.77970777 25448.31664444
0.10800001 1037903.36411571 20363.66496230
0.10900001 1028547.00479488 25456.53956680
0.11000001 1019186.97052803 23757.24940125
0.11100001 1009825.02588401 20358.07348014
0.11200001 1000463.89568152 18653.65021314
0.11300001 991101.99234192 20337.41384036
0.11400001 981744.58485108 16935.09488606
0.11500001 972391.21882781 18611.56880475
0.11600001 963043.31112159 18591.55199671
0.11700001 953703.92913477 23632.78447694
0.11800001 944370.94021796 21914.12869988
0.11900001 935049.29421269 16830.88808859
0.12000001 925738.44383301 21842.79961114
0.12100001 916442.31488010 21802.16369806
0.12200001 907159.00503786 20084.50131774
0.12300001 897892.09569422 16700.79376676
0.12400001 888641.70747103 16662.03280015
0.12500001 879409.77650086 18282.93011495
0.12600001 870199.12318738 21550.48230127
0.12700001 861009.02990615 21490.78639924
0.12800001 851840.14662058 19779.72913673
0.12900001 842695.79865512 27935.36704207
0.13000001 833576.37518088 16379.77654436
0.13100001 824481.88066936 16324.74200676
0.13200001 815416.13572983 22774.57374454
0.13300001 806379.65882618 17829.05509716
0.13400001 797371.58577096 20990.80798505
0.13500001 788395.20186527 16083.26287635
0.13600001 779450.11589778 17619.47070064
0.13700001 770539.08420369 19140.19175414
0.13800001 761660.62543223 19056.74974695
0.13900001 752820.21833025 18971.07039656
0.14000001 744014.75687907 18883.09542013
0.14100001 735247.32130738 15660.76868246
0.14200001 726517.19508876 18700.55348360
0.14300001 717829.58018351 17055.63162963
0.14400001 709177.81740442 20052.00373296
0.14500001 700571.72526312 24548.03441120
0.14600001 692005.62500566 15258.72475119
0.14700001 683485.52728134 16690.71736362
0.14800001 675007.44719897 18103.70058799
0.14900001 666574.26879832 22496.88263336
0.15000001 658187.99884701 31306.71364230
0.15100001 649848.18987859 14816.53942835
0.15200001 641557.20430413 16196.11238690
0.15300001 633314.37031534 16092.51890910
0.15400001 625119.05534303 20347.62621164
0.15500001 616975.48657563 14437.22706721
0.15600001 608880.88762004 18640.88925424
0.15700001 600841.15761722 17087.92332913
0.15800001 592848.97124325 18381.28322097
0.15900001 584912.74355964 15441.69715883
0.16000001 577027.55689632 18115.78100387
0.16100001 569199.67517247 19364.17386344
0.16200001 561424.23305965 16472.18777556
0.16300001 553705.37652048 19069.61406760
0.16400001 546041.82059251 22974.71068606
0.16500001 538435.01705848 14747.73581349
0.16600001 530884.91820362 14628.53461176
0.16700001 523391.93993617 18465.26851278
0.16800001 515955.78250387 14387.42767444
0.16900001 508580.52825664 15562.56489949
0.17000001 501262.72289019 19286.08417388
0.17100001 494004.58433626 16568.91454104
0.17200001 486806.39216292 16422.41441513
0.17300001 479667.81595991 13771.26364655
0.17400001 472590.92226354 17367.71721339
0.17500001 465574.18476761 20894.97039919
0.17600001 458616.70405362 13393.90147447
0.17700001 451723.20722025 15679.31326316
0.17800001 444890.60458297 15528.90728643
0.17900001 438119.59762510 11829.22969461
0.18000001 431411.86279146 16397.96567926
0.18100001 424767.70582129 13915.39070002
0.18200001 418183.25577202 11479.13091319
0.18300001 411664.61825205 12498.13840054
0.18400001 405207.66793830 14617.86731143
0.18500001 398814.92395755 13352.32428489
0.18600001 392485.49067727 14311.98409369
0.18700001 386219.31579886 14158.80078612
0.18800001 380016.16335632 11850.80461417
0.18900001 373879.29233080 13852.22843534
0.19000001 367802.04371822 14752.54067058
0.19100001 361793.86643686 12503.59661485
0.19200001 355846.27383491 11331.92512572
0.19300001 349965.12308431 11202.38411927
0.19400001 344146.91349484 10066.29769540
0.19500001 338393.21940666 10943.63723275
0.19600001 332702.63078712 10814.49952479
0.19700001 327077.11576792 9714.19079738
0.19800001 321515.42296550 10556.95941198
0.19900001 316018.65999979 14220.84037207
0.20000001 310583.77964347 11236.92167857
0.20100001 305214.57248425 12022.40257836
0.20200001 299907.91095046 10045.41595207
0.20300001 294665.91852847 13525.16629972
0.20400001 289487.28797514 12462.42833638
0.20500001 284371.29329149 9665.78071585
0.20600001 279319.20078729 13876.57855103
0.20700001 274329.99309512 11126.82504589
0.20800001 269403.39279116 9290.37643956
0.20900001 264541.93568470 9166.37850478
0.21000001 259740.50233014 8220.78728736
0.21100001 255001.92801182 11352.68637177
0.21200001 250325.16143477 10397.25607172
0.21300001 245710.20083320 8676.02760158
0.21400001 241157.84136170 9332.80890192
0.21500001 236667.53856713 9201.63433452
0.21600001 232236.68624230 8315.23494404
0.21700001 227867.84534217 9686.66256348
0.21800001 223559.26072922 8078.31426840
0.21900001 219310.13936066 9408.40542342
0.22000001 215120.76848235 8557.50457485
0.22100001 210993.54861499 7026.08550110
0.22200001 206924.43197101 8998.10934973
0.22300001 202914.32744556 10226.88258684
0.22400001 198961.08604089 8729.41806283
0.22500001 195069.55319097 7935.42979905
0.22600001 191234.04863600 7162.67163037
0.22700001 187457.42583812 8334.35754689
0.22800001 183737.45391208 8835.93457648
0.22900001 180073.82838789 6212.54737318
0.23000001 176467.25727202 6114.59075365
0.23100001 172918.19292002 7822.81941766
0.23200001 169422.94091179 10066.26451034
0.23300001 165984.41590368 7573.86925589
0.23400001 162600.89779510 6304.85011020
0.23500001 159270.53795658 7329.63050343
0.23600001 155995.41364370 7209.32838252
0.23700001 152773.69450495 7090.22749733
0.23800001 149605.43360814 6436.02605824
0.23900001 146490.19360333 6328.37666299
0.24000001 143427.23187446 6221.87361301
0.24100001 140417.25599888 5097.14663386
0.24200001 137458.34151127 6513.46382061
0.24300001 134550.52942750 6894.36945399
0.24400001 131692.99016854 6291.63290292
0.24500001 128886.07711175 5231.48611744
0.24600001 126128.86826829 5607.68974848
0.24700001 123421.88829586 5050.42390798
0.24800001 120762.68390284 5412.58374858
0.24900001 118151.84370491 4873.76378339
0.25000001 115589.46369676 4787.13786547
0.25100001 113074.06352416 4701.61978376
0.25200001 110606.68648151 5456.78113572
0.25300001 108185.81188822 4121.87962795
0.25400001 105810.29115270 5261.41697649
0.25500001 103480.36420854 5165.74002569
0.25600001 101196.12253928 4291.22177931
0.25700001 98956.26988368  3829.60782569
0.25800001 96760.28923146  4886.87863885
0.25900001 94608.52827559  4427.67933279
0.26000001 92500.33025103  5432.08215101
0.26100001 90432.62527842  3554.00234160
0.26200001 88409.92308851  4882.88028322
0.26300001 86427.32242871  4449.27876916
0.26400001 84486.05341680  4029.98493867
0.26500001 82586.26311360  5931.34569748
0.26600001 80725.93161482  3233.07371416
0.26700001 78906.47825960  5392.46897943
0.26800001 77126.25173769  3423.24884537
0.26900001 75384.23967712  3358.36803654
0.27000001 73681.00752660  3294.64640746
0.27100001 72015.63212301  4995.00448043
0.27200001 70388.09108442  4035.34945284
0.27300001 68796.87270690  4806.83772351
0.27400001 67241.13777175  4160.54559652
0.27500001 65723.56474131  2993.05127997
0.27600001 64239.34255524  3202.97377139
0.27700001 62791.95020218  3665.79422629
0.27800001 61378.07191301  2825.53967424
0.27900001 59998.82292691  2519.95068219
0.28000001 58652.84698830  2719.43937932
0.28100001 57339.79474974  3638.21014906
0.28200001 56059.84663456  3569.61090340
0.28300001 54812.18182958  3268.99867904
0.28400001 53596.28257356  3207.73766385
0.28500001 52412.02506222  3372.71397239
0.28600001 51257.66571719  2427.30687493
0.28700001 50134.36029688  2382.38491407
0.28800001 49040.21552156  2551.07213218
0.28900001 47977.17019827  3130.51050362
0.29000001 46941.63679773  2049.00254321
0.29100001 45936.01254326  2213.19718910
0.29200001 44957.95652427  3161.44365243
0.29300001 44007.52306016  2911.09778823
0.29400001 43084.18718242  2478.41798499
0.29500001 42188.75825226  2622.45333710
0.29600001 41318.76166601  2208.90110323
0.29700001 40474.51624684  2171.05315425
0.29800001 39656.54630080  1778.59618579
0.29900001 38863.47015397  2448.39873560
0.30000001 38095.00392827  1719.98950879
0.30100001 37351.82787754  2199.64924784
0.30200001 36631.30566296  1831.38221332
0.30300001 35934.72610808  1638.62358810
0.30400001 35262.05152821  1613.23893379
0.30500001 34610.73406322  2382.94915307
0.30600001 33982.08037913  1877.84985065
0.30700001 33375.78605230  1696.15752748
0.30800001 32790.77037448  1519.85227881
0.30900001 32226.81143684  1798.25616331
0.31000001 31684.29659392  1625.87975669
0.31100001 31160.54788110  1895.80782284
0.31200001 30657.97121013  1727.27017976
0.31300001 30174.33465533  1563.33235251
0.31400001 29711.39456086  1403.86345947
0.31500001 29266.22532593  1525.94106074
0.31600002 28839.72115747  2194.12608955
0.31700002 28430.88680069  1627.38403752
0.31800002 28040.23549748  1744.24293171
0.31900002 27667.23683916  1593.63291739
0.32000002 27311.07952407  1972.54281202
0.32100002 26972.05458677  1823.85041752
0.32200002 26649.39308554  1420.27947174
0.32300002 26342.15715463  1536.27467800
0.32400002 26050.96032077  1269.98437577
0.32500002 25774.80951425  1764.54354290
0.32600002 25514.14107195  1376.61554672
0.32700002 25268.08622299  1616.14687135
0.32800002 25037.11496378  1482.69801837
0.32900002 24818.95860279  1719.95391262
0.33000002 24616.25203899  1222.19697161
0.33100002 24424.54858192  1581.24535007
0.33200002 24248.69294676  1332.34449705
0.33300002 24084.11250445  2051.24395914
0.33400002 23933.00148567  1322.89671977
0.33500002 23793.63278456  1319.11906404
0.33600002 23666.17876392  1555.22301112
0.33700002 23549.81632102  1432.77089282
0.33800002 23446.15528245  1430.68446309
0.33900002 23352.43561774  1548.26655478
0.34000002 23270.13504025  1785.40119552
0.34100002 23198.26588646  1190.07109634
0.34200002 23137.57904833  1309.47134826
0.34300002 23085.52780716  1429.45594952
0.34400002 23044.22617392  1192.53876098
0.34500002 23011.81798501  1194.31340998
0.34600002 22990.08050873  1555.62387130
0.34700002 22974.99073041  2038.80077398
0.34800002 22970.38208088  1442.99947066
0.34900002 22973.70567834  1326.73156576
0.35000002 22985.52358678  1452.22544899
0.35100002 23005.27362051  1457.61420563
0.35200002 23032.16491773  1707.37446622
0.35300002 23067.05065900  1469.83253761
0.35400002 23109.58336117  1722.81952117
0.35500002 23158.81958761  1236.68102455
0.35600002 23214.50414796  1491.76410720
0.35700002 23277.06894529  1999.96585851
0.35800002 23346.56310709  1634.37622772
0.35900002 23421.80565756  1897.16634812
0.36000002 23503.75168030  1527.27385653
0.36100002 23590.68638932  1409.07176478
0.36200002 23684.29387864  1547.53183533
0.36300002 23781.51375525  1558.16485505
0.36400002 23884.81325570  1569.23230523
0.36500002 23992.44796507  1317.18545567
0.36600002 24105.70391278  1990.52859488
0.36700002 24223.01109478  2139.37644123
0.36800002 24346.15124321  1886.58334920
0.36900002 24472.39201169  1629.86138518
0.37000002 24601.89950938  1779.82450432
0.37100002 24735.64869692  1518.27418894
0.37200002 24873.66791853  1670.01814316
0.37300002 25014.54287117  2385.63706663
0.37400002 25159.79191719  1698.28603486
0.37500002 25307.13263112  1998.25128721
0.37600002 25458.47517249  2303.48294273
0.37700002 25611.47725875  1452.17082936
0.37800002 25768.16291879  1757.90415760
0.37900002 25927.07400202  1921.19627456
0.38000002 26088.56899733  2236.44268324
0.38100002 26251.66551661  1955.48665697
0.38200002 26417.29204783  1669.44085005
0.38300002 26584.51850430  1531.26833839
0.38400002 26754.22425924  1854.06782900
0.38500002 26924.54844691  1870.71771472
0.38600002 27097.50652267  1573.01032816
0.38700002 27270.80245359  1587.16077799
0.38800002 27445.36908723  1921.72483453
0.38900002 27621.22663859  2100.59438538
0.39000002 27798.72093610  1956.47407217
0.39100002 27976.18347142  2467.49949908
0.39200002 28155.06226869  1659.74099937
0.39300002 28333.96719097  1674.53754032
0.39400002 28514.44406996  2196.32515854
0.39500002 28694.13349201  2556.64741527
0.39600002 28874.38733172  2063.36381648
0.39700002 29054.28770509  2081.44926981
0.39800002 29235.56255501  2974.57245309
0.39900002 29415.59340351  2294.41639418
0.40000002 29595.56588764  1780.17337248
0.40100002 29775.09774413  2513.61387065
0.40200002 29955.40712109  2172.96533552
0.40300002 30134.09658280  2373.96424127
0.40400002 30312.41904630  2025.62749874
0.40500002 30490.08592553  2599.58484918
0.40600002 30667.35106491  2246.69024546
0.40700002 30843.46603531  2265.14425296
0.40800002 31018.86277407  1903.00732136
0.40900002 31192.57966799  2493.84686262
0.41000002 31366.11355667  2127.09309163
0.41100002 31538.04832724  3118.48236636
0.41200002 31708.05974656  2160.74583381
0.41300002 31877.35501051  2375.50060794
0.41400002 32044.95549232  2593.23814609
0.41500002 32211.64740054  2211.00758234
0.41600002 32375.55395401  2430.10919494
0.41700002 32538.69122231  2448.21124357
0.41800002 32700.89326055  2055.25123881
0.41900002 32859.34755949  2277.15289377
0.42000002 33016.78835856  2710.51336873
0.42100002 33172.88480797  3989.70304491
0.42200002 33326.81205682  2748.96222277
0.42300002 33478.30118137  2980.90807844
0.42400002 33627.63084655  2358.13772486
0.42500002 33775.37168491  3021.54489411
0.42600002 33919.47464701  2824.30519032
0.42700002 34062.77029052  2405.51295191
0.42800002 34203.17250537  2861.26653152
0.42900002 34341.76166792  2215.04373255
0.43000002 34477.99858676  2674.80325711
0.43100002 34610.41410465  2467.03043429
0.43200002 34741.27436110  3610.31340269
0.43300002 34869.16185197  3177.97556179
0.43400002 34994.94990533  3425.13088430
0.43500002 35117.65535169  2756.03372260
0.43600002 35238.69049192  2540.88589833
0.43700002 35356.02900472  3019.75858040
0.43800002 35469.96537877  2802.83679705
0.43900002 35582.26736777  2348.42975756
0.44000002 35691.06277616  2597.06030598
0.44100002 35797.55718382  2610.71596914
0.44200002 35901.10570082  3339.88002163
0.44300002 36001.94717538  2397.72979551
0.44400002 36099.26839575  2650.58890757
0.44500002 36192.93310815  3389.83027556
0.44600002 36284.46689364  2919.44834462
0.44700002 36373.21216684  2933.13596814
0.44800002 36457.79213273  2946.51889981
0.44900002 36540.84329768  3453.10985528
0.45000002 36620.46685441  2972.84964013
0.45100002 36695.78678300  3234.36680034
0.45200002 36768.93090104  2498.44897313
0.45300002 36838.27502615  3261.29264263
0.45400002 36905.32725345  4281.94079752
0.45500002 36968.89463332  2528.67251276
0.45600002 37029.18782030  3553.69132354
0.45700002 37086.25522297  2802.60844003
0.45800002 37139.43761771  2812.75544128
0.45900002 37189.82658265  2822.70797140
0.46000002 37237.79171380  2832.49276095
0.46100002 37281.22293270  3100.30664602
0.46200002 37322.29332408  3110.44007305
0.46300002 37359.79669220  3120.29036762
0.46400002 37393.54447444  2608.19985071
0.46500002 37425.02633066  3400.81230385
0.46600002 37452.44251753  3935.31558405
0.46700002 37476.59157890  3420.11390959
0.46800002 37498.23188034  3165.60088538
0.46900002 37515.88348839  4231.79185806
0.47000002 37529.88392967  2651.48642530
0.47100002 37541.21072030  3455.29319847
0.47200002 37548.97616106  2930.50998339
0.47300002 37554.23685007  4005.15954989
0.47400002 37554.71345983  2675.77346084
0.47500002 37553.12486850  3753.81053978
0.47600002 37548.64925354  2955.26657957
0.47700002 37539.69875422  2960.75618108
