# SAXS profile: number of points = 501, q_min = 0, q_max = 0.5, delta_q = 0.001
#    q    intensity    error
0.00000000 1682732.95097188 252.40994265
0.00100000 1682663.75511018 605.75896623
0.00200000 1682456.11444014 1059.94738566
0.00300000 1682110.19840826 1715.75246350
0.00400000 1681625.87954780 1513.46334910
0.00500000 1681003.61600754 1966.77430858
0.00600000 1680243.11554150 1764.25534315
0.00700000 1679345.06614986 2619.77841207
0.00800000 1678308.89946834 3851.71908690
0.00900000 1677136.01751664 3773.55620072
0.01000000 1675825.50419286 3041.62342145
0.01100000 1674378.68868435 3616.65812503
0.01200000 1672794.96068198 4240.53541125
0.01300000 1671075.73243387 3509.25919289
0.01400000 1669220.27398544 4131.32036126
0.01500000 1667230.37691471 5601.89431588
0.01600000 1665104.82639717 6369.02624569
0.01700000 1662845.82786108 5387.62072395
0.01800000 1660452.91280196 5205.52011587
0.01900000 1657926.77534724 7460.67082571
0.02000000 1655268.13568579 6778.32332226
0.02100000 1652478.59111702 5998.49755772
0.02200000 1649556.30195376 5690.96950029
0.02300000 1646504.22867888 6520.15704236
0.02400000 1643322.16356297 9859.93343097
0.02500000 1640011.56976472 8954.46357987
0.02600000 1636572.55764308 7290.93107777
0.02700000 1633006.19117583 6858.62631707
0.02800000 1629312.32785770 7796.25984633
0.02900000 1625493.56589947 7314.72138240
0.03000000 1621550.16376349 7540.20860809
0.03100000 1617482.46171892 13198.65749494
0.03200000 1613291.49528285 9582.95192335
0.03300000 1608979.85867942 9846.95718907
0.03400000 1604545.80739385 11793.41222850
0.03500000 1599992.59460225 10367.95249179
0.03600000 1595319.88301630 9739.42833591
0.03700000 1590529.63043219 10879.22317529
0.03800000 1585623.00357128 10203.48450019
0.03900000 1580601.45752110 14225.41377647
0.04000000 1575463.79063257 10658.01303751
0.04100000 1570213.94750388 9892.34832795
0.04200000 1564852.38568232 14130.61769827
0.04300000 1559378.89401593 11321.09129606
0.04400000 1553797.45513348 12585.75997109
0.04500000 1548107.63174719 16022.91473309
0.04600000 1542309.71988907 13047.94083682
0.04700000 1536406.87937789 13274.55605520
0.04800000 1530399.40930666 15747.81065448
0.04900000 1524290.00122468 13718.61064959
0.05000000 1518078.14109041 16258.61764818
0.05100000 1511767.29240954 14150.14251612
0.05200000 1505355.68371939 22738.39866222
0.05300000 1498848.49922363 15782.87543259
0.05400000 1492244.55045582 16004.32354998
0.05500000 1485547.43062660 13726.45889932
0.05600000 1478755.78342209 20229.38006120
0.05700000 1471874.39707697 16646.90020799
0.05800000 1464902.27767817 12964.38576279
0.05900000 1457841.17114802 14432.62826845
0.06000000 1450693.97718093 15928.62061361
0.06100000 1443462.15630076 14766.61854902
0.06200000 1436146.25468457 14928.74101527
0.06300000 1428749.23911239 16459.19200413
0.06400000 1421269.47518410 18014.59144044
0.06500000 1413713.00136290 16794.91124182
0.06600000 1406077.89018494 14131.08345753
0.06700000 1398367.03026116 15689.67881379
0.06800000 1390583.45001649 15831.79331951
0.06900000 1382728.13464627 18874.23992159
0.07000000 1374799.98035806 20498.26866704
0.07100000 1366804.44300946 16237.63754349
0.07200000 1358740.05964694 14878.20435013
0.07300000 1350612.01718389 16490.97350251
0.07400000 1342419.29323097 16612.43953226
0.07500000 1334164.54673725 18251.37185485
0.07600000 1325847.72111572 16844.89608647
0.07700000 1317474.41476619 27746.01247595
0.07800000 1309042.76114209 18614.58893639
0.07900000 1300554.95494539 20288.65824876
0.08000000 1292015.05915311 17267.78207563
0.08100000 1283423.07309509 25257.76726356
0.08200000 1274779.75277960 20632.31126691
0.08300000 1266088.42590022 20738.52938955
0.08400000 1257349.60434155 17634.32902862
0.08500000 1248567.32610737 17717.17118920
0.08600000 1239740.71159811 22650.06386435
0.08700000 1230873.35059384 17872.28188986
0.08800000 1221963.96599357 19575.86365457
0.08900000 1213018.59581782 22926.05253779
0.09000000 1204035.83765894 18078.59895170
0.09100000 1195018.56750663 21438.63410828
0.09200000 1185967.61070187 21507.52363065
0.09300000 1176886.81465651 21572.33632638
0.09400000 1167774.15058952 21633.01715637
0.09500000 1158633.93192191 18352.76234427
0.09600000 1149467.28173980 21742.17465616
0.09700000 1140277.46829626 20114.49548638
0.09800000 1131064.92010320 21835.20930923
0.09900000 1121831.46340798 16827.47274239
0.10000000 1112577.26270641 20226.65558720
0.10100000 1103304.76889576 18568.62013383
0.10200000 1094016.44906474 20283.06591970
0.10300000 1084713.39118850 21997.98860810
0.10400000 1075397.81707281 22018.77134044
0.10500000 1066072.58591975 22035.72138773
0.10600001 1056734.22073341 22048.76055307
0.10700001 1047390.25939646 18664.49530075
0.10800001 1038038.02139831 23760.69142803
0.10900001 1028681.77822183 25459.87520928
0.11000001 1019321.69362666 23760.38979683
0.11100001 1009959.64029360 25450.98413346
0.11200001 1000598.23216966 18656.15491708
0.11300001 991236.40708189 18645.15769504
0.11400001 981878.54242934 18631.14621983
0.11500001 972525.00480370 20306.32305649
0.11600001 963176.69814352 16903.75184844
0.11700001 953836.81857987 20259.49498076
0.11800001 944503.30872640 18545.32334030
0.11900001 935180.97475471 21883.23584000
0.12000001 925869.37653118 16804.52997562
0.12100001 916572.42136096 26837.24176170
0.12200001 907288.37987335 20087.36567674
0.12300001 898020.47004315 21714.13598869
0.12400001 888769.06788517 18330.86288884
0.12500001 879535.97587589 19947.87687282
0.12600001 870324.14364484 21553.57843304
0.12700001 861132.90060111 18187.12771779
0.12800001 851962.82760528 18134.02964022
0.12900001 842817.07785237 24652.40068910
0.13000001 833696.13007125 19658.55567368
0.13100001 824600.18288166 16327.08439068
0.13200001 815532.81489943 16269.88042421
0.13300001 806494.69031171 21073.70725132
0.13400001 797484.84512914 16149.06887522
0.13500001 788506.60948455 17694.08915108
0.13600001 779559.60883658 27233.91621881
0.13700001 770646.45856552 20738.09717787
0.13800001 761766.13982215 17471.10724068
0.13900001 752923.55597228 15811.39542105
0.14000001 744115.90275661 20459.46771117
0.14100001 735346.12215136 15662.87314053
0.14200001 726613.80215956 17144.45347058
0.14300001 717923.60519239 17057.86566395
0.14400001 709269.44422565 15426.61113958
0.14500001 700660.76737788 21482.26014117
0.14600001 692091.96518789 28995.19424938
0.14700001 683569.19192039 21245.33148717
0.14800001 675088.42714412 18105.87247022
0.14900001 666652.31924469 17999.61346884
0.15000001 658263.06063949 16400.62492966
0.15100001 649920.18811650 14818.18098825
0.15200001 641626.21787006 14725.32239496
0.15300001 633380.25842460 16094.19312604
0.15400001 625181.81587772 15989.02569561
0.15500001 617034.94565825 21657.92761471
0.15600001 608937.07027297 22944.74989076
0.15700001 600893.88027505 19937.65988852
0.15800001 592898.21469212 21210.93463174
0.15900001 584958.40235646 19654.60324689
0.16000001 577069.75028293 16723.48215259
0.16100001 569238.24315237 16598.98795387
0.16200001 561459.05550795 15100.44201072
0.16300001 553736.43560130 17708.49204651
0.16400001 546069.08542767 14866.73155262
0.16500001 538458.53495088 16089.14178392
0.16600001 530904.47181305 14629.07341149
0.16700001 523407.58684645 13189.87181129
0.16800001 515967.26469913 13079.77077770
0.16900001 508587.79948551 14265.88844918
0.17000001 501266.19579909 15428.97423525
0.17100001 494003.72962705 20392.47492196
0.17200001 486801.23586724 20211.98826768
0.17300001 479658.73537721 17526.73101837
0.17400001 472577.34929993 19848.24960795
0.17500001 465556.25374983 14748.82281535
0.17600001 458594.42559049 13393.25083192
0.17700001 451696.44554777 18090.44349861
0.17800001 444859.32220594 21500.05205771
0.17900001 438084.00965351 14193.92258320
0.18000001 431371.74515604 14054.09212103
0.18100001 424722.86855043 13913.92183096
0.18200001 418133.94369412 13773.33275591
0.18300001 411610.69199315 12496.50119924
0.18400001 405148.98585899 12367.17337758
0.18500001 398751.76829319 12237.69234705
0.18600001 392417.45045186 17611.69600832
0.18700001 386146.51944519 11978.26559910
0.18800001 379938.83129493 14002.64628895
0.18900001 373797.08383883 15979.82608912
0.19000001 367715.11806234 12642.04635630
0.19100001 361702.18182539 12500.42799453
0.19200001 355749.78377517 11328.85239962
0.19300001 349863.70448789 11199.13770985
0.19400001 344040.70216922 12075.82921677
0.19500001 338282.23592490 9945.49820617
0.19600001 332586.81264982 10810.73485606
0.19700001 326956.40326804 12623.78732675
0.19800001 321389.96980281 12471.53836759
0.19900001 315888.31781468 10424.31498054
0.20000001 310448.56268043 9360.02460718
0.20100001 305074.61988763 12941.26598727
0.20200001 299763.10952276 12778.90196293
0.20300001 294516.29361236 9012.19901050
0.20400001 289332.85978060 10676.38303053
0.20500001 284212.06873756 11416.79934082
0.20600001 279155.08379983 13001.64864254
0.20700001 274161.12706668 8553.82756881
0.20800001 269229.80581712 10128.42577361
0.20900001 264363.63704456 8327.45496055
0.21000001 259557.51257762 8214.99566142
0.21100001 254814.05455992 12154.63097710
0.21200001 250132.69980897 13585.95823239
0.21300001 245513.18344064 10245.26562933
0.21400001 240956.31414230 7770.84149847
0.21500001 236461.39529735 10725.88939778
0.21600001 232025.98432656 9818.17999097
0.21700001 227652.45565125 8188.65921693
0.21800001 223339.45020437 11738.72205775
0.21900001 219085.94888222 10844.75498243
0.22000001 214892.08916463 9260.77502042
0.22100001 210760.45650296 9825.65294676
0.22200001 206686.99758297 8296.41647527
0.22300001 202672.66548036 8852.74244679
0.22400001 198715.22949660 9389.29503770
0.22500001 194819.55938151 7264.82171287
0.22600001 190979.91429235 8453.72630591
0.22700001 187199.25166206 7042.43618056
0.22800001 183475.13944401 6302.37133794
0.22900001 179807.57920512 6823.69795353
0.23000001 176197.09085725 6715.75243562
0.23100001 172644.16440506 6008.01720543
0.23200001 169145.12937936 8276.27157195
0.23300001 165702.92613996 9305.87677214
0.23400001 162315.56873358 7438.11128900
0.23500001 158981.70654586 6190.74794569
0.23600001 155703.01797760 5535.24255090
0.23700001 152477.96226566 8709.54161656
0.23800001 149306.15831065 5352.62602861
0.23900001 146187.62776821 6315.30581830
0.24000001 143121.26169634 7243.36739707
0.24100001 140108.18778961 5085.92745733
0.24200001 137146.15018365 6998.56837492
0.24300001 134235.31428293 5895.61528219
0.24400001 131374.74120679 5310.82416451
0.24500001 128564.87398288 6641.66170414
0.24600001 125804.99763318 5593.29045936
0.24700001 123095.29121702 6868.71757484
0.24800001 120433.41873336 4948.00724273
0.24900001 117820.05228160 5301.90260349
0.25000001 115255.19310382 6075.10151590
0.25100001 112737.36584317 5113.76715657
0.25200001 110267.62198093 4184.65645215
0.25300001 107844.60898698 6163.31969520
0.25400001 105466.90322689 5647.75293500
0.25500001 103135.00427298 5148.49965689
0.25600001 100848.81767264 3887.72210522
0.25700001 98607.11613769  6487.36247764
0.25800001 96409.34236540  3745.50312811
0.25900001 94255.93350669  4043.57973876
0.26000001 92146.14324396  4689.77818230
0.26100001 90077.01749428  5664.04312804
0.26200001 88052.94872491  4863.16458819
0.26300001 86069.09301855  4090.00349377
0.26400001 84126.46651522  3344.02720221
0.26500001 82225.63587881  3936.96363217
0.26600001 80364.33621525  3862.31018127
0.26700001 78543.95843860  3473.21400651
0.26800001 76762.79404308  4336.33044069
0.26900001 75020.11406182  3949.80919227
0.27000001 73316.39175209  3874.40490548
0.27100001 71650.56883859  3508.01201635
0.27200001 70022.54059623  4014.39244236
0.27300001 68431.12487369  2812.51936541
0.27400001 66875.07917663  3586.17629056
0.27500001 65357.39930729  2705.79645937
0.27600001 63873.27148400  3980.90183364
0.27700001 62425.94123015  3644.42662149
0.27800001 61012.28442558  2553.36422405
0.27900001 59633.24037031  2755.05583550
0.28000001 58287.64252974  3930.91879825
0.28100001 56975.13906950  2651.05334638
0.28200001 55695.80765521  2600.71586155
0.28300001 54448.86666695  2551.47401277
0.28400001 53233.79036565  3186.04250418
0.28500001 52050.39744747  2456.25837180
0.28600001 50897.06658375  2629.34258417
0.28700001 49774.88073120  2150.27494937
0.28800001 48681.94096063  2321.39846459
0.28900001 47620.26749881  2071.48173425
0.29000001 46586.06249232  2846.87441366
0.29100001 45581.99038961  2595.43865564
0.29200001 44605.42260834  2156.44925808
0.29300001 43656.73676905  2695.36705571
0.29400001 42735.21928629  2269.24025152
0.29500001 41841.74687280  2043.55101400
0.29600001 40973.65387435  2920.60218642
0.29700001 40131.51407880  2690.81814636
0.29800001 39315.77118393  1763.31242107
0.29900001 38524.96361256  1733.62344463
0.30000001 37758.82924496  2386.73570956
0.30100001 37018.11139670  1844.61257822
0.30200001 36300.14864504  1979.81020083
0.30300001 35606.24128705  1623.64467955
0.30400001 34936.21830332  2717.16450718
0.30500001 34287.78270531  2360.71395102
0.30600001 33661.99938818  2015.17568878
0.30700001 33058.68412787  1527.31127902
0.30800001 32476.68856947  1956.88296240
0.30900001 31915.92865080  1780.90890303
0.31000001 31376.67043925  1463.72174529
0.31100001 30856.25721816  2166.10935927
0.31200001 30356.99999450  2422.94406928
0.31300001 29876.88906866  1688.64185011
0.31400001 29417.46050797  1389.97507481
0.31500001 28975.96082035  1510.80666871
0.31600002 28553.11944823  1357.70089405
0.31700002 28148.11817153  1611.19836043
0.31800002 27761.30440024  2125.40556552
0.31900002 27392.30185766  1972.24582714
0.32000002 27040.11085231  1692.57581894
0.32100002 26705.11379095  2192.75699720
0.32200002 26386.61559603  2045.49053786
0.32300002 26083.58526546  1774.72722550
0.32400002 25796.62071220  1509.10238312
0.32500002 25524.73392256  1747.42336708
0.32600002 25268.45513253  1363.35956123
0.32700002 25026.85848667  1723.85009419
0.32800002 24800.37611152  1468.67834287
0.32900002 24586.80891302  1338.75180871
0.33000002 24388.72718844  1816.35054337
0.33100002 24201.69864624  1325.76911462
0.33200002 24030.44064914  1560.41673744
0.33300002 23870.73977187  1435.10894304
0.33400002 23724.42860688  1549.79837214
0.33500002 23589.88152012  1426.71610190
0.33600002 23467.33589269  1660.78343977
0.33700002 23355.90291253  2249.87423411
0.33800002 23257.19593011  1419.15416286
0.33900002 23168.46735598  1417.91026934
0.34000002 23091.25406248  1181.11770123
0.34100002 23024.47549175  1535.50234326
0.34200002 22968.91663995  1772.62622564
0.34300002 22922.00432011  1301.05302683
0.34400002 22885.91422469  1302.78072894
0.34500002 22858.73356104  1305.00516081
0.34600002 22842.15549696  1902.29479988
0.34700002 22832.39197974  1430.22110135
0.34800002 22833.02406923  1314.83975330
0.34900002 22841.70992705  1558.94677636
0.35000002 22858.80782611  1323.86791795
0.35100002 22883.95665544  1329.10026550
0.35200002 22916.12147916  1698.77216571
0.35300002 22956.35758961  1828.47396862
0.35400002 23004.22502122  1959.96006464
0.35500002 23058.87042368  1354.47811284
0.35600002 23120.01266891  1485.69208447
0.35700002 23187.90542300  1743.26681227
0.35800002 23262.82942301  1753.78479327
0.35900002 23343.45942230  1386.60155536
0.36000002 23430.72500128  1395.65120081
0.36100002 23523.13816002  1532.76775511
0.36200002 23622.08371923  1543.46702332
0.36300002 23724.71175131  1943.05398447
0.36400002 23833.40168815  1565.85456508
0.36500002 23946.43532116  1314.65936140
0.36600002 24064.99904388  1457.25608613
0.36700002 24187.64466768  1735.70546357
0.36800002 24316.05489716  1884.25118324
0.36900002 24447.62403636  1899.58047761
0.37000002 24582.41225156  2188.81809056
0.37100002 24721.46513934  2069.18673018
0.37200002 24864.70220647  1947.65221609
0.37300002 25010.76423391  2385.27669798
0.37400002 25161.24100997  1698.38384863
0.37500002 25313.73613583  1427.69478569
0.37600002 25470.16420195  1728.40542462
0.37700002 25628.31721683  1743.75078604
0.37800002 25789.97543458  2199.24025937
0.37900002 25953.98457356  1923.19034801
0.38000002 26120.48075118  2239.17831847
0.38100002 26288.56539761  1656.96835551
0.38200002 26459.06359925  1672.08060337
0.38300002 26631.18026021  1994.14287235
0.38400002 26805.70366249  1548.02945985
0.38500002 26980.83858999  1718.40969121
0.38600002 27158.51023623  1891.86191268
0.38700002 27336.49343996  1909.18079229
0.38800002 27515.71829553  2247.75913405
0.38900002 27696.14134973  2268.31408401
0.39000002 27878.19687930  2452.58448665
0.39100002 28060.17546839  1979.92607485
0.39200002 28243.53011082  1664.95617891
0.39300002 28426.77745771  2688.03620375
0.39400002 28611.51212856  1695.23217393
0.39500002 28795.49624639  2052.54306969
0.39600002 28979.88474908  1725.75221857
0.39700002 29163.96310002  2089.30641547
0.39800002 29349.29647147  2459.17766786
0.39900002 29533.34485114  1949.20085253
0.40000002 29717.19215137  2859.98270815
0.40100002 29900.65459411  2343.91242469
0.40200002 30084.80385501  2000.48912712
0.40300002 30267.26087145  2017.61570529
0.40400002 30449.22883914  2404.72796151
0.40500002 30630.51667336  2611.55797531
0.40600002 30811.25661441  2069.13003598
0.40700002 30990.81376063  2465.62925962
0.40800002 31169.64132501  2103.48334448
0.40900002 31346.67804242  2120.60287005
0.41000002 31523.37928502  1943.41642500
0.41100002 31698.51098204  2154.86487866
0.41200002 31871.60635995  2171.89071831
0.41300002 32043.87359076  2984.88696641
0.41400002 32214.38836476  2205.88034780
0.41500002 32383.99322038  2222.83739997
0.41600002 32550.63156464  3257.66736135
0.41700002 32716.42290756  2461.58377620
0.41800002 32881.22142489  2273.24335093
0.41900002 33042.22271159  2497.99215536
0.42000002 33202.07876819  3354.73819770
0.42100002 33360.53064394  2322.89385881
0.42200002 33516.76494520  2339.30272020
0.42300002 33670.39269864  2998.01190795
0.42400002 33821.83038688  2802.98432613
0.42500002 33971.58758429  2170.78454950
0.42600002 34117.65230196  2622.28288019
0.42700002 34262.76535098  2419.63660374
0.42800002 34404.99609656  2878.15008484
0.42900002 34545.26436564  2896.62055432
0.43000002 34683.07563350  2466.48704056
0.43100002 34816.94451468  2481.75192261
0.43200002 34949.21918703  3177.93265127
0.43300002 35078.48359234  2283.60939008
0.43400002 35205.50894855  3445.73935163
0.43500002 35329.34376963  3234.75486884
0.43600002 35451.43249671  3020.99396337
0.43700002 35569.81518151  2336.93696817
0.43800002 35684.58760815  2819.79624642
0.43900002 35797.72735909  3543.97517650
0.44000002 35907.19615719  3087.83947987
0.44100002 36014.37961610  2626.52882987
0.44200002 36118.44229800  3600.10590666
0.44300002 36219.70776394  3135.90244681
0.44400002 36317.45505347  4363.54243147
0.44500002 36411.36976724  2679.51282816
0.44600002 36503.15044111  2692.28998837
0.44700002 36592.01905315  2950.78055629
0.44800002 36676.61849432  3458.23852172
0.44900002 36759.61254953  2977.52875762
0.45000002 36839.11854006  2741.38313608
0.45100002 36914.16003797  2502.78016919
0.45200002 36987.06825012  3267.25282872
0.45300002 37056.03505317  2523.51610672
0.45400002 37122.53072481  3293.69669466
0.45500002 37185.63736455  2797.84748791
0.45600002 37245.26822566  3319.11223523
0.45700002 37301.58100823  3075.14248406
0.45800002 37354.02169529  3600.55432185
0.45900002 37403.54310494  2838.92905621
0.46000002 37450.54913618  2848.67615505
0.46100002 37492.96712286  2598.26274476
0.46200002 37532.95367871  2867.33013218
0.46300002 37569.22526432  2876.30002256
0.46400002 37601.76193021  4458.62913219
0.46500002 37631.90803033  3682.65869439
0.46600002 37657.90306139  3165.52348137
0.46700002 37680.58293123  2909.69475186
0.46800002 37700.62122344  2917.46271165
0.46900002 37716.68443404  3722.63693008
0.47000002 37728.99379523  3731.77495316
0.47100002 37738.50776292  4007.82971438
0.47200002 37744.50816202  3213.56757723
0.47300002 37747.85956207  3489.03482469
0.47400002 37746.35389586  2689.42784255
0.47500002 37742.80852553  3503.28765339
0.47600002 37736.20858725  2970.02843763
0.47700002 37725.04982819  3516.35206115
