# SAXS profile: number of points = 501, q_min = 0, q_max = 0.5, delta_q = 0.001
#    q    intensity    error
0.00000000 1664650.74656091 274.66737318
0.00100000 1664582.11708415 549.31211168
0.00200000 1664376.17482244 1273.24781406
0.00300000 1664033.08837064 1397.78784402
0.00400000 1663552.73689514 1247.66460008
0.00500000 1662935.55914449 1646.30626872
0.00600000 1662181.30567111 1745.29044201
0.00700000 1661290.61597235 2591.61346863
0.00800000 1660262.92838867 3586.16807673
0.00900000 1659099.64476995 3981.83931766
0.01000000 1657799.89306492 3282.44393000
0.01100000 1656364.92211218 3279.60268857
0.01200000 1654794.19070220 3226.84881335
0.01300000 1653089.06965539 3818.63591932
0.01400000 1651248.84355198 4458.37207523
0.01500000 1649275.26376904 5145.73905209
0.01600000 1647167.19066644 4620.30417636
0.01700000 1644926.73078738 5329.56284683
0.01800000 1642553.51173689 7021.91657864
0.01900000 1640048.17754564 10332.30398476
0.02000000 1637411.39450766 8252.55380163
0.02100000 1634644.80133975 6473.19370679
0.02200000 1631746.58533505 9007.24156027
0.02300000 1628719.69924308 5863.39118417
0.02400000 1625563.89991701 7924.62437344
0.02500000 1622280.60929743 6326.89466521
0.02600000 1618870.04298648 9178.99356356
0.02700000 1615333.10488692 6784.39935126
0.02800000 1611669.76310697 10516.14568654
0.02900000 1607882.65459154 7959.01950566
0.03000000 1603971.98914759 8204.31710160
0.03100000 1599937.96929597 9983.61338778
0.03200000 1595781.77570313 10268.85619961
0.03300000 1591505.99604239 11363.35333560
0.03400000 1587108.75217644 11665.24986674
0.03500000 1582593.44064081 12819.00746115
0.03600000 1577959.71298390 11384.97985532
0.03700000 1573209.37149103 15244.39951476
0.03800000 1568343.76336910 10092.29258435
0.03900000 1563364.12326061 14070.27776094
0.04000000 1558269.45599762 11500.02911816
0.04100000 1553063.57315365 13698.02135035
0.04200000 1547746.95534930 16971.04615274
0.04300000 1542319.40274921 13233.10108984
0.04400000 1536784.95957005 10373.29895885
0.04500000 1531142.96530846 14790.84173213
0.04600000 1525393.90675506 11829.43029680
0.04700000 1519540.86990086 17505.11163538
0.04800000 1513584.15968156 16687.26613692
0.04900000 1507526.45522508 11306.44894048
0.05000000 1501367.13445306 11485.45911340
0.05100000 1495109.83852413 15160.41446887
0.05200000 1488752.55833775 11835.58339034
0.05300000 1482300.86245090 12006.63754558
0.05400000 1475753.11371023 17044.94925822
0.05500000 1469113.17417024 16042.71661032
0.05600000 1462379.44952465 17504.68282765
0.05700000 1455557.08994117 18995.02091039
0.05800000 1448644.61430157 12820.50543519
0.05900000 1441644.20223445 14272.27826872
0.06000000 1434558.39689832 14438.83093935
0.06100000 1427388.93640711 17257.13304761
0.06200000 1420136.15538036 13420.28729566
0.06300000 1412803.02875424 20344.36456527
0.06400000 1405387.92648941 20553.79938614
0.06500000 1397897.01552765 19374.85354153
0.06600000 1390328.26291532 18164.63960489
0.06700000 1382684.58870888 26796.42858322
0.06800000 1374968.71647248 17077.11225795
0.06900000 1367181.92668076 17226.49308270
0.07000000 1359323.22680540 18819.83095642
0.07100000 1351397.77470562 16054.60631546
0.07200000 1343404.29335726 19123.36101181
0.07300000 1335347.71204039 17786.83235779
0.07400000 1327227.29064785 19410.70003539
0.07500000 1319045.50838181 22555.67925057
0.07600000 1310802.32048826 18167.72101368
0.07700000 1302503.37945291 18287.14830498
0.07800000 1294146.78393876 23003.46016329
0.07900000 1285734.58696358 18514.57892068
0.08000000 1277270.93088071 20174.49529967
0.08100000 1268755.59584795 17166.26401723
0.08200000 1260189.93997404 25102.98478225
0.08300000 1251576.61828577 23654.79919577
0.08400000 1242916.48601619 19016.62312866
0.08500000 1234213.57740652 23882.03384396
0.08600000 1225466.76525854 19190.81044499
0.08700000 1216679.97042231 17666.19400010
0.08800000 1207851.43109208 24187.22604354
0.08900000 1198987.61416804 21042.23361700
0.09000000 1190086.95771300 19493.62528306
0.09100000 1181152.28717967 19559.88279464
0.09200000 1172184.35551202 17987.16978049
0.09300000 1163187.18638586 18041.03410863
0.09400000 1154158.42175734 18091.43411130
0.09500000 1145102.76663395 18138.42867604
0.09600000 1136021.14207430 23140.75175185
0.09700000 1126916.73147029 24848.51509712
0.09800000 1117789.92193894 18259.09923337
0.09900000 1108642.93906784 21618.53832838
0.10000000 1099475.37743334 21654.16857688
0.10100000 1090289.99969197 20017.72533581
0.10200000 1081089.03862581 18373.10907565
0.10300000 1071873.73910795 18393.35422833
0.10400000 1062646.32434352 20084.01647495
0.10500000 1053409.69898767 18424.13650214
0.10600001 1044160.07330177 23462.27795107
0.10700001 1034905.44160776 20118.56273159
0.10800001 1025642.66713852 16769.25839690
0.10900001 1016376.25654033 23478.29263110
0.11000001 1007106.17396153 18445.15044431
0.11100001 997834.42252073 21792.70481371
0.11200001 988563.79164138 20107.38846858
0.11300001 979292.98273224 18420.50187245
0.11400001 970026.21835007 16732.95305440
0.11500001 960763.98612809 21732.48238956
0.11600001 951507.30386479 21708.64015997
0.11700001 942259.06927550 16677.98631162
0.11800001 933017.51428886 23316.10878023
0.11900001 923787.34248781 16628.17294799
0.12000001 914568.15627245 18259.35410008
0.12100001 905363.41476912 21538.59665200
0.12200001 896171.97718302 18187.81113378
0.12300001 886996.87569142 18147.95693168
0.12400001 877838.27631221 19751.36214766
0.12500001 868698.26218554 18060.23772184
0.12600001 859579.36707461 18012.48648586
0.12700001 850481.34044959 17962.16675679
0.12800001 841404.42048863 19537.41156453
0.12900001 832352.08908520 21100.12645280
0.13000001 823324.25985697 24267.48370313
0.13100001 814321.81158010 17735.92989224
0.13200001 805347.74773644 22493.36365462
0.13300001 796403.07020203 19209.24295885
0.13400001 787486.44386544 17541.26136410
0.13500001 778601.74891893 17471.82406951
0.13600001 769748.11404293 18981.98938731
0.13700001 760928.19374504 20476.57865922
0.13800001 752141.16379643 18818.57280559
0.13900001 743391.82822010 18733.47495458
0.14000001 734677.42453439 17092.27108787
0.14100001 726000.57975686 18556.57569377
0.14200001 717361.30981843 21542.36114990
0.14300001 708763.81516318 18371.15895555
0.14400001 700202.53730755 15229.40590481
0.14500001 691686.45525663 21207.10771855
0.14600001 683210.17528231 19584.22059834
0.14700001 674779.89854331 26964.20601787
0.14800001 666391.31074256 22340.76974665
0.14900001 658047.29582880 16286.67134018
0.15000001 649749.90932996 14716.83614071
0.15100001 641498.76818838 20476.64164676
0.15200001 633296.26126123 15987.56486995
0.15300001 625141.51795353 14440.76974617
0.15400001 617034.24314629 18649.86087920
0.15500001 608978.27002234 17100.11062923
0.15600001 600970.70470832 18398.71899297
0.15700001 593018.10775532 14054.52981713
0.15800001 585112.52704117 16745.92131430
0.15900001 577262.81664203 15239.73907867
0.16000001 569463.51278735 22004.07117275
0.16100001 561721.43549318 16379.79783218
0.16200001 554031.22073159 17609.88318225
0.16300001 546397.31459728 16129.64948836
0.16400001 538818.39033879 18670.05810664
0.16500001 531295.86801043 17198.04805944
0.16600001 523829.63574522 17058.51289343
0.16700001 516420.10088031 20822.05945060
0.16800001 509066.87996085 14195.33061796
0.16900001 501774.07743305 20472.38332593
0.17000001 494538.67792734 15221.90122538
0.17100001 487362.22218244 15088.73511128
0.17200001 480245.36496053 14954.84137108
0.17300001 473187.97415332 12350.20670863
0.17400001 466191.40615476 22027.54498109
0.17500001 459254.66316290 13336.75604811
0.17600001 452376.84834328 20418.03001430
0.17700001 445562.43701511 16655.12468226
0.17800001 438808.35803144 14138.40596356
0.17900001 432115.72819168 12833.83773348
0.18000001 425485.75841294 12707.13277522
0.18100001 418918.68945871 13723.77691493
0.18200001 412411.22324035 11320.68861271
0.18300001 405968.77451349 12325.21257646
0.18400001 399587.54389521 15523.97681369
0.18500001 393270.09911741 29625.03796606
0.18600001 387015.38096369 13026.93833868
0.18700001 380823.18262963 15034.89996054
0.18800001 374694.15449674 13809.35371642
0.18900001 368630.40910366 13657.75730259
0.19000001 362625.75014997 14544.91952574
0.19100001 356689.94773279 11299.93807810
0.19200001 350813.76328473 14218.48249777
0.19300001 345003.51130059 12047.52318389
0.19400001 339255.88621965 10915.55865492
0.19500001 333572.19029960 12749.12971571
0.19600001 327950.99252844 15505.52365948
0.19700001 322394.46116526 10532.62754402
0.19800001 316901.15083405 9459.49979944
0.19900001 311472.10298726 12147.41259059
0.20000001 306104.39780332 10151.95283294
0.20100001 300801.95340236 10025.72958074
0.20200001 295561.20990655 13499.75890053
0.20300001 290384.76323247 13328.66126234
0.20400001 285270.98825199 9649.29163370
0.20500001 280219.33527936 12988.16680411
0.20600001 275231.01381824 10255.10805961
0.20700001 270304.95491192 13493.62398703
0.20800001 265441.09952719 9985.89463625
0.20900001 260641.63504930 10673.27545981
0.21000001 255901.66174544 8909.21677483
0.21100001 251223.76622982 10385.59098690
0.21200001 246607.37289068 7879.10593634
0.21300001 242052.17264635 13985.77519669
0.21400001 237558.91669711 10725.78559595
0.21500001 233127.17054929 9819.31688777
0.21600001 228754.30172021 8935.14344763
0.21700001 224442.60347774 13210.69226530
0.21800001 220190.84713473 8679.92360444
0.21900001 215997.89987730 10691.89654946
0.22000001 211864.05594427 10534.94067995
0.22100001 207791.59233630 8303.35242237
0.22200001 203776.97657268 7497.97420753
0.22300001 199820.50004156 8728.15985453
0.22400001 195920.57423442 7273.55166239
0.22500001 192081.75171244 6511.57169097
0.22600001 188298.12537386 8976.17206104
0.22700001 184573.01423564 7574.87686244
0.22800001 180903.71513019 9942.46865374
0.22900001 177290.49102549 6116.52222964
0.23000001 173733.36698706 6621.84759587
0.23100001 170233.49861450 7701.36384154
0.23200001 166786.67963618 8743.79209345
0.23300001 163395.95730879 9176.31739645
0.23400001 160059.66846284 6206.31393818
0.23500001 156776.09467173 7214.83621803
0.23600001 153547.07282207 8187.89804550
0.23700001 150371.13487157 7515.54967635
0.23800001 147247.48625520 7390.35168470
0.23900001 144176.78123521 6747.47368096
0.24000001 141157.34719204 6633.68984507
0.24100001 138190.75163168 6019.58942581
0.24200001 135274.57410490 5423.83430529
0.24300001 132408.81458310 5815.39541157
0.24400001 129592.72346817 4762.53281274
0.24500001 126826.74598328 6083.87929261
0.24600001 124110.11995083 6897.42024255
0.24700001 121442.89592701 5872.97872486
0.24800001 118822.89968631 5769.44616720
0.24900001 116250.86470183 6539.11144883
0.25000001 113726.62184371 5138.16901798
0.25100001 111248.77671358 4205.20395872
0.25200001 108818.37072783 6607.45178319
0.25300001 106434.14453416 6488.22575776
0.25400001 104094.46660473 5972.42030401
0.25500001 101800.11595437 5472.77449263
0.25600001 99550.61798977  4605.21180609
0.25700001 97345.13589429  4520.70832482
0.25800001 95182.99044036  5177.00309500
0.25900001 93064.54717232  5444.27626718
0.26000001 90989.12963744  5343.33689078
0.26100001 88953.80768664  3845.47328825
0.26200001 86962.79263013  4802.95526422
0.26300001 85011.42481613  4039.74309841
0.26400001 83100.72398685  3303.25393478
0.26500001 81231.30429524  4213.46795317
0.26600001 79400.59219653  5087.99018871
0.26700001 77610.34053363  4679.90375563
0.26800001 75858.70108645  3979.16835379
0.26900001 74144.95581247  3603.44502301
0.27000001 72469.56370889  3829.65427542
0.27100001 70831.35539208  4045.88721146
0.27200001 69230.58300416  4819.48726391
0.27300001 67665.70950708  3893.48510929
0.27400001 66135.71693486  3546.52798847
0.27500001 64643.49506347  3746.73715119
0.27600001 63184.19521515  4200.48549670
0.27700001 61761.29802594  2832.99087453
0.27800001 60371.24634956  3284.49781309
0.27900001 59015.57353958  2974.38504717
0.28000001 57692.56567708  2918.09011006
0.28100001 56402.15661366  3340.13587275
0.28200001 55144.44541466  2574.97000051
0.28300001 53918.48576795  2526.62036267
0.28400001 52723.97921179  2704.74026158
0.28500001 51560.48908334  2654.33410364
0.28600001 50426.63943088  2822.12700933
0.28700001 49323.37824078  2556.92404903
0.28800001 48248.82690429  2509.90409436
0.28900001 47204.96251111  3080.12394964
0.29000001 46188.25789639  2620.95281839
0.29100001 45201.10466631  1979.80847810
0.29200001 44240.85783130  2527.70153184
0.29300001 43308.15744428  2864.83475055
0.29400001 42402.02108355  2063.91847394
0.29500001 41523.66976280  1843.65102474
0.29600001 40669.94708271  1811.84622830
0.29700001 39841.86065497  2137.11750670
0.29800001 39039.55305715  2101.10884500
0.29900001 38261.98223801  2066.14713866
0.30000001 37508.44096930  2201.55804691
0.30100001 36779.80498841  2165.96281830
0.30200001 36073.54573226  1803.49700426
0.30300001 35390.95921320  2097.97616148
0.30400001 34731.79033751  1588.97948317
0.30500001 34093.79157879  1877.88612906
0.30600001 33478.14524916  1850.00239405
0.30700001 32884.40564816  1823.11153545
0.30800001 32311.55145801  2695.75286577
0.30900001 31759.55601609  1772.18330960
0.31000001 31228.77070460  1456.82222234
0.31100001 30716.25686696  1581.27297838
0.31200001 30224.68117866  2128.57327279
0.31300001 29751.68551506  1541.43489952
0.31400001 29298.99073509  1661.25285333
0.31500001 28864.11173819  1368.15896117
0.31600002 28447.32925279  1623.20468402
0.31700002 28048.03086515  1337.89113561
0.31800002 27666.59505657  1588.61596337
0.31900002 27302.61614732  1703.68332826
0.32000002 26955.07386853  1427.67555505
0.32100002 26624.41402781  1671.74703596
0.32200002 26309.97266502  1402.19005958
0.32300002 26010.65207947  1769.76485129
0.32400002 25726.98755634  1505.02884331
0.32500002 25458.20495510  1991.85005000
0.32600002 25204.67146620  1359.91811335
0.32700002 24965.51309848  1842.45495391
0.32800002 24741.18074904  1587.27052612
0.32900002 24529.43658252  1457.04860200
0.33000002 24332.86993379  1570.56516425
0.33100002 24147.19580363  1443.03648956
0.33200002 23976.91443377  1317.41162595
0.33300002 23817.95139953  1431.93530595
0.33400002 23672.11365373  1308.47614417
0.33500002 23537.83228061  1304.93748343
0.33600002 23415.24279442  1420.36869517
0.33700002 23303.50320476  1535.93396896
0.33800002 23204.27691591  1297.93129076
0.33900002 23114.72658775  1532.50644534
0.34000002 23036.59964858  1296.15434061
0.34100002 22968.64133371  1296.12049184
0.34200002 22911.62365436  1414.56371141
0.34300002 22863.11175301  1533.65760903
0.34400002 22825.06909648  1181.19738168
0.34500002 22795.84251260  1656.34599541
0.34600002 22777.02931099  1422.65331814
0.34700002 22764.82648226  1663.65359812
0.34800002 22762.87335200  1310.80012406
0.34900002 22768.77875992  1314.89703566
0.35000002 22782.82199441  1559.37032526
0.35100002 22804.81786449  1324.50388430
0.35200002 22833.72771880  1813.56890996
0.35300002 22870.47178184  2064.51758553
0.35400002 22914.73692897  1220.20979926
0.35500002 22965.61567744  1594.27311584
0.35600002 23022.82205504  1479.44661533
0.35700002 23086.69789142  1239.75573549
0.35800002 23157.43624341  1870.54200116
0.35900002 23233.75398413  1631.00960694
0.36000002 23316.66724563  1388.85735027
0.36100002 23404.41861715  1397.94599022
0.36200002 23498.74614820  1407.45746721
0.36300002 23596.55091344  1932.55761135
0.36400002 23700.33202893  1946.38986007
0.36500002 23808.46001906  1437.79296866
0.36600002 23921.99389155  1316.90582611
0.36700002 24039.40891721  1459.67297860
0.36800002 24162.58984249  2006.09911670
0.36900002 24288.89905225  2156.85433801
0.37000002 24418.27305301  1494.76465575
0.37100002 24551.96396601  1780.99955046
0.37200002 24689.64393270  1657.66277216
0.37300002 24830.12045236  1671.56378804
0.37400002 24974.97937626  1966.77971905
0.37500002 25121.79791445  1558.55641644
0.37600002 25272.53117371  1714.99404669
0.37700002 25424.90464682  1585.75137794
0.37800002 25580.78471260  1745.12121576
0.37900002 25738.89034891  2347.38691102
0.38000002 25899.53606586  1924.20612317
0.38100002 26061.76486440  1941.34095672
0.38200002 26226.30497768  2109.38180928
0.38300002 26392.57590775  1976.27617760
0.38400002 26561.08755651  1994.07374277
0.38500002 26730.17874250  1857.21290701
0.38600002 26901.93877152  2030.15490557
0.38700002 27074.02958489  2363.56289473
0.38800002 27247.26694562  2543.80496256
0.38900002 27421.71881995  1925.00475236
0.39000002 27597.85890490  1780.47595160
0.39100002 27773.89124075  1959.72585879
0.39200002 27951.26094672  1812.49960196
0.39300002 28128.61861974  1994.88172702
0.39400002 28307.52442409  1677.22090159
0.39500002 28485.68800469  2030.45993717
0.39600002 28664.29685008  2389.74254161
0.39700002 28842.61202814  2066.28482359
0.39800002 29022.10141340  2258.06470745
0.39900002 29200.42549045  1927.22817368
0.40000002 29378.75396761  2120.55856185
0.40100002 29556.50251516  1960.48290472
0.40200002 29735.10123804  2336.73304151
0.40300002 29912.11285349  2175.20894977
0.40400002 30088.54292796  2193.45488337
0.40500002 30264.43833112  1843.10438169
0.40600002 30439.81771047  2415.85624706
0.40700002 30614.09476158  2248.29922582
0.40800002 30787.79620797  1888.83138685
0.40900002 30959.57245720  2094.41517597
0.41000002 31131.25207839  2111.16595973
0.41100002 31301.33282262  2321.30695211
0.41200002 31469.57345958  1949.54016820
0.41300002 31636.97619237  2161.12194610
0.41400002 31802.70844583  2771.60617238
0.41500002 31967.63681302  2393.73675798
0.41600002 32129.61999774  2210.67860869
0.41700002 32290.90736406  2429.56798519
0.41800002 32451.29954060  2243.52070005
0.41900002 32607.90701353  2465.15788703
0.42000002 32763.54372729  2689.72324974
0.42100002 32917.85156678  3125.55015437
0.42200002 33070.01267471  2517.95088437
0.42300002 33219.63521891  3591.70713006
0.42400002 33367.25528412  2765.31141271
0.42500002 33513.24959637  2141.49675068
0.42600002 33655.67245780  3880.16266153
0.42700002 33797.24184917  2603.73963544
0.42800002 33935.97344608  3712.42599105
0.42900002 34072.90283415  2417.47257064
0.43000002 34207.45627820  2211.51215318
0.43100002 34338.16610422  2670.13592279
0.43200002 34467.46516701  3357.99295302
0.43300002 34593.79078139  2927.67265257
0.43400002 34718.06821433  2944.96027584
0.43500002 34839.24429310  2506.33535322
0.43600002 34958.75545393  2979.01048718
0.43700002 35074.58722312  3456.60073464
0.43800002 35187.08403136  3475.60438990
0.43900002 35297.96989941  3028.56596089
0.44000002 35405.32467548  2342.06233827
0.44100002 35510.59729503  2825.22325468
0.44200002 35612.75612432  2603.11453227
0.44300002 35712.27905777  2854.12547756
0.44400002 35808.42048255  3107.27583463
0.44500002 35900.81201836  3362.47021299
0.44600002 35991.13497248  2654.52628570
0.44700002 36078.70907960  2666.93830155
0.44800002 36162.27773247  2922.63542485
0.44900002 36244.20939228  3180.42952490
0.45000002 36322.79690032  3440.13225746
0.45100002 36397.04307408  2961.26356485
0.45200002 36469.26242677  2725.89514928
0.45300002 36537.72658566  3732.32894761
0.45400002 36603.79707144  2997.85112223
0.45500002 36666.64288724  2758.79834158
0.45600002 36726.03446609  3272.84071656
0.45700002 36782.32817611  2779.64067201
0.45800002 36834.87682601  2789.68952863
0.45900002 36884.56784142  2799.53883185
0.46000002 36931.88613586  2809.22405207
0.46100002 36974.82482137  3843.53322234
0.46200002 37015.33987633  3599.00166675
0.46300002 37052.24514432  4126.13821483
0.46400002 37085.57661185  3362.73481866
0.46500002 37116.66782452  3372.79176507
0.46600002 37143.70966199  3642.68377920
0.46700002 37167.55031282  3391.91080231
0.46800002 37188.89481041  3139.48664869
0.46900002 37206.27264522  2623.04234581
0.47000002 37220.17188024  2629.60526797
0.47100002 37231.31114534  3690.36773564
0.47200002 37239.07180541  2906.32349680
0.47300002 37244.19605460  3177.67495799
0.47400002 37244.70906073  2919.05421099
0.47500002 37243.18279538  2925.07971539
0.47600002 37238.76681090  3463.76405909
0.47700002 37229.98124392  2936.32875988
