# SAXS profile: number of points = 501, q_min = 0, q_max = 0.5, delta_q = 0.001
#    q    intensity    error
0.00000000 1664650.74656090 274.66737318
0.00100000 1664582.18477189 549.31213402
0.00200000 1664376.44607884 898.76330934
0.00300000 1664033.69425555 1697.31442860
0.00400000 1663553.81631688 1247.66540965
0.00500000 1662937.24888068 1646.30794155
0.00600000 1662183.73338136 2094.35158933
0.00700000 1661293.90899437 1993.55277365
0.00800000 1660267.25229195 2465.49697375
0.00900000 1659105.09699994 2488.65775188
0.01000000 1657806.62499079 3008.91915428
0.01100000 1656373.06662933 4770.35463959
0.01200000 1654803.86042515 4517.61473703
0.01300000 1653100.42952105 3818.66216061
0.01400000 1651261.98558730 4458.40755873
0.01500000 1649290.35685190 4749.95643924
0.01600000 1647184.33841998 5460.41632596
0.01700000 1644946.09722362 5329.62559408
0.01800000 1642575.17500497 5149.47340535
0.01900000 1640072.30991132 5412.23886692
0.02000000 1637438.07463842 7736.89525265
0.02100000 1634674.15799051 5933.86746254
0.02200000 1631778.80120789 7318.52825592
0.02300000 1628754.83710566 10554.33182486
0.02400000 1625602.12020040 7315.20987446
0.02500000 1622322.03334431 6959.76184090
0.02600000 1618914.75305438 7867.92605971
0.02700000 1615381.26883315 10855.36262375
0.02800000 1611721.45021805 9114.28521896
0.02900000 1607938.06312514 10853.58242443
0.03000000 1604031.10837431 10442.24299550
0.03100000 1600001.02808645 9984.00687466
0.03200000 1595848.80274086 12639.12309984
0.03300000 1591577.17728951 12175.56596756
0.03400000 1587184.15999395 9165.98894689
0.03500000 1582673.22322047 8546.43580005
0.03600000 1578043.87666678 8758.14392025
0.03700000 1573298.06126943 11658.13917317
0.03800000 1568437.13964984 11927.96499906
0.03900000 1563462.19375116 13133.08303570
0.04000000 1558372.46197270 12459.18841082
0.04100000 1553171.50720208 10763.47904398
0.04200000 1547859.89498612 12978.80582158
0.04300000 1542437.56996718 12216.10612119
0.04400000 1536908.28836319 11411.54457107
0.04500000 1531271.66112661 14792.08493380
0.04600000 1525528.03363670 15056.96239195
0.04700000 1519680.42754408 15318.37942207
0.04800000 1513729.34996057 23364.41360374
0.04900000 1507677.28299555 11307.58014881
0.05000000 1501523.76665266 11486.65734978
0.05100000 1495272.35520998 11663.12491395
0.05200000 1488920.92798276 18939.07508653
0.05300000 1482475.29027339 13208.85545210
0.05400000 1475933.46583051 17047.03232531
0.05500000 1469299.66027348 13576.32949425
0.05600000 1462572.10769715 16256.48973565
0.05700000 1455756.09359669 12665.07860548
0.05800000 1448849.93061567 14104.55473312
0.05900000 1441855.92645492 15572.04473302
0.06000000 1434776.61330472 22317.95126262
0.06100000 1427613.58442996 19915.21043346
0.06200000 1420367.21622938 13422.47082078
0.06300000 1413040.84714816 14921.71204355
0.06400000 1405632.34008834 15075.40755247
0.06500000 1398148.14606635 15225.83402289
0.06600000 1390586.23901444 22360.62776957
0.06700000 1382949.35421679 18337.90929511
0.06800000 1375240.40967659 19927.23446899
0.06900000 1367460.35504456 18665.83472027
0.07000000 1359608.65451802 17375.79941842
0.07100000 1351690.16386270 16058.07989881
0.07200000 1343703.69559265 17656.26738723
0.07300000 1335653.95706023 19273.48750345
0.07400000 1327540.70440393 20908.76707423
0.07500000 1319365.95271009 15040.77256589
0.07600000 1311129.82262436 16657.90517738
0.07700000 1302837.90391458 21340.48586674
0.07800000 1294488.53347036 16873.65882510
0.07900000 1286083.35504820 23149.50147667
0.08000000 1277626.91624539 17075.48453665
0.08100000 1269118.87188726 18732.19542794
0.08200000 1260560.29147021 15693.97636525
0.08300000 1251954.05596439 20507.00839913
0.08400000 1243301.10507513 20607.71678392
0.08500000 1234605.46591887 17519.05238382
0.08600000 1225865.67347168 19197.05734790
0.08700000 1217086.02702200 17672.08994220
0.08800000 1208264.62818357 20969.43360693
0.08900000 1199407.80321681 21049.60793515
0.09000000 1190514.35638365 24375.78259202
0.09100000 1181586.72430157 19567.07707372
0.09200000 1172625.98487241 17993.94658334
0.09300000 1163635.81574533 29533.07839144
0.09400000 1154614.02417492 18098.57567953
0.09500000 1145565.47129187 26393.82969915
0.09600000 1136490.69828199 29764.69278718
0.09700000 1127393.20833699 21544.48522419
0.09800000 1118273.34042320 19927.63186329
0.09900000 1109133.13839264 18300.69764402
0.10000000 1099972.27587509 28329.78729743
0.10100000 1090793.79478498 28371.54793672
0.10200000 1081599.72050659 18381.78811462
0.10300000 1072390.92394746 26766.87872086
0.10400000 1063170.16645187 18419.42400032
0.10500000 1053940.13191033 18433.41377439
0.10600001 1044697.05167338 16767.38846832
0.10700001 1035448.84722038 23483.98096006
0.10800001 1026192.43969621 25167.37076797
0.10900001 1016932.32236980 21813.19934148
0.11000001 1007668.54376409 26844.29126942
0.11100001 998403.04422448 18450.48912580
0.11200001 989138.83830032 18442.49450833
0.11300001 979873.69511604 18431.42507290
0.11400001 970613.03243006 20091.69071731
0.11500001 961356.62605796 20073.12729729
0.11600001 952105.75511446 21722.29382587
0.11700001 942863.10192813 23364.14876611
0.11800001 933627.52500105 19998.30252741
0.11900001 924402.81794169 28286.72756137
0.12000001 915189.12591681 19932.82010140
0.12100001 905989.72822644 21553.49664985
0.12200001 896803.64352939 18200.63080288
0.12300001 887633.97367534 18160.99195704
0.12400001 878480.51208947 23060.11452888
0.12500001 869345.44300930 16430.62964709
0.12600001 860231.46836992 21303.63331808
0.12700001 851138.37312179 17976.04328748
0.12800001 842066.37859789 17923.38371317
0.12900001 833018.43705624 17868.24631702
0.13000001 823995.31990944 21048.96143923
0.13100001 814997.13359597 24205.41600879
0.13200001 806027.45166589 17688.27326064
0.13300001 797086.94355233 20827.88281691
0.13400001 788174.50040403 25536.85501704
0.13500001 779293.80416740 19077.11322547
0.13600001 770443.95005391 26915.46066422
0.13700001 761627.87395251 15765.69773422
0.13800001 752844.44015692 17266.48804921
0.13900001 744098.61210033 18751.28590920
0.14000001 735387.56997146 23330.17175761
0.14100001 726714.01852606 17026.91025711
0.14200001 718077.93712513 24644.43596450
0.14300001 709483.41064455 16857.32663203
0.14400001 700925.10046223 16769.63381958
0.14500001 692411.82221025 21229.34747040
0.14600001 683938.14629446 16588.92052094
0.14700001 675510.38392452 19495.23059978
0.14800001 667124.07923658 16401.24626182
0.14900001 658782.34806240 23716.16564919
0.15000001 650487.01982818 20626.94437199
0.15100001 642238.03566341 16107.33069446
0.15200001 634037.24724255 21826.73326626
0.15300001 625884.38120641 23132.68782100
0.15400001 617778.45678008 15799.68477775
0.15500001 609724.07668587 18547.80728811
0.15600001 601717.82427678 14170.45543049
0.15700001 593766.31009279 16886.71465604
0.15800001 585861.90610370 18164.64925609
0.15900001 578013.01091089 15259.54420831
0.16000001 570214.42914190 23410.15449344
0.16100001 562472.85271096 16401.70915928
0.16200001 554783.15639642 14920.89369564
0.16300001 547149.64550166 21535.81106360
0.16400001 539570.82880161 14689.81650762
0.16500001 532048.29314739 18547.20437476
0.16600001 524581.98161623 17083.01303787
0.16700001 517171.93397733 14336.00668672
0.16800001 509818.71726510 15508.68611147
0.16900001 502525.31377821 14095.83571706
0.17000001 495289.24087068 17785.83747951
0.17100001 488112.07012951 15111.95040482
0.17200001 480994.15779068 16226.33867932
0.17300001 473935.38493410 14843.65695712
0.17400001 466937.72166856 12257.11577265
0.17500001 459999.57092617 17001.58494438
0.17600001 453120.18070335 13233.37550244
0.17700001 446304.24496302 13107.95629366
0.17800001 439548.27055110 11801.87162172
0.17900001 432853.70666286 14024.46075830
0.18000001 426221.56365869 16200.68239991
0.18100001 419652.32647235 13747.81086463
0.18200001 413142.36990151 13608.91030741
0.18300001 406697.31736626 12347.33113852
0.18400001 400313.37865399 13330.43613892
0.18500001 393993.22414639 13190.89376759
0.18600001 387735.52378005 11963.58015143
0.18700001 381540.42045636 17215.10458432
0.18800001 375407.89896274 13835.65876995
0.18900001 369340.84246622 13684.07885991
0.19000001 363332.69550637 11450.43043990
0.19100001 357393.19430890 12351.50937893
0.19200001 351513.14954947 10176.30616030
0.19300001 345699.15156113 12071.81494294
0.19400001 339947.38306148 13920.84599418
0.19500001 334259.59285755 13758.12549216
0.19600001 328634.15490693 14566.70960462
0.19700001 323073.08871064 9595.27118816
0.19800001 317575.16028315 9479.61898245
0.19900001 312141.35716897 14046.36173643
0.20000001 306769.00153795 16648.35450028
0.20100001 301461.56698368 10047.71450244
0.20200001 296215.79578375 11725.70283030
0.20300001 291034.10445907 10686.77282084
0.20400001 285915.05354523 8791.88831207
0.20500001 280857.93610332 13017.76595370
0.20600001 275864.28015852 10278.70356456
0.20700001 270932.43910776 9298.40174971
0.20800001 266062.83415383 9175.17726951
0.20900001 261257.53177006 8229.61263978
0.21000001 256511.43081966 10554.16331999
0.21100001 251827.41610421 13613.79075816
0.21200001 247204.86968066 14216.75272742
0.21300001 242643.31064542 9346.62076793
0.21400001 238143.46559765 11520.19069292
0.21500001 233705.14694307 8329.25183084
0.21600001 229325.78536795 7464.55466664
0.21700001 225007.22323196 8093.51020231
0.21800001 220748.71097292 10152.23369765
0.21900001 216548.72323438 8575.32984554
0.22000001 212407.90838417 8449.58699504
0.22100001 208328.32578258 9018.53364956
0.22200001 204306.34620966 8200.85712463
0.22300001 200342.63359619 10097.26921070
0.22400001 196435.33691579 6629.69293440
0.22500001 192588.90096081 7834.51686156
0.22600001 188797.73923639 7071.41965749
0.22700001 185064.96834696 6962.14443845
0.22800001 181387.94371741 6853.74377748
0.22900001 177766.82969108 6746.25150581
0.23000001 174201.87181147 6036.09514373
0.23100001 170693.96236183 8316.21023956
0.23200001 167239.16135676 6429.50986244
0.23300001 163840.36104169 6900.95633345
0.23400001 160495.92838828 6223.22991759
0.23500001 157203.92163997 6678.02290711
0.23600001 153966.69303905 6020.86781606
0.23700001 150782.20887467 5382.92511143
0.23800001 147650.31740611 8469.22260700
0.23900001 144570.92218324 6765.91947820
0.24000001 141543.16866942 6651.82152625
0.24100001 138567.89378743 7042.02069537
0.24200001 135642.95530535 7416.27893212
0.24300001 132768.59110583 5831.19679720
0.24400001 129943.76380492 6685.60696402
0.24500001 127169.01313323 5631.04416791
0.24600001 124443.50135138 5532.75833181
0.24700001 121767.32523244 5888.66812681
0.24800001 119138.51224136 4894.80600699
0.24900001 116557.42610694 5245.08442294
0.25000001 114024.17849213 4722.31157566
0.25100001 111537.32513946 4637.72219870
0.25200001 109097.96870992 4140.26810842
0.25300001 106704.59128558 5691.62316845
0.25400001 104355.88892940 4390.77423444
0.25500001 102052.37366239 5878.21700106
0.25600001 99793.78415728  4616.46067353
0.25700001 97579.13078540  4531.57504808
0.25800001 95407.84978177  4077.25465334
0.25900001 93280.18996989  6184.47688762
0.26000001 91195.61333935  4284.37011740
0.26100001 89151.08573555  4204.36540222
0.26200001 87150.78055028  3781.90830093
0.26300001 85190.22593713  4048.23972809
0.26400001 83270.42395541  5295.99921416
0.26500001 81391.70422802  4546.54081331
0.26600001 79551.81904575  4779.07575532
0.26700001 77752.31820216  6563.85101323
0.26800001 75991.58773578  3679.51285228
0.26900001 74268.56714128  3609.45253387
0.27000001 72584.03453058  3835.70348628
0.27100001 70936.69013255  4051.90393212
0.27200001 69326.74235660  3974.50232739
0.27300001 67752.66622003  3620.02512745
0.27400001 66213.66412360  4643.23341641
0.27500001 64712.31797255  3214.90810902
0.27600001 63243.96357266  2890.56549189
0.27700001 61811.98667916  2835.31596316
0.27800001 60413.01131793  3033.94157197
0.27900001 59048.34698204  2728.03375968
0.28000001 57716.46159567  2919.29876567
0.28100001 56417.13921108  3579.66765237
0.28200001 55150.56801093  2575.25589516
0.28300001 53915.81577178  2296.81386059
0.28400001 52712.45329185  2253.45748488
0.28500001 51540.19559894  2211.07449585
0.28600001 50397.76815404  3037.47363041
0.28700001 49285.80798710  2554.97640698
0.28800001 48202.72549457  2298.54707401
0.28900001 47150.26010247  2256.14005269
0.29000001 46125.08157109  2214.69589647
0.29100001 45129.51816849  2767.34218508
0.29200001 44160.97228197  3105.39971786
0.29300001 43219.82084900  1905.99418966
0.29400001 42305.48961686  2808.02700624
0.29500001 41418.78220119  2206.79282014
0.29600001 40557.08793459  2710.22752952
0.29700001 39720.84397110  1775.52180956
0.29800001 38910.61989837  2443.19793908
0.29900001 38125.01381096  2401.87598379
0.30000001 37363.66624898  1855.66657210
0.30100001 36627.25592100  1825.13624895
0.30200001 35913.28895511  1958.71087234
0.30300001 35223.01730857  1766.78663184
0.30400001 34556.33373672  2371.42851495
0.30500001 33910.85525162  1867.80999569
0.30600001 33287.73801476  2605.93069386
0.30700001 32686.62746568  2114.17116457
0.30800001 32106.69517225  1488.14539169
0.30900001 31547.40539878  1907.04074664
0.31000001 31009.56840721  1591.25607815
0.31100001 30490.10639818  1712.32445639
0.31200001 29991.63805784  1548.91822083
0.31300001 29511.83844180  1668.00918770
0.31400001 29052.53208372  1647.27864714
0.31500001 28610.92590748  2034.23692834
0.31600002 28187.72141387  2010.48932504
0.31700002 27781.88484759  1457.71556697
0.31800002 27394.14247615  1835.13369137
0.31900002 27023.94361130  1556.57922571
0.32000002 26670.28350889  1412.59163293
0.32100002 26333.54112118  1399.10110602
0.32200002 26013.17435231  1638.43986416
0.32300002 25707.93693556  1374.34637365
0.32400002 25418.68238294  1610.90907230
0.32500002 25144.23406210  1475.46372463
0.32600002 24885.17945587  1586.80354314
0.32700002 24640.54002717  1697.24047744
0.32800002 24410.88161539  1445.61247772
0.32900002 24193.87072368  1556.87565479
0.33000002 23992.23968107  1667.70065920
0.33100002 23801.51148413  1303.84686084
0.33200002 23626.40023275  1416.16649701
0.33300002 23462.66545298  1880.76735178
0.33400002 23312.18335581  1288.58099601
0.33500002 23173.25169397  1167.93194068
0.33600002 23046.34197006  1397.99117011
0.33700002 22930.10412800  1162.55633434
0.33800002 22826.75675380  1276.81469949
0.33900002 22733.12536112  1159.38944832
0.34000002 22650.97359669  1853.75576694
0.34100002 22579.04933541  1389.96634291
0.34200002 22518.30583434  1274.42357905
0.34300002 22466.04875620  1622.94743901
0.34400002 22424.48582909  1508.60735560
0.34500002 22391.90518879  1510.78191464
0.34600002 22369.78031810  1164.34712070
0.34700002 22354.35370774  1166.89731881
0.34800002 22349.26854960  1403.98111678
0.34900002 22352.19262171  1408.18820186
0.35000002 22363.45321735  1295.17945443
0.35100002 22382.64562937  1181.80374520
0.35200002 22408.96797037  1661.17687432
0.35300002 22443.19206811  1430.08026631
0.35400002 22485.07455297  1317.06330432
0.35500002 22533.72595309  1323.63112518
0.35600002 22588.71061602  1209.62551078
0.35700002 22650.57596903  1581.23678329
0.35800002 22719.39616340  2324.53512856
0.35900002 22793.90029663  1723.21894405
0.36000002 22875.17762634  2105.77457613
0.36100002 22961.20415073  1371.47278888
0.36200002 23054.17838062  1882.95010843
0.36300002 23150.61415621  1769.63302992
0.36400002 23253.20611904  1527.73571439
0.36500002 23360.11112073  2051.95225804
0.36600002 23472.68884596  1809.04021505
0.36700002 23589.21588731  1822.97469012
0.36800002 23711.66091177  1837.41669109
0.36900002 23837.19354260  1984.44645642
0.37000002 23966.11431619  1333.71432487
0.37100002 24099.30437164  1748.16362193
0.37200002 24236.70956318  1356.04396430
0.37300002 24376.98111875  1777.81331721
0.37400002 24521.65341779  1655.21168411
0.37500002 24668.46004298  1947.82169726
0.37600002 24819.39364596  1964.95148803
0.37700002 24971.88075232  1840.67741745
0.37800002 25128.14556354  1428.53514296
0.37900002 25286.76422155  1585.48019180
0.38000002 25447.84122183  1745.21303367
0.38100002 25610.73688979  1907.74388130
0.38200002 25776.04712426  2073.16756842
0.38300002 25943.11089261  1643.75558403
0.38400002 26112.71989385  1809.61157437
0.38500002 26282.81804973  2130.48533204
0.38600002 26455.83070944  2303.64156816
0.38700002 26629.06226758  2634.67954557
0.38800002 26803.71251174  2033.19570890
0.38900002 26979.72093399  2051.80787424
0.39000002 27157.33951182  2070.61144918
0.39100002 27335.04941360  1768.03107983
0.39200002 27514.17784691  2595.13737747
0.39300002 27693.47565185  2455.02673285
0.39400002 27874.26230677  1651.55011992
0.39500002 28054.55307627  2333.01674436
0.39600002 28235.26319259  2017.69200334
0.39700002 28415.89411864  2375.00054296
0.39800002 28597.66629807  2396.19857264
0.39900002 28778.40323494  1726.70427591
0.40000002 28959.30683171  2438.66334384
0.40100002 29139.65040531  2811.39360431
0.40200002 29320.89475596  2481.42744077
0.40300002 29500.68621098  1966.51583600
0.40400002 29679.90630630  1803.05439354
0.40500002 29858.76376382  2000.23867931
0.40600002 30037.15516634  2383.89893273
0.40700002 30214.61308305  2773.70161244
0.40800002 30391.45389863  2796.77367754
0.40900002 30566.58748446  2067.82974130
0.41000002 30741.54355448  2084.73787493
0.41100002 30915.10037967  1910.55329399
0.41200002 31086.79446853  1925.82700858
0.41300002 31257.81625901  1941.11048166
0.41400002 31427.23331003  2738.88351275
0.41500002 31595.78228562  2760.20767126
0.41600002 31761.60640578  2781.36400475
0.41700002 31926.73096189  2802.52857663
0.41800002 32091.04070832  2420.30640491
0.41900002 32251.63940497  2235.03871667
0.42000002 32411.39729538  3274.84773790
0.42100002 32569.79059532  2474.00141085
0.42200002 32726.10437977  2284.11856342
0.42300002 32880.07502478  2509.40744480
0.42400002 33031.94654506  2737.52269964
0.42500002 33182.34262082  3180.52769092
0.42600002 33329.17121152  2348.20686898
0.42700002 33475.21760286  3008.75270072
0.42800002 33618.48136480  2379.68431617
0.42900002 33760.05848303  2830.78103794
0.43000002 33899.23083433  2410.74391502
0.43100002 34034.70966241  2425.99421970
0.43200002 34168.75801241  2441.18703188
0.43300002 34299.85070534  2232.92038673
0.43400002 34428.91577920  2695.78423326
0.43500002 34555.01469777  2485.88787516
0.43600002 34679.46938134  3637.18292108
0.43700002 34800.27760451  2515.01618166
0.43800002 34917.82494769  2989.14054630
0.43900002 35033.77520324  2312.22927299
0.44000002 35146.26206595  2789.91041501
0.44100002 35256.62468288  3038.76862542
0.44200002 35363.93677405  2819.92045200
0.44300002 35468.76742744  3070.88602940
0.44400002 35570.07800660  2374.30281946
0.44500002 35667.81664910  2863.41245629
0.44600002 35763.42760960  3357.11310881
0.44700002 35856.40514284  2409.55053979
0.44800002 35945.35885151  2905.10404006
0.44900002 36032.60905659  2675.42134925
0.45000002 36116.55847925  2687.61382661
0.45100002 36196.39365892  2944.93872766
0.45200002 36274.01955789  2957.78369493
0.45300002 36348.05663520  3465.42388384
0.45400002 36419.64080774  3479.89684410
0.45500002 36487.97530464  2495.77762912
0.45600002 36552.86140845  3006.83852196
0.45700002 36614.77557981  2515.43520155
0.45800002 36672.90727125  3534.90169941
0.45900002 36728.23878336  2787.67345578
0.46000002 36781.15945114  2797.75902625
0.46100002 36829.64675219  3573.21249725
0.46200002 36875.85390386  2561.02817500
0.46300002 36918.39422097  3340.37646743
0.46400002 36957.41540701  3351.11380086
0.46500002 36994.10858381  3620.24363759
0.46600002 37026.79544547  3631.21800144
0.46700002 37056.31573594  3641.89488314
0.46800002 37083.31810219  2869.69270735
0.46900002 37106.36667328  2877.59887190
0.47000002 37125.88799230  3147.53293317
0.47100002 37142.77167359  2629.70835913
0.47200002 37156.12688025  4745.20918879
0.47300002 37166.91486674  2642.56777228
0.47400002 37173.15183496  3443.16335191
0.47500002 37177.26196792  3716.23928245
0.47600002 37178.43700985  3192.14075297
0.47700002 37175.32094401  3198.56476563
