# SAXS profile: number of points = 501, q_min = 0, q_max = 0.5, delta_q = 0.001
#    q    intensity    error
0.00000000 1682732.95097189 353.37391970
0.00100000 1682663.82136342 555.27907424
0.00200000 1682456.38200869 832.81593547
0.00300000 1682110.79351350 1312.04646568
0.00400000 1681626.93389140 1261.22024834
0.00500000 1681005.27219281 2118.06672680
0.00600000 1680245.49468074 2293.53519361
0.00700000 1679348.29231748 2418.26164144
0.00800000 1678313.13534846 2945.43967689
0.00900000 1677141.36855876 2515.71216038
0.01000000 1675832.10190151 3041.63539629
0.01100000 1674386.67031302 4520.84420668
0.01200000 1672804.43649883 5871.54382954
0.01300000 1671086.87429051 3509.28259079
0.01400000 1669233.16078969 4131.35225610
0.01500000 1667245.19002377 5601.94408793
0.01600000 1665121.64066624 5095.27244822
0.01700000 1662864.82186601 6734.60283066
0.01800000 1660474.15159819 5678.82185400
0.01900000 1657950.44069354 5471.23670116
0.02000000 1655294.28286311 5214.17722689
0.02100000 1652507.37577244 7634.58442221
0.02200000 1649587.87890909 7967.50981711
0.02300000 1646538.68975105 7113.04746350
0.02400000 1643359.65247454 11092.67816000
0.02500000 1640052.17097369 7675.44451070
0.02600000 1636616.39108876 8616.78569320
0.02700000 1633053.40769647 10974.11940235
0.02800000 1629362.96009586 7796.50212160
0.02900000 1625547.84271787 8046.46219090
0.03000000 1621608.09518998 8294.52578816
0.03100000 1617544.26890049 8540.63413278
0.03200000 1613357.20289967 8784.73037440
0.03300000 1609049.63944558 9026.76889343
0.03400000 1604619.68376173 11793.95521983
0.03500000 1600070.78003766 9504.42087232
0.03600000 1595402.37379438 10625.38030051
0.03700000 1590616.55560330 12693.12070074
0.03800000 1585714.50538486 13914.64542872
0.03900000 1580697.54652861 10432.60429022
0.04000000 1575564.76006927 15503.55795750
0.04100000 1570319.69545484 10882.31599408
0.04200000 1564963.00005201 10094.01181863
0.04300000 1559494.68611562 11321.93194674
0.04400000 1553918.26741245 10488.94879216
0.04500000 1548233.72659596 11751.09453088
0.04600000 1542441.10092550 11961.63129374
0.04700000 1536543.59362598 17700.98302181
0.04800000 1530541.65223265 16874.22250099
0.04900000 1524437.77533335 16006.59738607
0.05000000 1518231.58615386 13937.36660990
0.05100000 1511926.47721350 11793.02707163
0.05200000 1505520.54219385 14362.66664185
0.05300000 1499019.32749812 13356.26283065
0.05400000 1492421.17366523 12312.47525692
0.05500000 1485730.06578947 14976.15976178
0.05600000 1478944.43617604 16438.46817518
0.05700000 1472069.28411299 14087.70370655
0.05800000 1465103.31727327 15559.39795595
0.05900000 1458048.48949710 17059.16812388
0.06000000 1450907.62993691 14603.38597757
0.06100000 1443682.09203952 20139.36612509
0.06200000 1436372.48204244 14931.09264876
0.06300000 1428982.08368300 16461.87437371
0.06400000 1421508.67135710 19403.59427147
0.06500000 1413958.77662962 16797.83105213
0.06600000 1406330.41720871 16960.34562509
0.06700000 1398626.19695427 17119.18545188
0.06800000 1390849.33159189 18713.87863255
0.06900000 1383000.61515017 18877.95928065
0.07000000 1375079.26672679 16109.05436407
0.07100000 1367090.52133169 16241.03615411
0.07200000 1359033.02570674 16369.55356150
0.07300000 1350911.67976648 16494.63238281
0.07400000 1342725.95039726 27190.20176979
0.07500000 1334478.06497957 16734.35571922
0.07600000 1326168.09133538 15317.24217301
0.07700000 1317801.65726565 18501.93613554
0.07800000 1309377.03788822 23274.17793993
0.07900000 1300896.09513516 21855.05542335
0.08000000 1292363.23882834 18842.65690605
0.08100000 1283778.31422116 18948.56880694
0.08200000 1275141.88978663 17463.06900009
0.08300000 1266457.57779465 23936.04934369
0.08400000 1257725.61494265 19243.20281187
0.08500000 1248950.52422042 22556.04752632
0.08600000 1240130.74796428 16183.70702078
0.08700000 1231270.24356046 19503.32157383
0.08800000 1222367.77120891 16318.61051202
0.08900000 1213429.24186371 22933.81374842
0.09000000 1204453.49197195 21373.02821905
0.09100000 1195443.06621759 23095.96112440
0.09200000 1186399.14295380 19860.32258622
0.09300000 1177325.22331481 18260.31507170
0.09400000 1168219.24534838 18311.83753145
0.09500000 1159085.87349888 23367.17230806
0.09600000 1149925.89789995 20077.70712114
0.09700000 1140742.81970516 25153.38035703
0.09800000 1131537.01309030 23524.65560822
0.09900000 1122310.23001972 20201.58509028
0.10000000 1113062.48524890 26980.63591126
0.10100000 1103796.59945415 18576.89764252
0.10200000 1094515.02995663 18601.28380905
0.10300000 1085218.26763349 20315.28692575
0.10400000 1075909.17826259 18640.12739033
0.10500000 1066590.33022322 25438.18057267
0.10600001 1057258.22590446 20362.79438906
0.10700001 1047920.50506206 20371.57557705
0.10800001 1038574.40019856 20376.83069086
0.10900001 1029224.23974911 20378.64090617
0.11000001 1019870.32291614 20377.01001100
0.11100001 1010514.21747958 20371.96758337
0.11200001 1001158.91637662 18666.60887461
0.11300001 991802.64242172 23743.75637745
0.11400001 982450.68027135 20336.73003916
0.11500001 973102.75021586 20318.38638126
0.11600001 963760.05746795 16913.98980507
0.11700001 954425.51244511 23650.66531222
0.11800001 945097.75636311 16869.99574563
0.11900001 935780.66615233 18528.45806254
0.12000001 926474.46630753 18497.06359113
0.12100001 917182.55741648 20141.32990969
0.12200001 907903.59640666 21776.06878571
0.12300001 898640.93176509 18386.19433017
0.12400001 889394.44897890 21678.99071532
0.12500001 880166.06109722 19962.16720631
0.12600001 870958.95219095 24887.65323165
0.12700001 861772.43151103 21509.84090420
0.12800001 852607.04107489 19797.53642680
0.12900001 843465.51895520 24671.36759225
0.13000001 834349.01570970 16394.95893147
0.13100001 825257.08881901 24510.13669327
0.13200001 816193.79667952 21167.98711475
0.13300001 807159.71932420 21091.08446024
0.13400001 798153.75780050 27476.44440768
0.13500001 789179.37942216 20929.03812904
0.13600001 780235.93345809 19240.61902629
0.13700001 771326.45971799 15966.45846903
0.13800001 762449.49429724 20666.19451746
0.13900001 753610.26508160 22156.14283824
0.14000001 744805.71867039 22053.69836990
0.14100001 736038.94791375 18813.15639596
0.14200001 727309.45203545 17160.86733017
0.14300001 718622.22279237 24835.58519114
0.14400001 709970.83348976 21618.61289951
0.14500001 701364.64517632 15359.88645392
0.14600001 692798.24175293 15276.20195130
0.14700001 684277.76050865 27343.74059991
0.14800001 675799.06541079 15104.10982452
0.14900001 667364.94812682 16517.28324544
0.15000001 658977.68621545 17911.01435643
0.15100001 650636.72160494 19284.87333833
0.15200001 642344.23232123 14741.80082739
0.15300001 634099.85735094 20506.79035442
0.15400001 625902.60023803 16007.45975650
0.15500001 617757.10360297 21683.27535976
0.15600001 609660.22831997 22971.99848726
0.15700001 601617.97729977 15684.18140845
0.15800001 593623.28986040 15573.70774455
0.15900001 585684.16441330 16867.70473127
0.16000001 577795.89392436 15349.14864662
0.16100001 569964.80655370 15235.15999834
0.16200001 562185.86713452 17869.07863040
0.16300001 554463.49365794 17731.74336426
0.16400001 546796.03725788 13533.20256103
0.16500001 539185.31393537 16110.85794100
0.16600001 531630.85548817 15980.82427048
0.16700001 524133.32998572 21133.05686282
0.16800001 516692.83421121 18337.42955198
0.16900001 509312.55997109 14286.21798176
0.17000001 501989.98887443 15451.25258716
0.17100001 494726.69623500 20422.31898495
0.17200001 487522.83905200 13916.34009791
0.17300001 480378.74101978 13791.67430598
0.17400001 473296.16236920 19878.43975829
0.17500001 466273.46245751 19695.39198437
0.17600001 459309.93295512 12194.67929590
0.17700001 452410.20140191 18119.02942192
0.17800001 445570.91363874 16749.01143477
0.17900001 438793.52646644 13032.16835161
0.18000001 432078.85572461 17596.41223055
0.18100001 425427.66650391 12775.59342859
0.18200001 418836.08388209 12646.75615023
0.18300001 412310.10011460 14793.68709096
0.18400001 405845.49656783 12388.43436797
0.18500001 399445.36935016 17831.24213018
0.18600001 393107.97295868 14334.68291116
0.18700001 386833.76795432 14181.32660320
0.18800001 380622.50850005 15106.90807611
0.18900001 374477.33781071 17076.16741097
0.19000001 368391.66499846 11609.86387098
0.19100001 362374.86466137 10436.39659537
0.19200001 356418.39713683 11350.14439313
0.19300001 350528.45190688 12240.45411898
0.19400001 344701.11857671 11090.75901429
0.19500001 338938.34822999 12954.22428150
0.19600001 333238.55966796 11816.63988424
0.19700001 327603.38265912 9729.82092478
0.19800001 322032.22038081 15380.25957224
0.19900001 316525.83782977 11394.93070040
0.20000001 311081.10742667 11254.91499862
0.20100001 305702.14948865 9262.77556729
0.20200001 300385.37814046 10976.08223602
0.20300001 295133.18733656 9934.18355528
0.20400001 289944.24123399 8915.78583936
0.20500001 284817.96273659 11441.13810392
0.20600001 279755.43285601 9555.04726085
0.20700001 274755.59602566 9429.61250133
0.20800001 269818.23812876 10996.44281474
0.20900001 264946.10451775 10014.96322419
0.21000001 260133.74704300 11526.52687636
0.21100001 255384.21050371 9745.46193352
0.21200001 250696.50979535 8810.72925328
0.21300001 246070.48650806 8688.74928936
0.21400001 241506.90894248 9346.31781794
0.21500001 237005.35433196 9982.66599642
0.21600001 232563.22853641 9083.92013611
0.21700001 228182.73412853 9700.04848642
0.21800001 223862.89285131 7353.89637786
0.21900001 219602.22919112 8696.24868714
0.22000001 215401.25302930 7854.60706310
0.22100001 211262.40937684 7738.54242138
0.22200001 207181.59517531 8316.26962357
0.22300001 203159.77799416 8191.40263606
0.22400001 199194.97682436 8067.39694286
0.22500001 195291.53798202 8606.49848585
0.22600001 191444.20777221 8474.27825777
0.22700001 187655.87024291 8343.18038554
0.22800001 183923.84615617 8844.89817993
0.22900001 180248.41218901 6840.42756606
0.23000001 176629.95049401 6732.25088146
0.23100001 173069.04515240 6022.80305614
0.23200001 169561.72603867 7111.41912639
0.23300001 166111.40018649 6996.61250676
0.23400001 162715.82871409 5735.73323345
0.23500001 159373.42756760 7898.54744382
0.23600001 156086.50705370 7213.53826467
0.23700001 152852.91811021 7093.90426502
0.23800001 149672.67262668 6975.49523770
0.23900001 146545.52856983 7385.89498927
0.24000001 143470.63064538 6223.75625178
0.24100001 140448.85314388 6117.95233233
0.24200001 137478.00754768 7516.61041822
0.24300001 134558.45859773 5909.80778116
0.24400001 131689.11428443 6291.44773255
0.24500001 128870.46777624 5230.85253448
0.24600001 126101.61929869 6073.68478084
0.24700001 123382.99441915 4589.84760952
0.24800001 120712.12634820 5410.31775887
0.24900001 118089.86945479 4871.20734545
0.25000001 115515.86719067 4349.17260548
0.25100001 112988.98679094 4698.08229303
0.25200001 110510.25408566 4193.86434096
0.25300001 108078.10249121 5764.88625962
0.25400001 105691.28003779 4851.22998325
0.25500001 103350.26100760 4365.51523150
0.25600001 101054.83727601 3895.66416130
0.25700001 98803.87061240  4206.08097097
0.25800001 96597.08806620  4878.63616361
0.25900001 94434.41666867  5156.11939407
0.26000001 92315.38950232  5059.80673803
0.26100001 90237.08110548  3900.94920077
0.26200001 88203.75104121  5567.42102915
0.26300001 86210.69943524  3755.33824509
0.26400001 84258.90333834  4689.00819265
0.26500001 82348.86025891  3614.29164779
0.26600001 80478.34887683  3867.78963004
0.26700001 78648.70738883  5058.68509863
0.26800001 76858.49448972  6822.72887871
0.26900001 75106.54940027  4258.54155252
0.27000001 73393.60438377  3281.79517532
0.27100001 71718.65569531  4389.18193626
0.27200001 70081.54753814  3443.80740900
0.27300001 68480.94354107  3377.48029528
0.27400001 66915.85046750  3036.30685866
0.27500001 65389.24825435  2977.82650643
0.27600001 63895.95707339  3716.82799886
0.27700001 62439.67586911  2864.10806766
0.27800001 61016.94411634  3574.98292497
0.27900001 59629.04323051  3255.74591447
0.28000001 58274.56703084  3438.78236324
0.28100001 56953.23965984  2409.12215163
0.28200001 55665.10325523  3544.47561754
0.28300001 54409.33065650  2781.40511480
0.28400001 53185.57034202  2273.68323974
0.28500001 51993.41655883  2899.67297873
0.28600001 50831.51091535  3063.61530788
0.28700001 49700.68443677  2791.19057008
0.28800001 48599.22186280  2317.45400422
0.28900001 47529.02440117  2274.26392525
0.29000001 46486.47464886  3652.44248605
0.29100001 45474.02242087  2190.93850395
0.29200001 44489.14688657  2541.88752769
0.29300001 43532.17113768  2111.74572185
0.29400001 42602.45203627  2262.19031021
0.29500001 41700.85962387  2777.27738242
0.29600001 40824.77387152  2546.24126690
0.29700001 39974.65124258  1965.55369464
0.29800001 39150.90460970  1931.50997035
0.29900001 38352.26179646  2071.02223505
0.30000001 37578.41798554  2544.99847855
0.30100001 36829.98828398  3003.11738684
0.30200001 36104.37374476  2133.22702370
0.30300001 35402.86990383  2098.68222725
0.30400001 34725.38840902  2065.29257340
0.30500001 34069.58838291  1720.17359889
0.30600001 33436.53359453  2001.67817840
0.30700001 32825.95734428  1668.21523122
0.30800001 32236.87438357  1494.17919842
0.30900001 31669.02171407  1767.13149531
0.31000001 31122.84629883  2177.82127287
0.31100001 30595.54285719  1718.24576821
0.31200001 30089.52664205  1695.24401128
0.31300001 29602.66834297  1812.57146846
0.31400001 29136.72042425  1514.38111575
0.31500001 28688.69955310  1767.79775016
0.31600002 28259.49243048  1746.86060730
0.31700002 27848.03308996  1594.02148954
0.31800002 27455.07777937  1445.09808734
0.31900002 27079.94568899  1689.78869100
0.32000002 26721.82093158  1672.65246041
0.32100002 26380.89228715  1783.87602092
0.32200002 26056.56407106  1514.92870682
0.32300002 25747.72846647  1501.60759527
0.32400002 25455.24424170  1861.41482331
0.32500002 25177.87997893  1354.31822820
0.32600002 24916.23875966  1466.56988284
0.32700002 24669.30771265  1699.22199571
0.32800002 24437.66389607  1205.99877038
0.32900002 24218.99035733  1798.26011919
0.33000002 24015.97586877  1430.87191002
0.33100002 23824.04339784  1661.01238435
0.33200002 23648.13917105  1299.34706828
0.33300002 23483.74490238  1294.18924286
0.33400002 23332.93936507  1172.48025862
0.33500002 23193.98690642  1870.36319271
0.33600002 23067.23907802  1749.07348592
0.33700002 22951.48282592  1280.00425782
0.33800002 22848.75602181  1742.78894810
0.33900002 22756.13019796  1740.84404259
0.34000002 22674.99535296  1275.80867395
0.34100002 22604.55289462  1275.57498025
0.34200002 22545.42705763  1623.94718787
0.34300002 22494.96916560  1625.03664948
0.34400002 22455.45027381  1394.48352805
0.34500002 22425.07127568  1163.86125433
0.34600002 22405.35438424  1399.43850112
0.34700002 22392.49217765  1987.10984996
0.34800002 22390.28531068  1172.13149153
0.34900002 22396.12204606  1175.79646311
0.35000002 22410.58821290  1415.90103035
0.35100002 22433.15037158  1184.47039572
0.35200002 22462.90629686  1308.35203923
0.35300002 22500.76307078  1194.79057565
0.35400002 22546.50102162  1320.66135989
0.35500002 22599.06395493  1689.50610129
0.35600002 22658.19583665  1941.35431123
0.35700002 22724.27881361  1220.29383009
0.35800002 22797.47981446  1473.17321539
0.35900002 22876.46275457  1605.92776144
0.36000002 22962.27415177  1243.40720421
0.36100002 23053.18397836  1502.14553918
0.36200002 23150.91318045  1638.73746710
0.36300002 23252.40750777  1523.49781207
0.36400002 23360.03194736  1278.96180970
0.36500002 23472.15487389  2061.79418178
0.36600002 23589.92119862  1558.35026820
0.36700002 23711.87365392  1439.78503647
0.36800002 23839.73042656  1451.48205578
0.36900002 23970.78323276  2261.64350514
0.37000002 24105.25896650  1609.74927004
0.37100002 24244.03557920  2029.22587410
0.37200002 24387.22064389  1773.80457756
0.37300002 24533.26472017  1513.94783760
0.37400002 24683.77615075  1666.15496910
0.37500002 24836.43708970  1540.85263004
0.37600002 24993.33124691  1554.71024386
0.37700002 25151.79603841  1426.10690294
0.37800002 25314.03936277  2014.74448833
0.37900002 25478.74543884  1742.74627057
0.38000002 25645.92179525  1465.66450003
0.38100002 25814.88481753  2070.87015817
0.38200002 25986.36904756  1492.91697251
0.38300002 26159.54685733  2109.50595851
0.38400002 26335.26588676  1672.94784471
0.38500002 26511.67527208  1842.03128517
0.38600002 26690.76388681  1704.33880873
0.38700002 26870.19577348  2345.76820216
0.38800002 27051.01152675  1736.26925710
0.38900002 27233.20844927  1752.45704673
0.39000002 27417.00989996  2090.41001886
0.39100002 27600.80987047  1947.51323673
0.39200002 27786.10387330  2129.38817121
0.39300002 27971.53002132  1653.11750258
0.39400002 28158.38368951  2168.89960644
0.39500002 28344.72179387  2188.77952062
0.39600002 28531.44783825  2718.47647882
0.39700002 28718.01469568  2228.80522613
0.39800002 28905.85320252  2422.02155459
0.39900002 29092.55046239  2094.66373253
0.40000002 29279.17140694  1937.25646793
0.40100002 29465.43255587  1954.44223403
0.40200002 29652.47536328  2150.99066477
0.40300002 29838.00448056  2169.81978863
0.40400002 30022.96906364  2188.67454844
0.40500002 30207.43851312  2759.44963892
0.40600002 30391.41617614  2783.09406819
0.40700002 30574.31274210  2619.60723986
0.40800002 30756.57288221  2264.29900287
0.40900002 30937.05257649  2283.15458832
0.41000002 31117.38987311  2110.22589423
0.41100002 31296.15247137  1934.10231437
0.41200002 31472.91674744  2339.69674187
0.41300002 31649.01424650  2555.02504118
0.41400002 31823.43424074  2377.21065042
0.41500002 31996.91878088  1996.60782653
0.41600002 32167.59250880  2414.49960812
0.41700002 32337.45148856  2230.31413485
0.41800002 32506.38724518  3064.53980275
0.41900002 32671.53820837  3293.29120745
0.42000002 32835.81874532  2903.01487283
0.42100002 32998.55514510  2297.68950363
0.42200002 33159.14917341  2524.73773770
0.42300002 33317.28810108  2330.87758600
0.42400002 33473.30242207  2987.49238273
0.42500002 33627.60642888  2363.68456789
0.42600002 33778.27085461  3461.59736121
0.42700002 33928.12786658  2831.64168593
0.42800002 34075.09549745  4166.19174842
0.42900002 34220.23639775  2648.64642270
0.43000002 34362.85121002  2221.55843600
0.43100002 34501.68881356  2459.28049517
0.43200002 34638.93238591  2474.77864159
0.43300002 34773.15283855  2716.47882848
0.43400002 34905.28653616  3188.59807618
0.43500002 35034.20434463  2520.36077999
0.43600002 35161.47817593  2996.28550475
0.43700002 35284.98715520  3013.69089574
0.43800002 35405.06948792  2564.56632989
0.43900002 35523.43039643  3985.72907936
0.44000002 35638.24370652  2357.46993291
0.44100002 35750.76166144  2607.30317153
0.44200002 35860.16912683  3574.36252711
0.44300002 35966.87198592  2634.93316656
0.44400002 36070.05119538  3611.51404709
0.44500002 36169.48886166  2661.71281147
0.44600002 36266.74812135  2918.02269213
0.44700002 36361.19532884  3909.55590704
0.44800002 36451.40543004  3437.00318088
0.44900002 36539.93589642  2959.73494788
0.45000002 36625.06836814  2725.45459178
0.45100002 36705.80232156  3235.24956995
0.45200002 36784.34927484  3499.29531236
0.45300002 36859.02456675  2510.09969196
0.45400002 36931.23384184  3528.77956083
0.45500002 37000.05887882  3036.96497671
0.45600002 37065.40938621  3811.25090077
0.45700002 37127.46588472  3060.78843260
0.45800002 37185.71693725  3328.30775221
0.45900002 37241.06373199  2826.59687122
0.46000002 37293.83980767  4384.07754637
0.46100002 37341.98519967  3105.35963638
0.46200002 37387.87001863  3635.22277420
0.46300002 37429.96951618  2865.63860198
0.46400002 37468.33224208  2613.41629775
0.46500002 37504.30221196  2883.70593375
0.46600002 37536.11666120  2892.34560641
0.46700002 37564.63682567  2900.74139316
0.46800002 37590.57285109  4495.64477320
0.46900002 37612.44602047  2916.84532714
0.47000002 37630.54700461  2924.45809907
0.47100002 37645.96285470  2665.33429644
0.47200002 37657.77350739  2671.81915699
0.47300002 37666.95260691  3213.74454874
0.47400002 37671.24697724  3220.89176922
0.47500002 37673.51456489  4034.83360114
0.47600002 37672.72330228  2965.03182804
0.47700002 37667.34839247  2970.82390853
