# SAXS profile: number of points = 501, q_min = 0, q_max = 0.5, delta_q = 0.001
#    q    intensity    error
0.00000000 1682732.95097188 504.81988529
0.00100000 1682663.81290114 605.75898703
0.00200000 1682456.34602749 1059.94753156
0.00300000 1682110.71070390 1009.26646238
0.00400000 1681626.79428524 1765.70820109
0.00500000 1681005.05174678 2118.06644904
0.00600000 1680245.18201834 1940.68326424
0.00700000 1679347.86946494 2418.26103253
0.00800000 1678312.58146852 2492.29428871
0.00900000 1677140.65530570 3270.42441765
0.01000000 1675831.23718850 3318.14599291
0.01100000 1674385.62572468 3616.67310903
0.01200000 1672803.19135864 3261.96636617
0.01300000 1671085.39812685 4211.13538901
0.01400000 1669231.47341593 4506.92517802
0.01500000 1667243.21357549 5601.93744706
0.01600000 1665119.41120526 5519.87109490
0.01700000 1662862.29815031 4489.72840641
0.01800000 1660471.34529713 5678.81225645
0.01900000 1657947.28165535 4973.84206940
0.02000000 1655290.85488710 6778.41635739
0.02100000 1652503.52707142 7634.56664121
0.02200000 1649583.67531250 5691.06393839
0.02300000 1646534.12088232 6520.27541549
0.02400000 1643354.65627117 6778.83826622
0.02500000 1640046.76517783 7035.80094394
0.02600000 1636610.56588952 9279.58233303
0.02700000 1633047.08465124 7544.67787664
0.02800000 1629356.19614483 9214.00971175
0.02900000 1625540.58017056 9509.41283061
0.03000000 1621600.36742173 9048.53046613
0.03100000 1617535.98041231 10869.84228853
0.03200000 1613348.40898986 7986.07499232
0.03300000 1609040.29354319 10667.93763799
0.03400000 1604609.75400553 11793.88223611
0.03500000 1600060.25295754 10368.39091796
0.03600000 1595391.28253350 10625.30643271
0.03700000 1590604.81175987 9973.09263097
0.03800000 1585702.18710828 10203.99404628
0.03900000 1580684.53729705 15174.57226079
0.04000000 1575551.02314256 12596.53101374
0.04100000 1570305.36313458 9892.92424645
0.04200000 1564948.00502304 12112.69812082
0.04300000 1559478.95356067 14409.58619976
0.04400000 1553901.84295108 18879.90826868
0.04500000 1548216.47366934 13887.50241410
0.04600000 1542423.11646363 13048.90017188
0.04700000 1536524.83892380 12169.27729024
0.04800000 1530522.09299167 14624.13927897
0.04900000 1524417.37105530 14863.07005963
0.05000000 1518210.44407057 11614.31043797
0.05100000 1511904.49623436 18868.56899198
0.05200000 1505497.75243799 16756.19076549
0.05300000 1498995.67670293 13356.05210205
0.05400000 1492396.70357595 16005.95539227
0.05500000 1485704.70986944 14975.90417410
0.05600000 1478918.12879263 13909.22565036
0.05700000 1472042.06974004 12806.76660454
0.05800000 1465075.16706478 12965.91583393
0.05900000 1458019.31699525 17058.82680559
0.06000000 1450877.65375636 14603.08426730
0.06100000 1443651.15994542 17453.74333938
0.06200000 1436340.53860109 27146.83744850
0.06300000 1428949.14725190 15089.70370050
0.06400000 1421474.75184961 23560.94511378
0.06500000 1413923.76875035 15397.63056196
0.06600000 1406294.37422738 15546.58503449
0.06700000 1398589.16986404 15692.17122025
0.06800000 1390811.35397944 18713.36764375
0.06900000 1382961.46175144 20329.53443955
0.07000000 1375039.08970268 26359.50058398
0.07100000 1367049.29477694 16240.54638262
0.07200000 1358990.60118349 14880.94778008
0.07300000 1350868.13380120 22491.95548166
0.07400000 1342681.33905398 16615.68234947
0.07500000 1334432.27896684 21297.54017058
0.07600000 1326121.21255804 18380.04086772
0.07700000 1317753.68410068 18501.26259227
0.07800000 1309327.95306870 26376.41285152
0.07900000 1300845.71404197 20293.19409088
0.08000000 1292311.69974256 18841.90546614
0.08100000 1283725.55642212 23684.73762723
0.08200000 1275087.94360097 22224.78389987
0.08300000 1266402.36327877 20743.67168405
0.08400000 1257669.31111214 25656.45515097
0.08500000 1248892.94022496 17721.79165374
0.08600000 1240071.79630997 21037.81901216
0.08700000 1231210.22275056 24377.96355519
0.08800000 1222306.57160245 16317.79349724
0.08900000 1213366.78416989 21294.58806238
0.09000000 1204389.67354928 18083.91179784
0.09100000 1195378.00717476 19795.46072883
0.09200000 1186332.84179603 19859.21270478
0.09300000 1177257.53404947 18259.26521115
0.09400000 1168150.35206014 21639.98628894
0.09500000 1159015.71919168 25034.74071124
0.09600000 1149854.50419278 16730.38382246
0.09700000 1140670.01705240 18444.63504287
0.09800000 1131463.00422483 20162.67168329
0.09900000 1122234.84780316 23566.93291204
0.10000000 1112985.86144040 21920.25757192
0.10100000 1103718.54111265 21952.96281522
0.10200000 1094435.66938649 21981.74145357
0.10300000 1085137.49840067 20313.77492564
0.10400000 1075827.07642492 18638.70497592
0.10500000 1066506.89874095 22044.69863416
0.10600001 1057173.55337988 18664.39996315
0.10700001 1047834.40225644 20369.90173843
0.10800001 1038487.02520810 28864.74822408
0.10900001 1029135.43119248 23773.02957944
0.11000001 1019780.06044761 16979.33880566
0.11100001 1010422.73495509 20370.12329558
0.11200001 1001066.18806519 20361.68722382
0.11300001 991708.48180159 18654.03742093
0.11400001 982355.09303416 20334.75138326
0.11500001 973005.90683932 18623.33393384
0.11600001 963662.02641607 18603.49629603
0.11700001 954325.95612991 21959.04128471
0.11800001 944996.87315094 23615.47297229
0.11900001 935678.51471707 20210.65686984
0.12000001 926370.78333951 20176.35661154
0.12100001 917077.54061547 20139.02374063
0.12200001 907797.27758564 18423.74661657
0.12300001 898533.27129046 20055.26356009
0.12400001 889285.37069444 21676.33193201
0.12500001 880055.76617580 19959.66571738
0.12600001 870847.20746033 19907.56810066
0.12700001 861659.42024954 24815.79247267
0.12800001 852492.58204722 18145.30546405
0.12900001 843349.86203260 21378.92001016
0.13000001 834232.00039419 24588.98937062
0.13100001 825138.77822702 17971.52343692
0.13200001 816074.33930062 19536.82060383
0.13300001 807038.81656712 22710.07336882
0.13400001 798031.50027176 17776.15250662
0.13500001 789055.83843630 20925.76182194
0.13600001 780111.10892655 24046.92606649
0.13700001 771200.25577077 20752.99986136
0.13800001 762322.05458541 20662.74026390
0.13900001 753481.51109579 17405.42372712
0.14000001 744675.74448081 20474.86056011
0.14100001 735907.73959870 18809.80271127
0.14200001 727177.22997025 20277.33801411
0.14300001 718488.43336452 18623.22107122
0.14400001 709835.84346478 20070.60942069
0.14500001 701228.46017013 16892.59440236
0.14600001 692660.92441264 22909.76115570
0.14700001 684139.14756388 19744.25673016
0.14800001 675659.34019949 18121.18435908
0.14900001 667224.18998933 18015.05397968
0.15000001 658835.63222225 17907.15332871
0.15100001 650493.44757336 19280.62669583
0.15200001 642199.92957874 14738.48907930
0.15300001 633954.41598902 14644.34770040
0.15400001 625755.93205998 21823.23916045
0.15500001 617609.35241892 17342.47143437
0.15600001 609511.47563427 22966.39348580
0.15700001 601468.08800631 17105.75323024
0.15800001 593472.32842490 18400.61041130
0.15900001 585532.19367515 15458.05064265
0.16000001 577642.88111407 16740.09148486
0.16100001 569810.76386227 22154.24354474
0.16200001 562030.93396254 23360.81687293
0.16300001 554307.42813997 14999.55971356
0.16400001 546639.08810775 17588.11349019
0.16500001 539027.37266129 20132.67331939
0.16600001 531472.03804847 13313.37518168
0.16700001 523973.47702929 14524.54546902
0.16800001 516532.01212326 20950.53940093
0.16900001 509150.92053604 16878.35381273
0.17000001 501827.53127169 14159.06446342
0.17100001 494563.37497447 16587.65637993
0.17200001 487358.76857103 20235.13702663
0.17300001 480213.84761425 13786.94021609
0.17400001 473130.41117069 17387.54343167
0.17500001 466106.92155711 17227.31263435
0.17600001 459142.54485794 13409.25865588
0.17700001 452242.07135489 14489.83665057
0.17800001 445402.15355692 14350.85806543
0.17900001 438624.10375069 14211.42163278
0.18000001 431908.87974644 12898.95930291
0.18100001 425256.84835334 13931.41501013
0.18200001 418664.84480727 14940.05569268
0.18300001 412138.17776436 19337.52421419
0.18400001 405672.96135700 12383.16773041
0.18500001 399272.27208092 14481.60599252
0.18600001 392934.32046825 12123.98903083
0.18700001 386659.73223617 10903.80496421
0.18800001 380447.89229569 11864.26808178
0.18900001 374302.31235482 14934.66296858
0.19000001 368216.18404046 15824.09125681
0.19100001 362198.97130986 15646.99629991
0.19200001 356242.12649515 15469.81507402
0.19300001 350351.75479544 12234.28385556
0.19400001 344524.07585117 12092.79563381
0.19500001 338760.91508717 10955.52851162
0.19600001 333060.94340389 10826.14647695
0.19700001 327425.55849962 11669.44745640
0.19800001 321854.10309798 11528.81451781
0.19900001 316347.44111590 13286.59315479
0.20000001 310902.65739780 10311.08711991
0.20100001 305523.38513765 10183.09490791
0.20200001 300206.44839464 10969.54414280
0.20300001 294954.17607571 10830.71785741
0.20400001 289765.30636272 15147.48210607
0.20500001 284638.94567234 10554.41260440
0.20600001 279576.38242686 8680.84708468
0.20700001 274576.51065584 11993.50255237
0.20800001 269639.30724045 10143.83121789
0.20900001 264767.15459713 9174.18234047
0.21000001 259954.93781291 9873.08900486
0.21100001 255205.34429935 8927.08336561
0.21200001 250517.90118250 8004.04732117
0.21300001 245892.01198461 9471.76074943
0.21400001 241328.67573923 8561.13517659
0.21500001 236827.35298445 10742.48923925
0.21600001 232385.53757226 8320.56456616
0.21700001 228005.32808144 9692.50695500
0.21800001 223685.77020012 13961.34800714
0.21900001 219425.38582672 8689.24568958
0.22000001 215224.95511848 12129.00291919
0.22100001 211086.37477474 9840.84725731
0.22200001 207006.04050114 10386.52857327
0.22300001 202984.72809915 8184.34462396
0.22400001 199020.33563114 9403.71130324
0.22500001 195117.44127521 11244.61867242
0.22600001 191270.76236820 7815.32371994
0.22700001 187482.97191484 6411.91794270
0.22800001 183751.59857981 8836.61479359
0.22900001 180076.80681599 9940.24020633
0.23000001 176459.00079790 9171.45700021
0.23100001 172898.76101696 7220.25260153
0.23200001 169392.33654402 7104.31493064
0.23300001 165942.61009709 6989.50306785
0.23400001 162547.97842802 5729.81651058
0.23500001 159206.43038073 7890.27106285
0.23600001 155920.29755333 6651.56020822
0.23700001 152687.57073613 7631.32514634
0.23800001 149508.25003751 6967.83232257
0.23900001 146382.01396902 5269.75275214
0.24000001 143308.17015124 7252.82683442
0.24100001 140287.40456731 6620.16293467
0.24200001 137317.70096554 5005.23043695
0.24300001 134399.18524830 10329.92186682
0.24400001 131530.91233126 5800.51350819
0.24500001 128713.39513726 6174.38185681
0.24600001 125945.73290577 5599.54754988
0.24700001 123228.25360045 7334.54600127
0.24800001 120558.72938375 6304.01625770
0.24900001 117937.54395192 5307.18972891
0.25000001 115364.91615320 4777.83822852
0.25100001 112839.40666704 5544.92870594
0.25200001 110362.01489610 5444.71026249
0.25300001 107931.21192218 5345.83317942
0.25400001 105545.82308623 4037.12792405
0.25500001 103206.16496985 3963.11692234
0.25600001 100912.15947147 5057.21311118
0.25700001 98662.81816772  4200.07636812
0.25800001 96457.45002434  3747.37211075
0.25900001 94296.35039938  4780.82519145
0.26000001 92178.94340267  4691.44754646
0.26100001 90102.28206702  3541.01985278
0.26200001 88070.52146400  4864.13513061
0.26300001 86079.10882847  3749.60615799
0.26400001 84128.99534425  3344.12772317
0.26500001 82220.65008265  3608.66450289
0.26600001 80351.91506518  4505.33209089
0.26700001 78523.98691435  4419.33019266
0.26800001 76735.49912529  4025.16079709
0.26900001 74985.37599612  3036.90787155
0.27000001 73274.38724378  3574.32477890
0.27100001 71601.23979309  4089.86301053
0.27200001 69966.01635671  3438.13020647
0.27300001 68367.31395407  3371.87608379
0.27400001 66804.15104967  3031.23849733
0.27500001 65279.45521397  3513.34044589
0.27600001 63788.23763823  3180.48167916
0.27700001 62333.85151385  2859.25390426
0.27800001 60913.25639409  3823.82985111
0.27900001 59527.38525005  2500.15029883
0.28000001 58175.02344805  3187.70056070
0.28100001 56855.68833191  3126.49444935
0.28200001 55569.68219987  2830.71974524
0.28300001 54316.10922181  3933.57281602
0.28400001 53094.41666059  2496.76506164
0.28500001 51904.42495087  2449.36992936
0.28600001 50744.81430820  2621.47723124
0.28700001 49616.11875448  2143.41643165
0.28800001 48516.95947994  2523.85235161
0.28900001 47448.98896771  2476.83734135
0.29000001 46408.71169095  2430.88843344
0.29100001 45398.56659886  2982.68596673
0.29200001 44416.00942837  1952.08370678
0.29300001 43461.34029415  2683.30327678
0.29400001 42533.96259813  2258.55352087
0.29500001 41634.70523253  2033.43909981
0.29600001 40761.01013458  2360.67401369
0.29700001 39913.15769160  2854.58917323
0.29800001 39091.94234173  2279.25580613
0.29900001 38295.71352403  3101.95294229
0.30000001 37524.23783763  2033.06330229
0.30100001 36778.21627588  1666.05327617
0.30200001 36055.09499109  1966.44497391
0.30300001 35356.07604170  1773.46085821
0.30400001 34681.07237104  1745.32504970
0.30500001 34027.74373645  2186.62291602
0.30600001 33397.14203156  1691.73230970
0.30700001 32789.05336847  1666.33977108
0.30800001 32202.59002861  1641.84913034
0.30900001 31637.16318149  1618.24097335
0.31000001 31093.55833783  1740.61747816
0.31100001 30568.77838021  1859.80456470
0.31200001 30065.29000386  1835.03506227
0.31300001 29581.01655853  1671.91913505
0.31400001 29117.65526162  2063.71391438
0.31500001 28672.11767137  1630.87013036
0.31600002 28245.55027723  1477.38357720
0.31700002 27836.66850382  1726.15189565
0.31800002 27446.27612888  1969.95656242
0.31900002 27073.74026425  1559.44751306
0.32000002 26718.20980355  1543.77823555
0.32100002 26379.84835040  1274.14673566
0.32200002 26058.13818486  1767.52359677
0.32300002 25751.90583405  1627.00548764
0.32400002 25462.02817476  1489.52871875
0.32500002 25187.25934383  2093.81696840
0.32600002 24928.17441301  1344.99971414
0.32700002 24683.87569808  1700.22543859
0.32800002 24454.81230099  1568.89855746
0.32900002 24238.69861531  1319.79720210
0.33000002 24038.27935792  1670.90087729
0.33100002 23848.91232032  1425.21106775
0.33200002 23675.55423961  1537.37218735
0.33300002 23513.78298624  1531.45275842
0.33400002 23365.56808448  1174.11985185
0.33500002 23229.10902694  1287.82186544
0.33600002 23104.92846609  1518.34044605
0.33700002 22991.70096496  1165.67929413
0.33800002 22891.57952281  1396.84424863
0.33900002 22801.42337273  1511.73444120
0.34000002 22722.88255350  1510.95814695
0.34100002 22654.86550529  1162.19465546
0.34200002 22598.26203505  1395.21676412
0.34300002 22550.28757312  1396.31387266
0.34400002 22513.27697934  1398.07456663
0.34500002 22485.39608813  1400.39053469
0.34600002 22468.14339798  1286.41361118
0.34700002 22457.75858642  1289.52455911
0.34800002 22457.96670317  1528.37699637
0.34900002 22466.21693355  1415.37173385
0.35000002 22483.08664098  1538.85493803
0.35100002 22508.00298413  1663.79165939
0.35200002 22540.16265438  1670.90233671
0.35300002 22580.45449033  1558.72884729
0.35400002 22628.42504174  1204.96369054
0.35500002 22683.36016132  1453.54978798
0.35600002 22744.79826146  1583.37920597
0.35700002 22813.16346167  1347.57362951
0.35800002 22888.68106927  1602.32219415
0.35900002 22969.92087074  1240.37578577
0.36000002 23058.00759782  1498.30940468
0.36100002 23151.00696267  1634.22965890
0.36200002 23250.99395632  1266.01668089
0.36300002 23354.65171958  2295.29527972
0.36400002 23464.48603121  1927.02100659
0.36500002 23578.67333512  1423.91615016
0.36600002 23698.57546922  1826.44929793
0.36700002 23822.54837304  1446.50520573
0.36800002 23952.51957978  1988.65803231
0.36900002 24085.49146227  1737.76829132
0.37000002 24222.07811236  2156.73393729
0.37100002 24362.88512815  2175.11848728
0.37200002 24507.96840987  1508.34298724
0.37300002 24655.97657506  1798.16045680
0.37400002 24808.37941466  1674.56568982
0.37500002 24962.92061744  1407.90878952
0.37600002 25121.66845959  1846.81954429
0.37700002 25281.92666002  1720.18237144
0.37800002 25445.99149332  1446.60468492
0.37900002 25612.46232530  2773.82980123
0.38000002 25781.34221379  2210.10566598
0.38100002 25952.01855198  2379.28117356
0.38200002 26125.17863612  2101.24821725
0.38300002 26300.03179339  1666.37009337
0.38400002 26477.41744385  1681.97802280
0.38500002 26655.37980636  1852.01587668
0.38600002 26836.06959638  1713.61730526
0.38700002 27016.94810535  2044.10239049
0.38800002 27199.27754455  2380.61687987
0.38900002 27382.93470250  1601.90175599
0.39000002 27568.13681332  1616.87130070
0.39100002 27753.35364835  2121.46645339
0.39200002 27940.04162347  2141.18519126
0.39300002 28126.73323357  1662.29001286
0.39400002 28314.91921411  2180.95675579
0.39500002 28502.47449336  2370.26589117
0.39600002 28690.48163047  2221.07374065
0.39700002 28878.22088419  2241.23882901
0.39800002 29067.20020488  2261.57361909
0.39900002 29255.04419936  1930.83300864
0.40000002 29442.77440216  3010.67103914
0.40100002 29630.09223691  1965.36411119
0.40200002 29818.06684205  1982.75244860
0.40300002 30004.57753511  2727.41622717
0.40400002 30190.43064818  2200.88249853
0.40500002 30375.83202962  2034.87708408
0.40600002 30560.67867896  2612.02133045
0.40700002 30744.43616680  2069.71554081
0.40800002 30927.43866971  2466.61798797
0.40900002 31108.74523130  3252.41946804
0.41000002 31289.75694813  2121.91496798
0.41100002 31469.22132028  2528.23736066
0.41200002 31646.64895533  1960.50999568
0.41300002 31823.30768580  2371.47300111
0.41400002 31998.28788523  2191.08286676
0.41500002 32172.23030623  2609.81144610
0.41600002 32343.44145367  3236.93177406
0.41700002 32513.74455363  2446.33425613
0.41800002 32683.12312079  2054.13438547
0.41900002 32848.63737689  2897.24995393
0.42000002 33013.27138024  2501.74582374
0.42100002 33176.29485080  2100.05956357
0.42200002 33337.13929271  2115.24158835
0.42300002 33495.49510841  2556.37630781
0.42400002 33651.64725344  2359.82187547
0.42500002 33806.16355208  2592.25674401
0.42600002 33956.94606405  2609.93099816
0.42700002 34106.83797138  2627.59092183
0.42800002 34253.83220591  3085.92788966
0.42900002 34398.94303767  2440.60512418
0.43000002 34541.53917015  3572.97698107
0.43100002 34680.32029754  2472.01334795
0.43200002 34817.38845296  2713.66738462
0.43300002 34951.45992265  2730.40817855
0.43400002 35083.36126637  2747.02731733
0.43500002 35212.07462898  2533.15676885
0.43600002 35339.06710532  2779.77115023
0.43700002 35462.26979047  2562.85835921
0.43800002 35581.98923846  2811.68892287
0.43900002 35699.94128268  2827.43548358
0.44000002 35814.37355109  3316.76929175
0.44100002 35926.43850461  2620.11528431
0.44200002 36035.32092933  2873.45662708
0.44300002 36141.54242627  3369.83757552
0.44400002 36244.09534802  4112.79891452
0.44500002 36342.92085342  2431.34152032
0.44600002 36439.59195988  2687.60223237
0.44700002 36533.35747717  2946.05008658
0.44800002 36622.84824772  2713.20384102
0.44900002 36710.62354640  2477.96720682
0.45000002 36794.96167358  2738.09720270
0.45100002 36874.93572480  3000.14491275
0.45200002 36952.55399673  3013.11139569
0.45300002 37026.37711018  3277.94532092
0.45400002 37097.67322309  3291.49121271
0.45500002 37165.54143079  2542.12315435
0.45600002 37229.88562760  3062.53053687
0.45700002 37290.96150421  2818.07809443
0.45800002 37348.15649486  3857.13104481
0.45900002 37402.42085554  2838.84387748
0.46000002 37454.06997672  3625.92868629
0.46100002 37501.13351513  2858.71154335
0.46200002 37545.76451738  3389.81951011
0.46300002 37586.65127417  3924.04657900
0.46400002 37623.82576702  3411.54056312
0.46500002 37658.51353038  3685.26230875
0.46600002 37689.05499789  3168.14211328
0.46700002 37716.25488607  3177.21746219
0.46800002 37740.81856057  3982.60006736
0.46900002 37761.27317006  2928.38687313
0.47000002 37777.97289839  3469.71808531
0.47100002 37791.99030327  2943.24034432
0.47200002 37802.35635702  3486.70050385
0.47300002 37810.00776047  4032.43751878
0.47400002 37812.87166482  4041.25085072
0.47500002 37813.57455596  2969.87828639
0.47600002 37811.13808483  2975.92576402
0.47700002 37804.24675978  3252.67754538
