# SAXS profile: number of points = 501, q_min = 0, q_max = 0.5, delta_q = 0.001
#    q    intensity    error
0.00000000 1682732.95097188 277.65093691
0.00100000 1682663.74523791 555.27904912
0.00200000 1682456.07694399 1059.94736204
0.00300000 1682110.10434370 1211.11931827
0.00400000 1681625.71905696 1891.82900582
0.00500000 1681003.36999763 1512.90309288
0.00600000 1680242.76922685 2646.38246927
0.00700000 1679344.60083005 2619.77768617
0.00800000 1678308.29306473 2718.85954955
0.00900000 1677135.24180878 3270.41386133
0.01000000 1675824.56707464 3871.15491710
0.01100000 1674377.51574352 3013.87965956
0.01200000 1672793.60112036 5545.31103084
0.01300000 1671074.13643049 3509.25584128
0.01400000 1669218.39124160 4882.46401083
0.01500000 1667228.22612820 5201.75229715
0.01600000 1665102.43136743 4670.61252878
0.01700000 1662843.11299483 5387.61192778
0.01800000 1660449.85497557 7571.65167939
0.01900000 1657923.42611268 5471.14755304
0.02000000 1655264.37109144 6256.89960576
0.02100000 1652474.44098589 7089.11567324
0.02200000 1649551.80410758 6260.04938100
0.02300000 1646499.29551835 8298.35682714
0.02400000 1643316.80366878 9859.90127160
0.02500000 1640005.82458264 8314.82991038
0.02600000 1636566.35083384 9942.14103605
0.02700000 1632999.50108986 9602.03750619
0.02800000 1629305.15215176 9922.46883164
0.02900000 1625485.92170912 13166.43657037
0.03000000 1621542.06620765 8294.18804990
0.03100000 1617473.80877136 7763.87463934
0.03200000 1613282.29209020 11180.04679912
0.03300000 1608970.17044985 11488.04754662
0.03400000 1604535.54730242 12635.71801802
0.03500000 1599981.79225053 9503.89228484
0.03600000 1595308.51999609 10624.75523418
0.03700000 1590517.68340796 10879.14145764
0.03800000 1585610.46595949 9275.82165514
0.03900000 1580588.22597262 9483.52979502
0.04000000 1575450.05342729 11626.82193307
0.04100000 1570199.58925830 11870.70944520
0.04200000 1564837.32897829 13121.16161221
0.04300000 1559363.29825080 12350.15789542
0.04400000 1553781.25428754 14683.23353494
0.04500000 1548090.72858401 13886.37448063
0.04600000 1542292.25168911 14135.10914383
0.04700000 1536388.69769322 16592.99870679
0.04800000 1530380.63887467 16872.44732864
0.04900000 1524270.55733733 12575.23268338
0.05000000 1518058.10960183 17419.71761885
0.05100000 1511746.59000578 12970.78634648
0.05200000 1505334.23369737 15557.63003027
0.05300000 1498826.48958433 13354.54464476
0.05400000 1492221.81393423 16004.07970078
0.05500000 1485524.02265144 17469.76332133
0.05600000 1478731.60188393 16436.10252192
0.05700000 1471849.83065023 14085.60353682
0.05800000 1464876.88518361 12964.16103920
0.05900000 1457815.23667391 15744.40529143
0.06000000 1450667.31163125 18583.04913017
0.06100000 1443434.93761645 16108.73465658
0.06200000 1436118.31346528 13571.31869662
0.06300000 1428720.73605419 19202.00759036
0.06400000 1421240.27615492 19399.93067679
0.06500000 1413683.06998087 13995.46304749
0.06600000 1406047.49672207 15543.85580354
0.06700000 1398336.17091244 14263.02961080
0.06800000 1390551.95037469 21588.32004010
0.06900000 1382695.85028422 17421.96852926
0.07000000 1374767.25276313 24890.16227684
0.07100000 1366771.15234354 23617.80661870
0.07200000 1358706.27690482 14877.83442909
0.07300000 1350577.56355895 19488.83515532
0.07400000 1342384.37209603 22652.73734072
0.07500000 1334129.14725713 15209.07299162
0.07600000 1325811.83108807 18375.75284035
0.07700000 1317438.14239102 21579.63778420
0.07800000 1309006.06972461 17062.89491905
0.07900000 1300517.74286163 18727.45637560
0.08000000 1291977.54052145 17267.28063910
0.08100000 1283384.97203659 22099.89025536
0.08200000 1274741.31310251 17457.58310214
0.08300000 1266049.63778675 23928.33927717
0.08400000 1257310.36945768 17633.77875935
0.08500000 1248527.86273743 16106.01018541
0.08600000 1239700.78308033 17795.90557666
0.08700000 1230833.20966657 17871.69904357
0.08800000 1221923.45994003 21206.48264320
0.08900000 1212977.71545022 19650.23991326
0.09000000 1203994.86019908 23008.34285923
0.09100000 1194977.34169768 23086.96332625
0.09200000 1185926.29778958 23161.14168410
0.09300000 1176845.45681994 24890.28258139
0.09400000 1167732.46315121 24960.28257293
0.09500000 1158592.25201549 18352.10213452
0.09600000 1149425.34389678 25086.20930979
0.09700000 1140235.60848679 18437.61065603
0.09800000 1131022.90304931 25193.53634997
0.09900000 1121789.54354163 20192.21273324
0.10000000 1112535.16934258 21911.38119063
0.10100000 1103262.96165605 23631.89375012
0.10200000 1093974.67439085 25352.86427151
0.10300000 1084671.63617069 20305.05398428
0.10400000 1075356.06215733 16936.85877577
0.10500000 1066031.13729421 23729.85423264
0.10600001 1056692.83980691 18655.91296462
0.10700001 1047349.11029827 22057.17330084
0.10800001 1037996.96222092 18668.37624411
0.10900001 1028641.04938522 28853.38279326
0.11000001 1019281.24701794 16971.03356167
0.11100001 1009919.56809007 16966.64954259
0.11200001 1000558.58587890 25439.20324358
0.11300001 991197.00156186 18644.41647717
0.11400001 981839.65162787 27098.77566086
0.11500001 972486.39484550 16921.26406710
0.11600001 963138.57376468 18593.39104212
0.11700001 953798.93814082 16882.24200016
0.11800001 944466.14909498 18544.59371090
0.11900001 935144.39866305 20199.11996253
0.12000001 925833.47084353 21845.04177356
0.12100001 916536.97509820 16772.62743442
0.12200001 907253.45974328 20086.59254502
0.12300001 897986.52979426 18372.80526521
0.12400001 888735.68233921 21662.93327772
0.12500001 879503.42930738 21609.40027633
0.12600001 870292.22629524 21552.78799984
0.12700001 861101.90281016 24799.73596965
0.12800001 851932.66843441 18133.38770224
0.12900001 842787.71040212 19721.23335291
0.13000001 833667.80096921 24572.35959178
0.13100001 824572.67595327 17959.19372882
0.13200001 815506.29795449 17896.28655225
0.13300001 806469.07796578 16210.02923130
0.13400001 797460.08001948 20993.13759625
0.13500001 788483.05608167 19302.06612294
0.13600001 779537.09906938 17621.43695533
0.13700001 770625.05930368 17547.13342775
0.13800001 761745.84215670 20647.12202529
0.13900001 752904.45652221 17392.09376584
0.14000001 744097.98138141 18885.20765810
0.14100001 735329.35429422 17228.76758367
0.14200001 726598.19966200 21819.74496498
0.14300001 717909.29847540 15506.84157849
0.14400001 709256.46449819 27767.39189489
0.14500001 700649.06106915 21481.90122573
0.14600001 692081.67146113 19838.52204830
0.14700001 683560.27877609 15175.03890473
0.14800001 675080.75461274 16596.86113517
0.14900001 666646.13585852 16499.49264096
0.15000001 658258.43241906 25346.24213621
0.15100001 649917.01964876 22227.16312078
0.15200001 641624.42988312 20615.39390492
0.15300001 633380.01377322 16094.18690945
0.15400001 625182.94241933 14535.50409719
0.15500001 617037.75877690 14438.68423678
0.15600001 608941.39362404 18642.74164564
0.15700001 600899.80267937 14241.32599565
0.15800001 592905.78206153 15554.88392655
0.15900001 584967.71997538 14039.22594207
0.16000001 577080.53025573 16723.79455621
0.16100001 569250.79608234 15216.07449754
0.16200001 561473.37930549 13728.02477207
0.16300001 553752.43358517 16346.77261113
0.16400001 546086.70677408 14867.21129380
0.16500001 538477.99543682 21452.96435103
0.16600001 530925.60651516 19949.53060669
0.16700001 523430.39362813 15828.53585065
0.16800001 515992.07076704 17004.51949502
0.16900001 508614.39722185 16860.56806403
0.17000001 501294.54601003 15429.84685478
0.17100001 494033.99398221 15295.29317595
0.17200001 486833.20649058 17686.65122702
0.17300001 479692.32609842 12519.97030242
0.17400001 472612.93036602 12406.09000800
0.17500001 465593.70246343 13520.84175809
0.17600001 458633.71784910 15829.74351919
0.17700001 451737.69357345 18092.09548212
0.17800001 444902.45903635 14334.75790721
0.17900001 438128.93113222 15378.32620911
0.18000001 431418.58977793 11713.01526574
0.18100001 424771.66496677 18554.02720218
0.18200001 418184.59067458 14922.91782315
0.18300001 411663.17816100 18179.04680636
0.18400001 405203.33999822 12368.83253776
0.18500001 398808.01856645 13352.09309239
0.18600001 392475.66950518 16513.41457458
0.18700001 386206.62252980 10891.02726988
0.18800001 380000.67946929 11850.32174913
0.18900001 373860.91476260 11720.54023157
0.19000001 367780.85741377 10536.92206276
0.19100001 361769.76181186 11460.86659573
0.19200001 355819.28092767 18541.74360526
0.19300001 349935.02926276 17311.28671563
0.19400001 344113.82634274 10065.32989615
0.19500001 338357.14125181 11937.24050746
0.19600001 332663.71731442 11796.25597342
0.19700001 327035.06606969 12626.82449766
0.19800001 321470.43223985 13434.24999819
0.19900001 315970.58648928 11374.94165119
0.20000001 310532.63686054 12171.32727698
0.20100001 305160.60215327 11095.64001870
0.20200001 299850.72508663 10043.50051147
0.20300001 294605.65595230 12620.90689752
0.20400001 289423.95059630 9789.76559164
0.20500001 284304.86132650 8785.02063023
0.20600001 279249.71766084 12138.98580050
0.20700001 274257.41348524 12835.24755782
0.20800001 269327.68606565 9287.76569301
0.20900001 264463.22464259 14162.00634907
0.21000001 259658.58218720 9861.83341766
0.21100001 254916.84460282 13780.80527069
0.21200001 250237.13275403 10393.59980029
0.21300001 245619.12298891 8672.81164275
0.21400001 241063.54743144 10884.01968109
0.21500001 236570.26280747 9197.85225281
0.21600001 232136.41958650 7556.04081478
0.21700001 227764.24031325 10427.04741453
0.21800001 223452.74037357 8074.46515516
0.21900001 219200.49296217 7956.97827075
0.22000001 215008.05643995 7840.26914879
0.22100001 210877.77814884 7022.23034439
0.22200001 206805.56971179 8992.94062414
0.22300001 202792.60199906 8857.98127417
0.22400001 198836.43523201 7381.80300705
0.22500001 194941.83722135 7269.38145373
0.22600001 191103.41871657 7808.48605801
0.22700001 187323.88430588 6406.47714622
0.22800001 183600.83071604 8198.69548334
0.22900001 179934.43971195 7449.28615636
0.23000001 176324.87946388 10386.41751601
0.23100001 172773.05845080 7215.00326212
0.23200001 169274.97901572 7691.00903531
0.23300001 165833.66855341 7566.99065397
0.23400001 162447.28498818 6871.52047999
0.23500001 159114.13576031 6759.16880678
0.23600001 155836.31029577 6093.97920234
0.23700001 152611.95741343 5993.07185108
0.23800001 149440.93880239 5893.20370041
0.23900001 146323.02085167 6847.91769976
0.24000001 143257.37616542 6214.50527200
0.24100001 140244.83398465 5599.97648589
0.24200001 137283.35032416 6505.17186282
0.24300001 134373.03697479 4918.05338592
0.24400001 131512.99222594 9182.89511656
0.24500001 128703.69689351 5224.08330403
0.24600001 125944.09916873 5132.85200443
0.24700001 123234.72926646 5042.76536014
0.24800001 120573.17607556 4953.74917341
0.24900001 117960.02196229 4865.85113614
0.25000001 115395.31899469 5648.02415539
0.25100001 112877.66625294 5546.80878208
0.25200001 110408.10597986 4189.98782016
0.25300001 107985.09324614 4937.07869679
0.25400001 105607.46022871 4443.43409935
0.25500001 103275.52237130 5948.67037003
0.25600001 100989.21908110 5061.07495370
0.25700001 98747.39631362  4203.67685996
0.25800001 96549.54362280  3750.94994722
0.25900001 94395.91445813  5154.01717327
0.26000001 92285.83060481  4335.58852695
0.26100001 90216.43097278  4963.70826699
0.26200001 88191.99016662  4870.84384738
0.26300001 86207.75719022  3413.82734627
0.26400001 84264.70246603  3684.47428967
0.26500001 82363.39670226  4272.18958910
0.26600001 80501.51491082  3546.49440721
0.26700001 78680.51390627  4111.84385132
0.26800001 76898.88281052  3102.87006824
0.26900001 75155.43272493  4870.07227103
0.27000001 73450.92030553  3284.35805688
0.27100001 71784.30837500  3807.43989639
0.27200001 70155.49858594  4883.87526518
0.27300001 68563.06266628  4226.91301341
0.27400001 67006.16652587  2764.00450000
0.27500001 65487.62223698  3253.42522670
0.27600001 64002.47573951  3191.16359140
0.27700001 62554.07128597  3912.75734411
0.27800001 61139.21777539  2558.67638500
0.27900001 59759.07949399  4015.81033206
0.28000001 58412.31491920  3200.70294748
0.28100001 57098.50915632  2656.79375679
0.28200001 55817.98444548  3080.31561741
0.28300001 54569.64503612  3487.00048285
0.28400001 53353.21275547  2508.93494858
0.28500001 52168.35641086  3357.03389393
0.28600001 51013.61371051  2635.36340902
0.28700001 49889.85156798  2586.29002770
0.28800001 48795.39246034  2326.80839961
0.28900001 47732.13298646  2076.34788319
0.29000001 46696.29084596  3057.43978786
0.29100001 45690.50782115  3001.86650594
0.29200001 44712.29675756  2358.12664262
0.29300001 43761.85558152  2315.87750700
0.29400001 42838.49628357  1895.60355028
0.29500001 41943.15279624  2420.95889400
0.29600001 41073.32344843  3293.66996324
0.29700001 40229.25918617  2157.89756490
0.29800001 39411.43699253  2297.88394263
0.29900001 38618.70676381  1911.62607530
0.30000001 37850.57389266  1708.95349215
0.30100001 37107.80479645  1849.08200054
0.30200001 36387.69776153  2315.34931818
0.30300001 35691.61567036  1953.04530194
0.30400001 35019.48120080  2403.21201118
0.30500001 34368.81094461  1893.03419645
0.30600001 33740.86170531  1864.52010611
0.30700001 33135.23131968  2143.18686322
0.30800001 32551.03381936  1659.61453785
0.30900001 31987.89001607  1636.18065179
0.31000001 31446.30887124  1613.66741613
0.31100001 30923.48791229  1447.21930281
0.31200001 30421.85641833  2285.28996234
0.31300001 29939.30121963  1410.14115421
0.31400001 29477.39530055  1532.08769329
0.31500001 29033.37106730  1651.41822450
0.31600002 28608.14977457  1496.34934481
0.31700002 28200.48032862  1748.71186798
0.31800002 27811.15129021  1463.84001747
0.31900002 27439.54012167  1448.80778702
0.32000002 27084.82153211  1304.13421852
0.32100002 26747.19058496  1550.26723971
0.32200002 26426.03549089  1664.44392421
0.32300002 26120.28789200  1777.22447232
0.32400002 25830.69331191  1511.09563030
0.32500002 25556.13027580  1624.60327856
0.32600002 25297.16127248  1613.07356492
0.32700002 25052.75096351  1355.85494635
0.32800002 24823.60628378  1592.55853655
0.32900002 24607.17326181  1583.47167438
0.33000002 24406.39232540  2181.19938541
0.33100002 24216.53745311  1447.18034673
0.33200002 24042.57317412  1561.20456299
0.33300002 23880.07580495  1316.03103993
0.33400002 23730.96705424  1669.47361133
0.33500002 23593.58124249  1189.11655093
0.33600002 23468.30822646  1542.21994814
0.33700002 23353.88681700  2131.27581185
0.33800002 23252.40713116  1300.62345448
0.33900002 23160.88476884  1299.32569707
0.34000002 23080.83990872  1534.76052241
0.34100002 23011.23743339  1180.47653624
0.34200002 22952.88487211  1417.11117912
0.34300002 22903.07754841  1654.51840045
0.34400002 22864.07372146  1301.53745823
0.34500002 22834.15413711  1303.60192143
0.34600002 22814.71810854  1425.00736055
0.34700002 22802.13573794  1190.27154189
0.34800002 22799.98539784  1432.29515053
0.34900002 22805.84971013  1436.76859979
0.35000002 22820.15677493  1802.22196666
0.35100002 22842.43471464  1206.08061006
0.35200002 22871.86352609  1695.49132349
0.35300002 22909.30750676  1581.42957209
0.35400002 22954.45776533  1344.55742729
0.35500002 23006.30595059  1719.95151433
0.35600002 23064.69975851  1358.62620363
0.35700002 23129.90095166  1366.28331393
0.35800002 23202.17255548  1499.32446155
0.35900002 23280.09205351  2514.25006087
0.36000002 23364.74787497  1644.76150456
0.36100002 23454.31991901  1910.35444789
0.36200002 23550.74098799  1667.03927980
0.36300002 23650.72822841  1420.46280468
0.36400002 23756.77148588  1820.95662065
0.36500002 23867.25669261  2096.49992719
0.36600002 23983.30788077  1584.33739365
0.36700002 24103.40745484  1596.60978544
0.36800002 24229.32272036  1743.42099893
0.36900002 24358.32970412  1351.88736262
0.37000002 24490.68127519  1499.19712528
0.37100002 24627.31840140  1649.04531827
0.37200002 24768.24085746  1801.51808411
0.37300002 24911.87021545  1677.06718235
0.37400002 25060.00371015  1691.55033056
0.37500002 25210.11337853  1564.03550809
0.37600002 25364.41545004  2151.53664247
0.37700002 25520.21374128  1591.69580644
0.37800002 25679.67968242  1459.88985910
0.37900002 25841.53115987  1620.26408048
0.38000002 26005.79241530  1634.85421764
0.38100002 26171.81187760  1799.57386996
0.38200002 26340.21850230  1664.57018711
0.38300002 26510.31142629  2290.49101574
0.38400002 26682.87388649  2003.21685193
0.38500002 26855.97206794  1554.96085640
0.38600002 27031.77259034  1726.11392053
0.38700002 27207.78474270  1900.19177645
0.38800002 27385.17376771  1917.50995806
0.38900002 27563.88427092  1773.73603687
0.39000002 27744.10106966  1789.91076531
0.39100002 27924.29526004  1970.33836690
0.39200002 28105.98133881  2485.27151763
0.39300002 28287.57478827  2006.15489903
0.39400002 28470.72889660  1686.89076704
0.39500002 28653.17832145  2042.39864752
0.39600002 28836.02702834  1888.90403998
0.39700002 29018.70354596  2252.14168890
0.39800002 29202.59532609  2097.33049569
0.39900002 29385.17429081  1939.42159508
0.40000002 29567.74495458  1956.34993761
0.40100002 29749.96271721  1973.31512053
0.40200002 29932.81509094  1990.38263378
0.40300002 30114.15445576  2007.40963113
0.40400002 30294.87380226  2392.53777189
0.40500002 30475.09341725  2041.52660475
0.40600002 30654.74499888  1871.47227085
0.40700002 30833.36114870  2453.10232922
0.40800002 31011.22146561  2283.04623247
0.40900002 31187.37335616  2301.62826274
0.41000002 31363.22750359  2706.96029410
0.41100002 31537.54726489  3118.43282131
0.41200002 31709.86693516  2750.19688960
0.41300002 31881.47789311  3365.72778065
0.41400002 32051.36031891  2593.75645671
0.41500002 32220.34540171  2613.71454283
0.41600002 32386.41264291  2025.77020680
0.41700002 32551.69470629  2857.38789671
0.41800002 32716.04202258  3701.16600939
0.41900002 32876.57374543  3313.95879057
0.42000002 33036.22862658  2920.73311127
0.42100002 33194.36406994  2731.56434875
0.42200002 33350.29854781  3385.72246901
0.42300002 33503.78274460  2343.92475188
0.42400002 33655.06648018  2360.06164876
0.42500002 33804.77895229  2160.12547741
0.42600002 33950.75107224  2609.45485106
0.42700002 34095.90914121  2626.74896471
0.42800002 34238.19915272  3525.16515181
0.42900002 34378.62945773  2882.64821663
0.43000002 34516.54691620  2231.49486388
0.43100002 34650.72521311  2694.44052025
0.43200002 34783.24467590  2936.92340338
0.43300002 34912.80167702  3181.95289563
0.43400002 35040.27441985  3200.92921994
0.43500002 35164.49426272  4139.56446078
0.43600002 35287.07354854  5320.05589566
0.43700002 35405.95832055  3489.25735784
0.43800002 35521.31466504  2572.98654969
0.43900002 35635.09254790  2351.91621962
0.44000002 35745.25635169  3073.91346564
0.44100002 35853.19828225  3565.60073814
0.44200002 35957.99903073  2628.35006371
0.44300002 36060.12600735  2641.76495649
0.44400002 36158.63403122  2654.94782956
0.44500002 36253.59577993  2667.90223988
0.44600002 36346.27524221  2680.71965753
0.44700002 36436.20875699  2938.21601341
0.44800002 36521.92755067  2951.70232453
0.44900002 36605.95727781  2470.90223335
0.45000002 36686.60001381  2481.84860855
0.45100002 36762.92197209  2741.77885062
0.45200002 36837.04997871  3003.69319762
0.45300002 36907.35368746  4021.42544837
0.45400002 36975.18140549  2523.55625052
0.45500002 37039.67740616  3040.21686558
0.45600002 37100.67649616  2797.57664378
0.45700002 37158.49701164  2552.78886569
0.45800002 37212.45467123  2818.28538810
0.45900002 37263.58460479  3856.78118939
0.46000002 37312.13443706  3870.20132791
0.46100002 37356.16099569  2847.66028767
0.46200002 37397.86660982  3116.73835098
0.46300002 37435.86300678  2605.53618876
0.46400002 37470.16905687  3397.60774026
0.46500002 37502.14190976  2883.53982811
0.46600002 37529.89721970  4732.14496472
0.46700002 37554.50074915  3427.22390080
0.46800002 37576.46971185  3436.55620038
0.46900002 37594.45484207  2915.45011118
0.47000002 37608.72122112  2657.05628021
0.47100002 37620.31443002  3728.92574304
0.47200002 37628.31652779  2936.70210260
0.47300002 37633.80861022  4281.22227042
0.47400002 37634.44070032  4022.18104049
0.47500002 37633.00452248  2955.69631529
0.47600002 37628.57335889  3769.25437201
0.47700002 37619.66685195  2697.33024113
