# SAXS profile: number of points = 501, q_min = 0, q_max = 0.5, delta_q = 0.001
#    q    intensity    error
0.00000000 1700912.83420645 255.13692513
0.00100000 1700843.05279878 867.42997753
0.00200000 1700633.65716393 918.34220395
0.00300000 1700284.80425623 1224.20510267
0.00400000 1699796.38408779 1529.81680381
0.00500000 1699168.86285180 1682.17724081
0.00600000 1698401.91348198 2318.31870629
0.00700000 1697496.26195453 2444.39471880
0.00800000 1696451.32811514 2748.25126758
0.00900000 1695268.51468207 3814.35432109
0.01000000 1693946.90049941 2795.01250651
0.01100000 1692487.80597758 3655.77382008
0.01200000 1690890.67613932 3956.68435564
0.01300000 1689156.85722535 3547.22955662
0.01400000 1687285.63982975 4935.31071529
0.01500000 1685278.85792055 4044.66943911
0.01600000 1683135.29292425 5150.39422659
0.01700000 1680857.11791962 7715.13451734
0.01800000 1678443.83792845 5740.27818401
0.01900000 1675896.23018149 7038.76448437
0.02000000 1673214.99997912 5797.69023719
0.02100000 1670401.67825376 6614.79094579
0.02200000 1667454.57167175 8053.80594708
0.02300000 1664376.48359158 7789.28229776
0.02400000 1661167.25495578 8721.12848618
0.02500000 1657828.50625562 6465.53146968
0.02600000 1654360.12588294 10720.25410605
0.02700000 1650763.31028791 8319.84746491
0.02800000 1647037.91848433 8597.53832877
0.02900000 1643186.48440885 8133.77347128
0.03000000 1639209.39056351 12957.95082802
0.03100000 1635106.84397567 10203.06717588
0.03200000 1630879.99848234 12109.28454646
0.03300000 1626531.42657096 8295.31065793
0.03400000 1622059.31849957 9367.39299655
0.03500000 1617467.00822904 10481.18669733
0.03600000 1612754.16362309 9845.86462393
0.03700000 1607922.68283870 11914.70763086
0.03800000 1602973.80248534 9377.39717852
0.03900000 1597908.89571650 11504.94458195
0.04000000 1592726.96417247 11754.32554028
0.04100000 1587431.83775890 11000.90314574
0.04200000 1582023.86519912 18367.29792707
0.04300000 1576503.13197488 15607.38173101
0.04400000 1570873.30278451 15905.09292936
0.04500000 1565134.07630540 10799.42562830
0.04600000 1559285.90505180 13191.55936997
0.04700000 1553331.72391803 20131.18007824
0.04800000 1547272.01270915 11372.44982255
0.04900000 1541109.33506508 12714.15260610
0.05000000 1534843.50248182 15264.01934297
0.05100000 1528477.49898352 20267.61258067
0.05200000 1522009.87482039 16939.97069618
0.05300000 1515445.72111584 15957.64418726
0.05400000 1508783.92013018 19915.94867448
0.05500000 1502027.98397030 18925.55348089
0.05600000 1495176.59015659 14062.13648662
0.05700000 1488234.82234584 19421.46533818
0.05800000 1481201.21282220 15730.35761466
0.05900000 1474077.74709380 13266.70034348
0.06000000 1466867.49500200 14764.02202695
0.06100000 1459571.70132329 19003.62443929
0.06200000 1452190.88987443 16467.84546094
0.06300000 1444728.29568748 16643.27074448
0.06400000 1437182.03721659 15413.77807000
0.06500000 1429558.10328615 22644.20141530
0.06600000 1421855.07341586 14289.64415642
0.06700000 1414075.47685800 14423.57053896
0.06800000 1406222.44679561 17465.28360674
0.06900000 1398296.56257425 17618.53751332
0.07000000 1390297.32595061 25171.33426507
0.07100000 1382229.97304471 20899.31817131
0.07200000 1374092.91623814 18055.58176522
0.07300000 1365891.54659802 22742.09531645
0.07400000 1357624.84362694 15273.28020657
0.07500000 1349295.37228202 18458.36155801
0.07600000 1340903.19407338 18584.91914113
0.07700000 1332453.93167363 20266.62525103
0.07800000 1323945.53871358 15688.75536950
0.07900000 1315380.21448429 18941.47597700
0.08000000 1306762.51013299 19052.59829152
0.08100000 1298091.89904367 25546.44977177
0.08200000 1289369.24559244 22473.70700526
0.08300000 1280598.27404287 19362.64681226
0.08400000 1271779.00145752 16215.18302970
0.08500000 1262915.76112710 21179.09830836
0.08600000 1254007.44036579 21274.23722466
0.08700000 1245057.99628207 16434.76632266
0.08800000 1236066.04751435 19801.77901115
0.08900000 1227037.37904930 19878.00647426
0.09000000 1217970.95572503 18287.83475929
0.09100000 1208869.47381463 20018.87942688
0.09200000 1199734.05571613 21757.17812271
0.09300000 1190568.10665434 18465.71220195
0.09400000 1181369.77843677 25251.78020086
0.09500000 1172143.58957098 16878.86848317
0.09600000 1162890.25155129 18612.05935099
0.09700000 1153613.59740738 18653.93274705
0.09800000 1144313.79531606 22090.97885724
0.09900000 1134992.52698760 20429.86644644
0.10000000 1125650.08222907 22169.67941208
0.10100000 1116289.09540329 22202.99115182
0.10200000 1106912.08539924 22232.33028097
0.10300000 1097519.76320605 17121.30911141
0.10400000 1088114.55368576 18851.58552948
0.10500000 1078699.53520710 25726.98512513
0.10600001 1069271.08297795 17161.80168932
0.10700001 1059836.40761339 25754.02591693
0.10800001 1050393.40325700 17173.93295149
0.10900001 1040946.07413127 22328.29434101
0.11000001 1031494.71768609 20609.26542944
0.11100001 1022041.30039647 20604.35358591
0.11200001 1012588.03191893 24028.71512864
0.11300001 1003133.98822917 22299.66960822
0.11400001 993683.94407318 22283.36349504
0.11500001 984237.96227373 20550.88961998
0.11600001 974797.14649683 20529.22887198
0.11700001 965364.22275485 25630.42132120
0.11800001 955937.94165219 18769.84236837
0.11900001 946522.63216564 27259.85309035
0.12000001 937117.68627902 18709.55548787
0.12100001 927727.45480327 25466.11983401
0.12200001 918349.83745395 18637.91082918
0.12300001 908988.57077495 21979.34467688
0.12400001 899643.33995689 21928.80744468
0.12500001 890316.61862655 18509.68337343
0.12600001 881010.95938259 25174.88935069
0.12700001 871725.97818511 21758.28144089
0.12800001 862461.94854136 25032.95923620
0.12900001 853222.27708646 16637.83518736
0.13000001 844007.63895456 24877.12633077
0.13100001 834817.56423356 23141.14397137
0.13200001 825656.50542784 18119.03286575
0.13300001 816524.31009174 21335.78122853
0.13400001 807420.47191474 26160.42452339
0.13500001 798348.57465781 19543.57402907
0.13600001 789307.73279012 22708.38454309
0.13700001 780301.02219174 19382.67830520
0.13800001 771327.08062378 16082.17038937
0.13900001 762390.99495497 19212.25397888
0.14000001 753489.85329219 20717.20449330
0.14100001 744626.88554388 22204.77477416
0.14200001 735801.40074600 18939.52894849
0.14300001 727018.19254279 17273.95306959
0.14400001 718271.14240214 17184.63789257
0.14500001 709569.68709339 20201.44994449
0.14600001 700908.47594343 21637.04567309
0.14700001 692293.16036982 18442.69066231
0.14800001 683720.23016244 16809.26265158
0.14900001 675192.23156957 21268.55629791
0.15000001 666711.26200192 15101.01079685
0.15100001 658276.73298511 16509.58124227
0.15200001 649891.46702790 19389.51283371
0.15300001 641554.45061815 17783.89021034
0.15400001 633264.88692259 17668.09117892
0.15500001 625027.50082686 21938.46631436
0.15600001 616839.60753074 21789.86016439
0.15700001 608706.20947770 15868.97163005
0.15800001 600620.83501698 18622.24986865
0.15900001 592591.59030567 15644.41872250
0.16000001 584613.73021950 21177.63337684
0.16100001 576693.43329643 22421.84174497
0.16200001 568825.94565005 13907.79502768
0.16300001 561015.04879345 13800.97085183
0.16400001 553259.86901861 23278.41008792
0.16500001 545561.96067366 19018.29084696
0.16600001 537920.61261675 13474.91198224
0.16700001 530336.99861501 21383.18879376
0.16800001 522810.36915803 14578.56783232
0.16900001 515345.04090370 18397.81882897
0.17000001 507937.92279550 18240.05166888
0.17100001 500590.42358008 14206.75689206
0.17200001 493302.96683531 12801.21259389
0.17300001 486076.03882853 16492.56077630
0.17400001 478910.85799860 12571.41061616
0.17500001 471806.28486596 13701.25515958
0.17600001 464761.32441223 19743.06199348
0.17700001 457780.83773997 14667.29873393
0.17800001 450861.67718618 13316.20026465
0.17900001 444004.68987695 14385.75263150
0.18000001 437211.26869160 14244.34380680
0.18100001 430481.58691420 15277.79224125
0.18200001 423812.47897693 15123.74902671
0.18300001 417209.47918724 13817.97860343
0.18400001 410668.41503847 12535.65396124
0.18500001 404192.51855375 13532.36616048
0.18600001 397779.98385932 14505.04779670
0.18700001 391431.44982329 15453.71436913
0.18800001 385146.23427801 14194.56513495
0.18900001 378927.89170021 12959.33450844
0.19000001 372769.86933368 11747.84298712
0.19100001 366681.11498894 11616.45827173
0.19200001 360653.90710948 12529.11732500
0.19300001 354693.17975726 11353.72922052
0.19400001 348796.15294936 11222.51675145
0.19500001 342964.13243909 16133.03355230
0.19600001 337196.14301455 10960.56114664
0.19700001 331493.18856397 14768.02224843
0.19800001 325854.99712849 9726.77212396
0.19900001 320282.25560024 11530.16174652
0.20000001 314771.90846529 10439.41083763
0.20100001 309328.03335407 13121.69579504
0.20200001 303947.05189978 12957.26343489
0.20300001 298631.33514423 10965.74314479
0.20400001 293379.82359972 9923.57300231
0.20500001 288191.50914038 10686.14166403
0.20600001 283067.41154424 11426.01660707
0.20700001 278007.09096395 12143.35030731
0.20800001 273009.80552044 11126.51514994
0.20900001 268078.46622339 9288.91929374
0.21000001 263207.68922442 8330.52375776
0.21100001 258400.32648937 10682.27000206
0.21200001 253655.69054409 11346.01957441
0.21300001 248973.31547260 9590.45256540
0.21400001 244354.28037772 12608.68146358
0.21500001 239797.95214785 9323.34482029
0.21600001 235301.65265744 9956.78990294
0.21700001 230867.79137232 9059.25256177
0.21800001 226495.20163073 9672.47804296
0.21900001 222182.52145649 9531.63062115
0.22000001 217930.47290317 10836.59327749
0.22100001 213741.17753793 9252.85601312
0.22200001 209610.51283412 10517.20797875
0.22300001 205539.92730399 8977.98444917
0.22400001 201526.62927259 7481.67646553
0.22500001 197575.56547278 7367.59318487
0.22600001 193681.62507461 7254.34561021
0.22700001 189846.97537633 7142.04355140
0.22800001 186069.61585951 7669.78992843
0.22900001 182349.38948880 9436.58135231
0.23000001 178686.96754054 7429.80446170
0.23100001 175082.73017310 7311.45515781
0.23200001 171533.09326008 6594.59008227
0.23300001 168040.76225901 6488.05413767
0.23400001 164604.09981518 9283.67166865
0.23500001 161221.41772744 6848.68614898
0.23600001 157894.58546145 6735.78333437
0.23700001 154621.92072035 7176.00368004
0.23800001 151403.45942181 7056.15856010
0.23900001 148238.58868236 5870.24838948
0.24000001 145126.83207553 8918.76988706
0.24100001 142068.69130617 6188.51248602
0.24200001 139062.44471945 6082.59161975
0.24300001 136107.92702018 7970.48058333
0.24400001 133204.32320432 5874.31093119
0.24500001 130352.16394736 4809.99507719
0.24600001 127550.34922324 7088.61099341
0.24700001 124799.59269196 6499.56309487
0.24800001 122097.29156759 4560.33405578
0.24900001 119443.94380525 4927.06291505
0.25000001 116839.79728651 6158.62600633
0.25100001 114283.39154407 5183.89488568
0.25200001 111775.70828184 4666.07716298
0.25300001 109315.16840442 5414.38054723
0.25400001 106900.77463821 4497.85030570
0.25500001 104532.60615294 6823.88885252
0.25600001 102210.86584881 4334.25197138
0.25700001 99934.25855235  4254.20158785
0.25800001 97702.15217035  4554.87454969
0.25900001 95515.01089081  4470.10272119
0.26000001 93372.03754791  4021.06698726
0.26100001 91270.36001396  3945.61785009
0.26200001 89214.31768079  4927.30699865
0.26300001 87199.16328810  3453.08702960
0.26400001 85225.74454792  4404.04055791
0.26500001 83294.62683435  3323.45576795
0.26600001 81403.82375506  4238.29028436
0.26700001 79554.29732917  4157.50777516
0.26800001 77744.81138814  3764.40394555
0.26900001 75974.15041529  3692.34388491
0.27000001 74243.05815409  3923.37459382
0.27100001 72550.49530409  2960.06034849
0.27200001 70896.33702836  4354.80770805
0.27300001 69279.10912777  3132.10867189
0.27400001 67697.97413013  4468.06650404
0.27500001 66155.85953281  3012.73798570
0.27600001 64647.80685880  2954.72815232
0.27700001 63176.80577080  3161.36751039
0.27800001 61740.31117742  3100.59857407
0.27900001 60338.74268138  2787.65004381
0.28000001 58971.37763737  3479.90115908
0.28100001 57637.39416955  2438.06188876
0.28200001 56337.29636393  2391.51834384
0.28300001 55070.03983632  2345.98380806
0.28400001 53835.06108248  2761.73876425
0.28500001 52632.41191149  2483.72363566
0.28600001 51460.26879066  2658.43761155
0.28700001 50319.67631497  3695.47720349
0.28800001 49208.98570602  2559.85155759
0.28900001 48130.05829938  2093.65763512
0.29000001 47078.92534770  2260.49470757
0.29100001 46058.39488258  2622.56512875
0.29200001 45066.06257000  3367.11102430
0.29300001 44101.91152559  2333.87326841
0.29400001 43165.37643011  2483.08839668
0.29500001 42257.27320627  1876.22301917
0.29600001 41375.27016009  2396.24888475
0.29700001 40519.44492828  3260.19469326
0.29800001 39690.47293772  2136.14135463
0.29900001 38886.95358726  2449.87819197
0.30000001 38108.47138137  1892.65732075
0.30100001 37355.92095911  1861.44562951
0.30200001 36626.50459887  2330.54459796
0.30300001 35921.49065954  1801.82205678
0.30400001 35240.86717637  1773.49672461
0.30500001 34582.12558120  1587.31963932
0.30600001 33946.51094441  2501.17904480
0.30700001 33333.73685824  1848.02245891
0.30800001 32742.81077907  1972.91815690
0.30900001 32173.31379744  2244.08874362
0.31000001 31625.78138642  1622.87704868
0.31100001 31097.43813069  2037.50424279
0.31200001 30590.59090453  1436.22831097
0.31300001 30103.40500999  2410.37975327
0.31400001 29637.20689776  1540.39390144
0.31500001 29189.03673982  1798.62852907
0.31600002 28760.27746747  1504.30638416
0.31700002 28349.38204476  1622.71870507
0.31800002 27957.17794258  1471.52613068
0.31900002 27583.01356668  1588.78165667
0.32000002 27226.16534431  1966.40988510
0.32100002 26886.68759363  1298.62707226
0.32200002 26564.00975207  1287.02633343
0.32300002 26257.05470880  1276.09291927
0.32400002 25966.65160824  1519.04919101
0.32500002 25691.55851705  1381.94899807
0.32600002 25432.28824207  1372.19917708
0.32700002 25187.99070695  1734.94888205
0.32800002 24959.20255720  1478.08404543
0.32900002 24743.47248762  1592.24252998
0.33000002 24543.62531612  1218.59105465
0.33100002 24354.94624091  1698.02693233
0.33200002 24182.45769690  1207.91381916
0.33300002 24021.71276853  1564.53422670
0.33400002 23874.60210751  1439.63857526
0.33500002 23739.46194378  1435.76272635
0.33600002 23616.66653082  1910.11607947
0.33700002 23505.08094657  1310.87842647
0.33800002 23406.52015720  1190.22160636
0.33900002 23318.26109431  1427.07764655
0.34000002 23241.59231836  1664.33050474
0.34100002 23175.58546560  1426.68910883
0.34200002 23121.14468131  1665.41613027
0.34300002 23075.34911693  1190.68807082
0.34400002 23040.70976818  1430.82814437
0.34500002 23015.12609012  1552.83063084
0.34600002 23000.33029880  1556.31742338
0.34700002 22992.55862918  1440.25394074
0.34800002 22995.43098247  1324.19195584
0.34900002 23006.36635302  2053.31829426
0.35000002 23026.02774532  1333.55246003
0.35100002 23053.79071161  1460.68824867
0.35200002 23088.74766755  1467.05909628
0.35300002 23131.97500525  1473.96951715
0.35400002 23182.97877137  2345.53798829
0.35500002 23240.80718085  1613.37691091
0.35600002 23305.39509297  1372.80436297
0.35700002 23376.78859456  1883.00041048
0.35800002 23455.49937327  1515.69444129
0.35900002 23539.85353604  1652.49779650
0.36000002 23631.06393606  1535.54660730
0.36100002 23727.34354275  1417.23429694
0.36200002 23830.48306609  1686.84082373
0.36300002 23937.38181885  1699.07544198
0.36400002 24050.37902604  1316.75831405
0.36500002 24167.87130546  1459.49781727
0.36600002 24290.94510536  2005.82488709
0.36700002 24418.19910792  1887.03851645
0.36800002 24551.35472925  1766.59281322
0.36900002 24687.53346663  1370.15817230
0.37000002 24827.22735636  2486.94348209
0.37100002 24971.19742492  1393.39288232
0.37200002 25119.48955573  1686.52260866
0.37300002 25270.54804981  1701.21337530
0.37400002 25426.12108316  2145.32906802
0.37500002 25583.67661727  2020.08720139
0.37600002 25745.43593288  2038.26625936
0.37700002 25908.73806841  1469.02551807
0.37800002 26075.70913586  2075.36578844
0.37900002 26245.07737203  1495.96948107
0.38000002 26416.83867843  1660.69464219
0.38100002 26590.31728381  1675.98777780
0.38200002 26766.26076075  1845.26610426
0.38300002 26943.81710675  2638.33869608
0.38400002 27123.85925520  1566.40294619
0.38500002 27304.48984264  2371.39505518
0.38600002 27487.64894260  1595.65809671
0.38700002 27671.01417230  2093.58903146
0.38800002 27855.75437002  1950.46001339
0.38900002 28041.74907376  2132.57511809
0.39000002 28229.24497206  2317.90341447
0.39100002 28416.63003471  1670.89792520
0.39200002 28605.58784406  1854.92943163
0.39300002 28794.24725915  1871.91410300
0.39400002 28984.45492676  2404.26065008
0.39500002 29173.83064579  1906.21818471
0.39600002 29363.64636385  2448.04731334
0.39700002 29553.12475441  2117.18595771
0.39800002 29743.85646194  1780.16989359
0.39900002 29933.25755335  1975.59509212
0.40000002 30122.32202637  1993.04353130
0.40100002 30311.16303616  2193.31586121
0.40200002 30500.41867767  2028.12543606
0.40300002 30688.09143564  2045.66827202
0.40400002 30875.14954066  2438.36505050
0.40500002 31061.57466025  2837.47497965
0.40600002 31247.35787489  2289.18154638
0.40700002 31431.92419627  2693.08739274
0.40800002 31615.59353684  2133.57843093
0.40900002 31797.60063766  2151.10778506
0.41000002 31979.10740326  2168.66327131
0.41100002 32159.01984525  2583.65577679
0.41200002 32336.74287511  2203.58744764
0.41300002 32513.70831785  2422.92165865
0.41400002 32688.71871855  2238.36012031
0.41500002 32862.78429709  2050.63783730
0.41600002 33033.87504926  2686.14967691
0.41700002 33204.01667413  2498.27033294
0.41800002 33373.08355008  2726.74792066
0.41900002 33538.23027677  2324.19946831
0.42000002 33702.31480646  2766.79166514
0.42100002 33864.76104728  3001.09526622
0.42200002 34024.88553514  2590.65490740
0.42300002 34182.41241727  3043.60214586
0.42400002 34337.62725773  2189.02384141
0.42500002 34491.10544930  2865.17626544
0.42600002 34640.69044419  2218.73632809
0.42700002 34789.30926242  2456.82113653
0.42800002 34934.96700573  2922.48480335
0.42900002 35078.56512353  2941.33782499
0.43000002 35219.58907159  2504.64119551
0.43100002 35356.69712772  3207.55971543
0.43200002 35491.88647761  2996.75757675
0.43300002 35624.08985458  2782.95403132
0.43400002 35754.00188070  2566.24360660
0.43500002 35880.49915572  3050.56018278
0.43600002 36005.23126060  2832.17162517
0.43700002 36126.18541545  3085.53764255
0.43800002 36243.34650109  2863.94937624
0.43900002 36358.80369315  2639.64927321
0.44000002 36470.52575242  2653.77793214
0.44100002 36579.81069604  2910.28987690
0.44200002 36685.81690308  2681.54991361
0.44300002 36789.00139806  2940.17713107
0.44400002 36888.42123525  3200.99290439
0.44500002 36984.08727039  2721.65911121
0.44600002 37077.43800018  2983.25080287
0.44700002 37167.83304012  3746.51774800
0.44800002 37253.71317168  2509.03770102
0.44900002 37337.88928827  3276.39994032
0.45000002 37418.55145126  3543.91117590
0.45100002 37494.68666491  2796.35386399
0.45200002 37568.40873922  3063.32819377
0.45300002 37638.16700322  3075.79115327
0.45400002 37705.35716410  3088.06889809
0.45500002 37769.01979220  2583.40107622
0.45600002 37829.09854001  3111.82179338
0.45700002 37885.73040523  3123.29976263
0.45800002 37938.40065938  3656.88261287
0.45900002 37988.10025221  3407.53275412
0.46000002 38035.01203736  2893.13332774
0.46100002 38077.27750846  3430.38209332
0.46200002 38117.03295595  4235.56490281
0.46300002 38153.00620761  2655.44935790
0.46400002 38185.08664826  3728.77388793
0.46500002 38214.74709110  3472.57423275
0.46600002 38239.96514311  2678.70968523
0.46700002 38261.89790340  2685.98536012
0.46800002 38281.03090983  2693.07065215
0.46900002 38296.09837787  2969.86256996
0.47000002 38307.18502165  4059.60412508
0.47100002 38315.54481929  3526.56291232
0.47200002 38320.19469888  3806.34511985
0.47300002 38322.19653770  4087.06245446
0.47400002 38319.08658929  3003.25855378
0.47500002 38313.90040963  3009.17388080
0.47600002 38305.51590496  2740.75979291
0.47700002 38292.48294983  4118.35673646
