# SAXS profile: number of points = 501, q_min = 0, q_max = 0.5, delta_q = 0.001
#    q    intensity    error
0.00000000 1682732.95097188 277.65093691
0.00100000 1682663.75107953 656.23887851
0.00200000 1682456.10272047 1059.94737828
0.00300000 1682110.15981512 1312.04597139
0.00400000 1681625.81262517 2144.07299257
0.00500000 1681003.51494635 2118.06451267
0.00600000 1680242.97425193 2646.38279219
0.00700000 1679344.87443088 2418.25671968
0.00800000 1678308.65590141 2492.28845924
0.00900000 1677135.71683877 2515.70368280
0.01000000 1675825.12692236 2765.11157882
0.01100000 1674378.21713736 3616.65710648
0.01200000 1672794.41367975 3588.14417466
0.01300000 1671075.08279606 5263.88674297
0.01400000 1669219.51406822 4131.31848046
0.01500000 1667229.50983985 7602.56690340
0.01600000 1665103.86396176 5519.81955579
0.01700000 1662844.75468011 8081.42587027
0.01800000 1660451.68507751 5205.51626695
0.01900000 1657925.44926963 4973.77657224
0.02000000 1655266.66003796 7299.72630098
0.02100000 1652476.94876842 7634.44384944
0.02200000 1649554.51303059 8536.44499276
0.02300000 1646502.30184640 8298.37197903
0.02400000 1643320.06002003 9243.67575910
0.02500000 1640009.32489642 10233.65865473
0.02600000 1636570.15026787 9942.16411761
0.02700000 1633003.58032485 10287.92302724
0.02800000 1629309.51792312 7796.24640079
0.02900000 1625490.60471219 8777.64966846
0.03000000 1621547.04813953 8294.21353248
0.03100000 1617479.15651194 7763.90030850
0.03200000 1613287.99689734 9582.93114294
0.03300000 1608976.22545722 16411.55825624
0.03400000 1604541.95887570 9266.23024005
0.03500000 1599988.55165476 14687.89558245
0.03600000 1595315.67391836 11510.20311925
0.03700000 1590525.26080819 13598.99160883
0.03800000 1585618.39757435 12986.21527713
0.03900000 1580596.56544291 9483.57983184
0.04000000 1575458.80098439 15502.51532006
0.04100000 1570208.76410356 14838.47350879
0.04200000 1564846.88970842 13121.24177894
0.04300000 1559373.33573154 11321.05094291
0.04400000 1553791.72779910 11536.90411470
0.04500000 1548101.68191906 12818.28252189
0.04600000 1542303.64613340 13047.88945284
0.04700000 1536400.62085932 12168.29348313
0.04800000 1530392.92914801 14622.90511839
0.04900000 1524283.35565154 14861.76340938
0.05000000 1518071.46012607 12774.57193182
0.05100000 1511760.40009757 14150.07800408
0.05200000 1505348.59100244 13164.27404179
0.05300000 1498841.37066313 15782.80036884
0.05400000 1492237.22402132 14773.14920674
0.05500000 1485539.93991091 16222.09690058
0.05600000 1478748.10379469 17700.61562841
0.05700000 1471866.78543439 15366.28995721
0.05800000 1464894.49197960 15557.18023123
0.05900000 1457833.35681964 15744.60098902
0.06000000 1450685.97812078 17255.91051592
0.06100000 1443454.05361651 14766.53565856
0.06200000 1436138.02638630 14928.65548210
0.06300000 1428741.04607662 19202.28055708
0.06400000 1421261.17521170 16628.75652765
0.06500000 1413704.53495300 19593.94577101
0.06600000 1406069.55018827 14130.99964056
0.06700000 1398358.81334716 25673.86901456
0.06800000 1390575.29487370 15831.70047320
0.06900000 1382719.86400399 14518.55925179
0.07000000 1374791.73789261 17569.83923304
0.07100000 1366796.28908221 20665.96085887
0.07200000 1358732.06472255 20829.36352799
0.07300000 1350603.96912796 16490.87523574
0.07400000 1342411.37208284 16612.34150805
0.07500000 1334156.76357942 15209.38781771
0.07600000 1325840.02519668 16844.79830982
0.07700000 1317466.92960256 15414.36379911
0.07800000 1309035.50551666 15512.07146783
0.07900000 1300547.73711116 17167.23093507
0.08000000 1292008.22095260 15697.90062098
0.08100000 1283416.38625281 18943.22674987
0.08200000 1274773.18190158 19045.11223131
0.08300000 1266082.26426901 15952.63727848
0.08400000 1257343.61003301 16031.13178040
0.08500000 1248561.77624624 17717.09243667
0.08600000 1239735.36565624 22649.96619399
0.08700000 1230868.38971471 22746.44891005
0.08800000 1221959.21458979 17944.47190899
0.08900000 1213014.10467357 22925.96765516
0.09000000 1204031.84788332 21365.54614435
0.09100000 1195015.02588339 26385.93301115
0.09200000 1185964.75669863 19853.05095996
0.09300000 1176884.40738299 21572.29220106
0.09400000 1167772.10208370 16640.75323677
0.09500000 1158632.47986565 21689.60104255
0.09600000 1149466.27467710 18397.20859102
0.09700000 1140277.04910709 21790.69543288
0.09800000 1131065.10127760 20155.58105244
0.09900000 1121832.29529973 23558.47930907
0.10000000 1112578.53041385 25283.34829266
0.10100000 1103306.84929261 25320.89338215
0.10200000 1094019.33574418 27044.15925165
0.10300000 1084716.93222162 27074.53590186
0.10400000 1075401.96772720 16937.58178853
0.10500000 1066077.59474227 25425.95183088
0.10600001 1056739.94264926 27137.08300413
0.10700001 1047396.84552305 20361.39563513
0.10800001 1038045.23771146 23760.85660944
0.10900001 1028689.86687911 20368.06032284
0.11000001 1019330.69880358 20366.22832072
0.11100001 1009969.74199817 18664.24171071
0.11200001 1000609.17704603 23744.45688912
0.11300001 991248.10135310 20340.41199741
0.11400001 981891.36227160 16937.62679668
0.11500001 972538.71821970 20306.60939262
0.11600001 963191.38221225 16904.00955386
0.11700001 953852.40673757 25324.78259155
0.11800001 944520.00312879 23603.55598988
0.11900001 935198.85633556 16833.58020693
0.12000001 925888.49403528 21846.34004583
0.12100001 916592.59140966 23483.10329816
0.12200001 907309.73026913 23435.81143694
0.12300001 898043.10191223 18373.96273080
0.12400001 888792.76282793 26663.78414117
0.12500001 879560.92602987 21610.81297087
0.12600001 870350.37168459 18238.19289810
0.12700001 861160.46837614 23147.99448083
0.12800001 851991.79334485 19783.25037384
0.12900001 842847.22374855 19722.62596528
0.13000001 833727.78661366 24574.12766874
0.13100001 824633.11184477 26124.37821468
0.13200001 815567.04857556 21151.73240191
0.13300001 806530.31540283 19453.51212461
0.13400001 797521.84133837 19379.78165819
0.13500001 788545.16527420 17694.95434304
0.13600001 779599.56674596 20827.00340763
0.13700001 770688.13408287 17548.56964054
0.13800001 761809.25008290 15883.72361324
0.13900001 752968.25762959 17393.56757149
0.14000001 744162.11008023 17312.93230750
0.14100001 735393.82683574 21929.44495050
0.14200001 726662.89654419 18704.30383924
0.14300001 717974.49311493 17059.07476105
0.14400001 709321.95419156 16970.52855453
0.14500001 700715.04733030 18414.79231251
0.14600001 692147.85143908 19840.41909746
0.14700001 683626.64158179 19729.46580682
0.14800001 675147.40649876 19616.40882130
0.14900001 666713.18523358 24001.67580083
0.15000001 658325.66306273 16402.18466911
0.15100001 649984.66580175 25193.40683523
0.15200001 641692.23778937 19144.88881784
0.15300001 633448.08894750 19022.44700874
0.15400001 625251.20216977 17444.50936376
0.15500001 617106.26015807 18772.37331993
0.15600001 609010.11724913 17210.62672571
0.15700001 600968.71554849 17091.55107687
0.15800001 592974.95280551 19799.43460868
0.15900001 585036.93609030 15444.97584180
0.16000001 577149.94262401 15331.98894951
0.16100001 569320.25028605 20751.72410250
0.16200001 561542.95483645 15102.69848326
0.16300001 553822.23468258 17711.23590126
0.16400001 546156.58769660 18924.32665710
0.16500001 538547.90625349 16091.81219857
0.16600001 530995.57968832 17291.87186895
0.16700001 523500.52460866 19788.32076451
0.16800001 516062.26986879 15698.61499064
0.16900001 508684.63556516 12971.45881940
0.17000001 501364.89411316 15432.01216950
0.17100001 494104.27985036 15297.46922653
0.17200001 486903.41318518 21479.74508700
0.17300001 479762.55989226 15026.16408543
0.17400001 472683.23436567 13648.72903688
0.17500001 465663.98811964 14752.23584034
0.17600001 458703.93257476 17050.02597906
0.17700001 451807.86774907 16888.57889412
0.17800001 444972.55542253 13142.26504514
0.17900001 438198.96094377 14197.64700518
0.18000001 431488.55672114 14057.89784200
0.18100001 424841.50207785 11598.17355458
0.18200001 418254.32676609 17221.62271811
0.18300001 411732.70773252 14772.97025131
0.18400001 405272.74507294 16869.47881059
0.18500001 398877.24616062 14467.27840171
0.18600001 392544.71547884 13213.05574725
0.18700001 386275.59143320 14160.86385097
0.18800001 380069.46412945 12929.96378057
0.18900001 373929.38862778 12788.38569529
0.19000001 367849.24007250 10538.88122603
0.19100001 361837.78330487 12505.11438188
0.19200001 355887.01193700 14424.10127537
0.19300001 350002.64854472 11203.58530932
0.19400001 344181.18886816 11074.03027512
0.19500001 338424.17441750 11939.60543766
0.19600001 332730.43443120 11798.62176249
0.19700001 327101.41198421 13600.87735305
0.19800001 321536.46325915 9597.86388187
0.19900001 316036.46167032 14221.64144728
0.20000001 310598.12225582 13110.34736003
0.20100001 305225.70180310 12947.67488242
0.20200001 299915.51831007 11872.15635342
0.20300001 294669.96719893 9918.59156471
0.20400001 289487.90543338 11572.27956667
0.20500001 284368.42752734 11423.08027371
0.20600001 279312.83190357 13008.99576082
0.20700001 274320.10799059 11982.30288342
0.20800001 269389.89971409 12668.06063288
0.20900001 264524.97609094 9999.04456891
0.21000001 259719.94530842 10686.17765488
0.21100001 254977.71952509 8919.12105062
0.21200001 250297.49767545 8796.70597166
0.21300001 245678.93804163 10252.18256915
0.21400001 241123.03669565 8553.84013117
0.21500001 236629.17015881 9966.82111830
0.21600001 232194.79597914 7557.94096645
0.21700001 227821.97382044 8939.73467538
0.21800001 223510.05007795 8076.53604143
0.21900001 219257.22710985 7959.03772040
0.22000001 215064.23520083 9268.19365420
0.22100001 210933.39534210 12643.34831463
0.22200001 206860.49157528 6919.48377038
0.22300001 202846.89115885 10905.04938435
0.22400001 198890.14512561 6712.54271540
0.22500001 194994.96832368 8593.42866038
0.22600001 191155.91169005 8461.51683109
0.22700001 187375.68353519 8971.54815192
0.22800001 183652.02401993 11355.20518214
0.22900001 179984.87846772 7451.37432095
0.23000001 176374.78238774 6722.52514863
0.23100001 172822.25239071 6014.21466763
0.23200001 169323.51649397 7101.42861761
0.23300001 165881.48138106 7569.17235340
0.23400001 162494.33761106 6873.51080603
0.23500001 159160.52440166 7324.56767939
0.23600001 155882.05805200 8312.41113878
0.23700001 152656.91749809 5994.83743369
0.23800001 149485.19811426 8038.56690881
0.23900001 146366.50630034 7376.87226646
0.24000001 143300.08441615 6734.38778568
0.24100001 140286.79589536 6110.89311825
0.24200001 137324.55822778 5506.02842259
0.24300001 134413.40318260 5903.43694703
0.24400001 131552.61856710 7251.83844155
0.24500001 128742.54063151 4750.59997403
0.24600001 125982.25378481 5601.17126824
0.24700001 123272.00059579 5961.43423082
0.24800001 120609.63292162 4955.24700300
0.24900001 117995.69356499 4867.32258982
0.25000001 115430.15933382 5649.72941587
0.25100001 112911.63090441 4694.86583511
0.25200001 110441.26681425 4610.37090128
0.25300001 108017.46789131 5350.10543777
0.25400001 105638.99211730 4040.69163966
0.25500001 103306.18405025 5157.04495178
0.25600001 101019.04616448 4673.14129667
0.25700001 98776.32577639  3822.64398841
0.25800001 96577.67233378  5628.06412154
0.25900001 94423.18263754  5155.50601594
0.26000001 92312.22968430  3614.02396314
0.26100001 90241.99653357  4255.81275789
0.26200001 88216.61195053  3828.16005673
0.26300001 86231.54675562  5122.15411965
0.26400001 84287.57878462  4355.56083979
0.26500001 82385.29572641  3944.60814603
0.26600001 80522.69252841  3547.42738720
0.26700001 78700.79477004  4429.28093925
0.26800001 76918.24529493  4034.74674787
0.26900001 75173.82744266  4262.35621770
0.27000001 73468.41630594  4181.08776983
0.27100001 71801.00237014  3808.32534593
0.27200001 70171.29521398  2873.51467500
0.27300001 68577.95875724  4227.83135746
0.27400001 67020.09584903  4146.86862691
0.27500001 65500.70037947  3525.24786126
0.27600001 64014.69256947  4255.69696342
0.27700001 62565.38130047  3391.66948081
0.27800001 61149.53270321  3326.84048417
0.27900001 59768.49989256  2510.27711429
0.28000001 58420.87254416  4186.14782028
0.28100001 57106.10661407  2657.14726651
0.28200001 55824.72721098  2369.75978227
0.28300001 54575.54360660  3022.39374798
0.28400001 53358.19018242  2509.16901209
0.28500001 52172.46949620  3581.11847572
0.28600001 51016.74919031  3074.77961924
0.28700001 49892.12921770  3233.01012633
0.28800001 48796.81322660  2538.41034420
0.28900001 47732.64781792  2699.28136187
0.29000001 46695.94454056  2853.58930595
0.29100001 45689.19615694  2201.30557504
0.29200001 44710.10447084  2358.01102141
0.29300001 43758.77539530  2315.71450354
0.29400001 42834.60587182  2274.51767946
0.29500001 41938.39355449  2793.09714295
0.29600001 41067.68408532  2561.39157765
0.29700001 40222.72862061  1977.75165990
0.29800001 39404.05902468  2120.72655710
0.29900001 38610.45845528  2953.70021165
0.30000001 37841.46480417  2050.25066015
0.30100001 37097.81684348  2520.79677385
0.30200001 36376.87947594  2314.66095063
0.30300001 35680.01068503  2115.11113354
0.30400001 35006.99877419  1761.72729671
0.30500001 34355.46600539  1576.91596430
0.30600001 33726.75459349  1863.74054707
0.30700001 33120.29762130  1836.18938706
0.30800001 32535.32832279  1508.01253916
0.30900001 31971.29012859  2081.33108591
0.31000001 31428.89669486  1906.00553030
0.31100001 30905.35545605  1880.28191497
0.31200001 30402.90976148  1427.41668088
0.31300001 29919.53604042  1831.97327849
0.31400001 29456.97263343  1670.21042739
0.31500001 29012.04710876  1650.20531768
0.31600002 28586.02218112  2038.89812861
0.31700002 28177.58593367  1881.69927775
0.31800002 27787.58719364  1728.52694322
0.31900002 27415.30270647  1579.12151066
0.32000002 27059.81855470  1693.80942263
0.32100002 26721.46635506  1419.71157467
0.32200002 26399.57778769  1279.05960438
0.32300002 26093.10141622  1521.74974665
0.32400002 25802.85097879  1257.88904478
0.32500002 25527.54869352  1747.61606631
0.32600002 25267.91851574  1239.39146189
0.32700002 25022.87605345  1354.23811614
0.32800002 24793.01948531  1468.24268345
0.32900002 24575.97373440  1581.46398470
0.33000002 24374.54914456  1452.23570680
0.33100002 24184.03991362  1445.23829368
0.33200002 24009.40220625  1678.97757579
0.33300002 23846.39651598  1672.58633084
0.33400002 23696.63787602  1428.90733159
0.33500002 23558.62879770  1662.29692669
0.33600002 23432.78267266  1895.24355232
0.33700002 23317.80877964  1182.21296111
0.33800002 23215.77337881  1416.62655866
0.33900002 23123.70250925  1415.17066059
0.34000002 23043.10565021  1296.52040081
0.34100002 22972.88586526  1414.21092084
0.34200002 22914.09342652  1532.60921142
0.34300002 22863.75239661  1415.72361545
0.34400002 22824.24843895  1417.38589519
0.34500002 22793.86014075  1656.20195626
0.34600002 22773.91936608  1422.45907097
0.34700002 22760.91018570  1306.93152476
0.34800002 22758.26080975  1429.67401178
0.34900002 22763.69771033  1434.11302367
0.35000002 22777.63163262  1798.86354338
0.35100002 22799.44492307  1324.19182385
0.35200002 22828.49157013  1450.52242307
0.35300002 22865.48206886  1335.57287090
0.35400002 22910.26732789  1341.96897229
0.35500002 22961.75348658  1471.38923311
0.35600002 23019.87113763  1479.25698937
0.35700002 23084.63190513  1487.57375043
0.35800002 23156.61636804  1621.07900563
0.35900002 23234.19965378  1254.64684073
0.36000002 23318.54679161  1641.50917915
0.36100002 23407.83248782  1398.14990072
0.36200002 23504.01102197  1535.75215292
0.36300002 23603.67136429  1417.63656929
0.36400002 23709.51938005  1298.09624755
0.36500002 23819.75825386  1438.47526909
0.36600002 23935.54012498  1449.41670092
0.36700002 24055.45132648  1327.86097612
0.36800002 24181.13505625  1739.95365539
0.36900002 24309.93450403  1753.96185755
0.37000002 24442.14336485  1360.20534269
0.37100002 24578.59035736  1920.07956967
0.37200002 24719.40915261  1797.96630989
0.37300002 24862.88624110  1394.80798420
0.37400002 25010.88955083  1547.54886427
0.37500002 25160.82825954  1702.88493727
0.37600002 25315.02948806  1717.87798244
0.37700002 25470.68662555  1588.60680009
0.37800002 25630.15459488  1457.07435774
0.37900002 25791.96847169  1911.18495429
0.38000002 25956.13322319  2076.75031757
0.38100002 26122.09274246  1646.47558356
0.38200002 26290.46354784  1661.42592261
0.38300002 26460.53977840  1981.36531247
0.38400002 26633.18379703  1691.87308086
0.38500002 26806.28080613  1707.29210542
0.38600002 26982.15538773  1722.94561391
0.38700002 27158.16193831  1896.72611963
0.38800002 27335.59362485  1914.03835629
0.38900002 27514.36005643  1931.50816747
0.39000002 27694.70624986  1786.72405836
0.39100002 27875.02641528  1966.86195704
0.39200002 28056.77981771  2150.13142320
0.39300002 28238.52194113  2002.67607095
0.39400002 28421.74717743  1683.98860005
0.39500002 28604.40096046  2718.56239608
0.39600002 28787.38532294  2057.14665264
0.39700002 28970.22797106  2075.42723018
0.39800002 29154.28636840  1919.37253400
0.39900002 29337.05700413  2816.35760583
0.40000002 29519.81106253  2663.42507931
0.40100002 29702.30320775  1970.15386511
0.40200002 29885.35222544  1987.22659038
0.40300002 30066.96894876  2368.67592601
0.40400002 30247.91980033  2021.31733643
0.40500002 30428.44178967  2038.40141207
0.40600002 30608.32710777  2055.50230431
0.40700002 30787.26892836  1884.18094769
0.40800002 30965.41390006  2089.70105606
0.40900002 31141.97392078  1915.23148687
0.41000002 31318.10967104  2509.99001851
0.41100002 31492.74996062  1946.25203978
0.41200002 31665.44336312  2157.84174022
0.41300002 31837.34104813  2767.93856188
0.41400002 32007.68660705  2390.97430284
0.41500002 32177.00510316  2007.84521358
0.41600002 32343.45899003  2225.39180126
0.41700002 32509.18831036  2242.15882401
0.41800002 32673.92811445  2464.26777516
0.41900002 32834.90665141  2689.17898218
0.42000002 32995.01405548  3125.45285450
0.42100002 33153.55065926  2098.61985617
0.42200002 33309.96388545  2747.57250129
0.42300002 33463.95630930  2341.13849433
0.42400002 33615.72159427  3214.50352977
0.42500002 33765.90069472  2373.40527230
0.42600002 33912.38046993  2389.29687923
0.42700002 34058.07353487  3498.44547928
0.42800002 34200.85014710  2200.82481126
0.42900002 34341.77136180  2436.54879358
0.43000002 34480.30070305  2229.15154609
0.43100002 34615.00931694  3813.18960705
0.43200002 34748.06857870  2708.26459336
0.43300002 34878.21016401  2724.68590713
0.43400002 35006.23742523  2284.15710024
0.43500002 35131.04497021  3216.59862990
0.43600002 35254.22566424  2542.00606198
0.43700002 35373.77714792  3718.49163000
0.43800002 35489.68788359  2336.99605788
0.43900002 35604.07423475  2819.84281302
0.44000002 35714.88872445  3307.55600152
0.44100002 35823.43998749  2850.11302047
0.44200002 35928.85724142  2864.96721220
0.44300002 36031.63499027  2399.70700408
0.44400002 36130.77109814  2894.07490211
0.44500002 36226.41630260  2665.90210205
0.44600002 36319.82936231  4383.44041347
0.44700002 36410.40581506  3180.81320275
0.44800002 36496.82488034  3441.28578106
0.44900002 36581.53146146  3210.02953787
0.45000002 36662.83306461  3472.33708411
0.45100002 36739.87704160  2989.15653777
0.45200002 36814.71751375  2751.71619098
0.45300002 36885.78247668  2511.92190571
0.45400002 36954.29164963  3278.76968200
0.45500002 37019.50938672  3798.20184309
0.45600002 37081.17431095  3812.87192923
0.45700002 37139.76182481  3827.25263743
0.45800002 37194.49864949  3329.09375940
0.45900002 37246.38134208  2570.00043441
0.46000002 37295.69602008  3610.59650283
0.46100002 37340.43910694  3881.53882913
0.46200002 37382.90835065  2596.24310800
0.46300002 37421.64603160  3125.45602469
0.46400002 37456.69895894  3396.38633907
0.46500002 37489.44028792  3406.66560042
0.46600002 37517.98167287  4205.01558520
0.46700002 37543.34589588  3162.65160817
0.46800002 37566.04237799  2642.77120655
0.46900002 37584.81853129  2914.70281525
0.47000002 37599.88059555  2922.07485898
0.47100002 37612.26898411  3461.83340138
0.47200002 37621.07466607  2936.13691148
0.47300002 37627.32041602  4012.95391257
0.47400002 37628.74047190  2681.04788570
0.47500002 37628.13664317  3492.64380876
0.47600002 37624.46706454  2692.03074606
0.47700002 37616.32086289  3236.50840045
