# SAXS profile: number of points = 501, q_min = 0, q_max = 0.5, delta_q = 0.001
#    q    intensity    error
0.00000000 1682732.95097189 252.40994265
0.00100000 1682663.77989766 656.23888974
0.00200000 1682456.21361092 1362.78957618
0.00300000 1682110.41365073 1110.19291256
0.00400000 1681626.26457761 1765.70764490
0.00500000 1681004.21732369 2118.06539766
0.00600000 1680243.98173352 2646.38437897
0.00700000 1679346.24158271 2015.21557365
0.00800000 1678310.44436020 3398.57879332
0.00900000 1677137.96382400 3521.98987459
0.01000000 1675827.90599969 3318.13939715
0.01100000 1674381.58554777 4219.44177929
0.01200000 1672798.42308735 3588.15277484
0.01300000 1671079.79652578 3860.19450023
0.01400000 1669224.98618547 4506.90766250
0.01500000 1667235.78521343 5201.77588150
0.01600000 1665110.96343297 4670.63646122
0.01700000 1662852.79447287 5836.61357042
0.01800000 1660460.69040847 6152.00713479
0.01900000 1657935.49263363 5968.56804280
0.02000000 1655277.76665063 7821.18780122
0.02100000 1652489.18591225 5998.53601683
0.02200000 1649567.95923147 9674.71652044
0.02300000 1646516.95689016 6520.20744607
0.02400000 1643336.02743962 6778.76142228
0.02500000 1640026.61111526 7035.71448301
0.02600000 1636588.81118112 7953.82198613
0.02700000 1633023.69230613 6858.69982182
0.02800000 1629331.14075755 7087.59078733
0.02900000 1625513.78328066 8046.29359668
0.03000000 1621571.78218399 12064.49461400
0.03100000 1617505.58125424 8540.42986199
0.03200000 1613316.08225128 10381.68946745
0.03300000 1609006.03804695 8205.93117234
0.03400000 1604573.58032807 8424.01168541
0.03500000 1600022.06364565 8640.11954267
0.03600000 1595351.03267450 12395.87809674
0.03700000 1590562.56680195 10879.44846007
0.03800000 1585657.69815477 9276.09796350
0.03900000 1580637.95002792 14225.74220905
0.04000000 1575502.29532663 10658.27352178
0.04100000 1570254.37197566 11871.12360256
0.04200000 1564894.63001523 17159.07041418
0.04300000 1559423.34084155 11321.41398003
0.04400000 1553844.04194053 14683.82687828
0.04500000 1548156.26809589 17091.64599394
0.04600000 1542360.59984213 14135.73555468
0.04700000 1536459.96115087 13275.01468174
0.04800000 1530454.72265663 13498.61128190
0.04900000 1524347.68623443 16005.65145048
0.05000000 1518138.22020878 16259.26109557
0.05100000 1511829.81151878 12971.50038710
0.05200000 1505420.65390657 15558.52318317
0.05300000 1498916.03649469 13355.34250777
0.05400000 1492314.51346960 16005.07390334
0.05500000 1485620.02983004 17470.89236581
0.05600000 1478830.89077798 12644.00470617
0.05700000 1471952.41076848 20489.57851432
0.05800000 1464983.02255367 14261.61039047
0.05900000 1457924.69565452 15745.58744848
0.06000000 1450780.24677281 17257.03184159
0.06100000 1443551.32299404 14767.53072434
0.06200000 1436238.23896378 14929.69719190
0.06300000 1428844.21247794 16460.28609735
0.06400000 1421367.42941949 18015.83301043
0.06500000 1413814.05115563 16796.11171341
0.06600000 1406182.09451019 16958.55685326
0.06700000 1398474.38735167 15690.88336040
0.06800000 1390694.11810095 17272.42175532
0.06900000 1382841.80483800 20327.77548284
0.07000000 1374916.95883495 19035.72618648
0.07100000 1366924.73743098 22144.18178357
0.07200000 1358863.89463425 16367.51637764
0.07300000 1350739.04199605 17991.84488241
0.07400000 1342549.89915534 15103.68707332
0.07500000 1334298.59889626 19774.30616251
0.07600000 1325985.36559514 19909.67119779
0.07700000 1317615.53605075 18499.32299356
0.07800000 1309187.58905947 21719.42312106
0.07900000 1300703.26492297 18730.12789340
0.08000000 1292167.18584184 17269.81524892
0.08100000 1283578.96706561 17366.82423922
0.08200000 1274939.35320834 15872.99569229
0.08300000 1266251.82393972 20741.20584956
0.08400000 1257516.76413776 20843.34134394
0.08500000 1248738.48021065 16108.72715094
0.08600000 1239915.62459070 25889.43945700
0.08700000 1231052.23833674 16249.89030910
0.08800000 1222146.67721533 27736.62014202
0.08900000 1213205.29866684 19653.92676154
0.09000000 1204226.70573759 18081.46483604
0.09100000 1195213.54586848 23091.52679105
0.09200000 1186166.83733314 24820.54223743
0.09300000 1177090.18309658 16596.97236159
0.09400000 1167981.58307085 26629.98134556
0.09500000 1158845.71705586 18356.11702095
0.09600000 1149683.19675554 18400.68042905
0.09700000 1140497.58950437 25147.97303085
0.09800000 1131289.40045005 16799.64838656
0.09900000 1122060.33488158 20197.08697759
0.10000000 1112810.15933672 18544.98217746
0.10100000 1103542.17483829 21949.45488986
0.10200000 1094258.58564279 16906.29594339
0.10300000 1084959.69363161 23695.52082357
0.10400000 1075648.48618638 23718.05023623
0.10500000 1066327.95437126 18650.07679943
0.10600001 1056994.04159505 22054.18171561
0.10700001 1047654.48398931 20366.40412715
0.10800001 1038306.73784134 18673.94755890
0.10900001 1028954.96001987 23768.86069516
0.11000001 1019599.57773113 18673.96714512
0.11100001 1010242.25418747 25458.10600392
0.11200001 1000885.52791127 25447.51574514
0.11300001 991527.98684837 27128.20699739
0.11400001 982174.99784044 23719.52731467
0.11500001 972825.88909750 27083.47402778
0.11600001 963482.32664174 20290.93875461
0.11700001 954146.84926876 25332.60004112
0.11800001 944818.25521960 16865.00664998
0.11900001 935500.59064840 18522.91256730
0.12000001 926193.75667490 21853.54271815
0.12100001 916901.44455719 20135.15667101
0.12200001 907622.08359295 28467.56799304
0.12300001 898359.12095494 23393.27261183
0.12400001 889112.30317716 21672.11341108
0.12500001 879883.97860588 18292.78877718
0.12600001 870676.90645507 18245.03543454
0.12700001 861490.41578486 19848.74011508
0.12800001 852325.18292140 23089.49029353
0.12900001 843183.98072097 16442.08839901
0.13000001 834067.84386000 18028.37729480
0.13100001 824976.51826940 17967.98941488
0.13200001 815913.83268554 19532.97807528
0.13300001 806880.46940871 17840.12801966
0.13400001 797875.38530545 22619.76823983
0.13500001 788901.85440305 24140.39788291
0.13600001 779959.40057868 17630.98308140
0.13700001 771051.14134672 20748.98719202
0.13800001 762175.36800875 17480.49288959
0.13900001 753337.46257695 15820.08746016
0.14000001 744534.31863822 17321.59174001
0.14100001 735769.21531834 21940.63903558
0.14200001 727041.36664023 17154.54185498
0.14300001 718355.83176207 21723.08137711
0.14400001 709706.19720877 24697.77682786
0.14500001 701102.01194932 23031.20217897
0.14600001 692537.83618654 18324.55200994
0.14700001 684019.49640112 22777.85030474
0.14800001 675543.05095945 16608.22669139
0.14900001 667111.48700751 24016.01466537
0.15000001 658726.57944777 17904.18927416
0.15100001 650388.35632776 17794.62626877
0.15200001 642098.47243762 19157.00882914
0.15300001 633856.87081651 20498.93216953
0.15400001 625662.46938817 16001.31840972
0.15500001 617519.97271842 23119.94886968
0.15600001 609426.26311545 15787.18809108
0.15700001 601387.16994719 17103.45192053
0.15800001 593395.72012895 16982.98631167
0.15900001 585460.07456858 14051.04245286
0.16000001 577575.29801968 13948.44410558
0.16100001 569747.71097913 13844.87003033
0.16200001 561972.43740881 13740.22674327
0.16300001 554253.82244065 17725.03807841
0.16400001 546590.22027908 16233.73030868
0.16500001 538983.34232503 16104.82302900
0.16600001 531433.05578981 15974.87841126
0.16700001 523939.71591264 15843.93775727
0.16800001 516503.29745436 18330.70289217
0.16900001 509127.46756057 20772.40165730
0.17000001 501809.20324316 20594.25067355
0.17100001 494550.30263439 19139.09761572
0.17200001 487351.03177779 16440.78783341
0.17300001 480211.53358207 17546.93026573
0.17400001 473133.79354882 18629.64400079
0.17500001 466115.76514734 18458.18517157
0.17600001 459157.16081878 14628.74783459
0.17700001 452262.29127853 15698.02487170
0.17800001 445428.16587119 16743.64554594
0.17900001 438655.60110279 16581.18250487
0.18000001 431946.20470808 11727.34001177
0.18100001 425300.22935516 12771.76649083
0.18200001 418713.92178950 20688.65585291
0.18300001 412193.17813421 12514.18547932
0.18400001 405734.10045189 11259.12181943
0.18500001 399339.27895274 12255.72305005
0.18600001 393007.51203596 12126.24735676
0.18700001 386738.94213518 10906.03868347
0.18800001 380533.33998071 16182.18104723
0.18900001 374393.70928109 13871.28758425
0.19000001 368313.88179406 14773.07049677
0.19100001 362302.86382176 11477.75526820
0.19200001 356352.19179711 14442.95501599
0.19300001 350468.10116273 10198.62222575
0.19400001 344646.79085387 10080.91910884
0.19500001 338889.91412146 14945.04591899
0.19600001 333196.04447770 13784.32101144
0.19700001 327567.01044002 11674.48880379
0.19800001 322001.83384834 10572.93071407
0.19900001 316501.60293053 10444.55339032
0.20000001 311063.02102131 14067.82579055
0.20100001 305690.09445154 13893.61544947
0.20200001 300379.52786727 10061.21276144
0.20300001 295133.46975637 10837.30152167
0.20400001 289950.75829649 9807.58486294
0.20500001 284830.73487444 8801.27012363
0.20600001 279774.46601268 10424.39709637
0.20700001 274780.91330529 9430.48139041
0.20800001 269849.87766361 9305.77347112
0.20900001 264983.94324758 11685.79244962
0.21000001 260177.94855757 9881.55895334
0.21100001 255434.67902283 10559.67013000
0.21200001 250753.25799218 11216.19376023
0.21300001 246133.45407372 8690.97267421
0.21400001 241576.27367588 11686.25279156
0.21500001 237080.96524530 9217.70836453
0.21600001 232645.22121077 8329.86253928
0.21700001 228271.04840933 8957.35636308
0.21800001 223957.43315878 8828.40243253
0.21900001 219702.96383558 9425.25759419
0.22000001 215508.32620481 9287.33175692
0.22100001 211375.66461052 8446.57195722
0.22200001 207301.00196132 7627.64072784
0.22300001 203285.34748532 10245.58199773
0.22400001 199326.61783997 10090.91050531
0.22500001 195429.38438456 9275.07902148
0.22600001 191588.25133780 7828.29631985
0.22700001 187805.82080916 7065.25531295
0.22800001 184079.95337143 6323.14669733
0.22900001 180410.45523436 6846.57709993
0.23000001 176797.94831993 9189.07379850
0.23100001 173242.88687717 7837.50857298
0.23200001 169741.63557652 8305.45862155
0.23300001 166296.92806106 5837.02245100
0.23400001 162907.27326060 8039.47431564
0.23500001 159570.70976251 6778.56407131
0.23600001 156289.36400086 7778.52201422
0.23700001 153061.36033330 7103.57806905
0.23800001 149886.77632872 7522.81765976
0.23900001 146765.06338166 10567.08506330
0.24000001 143695.66312808 5194.59846779
0.24100001 140679.19972644 7659.98278743
0.24200001 137713.87043673 6023.60497783
0.24300001 134799.52034309 6907.12774911
0.24400001 131935.38020512 6303.21308746
0.24500001 129121.90260256 8576.27717656
0.24600001 126358.07645900 5617.88034512
0.24700001 123644.45794931 4599.57405330
0.24800001 120978.60120654 4970.40606570
0.24900001 118361.05431690 5326.24769623
0.25000001 115791.88233797 4795.52103389
0.25100001 113269.71334417 5137.91444036
0.25200001 110795.60413573 4204.69337587
0.25300001 108367.94210284 4954.58254735
0.25400001 105985.60357008 6486.31924536
0.25500001 103648.89374409 4378.12947889
0.25600001 101357.84100463 4298.07945115
0.25700001 99111.04266465  5369.83654564
0.25800001 96908.33499217  4517.86679109
0.25900001 94749.66063383  7020.95018516
0.26000001 92634.61698520  5077.30359719
0.26100001 90560.11665766  4626.71657896
0.26200001 88530.47533463  3492.52741721
0.26300001 86541.03139632  5825.94250927
0.26400001 84592.88890333  5380.10798883
0.26500001 82686.17243897  3959.01412371
0.26600001 80819.04858986  4207.84396394
0.26700001 78992.68935525  4445.70876729
0.26800001 77205.63654379  4049.82185655
0.26900001 75456.69913025  3055.99645939
0.27000001 73746.74230430  2997.80521653
0.27100001 72074.55407773  3528.77033464
0.27200001 70440.20300274  4038.33702925
0.27300001 68842.18833882  3678.23829701
0.27400001 67279.65155296  3052.81433369
0.27500001 65755.34451054  3538.95280904
0.27600001 64264.51906182  4539.32451876
0.27700001 62810.32330020  3143.02872669
0.27800001 61389.76011212  2569.16158228
0.27900001 60003.75280658  2772.17351087
0.28000001 58651.20630750  3213.79300172
0.28100001 57331.52225743  2667.63585689
0.28200001 56045.05049174  2854.93500717
0.28300001 54790.90705926  3267.72985168
0.28400001 53568.44103171  2519.05605875
0.28500001 52377.69352032  2696.40379005
0.28600001 51216.87017507  3748.30682118
0.28700001 50087.21048564  2163.76759540
0.28800001 48986.69621683  5096.57611564
0.28900001 47917.32731135  3751.92690607
0.29000001 46875.49101874  2659.94986377
0.29100001 45863.62534576  2410.59226228
0.29200001 44879.32112297  1972.44625672
0.29300001 43922.73684237  2130.69206508
0.29400001 42993.36982155  3234.17639792
0.29500001 42091.86663718  3177.09424417
0.29600001 41215.83478707  2570.63173736
0.29700001 40365.60575893  3247.81679311
0.29800001 39541.77849933  2305.48350454
0.29900001 38742.85161851  2440.79976751
0.30000001 37968.57414548  2057.13744459
0.30100001 37219.60462187  2360.46743686
0.30200001 36493.44398447  1658.62710761
0.30300001 35791.22486932  1795.28792444
0.30400001 35112.93572677  2088.34195122
0.30500001 34456.13102744  2214.15108465
0.30600001 33822.05994176  2492.00949449
0.30700001 33210.37670863  1534.31947658
0.30800001 32620.03209761  2267.90783896
0.30900001 32050.74026629  1937.46734083
0.31000001 31503.16394774  1910.50946806
0.31100001 30974.23263331  1594.55357146
0.31200001 30466.55673780  1716.48588788
0.31300001 29977.92116670  1976.74421532
0.31400001 29510.06993989  1952.09121895
0.31500001 29060.03770655  1377.44585251
0.31600002 28628.69878752  1905.81256852
0.31700002 28215.15188388  1884.20793202
0.31800002 27819.90067276  1464.30054124
0.31900002 27442.34651941  1580.67923436
0.32000002 27081.69544732  1695.17880679
0.32100002 26738.26164264  1549.74971819
0.32200002 26411.23353088  1407.58675768
0.32300002 26099.69958140  1395.29000569
0.32400002 25804.34544675  2012.73904015
0.32500002 25524.02820078  1248.12503812
0.32600002 25259.33096431  1486.76429096
0.32700002 25009.32712395  1476.55074332
0.32800002 24774.45052706  1589.40494883
0.32900002 24552.47943947  1458.41734777
0.33000002 24346.07747438  1813.17420577
0.33100002 24150.70321371  1563.51660009
0.33200002 23971.22796864  1676.30805123
0.33300002 23803.23041707  1311.79609041
0.33400002 23648.76950879  1663.69101373
0.33500002 23506.07182719  1303.17668381
0.33600002 23375.37700783  2008.76311830
0.33700002 23255.81767794  1296.97701332
0.33800002 23149.08284779  2118.83565340
0.33900002 23052.40436703  1528.37448191
0.34000002 22967.20521913  1409.72712311
0.34100002 22892.49386512  1409.26198908
0.34200002 22829.13935139  1292.01520278
0.34300002 22774.37499657  1410.18936657
0.34400002 22730.53735802  1529.19697318
0.34500002 22695.66708903  1766.85776656
0.34600002 22671.47451730  1416.06036542
0.34700002 22654.11712113  1182.54496973
0.34800002 22647.26925846  1659.81844256
0.34900002 22648.50755135  2021.37939469
0.35000002 22658.24493743  1789.43497868
0.35100002 22676.03190335  1317.02399532
0.35200002 22701.03093501  1442.42357393
0.35300002 22734.04880563  1690.04926826
0.35400002 22774.91182218  1334.04052317
0.35500002 22822.55046410  1706.21395351
0.35600002 22876.71123947  1960.07671184
0.35700002 22937.80671099  1601.28836234
0.35800002 23005.98018638  1858.30813757
0.35900002 23079.89937558  1495.57755038
0.36000002 23160.63670907  1379.56339092
0.36100002 23246.40015928  1262.27958844
0.36200002 23339.04867876  1397.89238683
0.36300002 23435.32048493  1791.39598272
0.36400002 23537.73652264  1546.42936279
0.36500002 23644.64893306  1427.90041670
0.36600002 23757.16848501  1700.18184316
0.36700002 23873.85769770  1844.97181027
0.36800002 23996.45471149  1593.84459744
0.36900002 24122.26368453  1472.66426770
0.37000002 24251.39979185  1484.54950858
0.37100002 24384.85679935  1768.87759602
0.37200002 24522.70519079  1783.65904654
0.37300002 24663.45455215  1521.98185251
0.37400002 24808.61632381  2093.22710148
0.37500002 24955.98161627  1970.52440177
0.37600002 25107.49712793  1419.82902984
0.37700002 25260.65056642  2005.19053695
0.37800002 25417.58825476  1878.48694896
0.37900002 25576.92192293  2041.03846614
0.38000002 25738.77982449  1912.26273765
0.38100002 25902.45170378  2077.89477411
0.38200002 26068.58936395  1647.40458290
0.38300002 26236.48918940  1511.22184890
0.38400002 26406.98347030  1830.00404119
0.38500002 26578.11749245  1692.76038329
0.38600002 26751.96093856  2640.01739029
0.38700002 26926.21564547  1567.10582481
0.38800002 27101.74989785  2213.94205404
0.38900002 27278.75754459  2234.13034874
0.39000002 27457.40018803  2254.52723625
0.39100002 27636.11660512  2275.00522671
0.39200002 27816.29455281  3115.56421899
0.39300002 27996.60276678  2812.81881324
0.39400002 28178.48617263  2504.36307724
0.39500002 28359.77056438  2695.31272214
0.39600002 28541.54166942  2039.57866433
0.39700002 28723.13294611  1714.77111813
0.39800002 28906.05474582  1903.03020435
0.39900002 29087.89898880  2094.32882642
0.40000002 29269.70953626  2288.74504563
0.40100002 29451.17146743  2841.44915780
0.40200002 29633.45637641  2328.74527967
0.40300002 29814.21586060  2348.76403678
0.40400002 29994.56788369  2915.47213643
0.40500002 30174.39847927  2021.38304990
0.40600002 30353.82903718  3520.89256599
0.40700002 30532.21475948  2429.14312136
0.40800002 30709.97631984  3014.49141839
0.40900002 30886.10758811  2279.39484800
0.41000002 31062.01126520  2106.47039376
0.41100002 31236.45545874  2316.49564658
0.41200002 31409.01601723  2140.36749791
0.41300002 31580.92244410  1961.17537670
0.41400002 31751.16541363  2371.81216878
0.41500002 31920.54972578  2191.02663700
0.41600002 32087.17960599  2809.87445124
0.41700002 32253.13208820  2628.95292108
0.41800002 32418.17586664  3871.21665455
0.41900002 32579.50422167  3899.76684012
0.42000002 32739.90072481  2274.27731161
0.42100002 32898.99917439  2707.25877034
0.42200002 33055.91363051  2936.35694694
0.42300002 33210.49889058  3379.50052724
0.42400002 33362.96576708  2552.26700212
0.42500002 33513.86876856  2783.99721053
0.42600002 33661.14699977  2802.79553775
0.42700002 33807.68045607  2604.54382576
0.42800002 33951.36002523  2184.77012115
0.42900002 34093.27591759  2638.81968107
0.43000002 34232.87279072  3762.36406235
0.43100002 34368.65895970  2449.79812674
0.43200002 34502.91515519  2465.06089008
0.43300002 34634.28003300  2254.69173699
0.43400002 34763.58793029  3856.15117390
0.43500002 34889.74281831  3194.50500383
0.43600002 35014.34458455  3213.26655480
0.43700002 35135.28269382  2770.06581885
0.43800002 35252.81456163  2785.67753867
0.43900002 35368.77127549  2334.33901481
0.44000002 35481.20668168  3051.20651319
0.44100002 35591.42332676  2359.71147839
0.44200002 35698.62280315  2372.17359769
0.44300002 35803.22155872  3099.84306946
0.44400002 35904.30202129  3115.59595555
0.44500002 36001.75269425  2649.36910633
0.44600002 36097.07867977  3146.40201223
0.44700002 36189.72283874  3404.72928602
0.44800002 36278.12367324  2931.99809422
0.44900002 36365.00872307  2700.10202565
0.45000002 36448.49566995  3452.03718850
0.45100002 36527.72514925  3219.55384724
0.45200002 36604.77533623  3233.48298257
0.45300002 36678.09770843  2497.77857232
0.45400002 36749.03325845  2758.93380263
0.45500002 36816.59707689  3021.90643129
0.45600002 36880.76196190  4045.08216369
0.45700002 36941.78835967  3299.27127477
0.45800002 36999.02693965  3311.59806318
0.45900002 37053.43705278  3068.02473338
0.46000002 37105.37807946  3592.17182212
0.46100002 37152.77594137  2832.15624424
0.46200002 37197.93651414  2841.73649468
0.46300002 37239.37294065  3887.79071927
0.46400002 37277.18315887  2860.09201342
0.46500002 37312.72966929  2608.15992750
0.46600002 37344.07718813  2877.54800411
0.46700002 37372.30037339  3148.24273267
0.46800002 37397.95345384  3157.13538021
0.46900002 37419.63492359  2638.08438715
0.47000002 37437.66365138  3173.96527480
0.47100002 37453.01284672  3447.17546580
0.47200002 37464.83954936  2923.94354122
0.47300002 37474.12209861  3730.17429050
0.47400002 37478.58763215  3471.45434397
0.47500002 37481.05820834  3478.99198779
0.47600002 37480.54835448  2681.73336187
0.47700002 37475.58379118  2955.69943370
