# SAXS profile: number of points = 501, q_min = 0, q_max = 0.5, delta_q = 0.001
#    q    intensity    error
0.00000000 1700912.83420645 357.19169518
0.00100000 1700843.08849214 510.25293867
0.00200000 1700633.79724740 765.28523299
0.00300000 1700285.12389165 1530.25666601
0.00400000 1699796.94693569 1529.81731037
0.00500000 1699169.74101621 1988.02867568
0.00600000 1698403.17256620 2139.98808456
0.00700000 1697497.97232692 2240.69741660
0.00800000 1696453.56702476 2748.25489461
0.00900000 1695271.34089545 3305.77925606
0.01000000 1693950.37954328 5310.53466917
0.01100000 1692492.02957586 3655.78294305
0.01200000 1690895.69016774 3297.24674039
0.01300000 1689162.76377015 4966.13874451
0.01400000 1687292.47855320 4935.33071856
0.01500000 1685286.73706358 6471.50135849
0.01600000 1683144.19817939 4292.01789723
0.01700000 1680867.20643450 4992.17582705
0.01800000 1678455.11466762 5740.31675046
0.01900000 1675908.82750274 5530.49938031
0.02000000 1673228.88951022 6851.87261249
0.02100000 1670417.03686889 8819.80235454
0.02200000 1667471.41292393 5752.77663595
0.02300000 1664394.84962183 7789.36825079
0.02400000 1661187.28013332 6229.45258455
0.02500000 1657850.16898076 9051.86233604
0.02600000 1654383.51395885 8040.30424559
0.02700000 1650788.55676475 9706.63715835
0.02800000 1647065.02013962 12896.51969912
0.02900000 1643215.53527166 9612.81132270
0.03000000 1639240.37734107 8384.71491551
0.03100000 1635139.97896223 7848.67226016
0.03200000 1630915.20178791 10494.93980688
0.03300000 1626568.81920625 9125.05149642
0.03400000 1622098.98488232 12774.03009535
0.03500000 1617509.04019005 10481.45906445
0.03600000 1612798.48074703 12531.44477453
0.03700000 1607969.51814578 11915.05468050
0.03800000 1603023.06325514 11253.22242485
0.03900000 1597960.80516041 11505.31832997
0.04000000 1592781.57669034 13713.85001079
0.04100000 1587489.02506129 17002.00824673
0.04200000 1582083.73089276 12245.32864521
0.04300000 1576565.90983331 12486.40258547
0.04400000 1570938.91706526 12724.60581918
0.04500000 1565202.60389179 15119.85785614
0.04600000 1559357.41262762 14291.51135110
0.04700000 1553406.22899291 11184.52536892
0.04800000 1547349.62723227 19334.13449185
0.04900000 1541190.18573326 12714.81962414
0.05000000 1534927.33865366 16439.07256248
0.05100000 1528564.69647680 17884.20778190
0.05200000 1522100.35462216 14520.83805978
0.05300000 1515539.51606539 19641.39304385
0.05400000 1508880.99445558 12448.26878477
0.05500000 1502128.60842205 15141.45707923
0.05600000 1495280.67499068 19176.97555163
0.05700000 1488342.46896922 12948.58008445
0.05800000 1481312.52002625 18353.46298009
0.05900000 1474192.69102704 17248.05529060
0.06000000 1466986.00623922 13422.92258419
0.06100000 1459693.97791817 14932.67009193
0.06200000 1452316.92363421 15096.83512686
0.06300000 1444858.08786351 19418.89360882
0.06400000 1437315.73053917 14013.82902814
0.06500000 1429695.88897029 14153.98996290
0.06600000 1421996.71159620 18578.38790626
0.06700000 1414220.98734291 14425.05474598
0.06800000 1406371.96160594 21833.92572596
0.06900000 1398450.15332267 16152.10002710
0.07000000 1390455.01050632 14808.34655534
0.07100000 1382391.69567294 16422.81411380
0.07200000 1374259.06023113 21067.39238028
0.07300000 1366061.79983197 21228.60136407
0.07400000 1357799.39279530 19857.81705025
0.07500000 1349474.23656995 19999.20912338
0.07600000 1341086.36898901 17038.50311678
0.07700000 1332641.21866374 18710.28358734
0.07800000 1324137.24326255 20398.33518906
0.07900000 1315576.45250003 17365.60998751
0.08000000 1306963.05835995 17467.56209440
0.08100000 1298297.04327327 22356.67613410
0.08200000 1289578.91851741 22477.36160451
0.08300000 1280812.40516923 17752.06076879
0.08400000 1271997.52495466 19461.56304531
0.08500000 1263138.93571879 19553.39164286
0.08600000 1254235.24089253 18004.54772835
0.08700000 1245290.31182987 18081.61617684
0.08800000 1236302.81134300 21456.03629851
0.08900000 1227278.91751389 21538.74601404
0.09000000 1218217.21355343 19954.39889537
0.09100000 1209120.38372413 18354.44828725
0.09200000 1199989.52482163 25109.78198672
0.09300000 1190828.37285170 23506.95318473
0.09400000 1181634.75516013 23573.61447335
0.09500000 1172413.26159080 25324.12764066
0.09600000 1163164.68519869 16924.04696520
0.09700000 1153892.69457405 22050.89042998
0.09800000 1144597.62019472 18697.00300497
0.09900000 1135281.20692493 23840.90646648
0.10000000 1125943.41047718 23881.26085929
0.10100000 1116587.23835846 20500.54266044
0.10200000 1107215.15211823 18817.12239534
0.10300000 1097827.46356078 20551.33108461
0.10400000 1088427.07111114 18856.99989413
0.10500000 1079016.93703387 18872.00711664
0.10600001 1069593.20809534 17166.97179770
0.10700001 1060163.21611383 20609.57389109
0.10800001 1050725.05891005 30922.83993900
0.10900001 1041282.50054124 18899.27827433
0.11000001 1031836.06789551 22334.09274085
0.11100001 1022387.26207219 22328.93885475
0.11200001 1012938.75114197 18886.24390415
0.11300001 1003489.39756750 24023.53730881
0.11400001 994044.18067473 18861.98921641
0.11500001 984602.76972046 20558.50679982
0.11600001 975166.62485076 23959.84510089
0.11700001 965738.41574823 17093.57076376
0.11800001 956316.91575511 23898.36085029
0.11900001 946906.13441371 22157.60458894
0.12000001 937505.94151488 22120.45373203
0.12100001 928120.31179633 20381.52300718
0.12200001 918747.21491266 20341.06429646
0.12300001 909390.66129745 23680.53393588
0.12400001 900050.05742839 18563.53330913
0.12500001 890727.79223925 20201.70727990
0.12600001 881426.75428391 18470.29850640
0.12700001 872146.15065013 20094.24825795
0.12800001 862886.73948298 18366.54511550
0.12900001 853651.31257679 21640.06179376
0.13000001 844441.01725886 21571.24680264
0.13100001 835255.33251644 28114.69581776
0.13200001 826098.49585232 23072.93207682
0.13300001 816970.75959064 18063.22434610
0.13400001 807871.34049139 24539.09312434
0.13500001 798803.60870949 22813.83214037
0.13600001 789766.88151923 19475.65221656
0.13700001 780764.42768463 16161.82441515
0.13800001 771794.51700883 22528.68301384
0.13900001 762862.53103988 25632.18225171
0.14000001 753965.30551305 17541.00366001
0.14100001 745106.40829490 15870.76724519
0.14200001 736284.73565348 15793.30832466
0.14300001 727505.62628388 25142.59563029
0.14400001 718762.39619595 17196.39114014
0.14500001 710064.59691348 18660.49848714
0.14600001 701407.22895797 15466.03012812
0.14700001 692795.70377893 29222.12416399
0.14800001 684226.38400202 16821.70644432
0.14900001 675701.78185898 18243.94897096
0.15000001 667224.36952109 22668.94902407
0.15100001 658793.53495979 18024.59196699
0.15200001 650411.59508793 20897.72553628
0.15300001 642077.94321258 20764.80166337
0.15400001 633791.74480554 23577.05401939
0.15500001 625557.63721358 17565.65928193
0.15600001 617372.82909976 20354.78313606
0.15700001 609242.55074956 18770.76387451
0.15800001 601160.27826465 17205.20797600
0.15900001 593134.14359173 14235.22011811
0.16000001 585159.17955809 18371.07330939
0.16100001 577241.79482823 18235.06915940
0.16200001 569376.85361086 13921.26472795
0.16300001 561568.94995455 23484.81459577
0.16400001 553816.35851496 16448.34662441
0.16500001 546120.96569245 17677.93649406
0.16600001 538482.19673537 14837.87763158
0.16700001 530901.03331910 17392.31867271
0.16800001 523376.99839947 17247.88979664
0.16900001 515913.89849185 13155.80503273
0.17000001 508508.85235631 16956.22848249
0.17100001 501163.58852449 16809.02755286
0.17200001 493878.11995348 14097.75159981
0.17300001 486653.10177993 12701.64655628
0.17400001 479490.06422093 15103.93773626
0.17500001 472387.23456331 14965.22829774
0.17600001 465344.26770405 13590.37998016
0.17700001 458365.39763196 15909.86370324
0.17800001 451447.75421968 25454.88282396
0.17900001 444592.17358276 15605.18602984
0.18000001 437800.09937887 14263.52791150
0.18100001 431072.04226096 22359.70788827
0.18200001 424403.93875905 16309.84413695
0.18300001 417802.12949473 12684.47325067
0.18400001 411262.32087659 12553.78293781
0.18500001 404787.45419592 15810.99870784
0.18600001 398375.87481750 12291.88819821
0.18700001 392028.06832454 13266.23045886
0.18800001 385743.62144232 13122.99862148
0.18900001 379525.90131163 20551.32852702
0.19000001 373368.39127415 11766.70540697
0.19100001 367280.21392274 11635.43772685
0.19200001 361253.13370414 11504.10658639
0.19300001 355292.91943407 15508.53666612
0.19400001 349396.06719425 14307.76962770
0.19500001 343564.24544766 16161.26286956
0.19600001 337796.08280877 9981.87471871
0.19700001 332093.09911495 14794.74826473
0.19800001 326454.67000938 15591.47577648
0.19900001 320881.79402820 12514.39055853
0.20000001 315370.97334116 14262.65294342
0.20100001 309926.65836346 14086.16728836
0.20200001 304545.17046248 12055.42114254
0.20300001 299228.77097016 10072.04090691
0.20400001 293976.30534348 9943.74899824
0.20500001 288787.27526940 10708.23267313
0.20600001 283662.30250960 11450.02938202
0.20700001 278600.95663337 9561.58528362
0.20800001 273602.42169515 8577.43632560
0.20900001 268669.78044185 10155.71818078
0.21000001 263797.76395063 14193.63936033
0.21100001 258989.09843727 8235.85371964
0.21200001 254242.82850467 8935.36463021
0.21300001 249558.77432823 10414.08814505
0.21400001 244938.12883636 9479.10603411
0.21500001 240379.89415958 12461.29430237
0.21600001 235881.68802079 9213.53916970
0.21700001 231445.87498475 8325.10851681
0.21800001 227071.15056898 8951.14517864
0.21900001 222756.29153901 8821.14956202
0.22000001 218501.85073152 12313.67238020
0.22100001 214310.23623311 9991.14368560
0.22200001 210177.09280803 10545.63613029
0.22300001 206103.72875423 9002.61129768
0.22400001 202087.82670913 7502.51092134
0.22500001 198134.03518682 8731.76734358
0.22600001 194237.10560912 9259.28326224
0.22700001 190399.55723799 6511.66516547
0.22800001 186619.10013105 9615.54958897
0.22900001 182895.70424053 7571.88251364
0.23000001 179230.06867405 7452.38660790
0.23100001 175622.43850946 7333.99337900
0.23200001 172069.23156819 7216.58391327
0.23300001 168573.39519630 7100.31174147
0.23400001 165133.13026067 8731.41467549
0.23500001 161746.66001241 5725.83203525
0.23600001 158416.03019895 5631.69013994
0.23700001 155139.44181765 5538.47833485
0.23800001 151916.99497452 5990.84698018
0.23900001 148748.00428972 5354.92840772
0.24000001 145632.04741266 6843.97839188
0.24100001 142569.61607498 5692.80503915
0.24200001 139558.94245714 6104.30843182
0.24300001 136599.97882306 4999.55946142
0.24400001 133691.86248988 5895.81141470
0.24500001 130835.03625606 6276.15698609
0.24600001 128028.47855441 5692.14642580
0.24700001 125272.98210322 5592.18618563
0.24800001 122565.72942008 5951.17927352
0.24900001 119907.49752862 4496.53137004
0.25000001 117298.23129176 5299.53434047
0.25100001 114736.67480285 4337.04651273
0.25200001 112223.74275980 5962.44773491
0.25300001 109757.95139620 4599.95596064
0.25400001 107338.09366345 4926.81873225
0.25500001 104964.57059324 4433.70367163
0.25600001 102637.31775763 3956.66878676
0.25700001 100354.99859189 5048.86021804
0.25800001 98117.29358933  6480.15696171
0.25900001 95924.27296241  5237.46555156
0.26000001 93775.47496919  5506.96502813
0.26100001 91667.88671462  5043.56736568
0.26200001 89605.82770519  4948.93009833
0.26300001 87584.62439235  4508.85667707
0.26400001 85605.16483683  3743.08600961
0.26500001 83667.84811136  4339.85148689
0.26600001 81770.73426939  3602.40986870
0.26700001 79914.96043052  3855.09787359
0.26800001 78099.06929692  3466.42735478
0.26900001 76321.99802256  4636.56159928
0.27000001 74584.35265488  3335.03948678
0.27100001 72885.23266855  3568.46116032
0.27200001 71224.46688996  3208.30626289
0.27300001 69600.60342611  3146.64342981
0.27400001 68012.72624651  3647.18261757
0.27500001 66463.79343690  2751.60117851
0.27600001 64948.84596108  3508.21208062
0.27700001 63471.03954039  3705.43946373
0.27800001 62027.58002902  2855.43978178
0.27900001 60618.96633092  3564.39538895
0.28000001 59244.59961823  3246.30798972
0.28100001 57903.53226100  2449.31953056
0.28200001 56596.26946459  2402.51175248
0.28300001 55321.88359809  2356.71235282
0.28400001 54079.67381405  2774.28739797
0.28500001 52869.76165826  2494.92417074
0.28600001 51690.27701499  2447.79318390
0.28700001 50542.44179747  2401.77694790
0.28800001 49424.32496588  2785.30796529
0.28900001 48337.94070957  2523.24062447
0.29000001 47279.45905018  2889.24787932
0.29100001 46251.47931062  2836.14084558
0.29200001 45251.55230709  2187.68639984
0.29300001 44279.89887013  2733.84108565
0.29400001 43335.85246265  2301.13387469
0.29500001 42420.17993919  2636.83850984
0.29600001 41530.48411546  2405.23810140
0.29700001 40667.08776134  2363.16458168
0.29800001 39830.52947497  2322.31913097
0.29900001 39019.29595834  1931.45524137
0.30000001 38233.16123366  2071.47277370
0.30100001 37472.87716347  2206.77784063
0.30200001 36735.82308829  2504.46485761
0.30300001 36023.09140757  1642.65304595
0.30400001 35334.73054259  1939.87679863
0.30500001 34668.26628022  1909.52819712
0.30600001 34024.92031267  1880.21718549
0.30700001 33404.44344105  1543.28536004
0.30800001 32805.74890818  1824.65584066
0.30900001 32228.49018450  1648.48735098
0.31000001 31673.28640622  2511.85009737
0.31100001 31137.17236191  1602.94170908
0.31200001 30622.60320428  2012.82380392
0.31300001 30127.64135887  2128.51796278
0.31400001 29653.74443422  1821.48133811
0.31500001 29197.93646629  1522.38047943
0.31600002 28761.37282490  1367.60334258
0.31700002 28342.85067126  1622.34484924
0.31800002 27942.93384642  1738.19028222
0.31900002 27561.11179914  1455.22677190
0.32000002 27196.61757704  1702.37235784
0.32100002 26849.53381190  1556.19905342
0.32200002 26519.26143317  1413.34410500
0.32300002 26204.72701006  1782.96971019
0.32400002 25906.78405555  1389.25136076
0.32500002 25624.14856089  1503.62510875
0.32600002 25357.36658757  1368.15677902
0.32700002 25105.65412880  1358.71806579
0.32800002 24869.36936338  1472.76412344
0.32900002 24646.29081618  2073.98547039
0.33000002 24439.06915472  1456.07980919
0.33100002 24243.08019294  1810.95817617
0.33200002 24063.30248917  1802.94302438
0.33300002 23895.22980879  1676.01149816
0.33400002 23740.95088870  1550.87769025
0.33500002 23598.73304218  1189.37620165
0.33600002 23468.72162983  1186.34393457
0.33700002 23350.09967772  1539.00514264
0.33800002 23244.50318173  1181.98304277
0.33900002 23149.29586588  1652.85980310
0.34000002 23065.67419368  1297.79021997
0.34100002 22992.80577003  1533.39028942
0.34200002 22931.55605148  1651.76006061
0.34300002 22878.98195312  1180.55552469
0.34400002 22837.67718243  1890.95976026
0.34500002 22805.39086170  1775.39976267
0.34600002 22784.03237678  1185.90894138
0.34700002 22769.68105743  1307.43514824
0.34800002 22766.09385262  1310.98557659
0.34900002 22770.65854948  1793.18944570
0.35000002 22783.96280066  1919.32111723
0.35100002 22805.46927638  1204.12883482
0.35200002 22834.22209958  1329.97932918
0.35300002 22871.26437917  1700.24987448
0.35400002 22916.27416490  1220.29165708
0.35500002 22968.13038936  1349.14804297
0.35600002 23026.76558234  1479.70002641
0.35700002 23092.34795170  1240.05914374
0.35800002 23165.23860669  1247.44815806
0.35900002 23243.94125050  1882.75933047
0.36000002 23329.51355263  1894.93982807
0.36100002 23420.32552507  1907.58560437
0.36200002 23518.03858507  1280.55726161
0.36300002 23619.52924692  1805.47690115
0.36400002 23727.23415370  1688.78597088
0.36500002 23839.53915924  1963.18614276
0.36600002 23957.51382783  1318.86119869
0.36700002 24079.74590763  1727.96264818
0.36800002 24207.95156217  1741.88323717
0.36900002 24339.37614960  1485.91898432
0.37000002 24474.27248803  1498.19266132
0.37100002 24613.51133503  1373.43399755
0.37200002 24757.25833395  1523.68553634
0.37300002 24903.85607341  1676.52767028
0.37400002 25054.99384034  2114.01520542
0.37500002 25208.32039153  2416.97387363
0.37600002 25365.84757599  1721.32649805
0.37700002 25525.06788949  1736.72570147
0.37800002 25688.03541822  1606.40137098
0.37900002 25853.48948660  1768.37876466
0.38000002 26021.48483523  1784.55351454
0.38100002 26191.24584985  1950.98599578
0.38200002 26363.57712105  1817.50509283
0.38300002 26537.60923260  1834.27963705
0.38400002 26714.19140260  1697.01908924
0.38500002 26891.55683091  1712.72333570
0.38600002 27071.47889391  1885.79930909
0.38700002 27251.85940067  1586.05829226
0.38800002 27433.51045252  1600.74541074
0.38900002 27616.64008949  1615.57352177
0.39000002 27801.35972689  1956.65979028
0.39100002 27986.05399520  1810.13805817
0.39200002 28172.39695083  1660.76287893
0.39300002 28358.64639527  2011.19529764
0.39400002 28546.47267931  2706.20573821
0.39500002 28733.62197610  2048.13267149
0.39600002 28921.28605270  1894.48893264
0.39700002 29108.68994343  2085.34664635
0.39800002 29297.46881124  1753.45359143
0.39900002 29485.07614531  2299.83604830
0.40000002 29672.42539174  2320.23541344
0.40100002 29859.62548356  3060.91035334
0.40200002 30047.44396607  2179.64168857
0.40300002 30233.69083527  2565.02645200
0.40400002 30419.52669490  2956.77813484
0.40500002 30604.76748849  2422.97955687
0.40600002 30789.47197684  2255.63682390
0.40700002 30973.04280250  2085.10534026
0.40800002 31155.90189028  2293.69760584
0.40900002 31337.10123180  2505.40136219
0.41000002 31518.03502006  1943.08695105
0.41100002 31697.36399001  2546.56634362
0.41200002 31874.68253885  2172.10034453
0.41300002 32051.38723018  2587.50861370
0.41400002 32226.21811258  2206.69038982
0.41500002 32400.17032407  2021.77072402
0.41600002 32571.29298617  2444.80136739
0.41700002 32741.55428751  2874.05377154
0.41800002 32910.86128285  2482.13727557
0.41900002 33076.35462559  2500.57252818
0.42000002 33240.81245526  2518.98888722
0.42100002 33403.86572769  3383.14368121
0.42200002 33564.61877222  2129.67516201
0.42300002 33722.97136579  2788.21540464
0.42400002 33879.06120729  2807.72733060
0.42500002 34033.46848952  3044.63423534
0.42600002 34184.11089656  2627.39088801
0.42700002 34333.93032942  2645.08611792
0.42800002 34480.85638030  2440.72753454
0.42900002 34625.81253621  2680.03801730
0.43000002 34768.32943140  2472.54986468
0.43100002 34906.97607763  2488.16937272
0.43200002 35043.90949781  2731.32243569
0.43300002 35177.84422872  2977.10109816
0.43400002 35309.69154349  2534.35323063
0.43500002 35438.12601074  3012.94961621
0.43600002 35564.97466710  3030.66945988
0.43700002 35688.06375278  3751.52943947
0.43800002 35807.52616854  3301.09599391
0.43900002 35925.37210613  3319.50453992
0.44000002 36039.52162261  2622.41591514
0.44100002 36151.30164450  3834.93026019
0.44200002 36259.99893145  3132.32015614
0.44300002 36365.88170933  2421.96783662
0.44400002 36468.22778007  2921.10518362
0.44500002 36566.76066545  3424.84296623
0.44600002 36663.06716817  2458.25877013
0.44700002 36756.56726545  2964.04972476
0.44800002 36845.58637068  3970.48057547
0.44900002 36933.06398785  3240.87651853
0.45000002 37017.06938152  3255.46632104
0.45100002 37096.58274598  3269.69295819
0.45200002 37173.82597898  3031.15391398
0.45300002 37247.16606995  3297.49176845
0.45400002 37318.05013421  3056.34845084
0.45500002 37385.43122628  2557.16361707
0.45600002 37449.35375540  4107.44531456
0.45700002 37509.83656322  3092.31107283
0.45800002 37566.49550068  3362.38933915
0.45900002 37620.23508623  4153.27415036
0.46000002 37671.29147902  3386.46090801
0.46100002 37717.68093777  3659.36957802
0.46200002 37761.80739041  2884.81341232
0.46300002 37802.06172046  3946.53543066
0.46400002 37838.50988134  2903.15980824
0.46500002 37872.66640154  2912.02945763
0.46600002 37902.37608802  2920.56772788
0.46700002 37928.88087571  2928.86832004
0.46800002 37952.72662391  4004.96166681
0.46900002 37972.49305854  3212.47306501
0.47000002 37988.37662036  4025.81840315
0.47100002 38001.50834912  3497.65899423
0.47200002 38011.00578610  2696.88098835
0.47300002 38017.98975696  2703.07919984
0.47400002 38019.79941574  3521.58408780
0.47500002 38019.66442240  4071.90625264
0.47600002 38016.43318667  3264.09110812
0.47700002 38008.49538967  3270.25109833
