# SAXS profile: number of points = 501, q_min = 0, q_max = 0.5, delta_q = 0.001
#    q    intensity    error
0.00000000 1682732.95097189 277.65093691
0.00100000 1682663.80439821 908.63847595
0.00200000 1682456.30994369 908.52643614
0.00300000 1682110.63915412 1312.04634528
0.00400000 1681626.66334755 1513.46405452
0.00500000 1681004.83718464 2269.35662002
0.00600000 1680244.86423545 1764.25717927
0.00700000 1679347.46323847 2821.30385549
0.00800000 1678312.03336004 2718.86560883
0.00900000 1677139.97132562 3270.42308389
0.01000000 1675830.38195231 3041.63227458
0.01100000 1674384.57850108 3918.06008428
0.01200000 1672801.97839490 4240.55320115
0.01300000 1671083.95434458 4562.05939657
0.01400000 1669229.78610958 4506.92062229
0.01500000 1667241.30406243 4801.65516951
0.01600000 1665117.24828896 4670.65409025
0.01700000 1662859.86235599 5387.66619572
0.01800000 1660468.58564480 6152.03638664
0.01900000 1657944.27365565 5471.21634994
0.02000000 1655287.45733230 6778.40244440
0.02100000 1652499.88033212 5998.57483757
0.02200000 1649579.66103326 6260.15509803
0.02300000 1646529.69177507 7113.00859224
0.02400000 1643349.84882531 6162.56221409
0.02500000 1640041.55878016 8954.62731990
0.02600000 1636604.92361503 11930.85043885
0.02700000 1633041.06123699 8230.52732560
0.02800000 1629349.75031116 9922.74043445
0.02900000 1625533.65015587 8777.88211387
0.03000000 1621592.96350194 8294.44838957
0.03100000 1617528.09010125 11646.20278461
0.03200000 1613340.04725798 9583.24032210
0.03300000 1609031.41169155 11488.48480910
0.03400000 1604600.38921669 8424.15243208
0.03500000 1600050.36305773 11232.35406735
0.03600000 1595380.81867247 9739.80034811
0.03700000 1590593.87040594 12692.93967286
0.03800000 1585690.60250760 10203.91949937
0.03900000 1580672.44620318 10432.43862807
0.04000000 1575538.38623952 14534.34228657
0.04100000 1570292.02659689 14839.26033939
0.04200000 1564934.05629723 12112.59015768
0.04300000 1559464.46674195 12350.95914990
0.04400000 1553886.69022014 14684.22990454
0.04500000 1548200.68775921 11750.84376609
0.04600000 1542406.74981238 14136.15851918
0.04700000 1536507.84650953 13275.42841125
0.04800000 1530504.48222659 12374.12931455
0.04900000 1524399.17010778 14862.89260038
0.05000000 1518191.47724062 16259.83147840
0.05100000 1511884.83538367 11792.70226534
0.05200000 1505477.47434260 15559.11042241
0.05300000 1498974.71647857 16998.37407729
0.05400000 1492374.95956563 13543.30338963
0.05500000 1485682.31544705 16223.65164150
0.05600000 1478895.15453473 13909.00957745
0.05700000 1472018.38338573 16648.52869322
0.05800000 1465050.76324933 14262.26984617
0.05900000 1457994.27671546 14434.14401364
0.06000000 1450851.73902553 18585.41164521
0.06100000 1443624.59051255 18795.99304684
0.06200000 1436313.33336368 16287.79396169
0.06300000 1428921.17382204 19204.70147409
0.06400000 1421446.06657629 15245.00977699
0.06500000 1413894.52276669 18196.82335921
0.06600000 1406264.36820553 14132.95756173
0.06700000 1398558.40774277 19971.41499721
0.06800000 1390779.79775563 15834.02873862
0.06900000 1382929.31986061 20329.06195374
0.07000000 1375006.11862336 19036.96060381
0.07100000 1367015.57246825 16240.14576157
0.07200000 1358956.37426074 23808.91679242
0.07300000 1350833.30047573 19492.52543920
0.07400000 1342645.63725185 21146.66977774
0.07500000 1334395.96112039 18254.53760376
0.07600000 1326084.14287136 21442.78159548
0.07700000 1317715.93891265 16959.00492899
0.07800000 1309289.40363239 15515.08016064
0.07900000 1300806.80017529 18731.61880111
0.08000000 1292272.03606995 21981.54836473
0.08100000 1283685.19396340 22105.06007718
0.08200000 1275046.97564034 22224.06982828
0.08300000 1266360.84862449 19147.37692983
0.08400000 1257627.10189626 17638.22093201
0.08500000 1248850.05428658 24165.24968489
0.08600000 1240028.52156703 19418.84755948
0.08700000 1231166.24698273 19501.67426796
0.08800000 1222261.82811727 21212.35502319
0.08900000 1213321.50302515 18017.82516622
0.09000000 1204343.95523989 19727.15491352
0.09100000 1195331.75736064 19794.69483187
0.09200000 1186285.91692781 16548.68931871
0.09300000 1177210.16693023 18258.53054710
0.09400000 1168102.45535743 23303.64507959
0.09500000 1158967.24262538 16689.12907824
0.09600000 1149805.53221383 16729.67128014
0.09700000 1140620.61678934 25150.68578261
0.09800000 1131413.00629350 23522.07750680
0.09900000 1122184.55911346 23565.87684951
0.10000000 1112935.00558777 20233.15935309
0.10100000 1103667.45568698 18574.72415281
0.10200000 1094384.03547525 18599.05755773
0.10300000 1085085.61419179 18620.07001543
0.10400000 1075774.76272086 16943.45330996
0.10500000 1066454.32032687 23739.27428739
0.10600001 1057120.39951056 20360.13985259
0.10700001 1047781.06720048 18671.45949615
0.10800001 1038433.36630486 25467.57950717
0.10900001 1029081.60093596 20375.81665753
0.11000001 1019726.06136237 32259.03546962
0.11100001 1010368.40544385 20369.02801259
0.11200001 1001011.28640146 27147.42736523
0.11300001 991653.69413903 18653.00686495
0.11400001 982300.08730471 27111.48368614
0.11500001 972950.65724788 20315.21067994
0.11600001 963606.43133485 18602.42303294
0.11700001 954270.41747115 18579.64590317
0.11800001 944941.07742440 16867.19902644
0.11900001 935622.64402208 18525.32922421
0.12000001 926314.95490225 20175.14066812
0.12100001 917021.67788415 16781.49749582
0.12200001 907741.37219885 21772.17783790
0.12300001 898477.35960411 20054.01561120
0.12400001 889229.40019792 21674.96765109
0.12500001 879999.73670296 31600.79203405
0.12600001 870791.31160134 21565.14784803
0.12700001 861603.63362224 16542.79054515
0.12800001 852436.87760139 19793.58523076
0.12900001 843294.27191510 23021.93470835
0.13000001 834176.42247388 19669.88096907
0.13100001 825083.51838992 26138.64709471
0.13200001 816018.99420220 21163.45361229
0.13300001 806983.87268414 22708.52724788
0.13400001 797976.80849154 21006.74047392
0.13500001 789001.38473958 22533.88061059
0.13600001 780056.86695015 19236.20324599
0.13700001 771146.37599139 17559.00380929
0.13800001 762268.47995377 17482.62841215
0.13900001 753428.28875419 22150.79273396
0.14000001 744622.93990916 18898.53110616
0.14100001 735855.33420243 15673.71935773
0.14200001 727124.96480372 15596.83123067
0.14300001 718436.88807632 21725.53252017
0.14400001 709784.73397969 18525.38243071
0.14500001 701177.72057045 19962.53064632
0.14600001 692610.70033683 24435.30666060
0.14700001 684089.60636281 18224.14797326
0.14800001 675610.21035385 18119.86669656
0.14900001 667175.49428333 18013.73919555
0.15000001 658787.60594042 17905.84797431
0.15100001 650446.06414110 14830.17096218
0.15200001 642153.19020233 14737.41641056
0.15300001 633908.25258437 20500.59385598
0.15400001 625710.59896184 24731.21259106
0.15500001 617564.66326909 18786.31794323
0.15600001 609467.46152231 14352.95939624
0.15700001 601424.83978603 19955.27712593
0.15800001 593429.86354622 16983.96349631
0.15900001 585490.42147721 15456.94785658
0.16000001 577601.96247278 16738.90566258
0.16100001 569770.70365672 17999.05737815
0.16200001 561991.55336523 19236.97177979
0.16300001 554269.02964650 21816.03003677
0.16400001 546601.42176416 22998.25590647
0.16500001 538990.76602159 17447.13191982
0.16600001 531436.18532844 18637.46789940
0.16700001 523938.83692925 15843.91117681
0.16800001 516498.28000726 13093.23201640
0.16900001 509118.04584754 14280.76186033
0.17000001 501795.81004374 12871.06313539
0.17100001 494532.58430522 19138.41191635
0.17200001 487328.77599180 13910.80056759
0.17300001 480185.17291942 15039.40032606
0.17400001 473102.78813299 14902.73852999
0.17500001 466080.46143905 14765.42971572
0.17600001 459117.18154986 15846.43026961
0.17700001 452217.78423855 13281.63695039
0.17800001 445378.94366856 14350.11024279
0.17900001 438601.92578881 17763.37883347
0.18000001 431887.83612716 14070.90636566
0.18100001 425237.14814120 13930.76963115
0.18200001 418646.10383938 18386.93774919
0.18300001 412120.69607289 13649.43809872
0.18400001 405656.79970452 12382.67439595
0.18500001 399257.32899908 16708.92000798
0.18600001 392920.54257304 16532.13260980
0.18700001 386647.14338764 11993.79495453
0.18800001 380436.78064105 11863.92156482
0.18900001 374292.31512686 17067.73037619
0.19000001 368207.54202306 11604.06123513
0.19100001 362191.57931727 11474.22977493
0.19200001 356236.04551885 12375.64080609
0.19300001 350346.95460861 12234.11623303
0.19400001 344520.75745544 15115.84894764
0.19500001 338758.93563644 10955.46449618
0.19600001 333060.13145652 13778.69828949
0.19700001 327426.04557163 11669.46481564
0.19800001 321856.04630771 10568.14377995
0.19900001 316350.81723795 9490.52496566
0.20000001 310907.24857766 12186.01018393
0.20100001 305529.49140245 12960.56163784
0.20200001 300214.02919066 9141.51762092
0.20300001 294963.08630250 9928.45795421
0.20400001 289775.45511754 10692.71479924
0.20500001 284650.48032083 9675.27028342
0.20600001 279589.22117238 10417.49487330
0.20700001 274590.81351012 11137.40392243
0.20800001 269654.90011647 10989.78597374
0.20900001 264784.20025507 15013.26486416
0.21000001 259973.40915676 10696.60642541
0.21100001 255225.27932579 8116.16426624
0.21200001 250539.13106948 10406.14330092
0.21300001 245914.67668181 9472.63379361
0.21400001 241352.84101171 9340.35538873
0.21500001 236852.89081909 8441.43742788
0.21600001 232412.46703790 9834.53400767
0.21700001 228033.55117524 10439.37646637
0.21800001 223715.44167763 9553.76838855
0.21900001 219456.52988623 10138.89216013
0.22000001 215257.29956552 11417.24770879
0.22100001 211120.23618618 7030.30419742
0.22200001 207041.15652646 7618.07971461
0.22300001 203021.20627787 10232.26928024
0.22400001 199058.18886904 7390.03561121
0.22500001 195156.77211231 8600.55935369
0.22600001 191311.25692621 7165.56346702
0.22700001 187524.82817423 8337.35425489
0.22800001 183794.75650176 6313.35018439
0.22900001 180121.31154127 6835.60409625
0.23000001 176504.87860489 6727.48376618
0.23100001 172945.97125359 9629.63213481
0.23200001 169440.72033966 5921.95345594
0.23300001 165992.39023915 9322.13307672
0.23400001 162598.82277356 6304.76965123
0.23500001 159258.61764543 7892.85746381
0.23600001 155973.77761806 6099.35486224
0.23700001 152742.28990226 7088.77000965
0.23800001 149564.19479370 6970.43962805
0.23900001 146439.15924091 7380.53397484
0.24000001 143366.36343810 5182.69428343
0.24100001 140346.78602515 7641.88286054
0.24200001 137378.18291532 7010.40900577
0.24300001 134460.79897713 5413.39202289
0.24400001 131593.63042823 5319.67276170
0.24500001 128777.24058721 7127.82060368
0.24600001 126010.79708892 5602.44030360
0.24700001 123294.33684984 5503.85945734
0.24800001 120625.77625747 4505.37295635
0.24900001 118005.71405396 5310.25738364
0.25000001 115434.03326736 4346.09155812
0.25100001 112909.41628775 4694.77375135
0.25200001 110432.96706200 4610.02442810
0.25300001 108003.15936150 5349.39673626
0.25400001 105618.63018447 4443.90407526
0.25500001 103280.00765660 4362.54772982
0.25600001 100986.91672379 3893.04582389
0.25700001 98738.32326638  4585.40794944
0.25800001 96533.87679980  3750.34129112
0.25900001 94373.58025036  4048.62678430
0.26000001 92256.82174104  3611.85474206
0.26100001 90180.97127754  3544.11233890
0.26200001 88150.00262944  4520.77309876
0.26300001 86159.35301767  4435.48370323
0.26400001 84209.83552910  4351.54345687
0.26500001 82302.13414859  3940.62636950
0.26600001 80434.05351623  3221.38399576
0.26700001 78606.84155225  5687.99132388
0.26800001 76818.89402500  3409.60677265
0.26900001 75069.31639512  3648.36894945
0.27000001 73358.77581310  4174.84812909
0.27100001 71686.29215714  3509.76103011
0.27200001 70051.52028044  2868.60989124
0.27300001 68453.29858191  3657.45991632
0.27400001 66890.48692982  3035.15598808
0.27500001 65366.18969375  4329.85661023
0.27600001 63875.40825073  3184.82800611
0.27700001 62421.42922222  4425.05532699
0.27800001 61001.03448742  4850.49748683
0.27900001 59615.40996439  4006.15573921
0.28000001 58263.32678689  2946.95920836
0.28100001 56944.17930550  2890.48667835
0.28200001 55658.47534186  2362.70239009
0.28300001 54405.03350866  2781.18544460
0.28400001 53183.53549949  2500.95587524
0.28500001 51993.66726023  3122.73980345
0.28600001 50834.07281902  2188.40693844
0.28700001 49705.49117674  3220.91598071
0.28800001 48606.35348388  2949.91973257
0.28900001 47538.39333177  3101.88031172
0.29000001 46498.10010170  2029.64216551
0.29100001 45487.78983508  2191.60181799
0.29200001 44505.14697646  2934.00195331
0.29300001 43550.36970088  2112.62853419
0.29400001 42622.88836125  2074.66918919
0.29500001 41723.45313808  2037.77354773
0.29600001 40849.53819408  2547.78581777
0.29700001 40001.51933680  1788.06799900
0.29800001 39179.95548713  2635.83163017
0.29900001 38383.42502314  2763.60673249
0.30000001 37611.60907543  2207.61349919
0.30100001 36865.24439811  2671.99304047
0.30200001 36141.73623508  2463.96298447
0.30300001 35442.32244899  1616.16998019
0.30400001 34766.84235352  1749.64142427
0.30500001 34113.04839521  2035.52569411
0.30600001 33481.94399303  2004.39667204
0.30700001 32873.33886692  1670.62316031
0.30800001 32286.27925392  1795.76293712
0.30900001 31720.29056797  1622.49293937
0.31000001 31176.02446764  2036.10625438
0.31100001 30650.65567427  1721.34090416
0.31200001 30146.48511011  2264.60406869
0.31300001 29661.48520489  1397.05601930
0.31400001 29197.37439742  1655.49120672
0.31500001 28751.06706658  1635.36077218
0.31600002 28323.65358403  1481.46877086
0.31700002 27913.97835880  1464.64651383
0.31800002 27522.77199327  1448.66117246
0.31900002 27149.43284732  1303.17283838
0.32000002 26792.94539641  1806.11253469
0.32100002 26453.67634411  1405.48389071
0.32200002 26131.00154015  1645.86120994
0.32300002 25823.80250791  1380.54054744
0.32400002 25532.90552518  1618.14796428
0.32500002 25257.02768312  1358.57558341
0.32600002 24996.93371577  1226.09965682
0.32700002 24751.51713587  1339.55217082
0.32800002 24521.33053486  1452.15326304
0.32900002 24304.12738109  1684.27610727
0.33000002 24102.61827710  1675.37307578
0.33100002 23912.07690635  1309.90363496
0.33200002 23737.45373710  1422.82304438
0.33300002 23574.54015091  1299.19296924
0.33400002 23425.06411153  1177.10952735
0.33500002 23287.33061615  1643.15412609
0.33600002 23161.87281567  1404.99927153
0.33700002 23047.35608118  1869.60161384
0.33800002 22945.86606309  1166.79734456
0.33900002 22854.40218616  1631.80439337
0.34000002 22774.49051715  1514.38981866
0.34100002 22705.07109841  1397.72424301
0.34200002 22647.09103797  1398.23146690
0.34300002 22597.66410375  1282.64347527
0.34400002 22559.21595841  1517.67132548
0.34500002 22529.88874204  1169.30128109
0.34600002 22511.12869682  1288.87473458
0.34700002 22499.31073493  1174.46407599
0.34800002 22497.89716276  1413.31796670
0.34900002 22504.71126378  1181.49739731
0.35000002 22520.06123635  1778.52192038
0.35100002 22543.39262769  1666.40766196
0.35200002 22573.98389374  1314.82175416
0.35300002 22612.61563963  1681.02192627
0.35400002 22659.04080027  1568.57217369
0.35500002 22712.31729486  1819.25670149
0.35600002 22772.19732936  1463.34146969
0.35700002 22838.86260989  1962.31516839
0.35800002 22912.72336478  1233.85021163
0.35900002 22992.32912188  1365.74441453
0.36000002 23078.66636076  1374.68082689
0.36100002 23170.09590748  1887.20440105
0.36200002 23268.39122325  1393.66035833
0.36300002 23370.30298289  1658.82418430
0.36400002 23478.45340994  1671.07900061
0.36500002 23590.93622133  1942.71368985
0.36600002 23709.10609288  1827.26089313
0.36700002 23831.42039300  1578.59336161
0.36800002 23959.50171721  1591.39017944
0.36900002 24090.82806807  1604.44922533
0.37000002 24225.62094529  1482.97145641
0.37100002 24364.63315512  1631.45591335
0.37200002 24508.05264179  2331.08353745
0.37300002 24654.23533621  1521.41293467
0.37400002 24804.89106193  1534.80270716
0.37500002 24957.65385873  1829.89526761
0.37600002 25114.57423540  1420.22924029
0.37700002 25273.11351275  1862.88128527
0.37800002 25435.38171659  1735.20182291
0.37900002 25600.09782781  1605.12620984
0.38000002 25767.26091183  1619.85893396
0.38100002 25936.10849935  1634.75299616
0.38200002 26107.50902342  1649.86411089
0.38300002 26280.55321487  1967.88791796
0.38400002 26456.18315546  1527.84464961
0.38500002 26632.36094973  2158.81928086
0.38600002 26811.27812203  2178.95267620
0.38700002 26990.39282048  1570.84093657
0.38800002 27170.95379963  2061.05279811
0.38900002 27352.89694572  2080.18791127
0.39000002 27536.37904799  1776.50957844
0.39100002 27719.85113620  1792.92005643
0.39200002 27904.82775572  2467.48451120
0.39300002 28089.79831331  2490.16073845
0.39400002 28276.24086518  3183.19796621
0.39500002 28462.09574321  2028.77828069
0.39600002 28648.32165084  1876.60839865
0.39700002 28834.40956509  1893.55576585
0.39800002 29021.71617823  1910.64477512
0.39900002 29207.79036677  2453.45450705
0.40000002 29393.80889540  2475.25276436
0.40100002 29579.56558739  3032.20141203
0.40200002 29765.90278203  1979.28379927
0.40300002 29950.78376018  1815.01758186
0.40400002 30135.02195481  2196.84320459
0.40500002 30318.90058307  1846.42113299
0.40600002 30502.02429271  2420.79327269
0.40700002 30684.26899676  2065.66508674
0.40800002 30865.65260677  2272.32945258
0.40900002 31045.44321375  2482.08330254
0.41000002 31224.83437211  2502.51446933
0.41100002 31402.79121773  2522.90036597
0.41200002 31578.72529220  2151.93233700
0.41300002 31753.82804347  2366.29537792
0.41400002 31927.44216592  1987.48336900
0.41500002 32099.93256406  3004.55383036
0.41600002 32269.64105080  2422.15937204
0.41700002 32438.55095399  2847.45613766
0.41800002 32606.46177617  2664.11108566
0.41900002 32770.61627861  2271.00381572
0.42000002 32933.83896388  2079.77202912
0.42100002 33095.50712894  2932.92398074
0.42200002 33255.01285797  2954.04293215
0.42300002 33412.11627269  2975.01497389
0.42400002 33566.95052455  3423.82911574
0.42500002 33720.19409013  3016.60870625
0.42600002 33869.68224798  2603.22390094
0.42700002 34018.38506271  2839.17455187
0.42800002 34164.14092130  2638.15508696
0.42900002 34308.05718954  2434.15677295
0.43000002 34449.50472505  2895.30876182
0.43100002 34587.09744246  2913.61722662
0.43200002 34723.05912690  2480.78907688
0.43300002 34855.99417511  3176.77545966
0.43400002 34986.86958956  2967.76135357
0.43500002 35114.47546132  2526.13548440
0.43600002 35240.43083206  3234.01449071
0.43700002 35362.71696213  2787.99673741
0.43800002 35481.34176951  2570.09111287
0.43900002 35598.41356273  2349.49540648
0.44000002 35711.84179749  2362.33844685
0.44100002 35822.98079326  2850.07648698
0.44200002 35931.02384395  2626.37831234
0.44300002 36036.33395219  2400.01995495
0.44400002 36138.01352971  2653.43376917
0.44500002 36236.11834695  2666.61607553
0.44600002 36331.94037446  4628.50776335
0.44700002 36424.95691925  3426.86010937
0.44800002 36513.69868347  3442.87681203
0.44900002 36600.75665611  2717.60631051
0.45000002 36684.36541446  2481.69743790
0.45100002 36763.64098468  2741.83247458
0.45200002 36840.70640522  2503.32611887
0.45300002 36913.95779957  3519.37690340
0.45400002 36984.58337080  3533.87710856
0.45500002 37051.92028230  5575.57322833
0.45600002 37115.68855361  3307.56474221
0.45700002 37176.25614756  2809.40981022
0.45800002 37232.96272321  2819.83856549
0.45900002 37286.80724244  3344.62676816
0.46000002 37338.04409815  2840.11845893
0.46100002 37384.62294466  2849.82994214
0.46200002 37428.97329232  2599.44231835
0.46300002 37469.45832023  2868.66186496
0.46400002 37506.27098998  3139.27503065
0.46500002 37540.70135057  3411.32369341
0.46600002 37570.94422539  2895.02924450
0.46700002 37597.89743583  2903.30977760
0.46800002 37622.22079310  2646.72335824
0.46900002 37642.50572176  2919.17645708
0.47000002 37659.06052262  4256.98040324
0.47100002 37672.89074431  2667.24079112
0.47200002 37683.12558906  3208.34146472
0.47300002 37690.75209131  2947.79386078
0.47400002 37693.47794558  3222.79251710
0.47500002 37694.20270371  3229.63944073
0.47600002 37691.74671697  5124.00475031
0.47700002 37684.81186481  2702.00113878
