# SAXS profile: number of points = 501, q_min = 0, q_max = 0.5, delta_q = 0.001
#    q    intensity    error
0.00000000 1664650.74656091 374.54641798
0.00100000 1664582.17322332 499.37466383
0.00200000 1664376.39898343 748.96940326
0.00300000 1664033.59408426 1297.94624962
0.00400000 1663553.63827704 1497.19833134
0.00500000 1662936.95830671 1945.63631823
0.00600000 1662183.30351916 2094.35104770
0.00700000 1661293.34520486 1993.55209710
0.00800000 1660266.50203206 4034.44777027
0.00900000 1659104.16414475 2986.38762312
0.01000000 1657805.45182255 2735.37911362
0.01100000 1656371.65806266 3577.76293719
0.01200000 1654802.19407899 3872.23730392
0.01300000 1653098.43782359 5207.26030881
0.01400000 1651259.71270209 4829.93487377
0.01500000 1649287.73073591 4749.94887603
0.01600000 1647181.34730240 5040.37514807
0.01700000 1644942.74339345 4441.34560640
0.01800000 1642571.40245409 6553.86019070
0.01900000 1640068.12398422 6396.26597215
0.02000000 1637433.47824167 7221.08196570
0.02100000 1634669.11504999 7012.73082151
0.02200000 1631773.23088543 9570.35043395
0.02300000 1628748.77289820 8208.89418906
0.02400000 1625595.50099146 6705.58174735
0.02500000 1622314.85042123 8225.13666728
0.02600000 1618906.99347080 7212.23098579
0.02700000 1615372.90654280 8819.93647369
0.02800000 1611712.50053257 8413.13963860
0.02900000 1607928.45383180 7235.67837446
0.03000000 1604020.84044608 8204.56697601
0.03100000 1599990.08677519 8447.94804689
0.03200000 1595837.23489258 10269.21307951
0.03300000 1591564.86140893 12987.16986781
0.03400000 1587171.11145906 9999.17846356
0.03500000 1582659.42097465 15383.45028225
0.03600000 1578029.31712007 9633.86942624
0.03700000 1573282.76010614 11658.02579154
0.03800000 1568420.97562669 12845.36838486
0.03900000 1563445.23568380 11256.80621823
0.04000000 1558354.64007517 12459.04592474
0.04100000 1553152.81637231 9784.86319684
0.04200000 1547840.29253169 10981.92738500
0.04300000 1542417.12030021 12215.94415982
0.04400000 1536886.93199750 11411.38600005
0.04500000 1531249.34299168 12678.74514909
0.04600000 1525504.80915179 12905.77128537
0.04700000 1519656.32108508 12035.67862275
0.04800000 1513704.19021140 11125.72631571
0.04900000 1507651.17493348 13568.86120600
0.05000000 1501496.69526054 18378.32040580
0.05100000 1495244.19321849 16328.06735057
0.05200000 1488891.87709018 13020.36007192
0.05300000 1482445.18866173 12007.80658794
0.05400000 1475902.28756028 15829.05277225
0.05500000 1469267.43890072 17278.58588751
0.05600000 1462538.90749015 20007.53318810
0.05700000 1455721.73922954 13931.25769472
0.05800000 1448814.51574316 15386.41087562
0.05900000 1441819.37681131 15571.64999685
0.06000000 1434738.93208585 17066.22039447
0.06100000 1427574.72269008 19914.66831217
0.06200000 1420327.26608622 14764.30262110
0.06300000 1412999.75029126 17634.23770813
0.06400000 1405590.09910243 17815.85533931
0.06500000 1398104.82030210 15225.36220530
0.06600000 1390541.69663592 15372.43917556
0.06700000 1382903.60846598 19747.86445307
0.06800000 1375193.58775285 18503.23058933
0.06900000 1367412.43489460 15793.61436247
0.07000000 1359559.33469833 18823.09987036
0.07100000 1351639.72413052 18977.02261563
0.07200000 1343652.12110506 17655.58969843
0.07300000 1335601.30240185 17790.21018156
0.07400000 1327486.70171261 17921.07131298
0.07500000 1319310.70949652 19552.18563120
0.07600000 1311073.34403600 15142.89783352
0.07700000 1302780.21859165 19815.28805389
0.07800000 1294429.54589322 18406.78900581
0.07900000 1286023.24933720 16975.50768747
0.08000000 1277565.54993520 20179.14880785
0.08100000 1269056.32927587 17170.33294070
0.08200000 1260496.37839902 15693.18064747
0.08300000 1251889.07906537 17351.18345017
0.08400000 1243234.91256212 26947.11799465
0.08500000 1234537.98684165 20703.20301125
0.08600000 1225797.07136525 27194.30930505
0.08700000 1217016.17334581 22490.45993953
0.08800000 1208193.42534016 17742.32128437
0.08900000 1199335.46930505 16191.02959611
0.09000000 1190440.76186115 21124.37231155
0.09100000 1181512.02548003 21196.32673294
0.09200000 1172550.09126134 17992.78199583
0.09300000 1163558.62182991 19687.41280652
0.09400000 1154535.70896469 19742.56155115
0.09500000 1145485.89347312 21443.49693372
0.09600000 1136410.04031781 21495.19692305
0.09700000 1127311.26728384 21542.91933059
0.09800000 1118190.28502899 19926.15181610
0.09900000 1109048.99356246 18299.30925426
0.10000000 1099886.81497483 16663.28603050
0.10100000 1090707.18250821 16687.82067723
0.10200000 1081512.03042348 23393.10631839
0.10300000 1072302.17032162 18400.70610830
0.10400000 1063080.23925754 23440.92037841
0.10500000 1053849.17719157 20107.44324686
0.10600001 1044604.86831480 16765.90892535
0.10700001 1035355.65820291 25159.14367826
0.10800001 1026098.17492537 18454.37654453
0.10900001 1016836.93261809 16777.81017786
0.11000001 1007572.17421988 16776.07749040
0.11100001 998305.74420317 25157.30593816
0.11200001 989040.10483832 18440.65362284
0.11300001 979774.16399831 18429.55289249
0.11400001 970512.45052439 21763.74272774
0.11500001 961255.12790243 21743.59201702
0.11600001 952003.19306893 18378.42250766
0.11700001 942759.66341999 18355.53151124
0.11800001 933522.94102828 21662.40086682
0.11900001 924297.40209490 18301.08942349
0.12000001 915082.75258507 23252.25383848
0.12100001 905882.57245428 21550.94741391
0.12200001 896695.73184985 18198.44073524
0.12300001 887525.00746665 21460.35569164
0.12400001 878370.56687017 16469.44890481
0.12500001 869234.59020536 24642.80179350
0.12600001 860119.87303646 18023.81278882
0.12700001 851026.00568228 16339.70007913
0.12800001 841953.14171347 22808.51168397
0.12900001 832904.49964589 21114.13006118
0.13000001 823880.48786828 21046.02805460
0.13100001 814881.68851475 19361.58983177
0.13200001 805911.11570742 17685.72026791
0.13300001 796970.02250795 16019.09820760
0.13400001 788056.92609123 17553.96885627
0.13500001 779175.50452592 15895.18104176
0.13600001 770324.90627466 18996.21308442
0.13700001 761508.36644159 18915.86871435
0.13800001 752724.30673827 17263.73278913
0.13900001 743977.92089586 21872.95190583
0.14000001 735266.31556459 15550.88330758
0.14100001 726592.25985107 17024.05745122
0.14200001 717955.45016407 18480.17415885
0.14300001 709360.61526610 18386.62801495
0.14400001 700801.77154482 19815.17102511
0.14500001 692288.08498642 18193.33173166
0.14600001 683813.95545121 15078.09842900
0.14700001 675385.73728712 22490.34611268
0.14800001 666998.97905062 16398.17067360
0.14900001 658656.99170311 20747.69621754
0.15000001 650361.26705802 16203.75173329
0.15100001 642112.05504397 20496.21776412
0.15200001 633910.90561771 16003.08156746
0.15300001 625757.75419457 15900.50528441
0.15400001 617651.59599383 18668.52036990
0.15500001 609596.95085637 19970.39705252
0.15600001 601590.55341723 18417.69566209
0.15700001 593638.84543798 16883.08956108
0.15800001 585734.26900741 15366.73927270
0.15900001 577885.11482318 18030.01643351
0.16000001 570086.52037011 16521.10814016
0.16100001 562344.74438026 15031.47572683
0.16200001 554654.95481580 17629.70857105
0.16300001 547021.44565087 21530.76511724
0.16400001 539442.54367814 14686.32394497
0.16500001 531920.06558853 13244.81025846
0.16600001 524453.65224762 14451.32106997
0.16700001 517043.88652744 14332.45721124
0.16800001 509690.56644552 18088.91905725
0.16900001 502397.32559110 16654.47212974
0.17000001 495161.49246984 12700.89288158
0.17100001 487984.35205329 15107.99625299
0.17200001 480866.41094525 16222.02913929
0.17300001 473808.06379592 12366.39104907
0.17400001 466810.62158647 20831.42497208
0.17500001 459872.78879873 13354.70641743
0.17600001 452993.53396817 14432.37467385
0.17700001 446177.86065341 13104.24438631
0.17800001 439422.19699819 12978.33520134
0.17900001 432727.87402425 12852.01846557
0.18000001 426096.18151958 11568.51187470
0.18100001 419527.27407994 12598.40463572
0.18200001 413017.70999153 11337.33667482
0.18300001 406573.05683349 15709.98365817
0.18400001 400189.63214723 15547.36794339
0.18500001 393869.85264952 12087.86634887
0.18600001 387612.57842236 13047.04000608
0.18700001 381418.11024357 13982.78858214
0.18800001 375286.20331656 11703.30080336
0.18900001 369219.60965731 14731.86312137
0.19000001 363212.16421054 12487.23479556
0.19100001 357273.11075277 14405.25250620
0.19200001 351393.65417657 12207.41612291
0.19300001 345580.36528752 18101.50038910
0.19400001 339829.35062290 12922.01166805
0.19500001 334142.15184717 13753.29161994
0.19600001 328517.37773247 12619.99566197
0.19700001 322956.96597655 10551.00457707
0.19800001 317459.82466825 13266.64669985
0.19900001 312026.96019763 11232.97109798
0.20000001 306655.24814482 11094.78740223
0.20100001 301348.66247340 14609.38384718
0.20200001 296103.81243502 13524.54227219
0.20300001 290922.86419144 10682.68807802
0.20400001 285804.67528401 8788.49418038
0.20500001 280748.47314638 8675.12823027
0.20600001 275755.58792625 13699.53825573
0.20700001 270824.71528551 10984.65097121
0.20800001 265955.97873734 12506.58049131
0.20900001 261151.65829704 9871.53315027
0.21000001 256406.58145154 10549.84929254
0.21100001 251723.55723323 8805.29044827
0.21200001 247101.94516909 8684.39827352
0.21300001 242541.39052635 10121.25270515
0.21400001 238042.75570383 9212.25508126
0.21500001 233605.47671764 11353.22670523
0.21600001 229227.19896623 9699.74938285
0.21700001 224909.61784469 9560.90830661
0.21800001 220652.28208629 8698.11337109
0.21900001 216453.43516353 9285.85280757
0.22000001 212313.68845749 10557.29865772
0.22100001 208235.25765749 7627.65784866
0.22200001 204214.40741095 10246.45837634
0.22300001 200251.91887088 10765.54366755
0.22400001 196345.77915992 11928.00664800
0.22500001 192500.60851717 7178.34803105
0.22600001 188710.61035420 7068.15624506
0.22700001 184978.97596771 7591.53753271
0.22800001 181303.19387778 6850.54150463
0.22900001 177683.35417372 8582.10641245
0.23000001 174119.77074472 7239.90040995
0.23100001 170613.09210254 7718.53665175
0.23200001 167159.57854836 8179.11856519
0.23300001 163762.00875189 7472.46081275
0.23400001 160418.81396552 9047.62153557
0.23500001 157128.25276465 7787.27657532
0.23600001 153892.37538013 6565.04904422
0.23700001 150709.20691842 6994.41462390
0.23800001 147578.63979045 6348.83338408
0.23900001 144500.61476599 6242.42685315
0.24000001 141474.15388759 6648.57817643
0.24100001 138500.25445733 5530.31542207
0.24200001 135576.73305999 7412.65823069
0.24300001 132703.64951748 5342.64918230
0.24400001 129880.19005574 6682.33609447
0.24500001 127106.84297098 6097.31554575
0.24600001 124382.83349159 5530.06103864
0.24700001 121708.05037963 7244.06350128
0.24800001 119080.57638102 5337.19168588
0.24900001 116500.92305179 6553.17723168
0.25000001 113969.12881595 6865.50064467
0.25100001 111483.57455544 5478.30311283
0.25200001 109045.68334229 4552.11226648
0.25300001 106653.78289058 4469.86025242
0.25400001 104306.43428045 3989.72129999
0.25500001 102004.38149281 4700.36212157
0.25600001 99747.21653773  4229.78091740
0.25700001 97533.98254297  3774.56530300
0.25800001 95364.15335808  3704.89753325
0.25900001 93237.98371510  3999.90969063
0.26000001 91154.76741879  3925.58024463
0.26100001 89111.72033502  3852.29985236
0.26200001 87112.84047891  5154.90257925
0.26300001 85153.70068532  3709.29537737
0.26400001 83235.31887423  4962.90612271
0.26500001 81357.94745025  6167.74628805
0.26600001 79519.59115721  5095.61564248
0.26700001 77721.56952678  3124.40724282
0.26800001 75962.19584488  3984.59717160
0.26900001 74240.51539355  3307.41511729
0.27000001 72557.42298462  3244.40532229
0.27100001 70911.62514660  4339.79166434
0.27200001 69303.08720267  5392.12695498
0.27300001 67730.41849373  3618.83643138
0.27400001 66192.70040082  3549.58372698
0.27500001 64692.83017202  3481.76828463
0.27600001 63225.95650339  3152.44634045
0.27700001 61795.35182501  2834.55292236
0.27800001 60397.66248382  3791.46344186
0.27900001 59034.32715763  3471.21860115
0.28000001 57703.85241112  3648.32624136
0.28100001 56405.81495203  2624.56269394
0.28200001 55140.71022248  2574.79558570
0.28300001 53907.33278061  2526.09773366
0.28400001 52705.32714873  2478.46812648
0.28500001 51534.43428943  2652.99280279
0.28600001 50393.22146468  2603.31394409
0.28700001 49282.60868014  2767.71143448
0.28800001 48200.89881969  2298.45996901
0.28900001 47149.68302973  2871.41583243
0.29000001 46125.82977736  2214.73182159
0.29100001 45131.49533037  1976.75958904
0.29200001 44164.17559478  2717.42185298
0.29300001 43224.35075084  3431.14912502
0.29400001 42311.28057089  1872.27425389
0.29500001 41425.87864668  2391.10182867
0.29600001 40565.36574797  2891.49940739
0.29700001 39730.35227008  1953.54151360
0.29800001 38921.31730941  2269.30751315
0.29900001 38136.94051708  2574.24360677
0.30000001 37376.69883198  2193.82544180
0.30100001 36641.42188348  1659.85648990
0.30200001 35928.67607363  1796.25424534
0.30300001 35239.60191041  2089.00370014
0.30400001 34573.99111437  2056.28821888
0.30500001 33929.62449783  2180.31777345
0.30600001 33307.66537887  1687.19986964
0.30700001 32707.66692667  1662.20371191
0.30800001 32128.82592764  1787.00538270
0.30900001 31570.56885516  1614.83467339
0.31000001 31033.82178074  1592.50064008
0.31100001 30515.38290795  2142.17998156
0.31200001 30017.94578589  1550.27688351
0.31300001 29539.10336945  1530.42101803
0.31400001 29080.85377095  1511.47744631
0.31500001 28640.19346118  1357.54523434
0.31600002 28217.82491554  1610.10916592
0.31700002 27813.00893762  1459.34864805
0.31800002 27426.26528511  1312.34685603
0.31900002 27056.98929402  1948.10332141
0.32000002 26704.23129981  1542.97055756
0.32100002 26368.36131878  1528.31029440
0.32200002 26048.87309735  1640.68834972
0.32300002 25744.50216864  1251.18286464
0.32400002 25456.06302783  1365.08144451
0.32500002 25182.38312293  1477.70231163
0.32600002 24924.13316699  1222.52878973
0.32700002 24680.32825230  1457.12664901
0.32800002 24451.42829796  1689.34926110
0.32900002 24235.20086346  1319.60674950
0.33000002 24034.35066508  1193.30556703
0.33100002 23844.27384594  1899.91183001
0.33200002 23669.78263325  1300.53626837
0.33300002 23506.87398827  2002.08055239
0.33400002 23357.06067739  1525.80006101
0.33500002 23218.72652786  1521.29103415
0.33600002 23092.43164825  1634.25146514
0.33700002 22976.82780937  1630.89531514
0.33800002 22874.09747128  1163.14791150
0.33900002 22780.99356052  1278.01379927
0.34000002 22699.46301250  1161.07758808
0.34100002 22628.06755984  1741.22988119
0.34200002 22567.86871239  1161.11690024
0.34300002 22516.09826865  1510.37994339
0.34400002 22475.04569721  1163.08366991
0.34500002 22442.94196116  1747.18311442
0.34600002 22421.28038124  1517.13600885
0.34700002 22406.33071179  1520.49367411
0.34800002 22401.60872718  1993.63126310
0.34900002 22404.98645081  1293.88802882
0.35000002 22416.64021972  1416.28339616
0.35100002 22436.15304862  1421.55472449
0.35200002 22462.89903082  1546.23372802
0.35300002 22497.39243084  1911.37855145
0.35400002 22539.58158014  1440.27933119
0.35500002 22588.49824506  1447.47103610
0.35600002 22643.86196419  1818.86829842
0.35700002 22705.90309139  1463.16846451
0.35800002 22775.01890017  1471.72179104
0.35900002 22849.73098418  1604.05119107
0.36000002 22931.18775772  1738.41342625
0.36100002 23017.44432732  1499.81674341
0.36200002 23110.59304773  1384.20903616
0.36300002 23207.18473605  1520.53481593
0.36400002 23309.93952391  1659.08502420
0.36500002 23417.00716086  1799.83125564
0.36600002 23529.66264980  1683.90038730
0.36700002 23646.29859272  1957.91361622
0.36800002 23768.74363542  1447.16002479
0.36900002 23894.36548817  1326.13734741
0.37000002 24023.31722837  1604.27720050
0.37100002 24156.53937961  1347.93496123
0.37200002 24293.95346228  1902.94546484
0.37300002 24434.20124487  1781.98638120
0.37400002 24578.83904114  1520.81573771
0.37500002 24725.63163305  2231.24110426
0.37600002 24876.43913656  1406.76269981
0.37700002 25028.86560318  1419.13674693
0.37800002 25185.05963178  1861.30192026
0.37900002 25343.55980946  1877.95787084
0.38000002 25504.55829059  2040.61980550
0.38100002 25667.28446806  1764.88256363
0.38200002 25832.42082491  2077.70170538
0.38300002 25999.29147023  1946.82703752
0.38400002 26168.77968036  1662.37180795
0.38500002 26338.64150388  1830.00889838
0.38600002 26511.47028803  1692.89001544
0.38700002 26684.42032384  2174.24667099
0.38800002 26858.82592786  1880.65508057
0.38900002 27034.58785963  1739.67581119
0.39000002 27211.99610581  2074.77874138
0.39100002 27389.41172409  1771.54723424
0.39200002 27568.27079060  1787.66460411
0.39300002 27747.20577686  1967.83192692
0.39400002 27927.67796491  2482.07249672
0.39500002 28107.60268203  2003.51001410
0.39600002 28287.95283516  2358.36673960
0.39700002 28468.22197644  2039.46351902
0.39800002 28649.63127049  2400.55271789
0.39900002 28829.93078040  2248.73470741
0.40000002 29010.39050013  1919.47257838
0.40100002 29190.40489467  1760.18149855
0.40200002 29371.18057943  1775.48795015
0.40300002 29550.54750543  2148.91591641
0.40400002 29729.26708109  1986.65836682
0.40500002 29907.76663530  2549.93630414
0.40600002 30085.60638876  2755.08953559
0.40700002 30262.60354541  2037.27856721
0.40800002 30438.89616190  1867.42636801
0.40900002 30613.59587878  1882.73623575
0.41000002 30787.98319449  3226.73473159
0.41100002 30961.01081593  2678.74678272
0.41200002 31132.16421006  2507.22896346
0.41300002 31302.54442687  2721.44334142
0.41400002 31471.51626852  2350.92237665
0.41500002 31639.46291227  2369.16309513
0.41600002 31804.69423366  2188.32209044
0.41700002 31969.26707184  3006.70971058
0.41800002 32132.92018037  3231.28660645
0.41900002 32292.93158310  2237.90026475
0.42000002 32452.04348613  2049.34664326
0.42100002 32609.83327353  2477.04305283
0.42200002 32765.48221999  2286.86693991
0.42300002 32918.84265907  2721.73004002
0.42400002 33070.03734365  2319.03647861
0.42500002 33219.78061852  2122.74408211
0.42600002 33365.91613534  2350.79573271
0.42700002 33511.33531749  2366.57061226
0.42800002 33653.90750972  3248.44357631
0.42900002 33794.77163866  2615.71544878
0.43000002 33933.28231991  2632.54416713
0.43100002 34068.04463391  2428.37033658
0.43200002 34201.32331737  2443.51366020
0.43300002 34331.74916381  2234.99697648
0.43400002 34460.11871843  2248.52285293
0.43500002 34585.45684236  2261.88898468
0.43600002 34709.18192442  2275.18698296
0.43700002 34829.33888253  2517.11644032
0.43800002 34946.04309895  2531.31675183
0.43900002 35061.31047231  2545.45126092
0.44000002 35173.00997595  2792.03366421
0.44100002 35282.60613336  2573.16058725
0.44200002 35389.18790534  2586.77281253
0.44300002 35493.20757974  2600.23251052
0.44400002 35593.71667892  2613.46877100
0.44500002 35690.74817734  2626.48228284
0.44600002 35785.61367092  3119.25316345
0.44700002 35877.80364213  2893.18622281
0.44800002 35965.96143693  2422.30761757
0.44900002 36052.45333725  2676.89478715
0.45000002 36135.59581300  2689.03048986
0.45100002 36214.63277470  3437.49310589
0.45200002 36291.47924970  3452.40858464
0.45300002 36364.76444864  2724.08463395
0.45400002 36435.50106517  2984.06767866
0.45500002 36503.06144482  3495.53332962
0.45600002 36567.09604918  3760.01182946
0.45700002 36628.23594700  3019.63191458
0.45800002 36685.57139892  2525.80171052
0.45900002 36740.12971807  3042.08288483
0.46000002 36792.23368667  3053.01969602
0.46100002 36839.92769350  3063.60853219
0.46200002 36885.34111591  3586.36188668
0.46300002 36927.05603691  3341.16018857
0.46400002 36965.26020804  3609.65783040
0.46500002 37001.17491319  2586.38224901
0.46600002 37033.03457958  3112.99703430
0.46700002 37061.78630816  3122.08502657
0.46800002 37087.92911311  2870.04953045
0.46900002 37110.21360934  3139.52422015
0.47000002 37128.95708378  3672.42531922
0.47100002 37145.00634296  3681.81320322
0.47200002 37157.61690644  3690.86626225
0.47300002 37167.62892260  3171.14224998
0.47400002 37173.02329985  4237.72485704
0.47500002 37176.40513925  2919.83499803
0.47600002 37176.76607878  2659.99773901
0.47700002 37172.82303988  3731.40815360
