# SAXS profile: number of points = 501, q_min = 0, q_max = 0.5, delta_q = 0.001
#    q    intensity    error
0.00000000 1664650.74656091 374.54641798
0.00100000 1664582.28710589 549.31216779
0.00200000 1664376.85378702 823.86656871
0.00300000 1664034.61896180 1098.26288764
0.00400000 1663555.44873743 1871.49995094
0.00500000 1662939.81096129 2693.96260039
0.00600000 1662187.39252644 2268.88588317
0.00700000 1661298.89543141 1993.55875737
0.00800000 1660273.76427938 2465.50664405
0.00900000 1659113.34281205 2737.53713266
0.01000000 1657816.77338203 3556.01713245
0.01100000 1656385.36277728 2981.49378281
0.01200000 1654818.45143531 3549.58573396
0.01300000 1653117.55648756 3818.70172391
0.01400000 1651281.81927997 4829.99953551
0.01500000 1649313.09953568 3958.35161515
0.01600000 1647210.16177520 5040.46332036
0.01700000 1644975.22599668 7994.57995697
0.01800000 1642607.74989373 7490.29167656
0.01900000 1640108.53543196 6888.45615964
0.02000000 1637478.15488650 5673.86206334
0.02100000 1634718.32724407 6473.48486938
0.02200000 1631827.11971911 6192.78420069
0.02300000 1628807.55576516 7622.81970796
0.02400000 1625659.40776354 8534.71227992
0.02500000 1622384.05343533 6960.02790711
0.02600000 1618981.61136266 6556.87582592
0.02700000 1615453.24889346 10177.35593416
0.02800000 1611798.70737584 10516.98704793
0.02900000 1608020.64496321 9406.92120495
0.03000000 1604119.22552469 8205.07021571
0.03100000 1600094.94455575 8448.50169600
0.03200000 1595948.57990256 7899.94583437
0.03300000 1591682.92675948 12176.37495105
0.03400000 1587296.08468480 10833.29627783
0.03500000 1582791.44828607 12820.61132315
0.03600000 1578168.54000229 8758.83580179
0.03700000 1573429.30343332 8968.54744434
0.03800000 1568575.07437941 12846.63045370
0.03900000 1563606.98305222 10319.80656606
0.04000000 1558524.18827855 12460.40146269
0.04100000 1553330.32680587 10764.57966388
0.04200000 1548025.91227894 10983.24435716
0.04300000 1542610.90328605 15271.84865142
0.04400000 1537089.03330357 11412.88660232
0.04500000 1531460.00545706 13737.19688725
0.04600000 1525723.87048262 11831.98916562
0.04700000 1519884.10922734 13131.79931446
0.04800000 1513940.80483208 18916.69123653
0.04900000 1507896.67638212 14701.99327907
0.05000000 1501751.15045026 11488.39683591
0.05100000 1495507.77210297 13997.95339896
0.05200000 1489164.63089880 16574.40311429
0.05300000 1482727.09349690 13211.09901893
0.05400000 1476193.50241349 21921.47453312
0.05500000 1469568.07974034 18516.55866851
0.05600000 1462848.98871220 17510.30321199
0.05700000 1456041.23137849 13934.31523473
0.05800000 1449143.68852676 12824.92224229
0.05900000 1442158.24501842 19469.13721707
0.06000000 1435087.47670438 14444.15612784
0.06100000 1427933.01276161 19919.66645890
0.06200000 1420695.28846790 20138.35665537
0.06300000 1413377.60518769 16282.11077304
0.06400000 1405977.85957498 15079.11324914
0.06500000 1398502.36924559 15229.69151350
0.06600000 1390949.13781999 20968.55923372
0.06700000 1383320.80013509 14109.87282171
0.06800000 1375620.68783713 18508.97722124
0.06900000 1367849.40742807 21543.62917564
0.07000000 1360006.29703904 18829.28806425
0.07100000 1352096.53618877 17523.17192975
0.07200000 1344118.64277844 19133.52977630
0.07300000 1336077.77771576 17796.55683304
0.07400000 1327972.97382820 17927.63598684
0.07500000 1319806.84033154 15045.79868501
0.07600000 1311579.14663767 18178.48782462
0.07700000 1303295.72359660 16773.41674917
0.07800000 1294954.68038296 18414.25641860
0.07900000 1286558.00026951 18526.43607284
0.08000000 1278109.81204453 24846.45591172
0.08100000 1269610.14493145 18739.44661841
0.08200000 1261059.68737122 23550.29076676
0.08300000 1252461.68431135 15781.01796296
0.08400000 1243816.77153925 22202.13041411
0.08500000 1235128.95497529 20713.11354732
0.08600000 1226397.17041830 22406.27735555
0.08700000 1217625.17777236 20894.44903173
0.08800000 1208811.50031061 20978.92457314
0.08900000 1199962.43598440 17819.44301134
0.09000000 1191076.19307162 19509.82895900
0.09100000 1182156.07046954 19576.50544670
0.09200000 1173202.57247374 31095.73564450
0.09300000 1164219.56682641 19698.59599638
0.09400000 1155204.91252367 23046.33908797
0.09500000 1146163.09815158 16504.74938915
0.09600000 1137095.26239262 19853.68421465
0.09700000 1128004.21863154 19897.99535212
0.09800000 1118890.96784882 23261.74431529
0.09900000 1109757.11322695 18310.99322927
0.10000000 1100602.47483336 25011.19241679
0.10100000 1091429.95916594 28388.09457305
0.10200000 1082241.83754488 16720.63717655
0.10300000 1073038.92645429 20087.28964815
0.10400000 1063823.80724767 18430.74832764
0.10500000 1054599.14359648 18444.93988933
0.10600001 1045361.36669111 23489.27101480
0.10700001 1036118.33621260 21820.65318747
0.10800001 1026866.94668225 20147.13044206
0.10900001 1017611.62560091 18469.65187394
0.11000001 1008352.42168457 23504.69605582
0.11100001 999091.23582465 16784.73355197
0.11200001 989831.04708678 21810.92814935
0.11300001 980570.05016302 21798.07324139
0.11400001 971313.26721763 18430.67011325
0.11500001 962060.60779170 18413.84090020
0.11600001 952813.18228815 20066.24656394
0.11700001 943573.90183914 18371.38473401
0.11800001 934341.32947995 26684.78962676
0.11900001 925119.44025000 18317.36577973
0.12000001 915908.39444068 16623.73814216
0.12100001 906711.67879673 16592.82450364
0.12200001 897527.73607824 29806.89751940
0.12300001 888359.93647586 18175.84515664
0.12400001 879208.40250029 19782.18998834
0.12500001 870074.99107753 24666.62715935
0.12600001 860962.46172134 19681.60280242
0.12700001 851870.43757616 16355.91317226
0.12800001 842799.32794027 17938.98454066
0.12900001 833752.26274091 17883.98687870
0.13000001 824729.76868530 16205.94071853
0.13100001 815731.80930200 24227.23587828
0.13200001 806762.22955591 19313.88868603
0.13300001 797821.63901092 19243.45884014
0.13400001 788908.91456689 22365.56878241
0.13500001 780027.64347354 25460.10348337
0.13600001 771177.07793789 17432.45866874
0.13700001 762359.91431765 22093.19135869
0.13800001 753575.28626900 18854.45455155
0.13900001 744828.13431732 17205.53071411
0.14000001 736115.19950884 21796.37208539
0.14100001 727439.82686621 21692.25666022
0.14200001 718801.57645177 18501.95345052
0.14300001 710204.92101470 19942.55512274
0.14400001 701644.11092532 19838.98817222
0.14500001 693128.01046188 15179.50414516
0.14600001 684651.22410496 16606.21622405
0.14700001 676220.21980117 16513.29854658
0.14800001 667830.53274405 19403.81704432
0.14900001 659485.10564874 25225.30648121
0.15000001 651185.88707150 16224.29714190
0.15100001 642932.91116750 16124.75817293
0.15200001 634727.67322343 16023.70086664
0.15300001 626570.45316723 18815.91159652
0.15400001 618459.86204623 15817.11171826
0.15500001 610400.45369712 19996.71980682
0.15600001 602389.11421125 21279.39646379
0.15700001 594432.25569773 15496.84963744
0.15800001 586522.20487442 16786.26629580
0.15900001 578667.40349936 15276.82017346
0.16000001 570863.06537712 13786.34367961
0.16100001 563115.28704373 15052.07233320
0.16200001 555419.17664910 16295.99941215
0.16300001 547779.07551194 18865.51225123
0.16400001 540193.50510436 16043.74785902
0.16500001 532664.00393568 15916.00118901
0.16600001 525190.54802024 13156.02384904
0.16700001 517773.21856441 23486.19430298
0.16800001 510412.39949089 16820.64141943
0.16900001 503111.45801715 16678.14562078
0.17000001 495867.47062951 21622.30207780
0.17100001 488682.20926198 15129.60191319
0.17200001 481556.24256672 14995.66210167
0.17300001 474489.16582398 13622.58459413
0.17400001 467482.86248629 12271.42571980
0.17500001 460536.11719655 17021.41569546
0.17600001 453647.81318869 14453.22001080
0.17700001 446822.79047170 15509.21978978
0.17800001 440057.74322807 14178.66115650
0.17900001 433353.83632155 12870.60954667
0.18000001 426712.19344100 12743.76025907
0.18100001 420133.42137778 12616.60723994
0.18200001 413613.68275920 18165.91380490
0.18300001 407158.84910698 12361.34324283
0.18400001 400764.90480996 15569.71728739
0.18500001 394434.60375374 11004.72596462
0.18600001 388166.54779785 11976.87939813
0.18700001 381961.15284013 17234.08803037
0.18800001 375818.14387747 13850.77834700
0.18900001 369740.56664827 11591.36731209
0.19000001 363721.83589146 14588.88352691
0.19100001 357771.28564382 12364.57621608
0.19200001 351880.39862427 10186.93802152
0.19300001 346055.58822862 11077.23990263
0.19400001 340292.60892684 13934.98299404
0.19500001 334593.79856719 11804.46977127
0.19600001 328957.07029937 13608.95464139
0.19700001 323384.59568165 15367.23671301
0.19800001 317875.29634907 15181.72487110
0.19900001 312430.07998178 10310.19312666
0.20000001 307046.16549443 10183.18655989
0.20100001 301727.07408232 9142.33077678
0.20200001 296469.83683079 9930.25765399
0.20300001 291276.43258628 11586.97703594
0.20400001 286145.61294870 12318.56921969
0.20500001 281076.66947891 12159.37729639
0.20600001 276071.08220354 12858.01126140
0.20700001 271127.41302353 10151.01082343
0.20800001 266245.81228305 10850.84859252
0.20900001 261428.77214966 9882.00805439
0.21000001 256670.71510634 8935.99136885
0.21100001 251974.86128974 8814.08106459
0.21200001 247340.23043208 8692.77280948
0.21300001 242766.77073149 10909.93919245
0.21400001 238254.99589395 11525.58597126
0.21500001 233804.69557510 9847.85424321
0.21600001 229413.22845516 11947.84150282
0.21700001 225082.98840188 7360.21406873
0.21800001 220812.36842849 7979.05531042
0.21900001 216600.50191569 11436.50704188
0.22000001 212447.70156068 10563.96245960
0.22100001 208356.30235744 9713.57127520
0.22200001 204322.63316783 8884.97012342
0.22300001 200347.22848398 10097.50079306
0.22400001 196428.06737888 9281.22662253
0.22500001 192569.94256011 7180.93349763
0.22600001 188767.07313862 7713.02297318
0.22700001 185022.66250237 8226.10796386
0.22800001 181334.06543834 6228.82544237
0.22900001 177701.48170617 7969.91183143
0.23000001 174125.15366496 7843.46791777
0.23100001 170605.85563722 7718.20927404
0.23200001 167139.61606625 5841.52985778
0.23300001 163729.73356256 6321.60531183
0.23400001 160374.08529358 6218.50545137
0.23500001 157071.08732600 5560.31675432
0.23600001 153822.86768175 6562.08384567
0.23700001 150627.64850238 5915.14803646
0.23800001 147484.94917383 5816.06924576
0.23900001 144395.00969149 6237.86471372
0.24000001 141356.63332251 7665.06380447
0.24100001 138370.94317288 6027.43856972
0.24200001 135435.45683471 4936.62263514
0.24300001 132550.94369431 8247.32010678
0.24400001 129716.04643642 5243.77142524
0.24500001 126931.22738935 6557.26751712
0.24600001 124195.76746261 6442.03476303
0.24700001 121509.97542349 6328.23981942
0.24800001 118871.31970526 4439.84400103
0.24900001 116280.82298649 6540.79660242
0.25000001 113738.32816569 6851.59721284
0.25100001 111242.16597811 4625.44948020
0.25200001 108793.69878645 7018.82580927
0.25300001 106391.41339570 6080.26956322
0.25400001 104033.86259371 3979.29543247
0.25500001 101721.61136515 4687.33207347
0.25600001 99454.58384255  3833.97438853
0.25700001 97231.51912343  4515.43196173
0.25800001 95052.01277754  4062.04795824
0.25900001 92916.27358542  4348.48180954
0.26000001 90823.83312884  4266.90388228
0.26100001 88771.46910740  4535.33457129
0.26200001 86763.72933656  4791.96099800
0.26300001 84795.67121932  3357.90873917
0.26400001 82868.67099660  3623.43281078
0.26500001 80982.90499279  3877.46167453
0.26600001 79136.01206536  3169.39743319
0.26700001 77329.84499954  4352.12388252
0.26800001 75562.46087110  4268.52361660
0.26900001 73833.03918094  3289.26205116
0.27000001 72142.32776423  3225.84433863
0.27100001 70488.96092505  3738.73466439
0.27200001 68873.11846634  3102.38976813
0.27300001 67293.40516167  3042.33499133
0.27400001 65748.85498235  3254.56847565
0.27500001 64242.21914031  4787.33039690
0.27600001 62768.60400535  3129.64274382
0.27700001 61331.72908486  3580.54651343
0.27800001 59927.90267251  3761.97426831
0.27900001 58558.66211142  2705.41031759
0.28000001 57222.21615071  3617.87478736
0.28100001 55918.85564301  3311.51478791
0.28200001 54648.14120339  3247.73918543
0.28300001 53409.42211422  2957.81393668
0.28400001 52202.53039351  2677.98993594
0.28500001 51026.76130892  2407.95298014
0.28600001 49880.90146857  2362.11020085
0.28700001 48765.86405827  2106.68542703
0.28800001 47679.74678326  2480.30054507
0.28900001 46624.60682844  2230.98754234
0.29000001 45596.83096944  2985.45264904
0.29100001 44598.89570934  2148.77489699
0.29200001 43628.04004060  2684.43343077
0.29300001 42684.90695449  2070.64493438
0.29400001 41768.65921152  2033.08958336
0.29500001 40880.37238286  2178.10634366
0.29600001 40017.10678083  1961.03841063
0.29700001 39179.62702829  2626.99411660
0.29800001 38368.19786478  2064.97650684
0.29900001 37581.61970629  1860.29026353
0.30000001 36819.57930375  1828.64449269
0.30100001 36082.61592587  1961.45109459
0.30200001 35368.14571596  1607.48229889
0.30300001 34677.62202437  2530.07942267
0.30400001 34010.85645855  1555.99675664
0.30500001 33365.48171052  1531.47568302
0.30600001 32742.61995742  1507.79772042
0.30700001 32141.97548947  1633.45527171
0.30800001 31562.56181343  1609.21729024
0.30900001 31004.15738243  2162.54007981
0.31000001 30467.14168700  1989.80911778
0.31100001 29948.76280411  1541.76238215
0.31200001 29451.56323085  1382.75095916
0.31300001 28973.12851748  1637.56130134
0.31400001 28515.38551504  2290.49844994
0.31500001 28075.61205140  1463.86248167
0.31600002 27654.06151066  1972.42603064
0.31700002 27250.40164560  1559.81306405
0.31800002 26864.82680020  1414.03022558
0.31900002 26496.85223782  1399.03386440
0.32000002 26145.65060199  1384.80444970
0.32100002 25811.51675552  1246.69631832
0.32200002 25493.86439230  1482.21334595
0.32300002 25191.51093467  1469.16898728
0.32400002 24905.21937376  1578.36835255
0.32500002 24633.94360697  1686.43985919
0.32600002 24378.19850013  1434.90083166
0.32700002 24136.90483992  1662.55008410
0.32800002 23910.79310895  1179.99769580
0.32900002 23697.50853815  1173.02672819
0.33000002 23499.61700488  1400.10724745
0.33100002 23312.73324021  1741.46125551
0.33200002 23141.69115523  1271.52028074
0.33300002 22982.00129698  1381.67798340
0.33400002 22835.69996509  1147.49397759
0.33500002 22701.16069735  1258.55240866
0.33600002 22578.62496044  1940.29422786
0.33700002 22466.97489684  1366.89081746
0.33800002 22368.29491080  1251.17063509
0.33900002 22279.33005737  1249.87047541
0.34000002 22202.01432917  1476.32301273
0.34100002 22135.13085355  1362.63871988
0.34200002 22079.24484739  1249.57492132
0.34300002 22032.19296315  1250.54733181
0.34400002 21995.77028760  1821.24986607
0.34500002 21968.40966478  1368.19261872
0.34600002 21951.62357920  1142.58206141
0.34700002 21941.53904083  1259.88323139
0.34800002 21941.99042373  1263.52957839
0.34900002 21950.41946832  1267.63678433
0.35000002 21967.28732456  1734.86659862
0.35100002 21992.23152481  1509.54684336
0.35200002 22024.28232424  1282.80438473
0.35300002 22064.28028906  1171.61333884
0.35400002 22112.00978688  1295.21103461
0.35500002 22166.52010076  1538.79989828
0.35600002 22227.41324281  1309.30583908
0.35700002 22295.31404563  1316.98426305
0.35800002 22370.09272183  1204.62955013
0.35900002 22450.71711934  1697.27429461
0.36000002 22538.00960255  1342.47660556
0.36100002 22630.32072941  1720.35706334
0.36200002 22729.36699030  1361.37550037
0.36300002 22832.07592262  1869.94710664
0.36400002 22940.84726412  1758.41602609
0.36500002 23054.09550262  1645.37087396
0.36600002 23172.85637459  1403.23238423
0.36700002 23295.71425722  1800.29288308
0.36800002 23424.48410135  1555.85430771
0.36900002 23556.40317503  1307.38043814
0.37000002 23691.52571900  1582.12016246
0.37100002 23831.10903967  1861.68632637
0.37200002 23974.78026627  1743.80572527
0.37300002 24121.40745686  1488.53212468
0.37400002 24272.42776311  1501.85653899
0.37500002 24425.67188984  2066.41193977
0.37600002 24582.87036637  1946.22593910
0.37700002 24741.75650022  1683.42919202
0.37800002 24904.32551355  1698.97316702
0.37900002 25069.21167230  1857.62867292
0.38000002 25236.67220639  2019.18623889
0.38100002 25405.81195629  1601.32840346
0.38200002 25577.43329475  2057.19305735
0.38300002 25750.66808509  1631.56240716
0.38400002 25926.42039567  1646.97593366
0.38500002 26102.75173917  1662.48433703
0.38600002 26281.90394669  1678.23105602
0.38700002 26461.30049257  1694.05253779
0.38800002 26642.03300273  1865.47523923
0.38900002 26824.10618634  2510.73645799
0.39000002 27007.79772068  1900.80889363
0.39100002 27191.47982438  1918.63090731
0.39200002 27376.51718956  2259.38407070
0.39300002 27561.77831256  2117.57152808
0.39400002 27748.41653829  1808.50313356
0.39500002 27934.48336882  1825.23922979
0.39600002 28120.98929183  2009.52599000
0.39700002 28307.26436900  2196.92689176
0.39800002 28494.80108130  1705.41392552
0.39900002 28681.17478376  2065.04468227
0.40000002 28867.55035959  2257.29820732
0.40100002 29053.42375743  1751.92153558
0.40200002 29240.19970349  1944.32717140
0.40300002 29425.32195726  1961.49205461
0.40400002 29609.97680239  2158.56741117
0.40500002 29794.04238365  2358.79444727
0.40600002 29977.70527052  2013.15289283
0.40700002 30160.22999461  2214.96739575
0.40800002 30342.24242885  2047.64632733
0.40900002 30522.29712325  2440.25777063
0.41000002 30702.32316701  2839.19746940
0.41100002 30880.68126921  2099.26881215
0.41200002 31057.13718977  2308.78768808
0.41300002 31232.89262086  2909.34408549
0.41400002 31407.05086592  2737.12461266
0.41500002 31580.24256716  2364.72867548
0.41600002 31750.62079621  3177.60227985
0.41700002 31920.15871582  2401.67285558
0.41800002 32088.79804369  2823.49347365
0.41900002 32253.71736054  3251.17486400
0.42000002 32417.66377024  2047.17556410
0.42100002 32580.27686510  2268.56478561
0.42200002 32740.66269353  3323.83223415
0.42300002 32898.57595631  2720.05438896
0.42400002 33054.38622235  2950.10411014
0.42500002 33208.55354251  2546.43200631
0.42600002 33359.17040903  2777.65145573
0.42700002 33508.92298269  3011.78214040
0.42800002 33655.81967060  2165.75209843
0.42900002 33800.92809127  3270.23994780
0.43000002 33943.48409286  2194.44635059
0.43100002 34082.30778048  2429.38701372
0.43200002 34219.58587386  2444.81842861
0.43300002 34353.95305067  2460.08669454
0.43400002 34486.11504072  2700.26293565
0.43500002 34615.25598003  3169.37298772
0.43600002 34742.62634621  2732.85511790
0.43700002 34866.32376177  2290.71757970
0.43800002 34986.64090502  2534.25745405
0.43900002 35105.33638609  2548.64754241
0.44000002 35220.40851576  3494.74520059
0.44100002 35333.27845927  3513.89470930
0.44200002 35443.10377904  3061.75266505
0.44300002 35550.20324623  3077.93674292
0.44400002 35653.90628529  2617.88819306
0.44500002 35753.81671920  2631.12349706
0.44600002 35851.67177938  3365.39658942
0.44700002 35946.56053638  2898.73077903
0.44800002 36037.48956795  2427.12503743
0.44900002 36126.71188262  3170.11911794
0.45000002 36212.56196135  2939.73591934
0.45100002 36294.01563691  2460.73437680
0.45200002 36373.35323561  2965.88336339
0.45300002 36448.90918372  2482.17083305
0.45400002 36522.06348124  2991.15714087
0.45500002 36591.81551087  3504.03241939
0.45600002 36658.13957549  4020.66493919
0.45700002 36721.26792934  3279.57659420
0.45800002 36780.59285882  3292.04711985
0.45900002 36837.00200643  2795.92858480
0.46000002 36891.00892152  3571.41874296
0.46100002 36940.52373921  4351.96330798
0.46200002 36987.63424747  3596.30784833
0.46300002 37031.07448609  3092.83548766
0.46400002 37070.82995278  2844.25956293
0.46500002 37108.19279549  3372.02163914
0.46600002 37141.54965297  2861.94224415
0.46700002 37171.63960538  2870.39414637
0.46800002 37199.16530057  2878.65754322
0.46900002 37222.67915699  2624.19900495
0.47000002 37242.59204550  3157.42710327
0.47100002 37259.71496525  2637.98794457
0.47200002 37273.33086185  2908.99724499
0.47300002 37284.27121386  3446.18535164
0.47400002 37290.59521428  3719.73704893
0.47500002 37294.76493578  3994.26951394
0.47600002 37296.04542981  2935.38539468
0.47700002 37292.82300814  3743.45375099
