# SAXS profile: number of points = 501, q_min = 0, q_max = 0.5, delta_q = 0.001
#    q    intensity    error
0.00000000 1646666.22097351 345.79990640
0.00100000 1646598.33216388 543.37746252
0.00200000 1646394.61025106 1037.22863730
0.00300000 1646055.22772734 1283.92312336
0.00400000 1645580.05031436 1851.27762695
0.00500000 1644969.53118036 2072.66169133
0.00600000 1644223.39354630 3107.58234032
0.00700000 1643342.30599680 2366.41301898
0.00800000 1642325.71004814 2438.85378239
0.00900000 1641174.96300353 2954.11505969
0.01000000 1639889.20500950 3246.98076612
0.01100000 1638469.74579923 3834.01937210
0.01200000 1636915.89827324 3191.98614158
0.01300000 1635229.19798049 3433.98146721
0.01400000 1633408.80469025 5512.75496022
0.01500000 1631456.51130858 4698.59496179
0.01600000 1629371.15113136 4985.87594535
0.01700000 1627154.89332302 5271.98209086
0.01800000 1624807.23906289 5093.77092367
0.01900000 1622328.93347611 5353.68572204
0.02000000 1619720.60547502 5102.12013804
0.02100000 1616983.87667846 8537.67525595
0.02200000 1614116.86204896 8909.92548331
0.02300000 1611122.67347248 8700.06283276
0.02400000 1608000.97266836 6633.00431471
0.02500000 1604753.06536979 7510.24468893
0.02600000 1601379.27168065 8431.26225103
0.02700000 1597880.51613999 6711.09847516
0.02800000 1594256.70125388 9015.52205904
0.02900000 1590510.49475920 8588.75706605
0.03000000 1586641.97151087 8115.67405732
0.03100000 1582651.65084548 8356.40110097
0.03200000 1578540.26934994 10939.28457044
0.03300000 1574310.69454007 11240.57887721
0.03400000 1569960.90311761 12363.44268251
0.03500000 1565494.39809099 11835.13819609
0.03600000 1560910.72445839 11261.97139743
0.03700000 1556211.67569896 8870.40696172
0.03800000 1551398.70683363 10890.81942599
0.03900000 1546472.78332310 12990.37198150
0.04000000 1541433.23696239 10427.79633126
0.04100000 1536283.61413726 11614.30466139
0.04200000 1531024.37925707 11850.12924521
0.04300000 1525655.58392575 18124.78917835
0.04400000 1520181.00191726 14365.71113529
0.04500000 1514600.16572965 12540.88995495
0.04600000 1508913.13698277 13829.18954332
0.04700000 1503123.55877844 16233.73518980
0.04800000 1497231.17640308 12105.11462445
0.04900000 1491239.03737583 11184.29330092
0.05000000 1485146.44588105 15905.91917606
0.05100000 1478956.88313108 13843.03707097
0.05200000 1472668.46717341 11707.71485962
0.05300000 1466286.74202536 13064.61548049
0.05400000 1459809.65045360 21678.17432017
0.05500000 1453241.71207062 13427.95404594
0.05600000 1446580.92286434 13605.09421441
0.05700000 1439832.40644700 16284.50527705
0.05800000 1432995.00146801 16486.60826169
0.05900000 1426070.54592362 16685.02616659
0.06000000 1419061.51464953 18178.17885192
0.06100000 1411969.59518191 15757.58141860
0.06200000 1404795.38101344 21240.50715378
0.06300000 1397541.97412990 25491.16679998
0.06400000 1390207.26709140 21687.23438087
0.06500000 1382797.69915076 17796.60722056
0.06600000 1375311.15778144 15204.06556065
0.06700000 1367750.30875254 15346.15918239
0.06800000 1360118.36520193 15484.94831266
0.06900000 1352416.06275472 22720.59091803
0.07000000 1344642.65620190 15752.48945507
0.07100000 1336803.36776159 14437.47704804
0.07200000 1328896.74185387 16006.56200549
0.07300000 1320927.71284128 16128.52812950
0.07400000 1312895.58444272 14770.07601717
0.07500000 1304802.70069877 17849.70178222
0.07600000 1296649.02616489 19469.18604059
0.07700000 1288440.32259672 15074.75248121
0.07800000 1280174.64566636 18204.08431508
0.07900000 1271853.85352153 15262.24695811
0.08000000 1263482.35547395 16886.44247307
0.08100000 1255059.80164596 16980.95991299
0.08200000 1246587.21814379 15520.01159417
0.08300000 1238067.62575455 15599.65281663
0.08400000 1229501.76023559 15676.14817882
0.08500000 1220893.68083475 22049.34091099
0.08600000 1212242.03060937 18983.71109066
0.08700000 1203550.94330111 17475.56051734
0.08800000 1194818.42494933 17545.90939440
0.08900000 1186051.24841067 19214.03112673
0.09000000 1177247.39365503 20890.25598174
0.09100000 1168410.26025637 17736.46858397
0.09200000 1159540.21426176 19410.70409879
0.09300000 1150641.08921058 17846.44413230
0.09400000 1141710.60752275 22777.12769055
0.09500000 1132753.74396397 22836.31655168
0.09600000 1123771.27282131 21256.13462462
0.09700000 1114765.86206442 19664.47073130
0.09800000 1105738.76809380 26272.35436517
0.09900000 1096691.57925512 16450.37446236
0.10000000 1087623.89794538 19773.00339452
0.10100000 1078538.69682909 24752.46425638
0.10200000 1069438.34124471 16522.82314940
0.10300000 1060323.51032299 18195.15229306
0.10400000 1051196.82232900 23178.89102281
0.10500000 1042061.00107417 16568.77069663
0.10600001 1032912.28647879 28183.01306268
0.10700001 1023758.88911962 28194.32113311
0.10800001 1014597.21675138 23224.13138441
0.10900001 1005431.85040400 18248.58894371
0.11000001 996262.92622262 16587.77850239
0.11100001 987092.43004366 21558.09968697
0.11200001 977923.17724362 16575.79863462
0.11300001 968753.32330354 24848.52391262
0.11400001 959587.89448115 16552.89195918
0.11500001 950426.76105943 18191.16906326
0.11600001 941271.10021943 16519.30858677
0.11700001 932123.77601593 19798.30993498
0.11800001 922983.21659729 24712.87678833
0.11900001 913853.70420796 18094.30419559
0.12000001 904735.25337624 19705.13474674
0.12100001 895631.04786059 22946.06852713
0.12200001 886539.95598578 19627.99555023
0.12300001 877464.89566181 17952.93261108
0.12400001 868406.30397451 22795.66655341
0.12500001 859366.04001958 17866.22081387
0.12600001 850346.75619376 19438.92776262
0.12700001 841348.00184609 16153.88239672
0.12800001 832370.15052991 20938.27212338
0.12900001 823416.54201999 16056.62332617
0.13000001 814487.31568201 24007.01476129
0.13100001 805582.84603338 15950.54110333
0.13200001 796706.60300199 19073.15697498
0.13300001 787859.54540467 17419.57537011
0.13400001 779040.23677894 25240.90486164
0.13500001 770252.44789223 17284.46574563
0.13600001 761495.22146137 17213.60029277
0.13700001 752771.48277177 21815.31859939
0.13800001 744080.11429753 18616.88533762
0.13900001 735426.14734003 16988.34480469
0.14000001 726806.45045841 19983.54429779
0.14100001 718224.01870646 18357.80678395
0.14200001 709678.73689963 16744.87058692
0.14300001 701174.79814858 18174.45162526
0.14400001 692706.77540384 15066.37307571
0.14500001 684283.35661380 20980.12870346
0.14600001 675898.88264365 17884.28527843
0.14700001 667560.26094183 14819.83849206
0.14800001 659262.62831528 20628.32861320
0.14900001 651009.30882078 19042.02318143
0.15000001 642801.71504293 20383.24334575
0.15100001 634640.47871129 20257.72503632
0.15200001 626526.47705186 20130.29665756
0.15300001 618460.40276647 17143.72317368
0.15400001 610440.76832026 15612.02338654
0.15500001 602472.09468971 15507.63244916
0.15600001 594550.94056917 15401.84284233
0.15700001 586684.41938047 19466.18995379
0.15800001 578864.32856729 15186.50637675
0.15900001 571099.20642919 13706.38160125
0.16000001 563384.13378709 16326.87296782
0.16100001 555725.35464654 14854.53943090
0.16200001 548118.02272436 13401.48628824
0.16300001 540566.38612599 17287.31384441
0.16400001 533068.93878030 15832.14822920
0.16500001 525627.11045461 17014.55036870
0.16600001 518241.22907569 20771.10944202
0.16700001 510910.92987472 16737.44285295
0.16800001 503636.86629157 15320.63419597
0.16900001 496422.28203049 12658.76878950
0.17000001 489264.12766213 23844.28838753
0.17100001 482164.46439710 16171.79689953
0.17200001 475123.78599882 17261.24796046
0.17300001 468141.42789654 14662.19021413
0.17400001 461219.58363461 13317.71610639
0.17500001 454356.77094958 14394.02318348
0.17600001 447551.99388096 15447.25779836
0.17700001 440810.12980687 12946.59412390
0.17800001 434127.66830763 11656.32844461
0.17900001 427505.98102728 15005.46064282
0.18000001 420946.13921805 11428.68821960
0.18100001 414448.72262205 13577.34079444
0.18200001 408009.90881263 12319.85977856
0.18300001 401635.27671155 16627.70124134
0.18400001 395321.34373177 15358.23492951
0.18500001 389070.24428633 14111.57842693
0.18600001 382881.14370377 10739.81658828
0.18700001 376754.11288567 12749.35978239
0.18800001 370689.15961156 15763.55725725
0.18900001 364688.88874932 11432.99720247
0.19000001 358746.95984503 15417.15132778
0.19100001 352872.78802370 12195.28413033
0.19200001 347057.47436632 16075.70297225
0.19300001 341307.97213453 12911.68119596
0.19400001 335619.76403765 12761.94213058
0.19500001 329995.07747457 14552.78360432
0.19600001 324431.85179683 11504.35400837
0.19700001 318932.56533411 9472.29763806
0.19800001 313495.62109687 10293.62920518
0.19900001 308122.32789850 16638.60649286
0.20000001 302809.80793903 10955.65936901
0.20100001 297561.39506428 9917.72176623
0.20200001 292374.29044358 11573.63683422
0.20300001 287250.39503353 12305.80750487
0.20400001 282188.56491161 12148.21829364
0.20500001 277188.00503955 11134.64268874
0.20600001 272250.22454886 11834.71782054
0.20700001 267373.64752608 8342.05819714
0.20800001 262558.78085703 10700.58361965
0.20900001 257807.64571913 10557.22359125
0.21000001 253114.89594809 11215.52156964
0.21100001 248483.75411356 10272.31888066
0.21200001 243913.16685747 13248.14428416
0.21300001 239403.13404680 8453.32506283
0.21400001 234954.20773940 7577.27355782
0.21500001 230566.09296642 8217.37594182
0.21600001 226236.36789427 8836.79294774
0.21700001 221967.06294295 10887.48495211
0.21800001 217756.81012427 7153.31155080
0.21900001 213604.58295336 7753.84672782
0.22000001 209510.90950531 7639.81567634
0.22100001 205477.81441609 7526.65269795
0.22200001 201501.88663860 7414.26226945
0.22300001 197583.40943695 8630.44373230
0.22400001 193720.74330022 9153.30555376
0.22500001 189918.58899625 9013.53665999
0.22600001 186170.73974783 7606.93678581
0.22700001 182480.90524523 6864.93197996
0.22800001 178846.19886477 6757.70394368
0.22900001 175266.77364659 7256.04477211
0.23000001 171742.97533854 7141.07325229
0.23100001 168275.65311997 7027.19160662
0.23200001 164860.62934881 6914.25512189
0.23300001 161501.20597593 6802.43111742
0.23400001 158195.53412960 6691.67141017
0.23500001 154941.84452793 7130.42402242
0.23600001 151742.26916688 6473.32550883
0.23700001 148595.05177526 8487.74975886
0.23800001 145499.53696467 6259.39037628
0.23900001 142456.30735565 5128.42730738
0.24000001 139463.86714820 7058.26665023
0.24100001 136523.53486353 5451.38500496
0.24200001 133632.79007105 9741.83085699
0.24300001 130792.29699273 7180.49744456
0.24400001 128000.80973341 5644.83597626
0.24500001 125258.69344057 5546.45520792
0.24600001 122565.48043722 4995.15639152
0.24700001 119920.99794082 7137.69813509
0.24800001 117323.12159296 4820.22067868
0.24900001 114772.81054350 6025.57283859
0.25000001 112269.89184609 4649.65779077
0.25100001 109812.53921831 4150.91417883
0.25200001 107402.28714235 4483.50868887
0.25300001 105037.68212249 4402.12946602
0.25400001 102716.98955081 4321.81753982
0.25500001 100441.11934514 5399.71483147
0.25600001 98209.74724916  5678.97890337
0.25700001 96021.72850218  5202.45749639
0.25800001 93876.66623010  4011.81952116
0.25900001 91774.77241936  4295.05955245
0.26000001 89715.57812997  4917.31106997
0.26100001 87695.84020314  3791.09135136
0.26200001 85719.95683126  3719.81770270
0.26300001 83783.24109986  5972.06970818
0.26400001 81887.08085386  3906.01394155
0.26500001 80031.41498161  3512.57896975
0.26600001 78214.07621143  3445.72129054
0.26700001 76436.90274885  3687.31636309
0.26800001 74697.86140541  3014.05885034
0.26900001 72996.16198046  3547.61364013
0.27000001 71332.68618528  3769.57597985
0.27100001 69705.81964719  2843.99757619
0.27200001 68116.07113125  3626.15921827
0.27300001 66561.77822210  4377.10274303
0.27400001 65042.09650399  3219.58392931
0.27500001 63559.66290020  2894.50718546
0.27600001 62109.79755951  3096.79465288
0.27700001 60696.14617454  5315.16177205
0.27800001 59314.86790313  3227.02554100
0.27900001 57967.78087606  3165.04098563
0.28000001 56652.76604130  2626.70562182
0.28100001 55370.37709293  2342.16706188
0.28200001 54120.14195412  2297.40013469
0.28300001 52901.29602880  2704.31438099
0.28400001 51713.82196543  2652.91919239
0.28500001 50556.85645247  2168.88924447
0.28600001 49429.32215197  2979.10538711
0.28700001 48332.11563655  2087.94749433
0.28800001 47263.27931747  2868.40855755
0.28900001 46224.84209694  2010.78072639
0.29000001 45213.41022418  2170.92199467
0.29100001 44231.28429443  2905.99551570
0.29200001 43275.68464801  2092.16307334
0.29300001 42347.37486741  2241.02318406
0.29400001 41445.49909070  3301.13415884
0.29500001 40571.15851021  2521.90333237
0.29600001 39721.21424528  1769.58017839
0.29700001 38896.70244876  2086.41921812
0.29800001 38097.67082166  1708.68061724
0.29900001 37323.19211231  2015.45246947
0.30000001 36572.71377346  2476.88715756
0.30100001 35846.80305410  2111.01833179
0.30200001 35143.01008910  1916.69986100
0.30300001 34462.77504208  1885.80313958
0.30400001 33805.82124201  1701.27803455
0.30500001 33169.83164773  1979.24394812
0.30600001 32556.04657217  1799.04721875
0.30700001 31964.01106737  1624.41111935
0.30800001 31392.77405437  1746.06617557
0.30900001 30842.08118772  1864.40389607
0.31000001 30312.52815269  1696.89540633
0.31100001 29801.12913201  1534.16220035
0.31200001 29310.63263299  2064.20140091
0.31300001 28838.36955804  1494.11599754
0.31400001 28386.45918409  1743.63833794
0.31500001 27952.28747772  1457.43233809
0.31600002 27535.78496836  1702.12462841
0.31700002 27136.93268835  1423.87492558
0.31800002 26755.90141668  1792.37792077
0.31900002 26392.06360866  1266.81911320
0.32000002 26044.56451728  1755.66417724
0.32100002 25713.90287927  1490.37788145
0.32200002 25399.38334694  1476.72021771
0.32300002 25099.89412898  1707.79687740
0.32400002 24816.07937228  1330.76231935
0.32500002 24547.04204331  1320.38545403
0.32600002 24293.25671284  1310.74272801
0.32700002 24053.52894891  1656.80715246
0.32800002 23828.73371255  1528.73248372
0.32900002 23616.49911753  1402.82011401
0.33000002 23419.29416798  1976.70561785
0.33100002 23233.00307450  1851.20577264
0.33200002 23062.16463764  1843.12828512
0.33300002 22902.47983946  1491.63858258
0.33400002 22755.90522133  1257.83272067
0.33500002 22620.84767572  1710.13616527
0.33600002 22497.58477429  1478.42885346
0.33700002 22384.96002456  1475.39278509
0.33800002 22285.04704842  1473.15310490
0.33900002 22194.58538635  1358.30868997
0.34000002 22115.69823903  1470.58342405
0.34100002 22046.87899006  1470.30642948
0.34200002 21988.88137677  1357.59360050
0.34300002 21939.61303026  1245.29249457
0.34400002 21900.63623206  1246.69377655
0.34500002 21870.62884664  1702.62853635
0.34600002 21851.00088078  1251.07911468
0.34700002 21837.91905875  1709.90914328
0.34800002 21835.13068786  1143.06914565
0.34900002 21840.23803685  1261.27380636
0.35000002 21853.54790265  1495.76615704
0.35100002 21874.80732880  1616.98583433
0.35200002 21903.10424078  1391.72330938
0.35300002 21939.04865855  1164.96353895
0.35400002 21982.70682379  1755.86879071
0.35500002 22032.98659328  1294.21769379
0.35600002 22089.47766675  1182.89158508
0.35700002 22152.88748912  1665.45416032
0.35800002 22223.03517607  1316.38155101
0.35900002 22298.93293182  1685.79940949
0.36000002 22381.42477028  1333.14962959
0.36100002 22468.72281080  1830.07755962
0.36200002 22562.78969375  2211.37912263
0.36300002 22660.28121801  1237.25141311
0.36400002 22763.83275346  1370.95189252
0.36500002 22871.82817867  1255.66342649
0.36600002 22985.15961377  1265.33309667
0.36700002 23102.54123153  1785.36447094
0.36800002 23225.77832486  1671.21095853
0.36900002 23352.16367502  1555.25417443
0.37000002 23481.57121195  1568.09939981
0.37100002 23615.52125482  1317.74614844
0.37200002 23753.39814092  1461.90295783
0.37300002 23894.23465286  1608.55995303
0.37400002 24039.39000982  1352.21575211
0.37500002 24186.75800858  2046.19982446
0.37600002 24338.03991447  1376.31622236
0.37700002 24490.96313357  1388.63767546
0.37800002 24647.68642681  1821.58735167
0.37900002 24806.53788799  1696.76727192
0.38000002 24967.97691860  1569.61194334
0.38100002 25131.11476612  1872.01682761
0.38200002 25296.70875307  1889.28478272
0.38300002 25463.91893517  1613.39398016
0.38400002 25633.67612785  2072.48281312
0.38500002 25803.90291219  1942.25986421
0.38600002 25977.12298613  2111.16088510
0.38700002 26150.56728508  2587.33724976
0.38800002 26325.28788069  2304.12093092
0.38900002 26501.35895191  1860.39548656
0.39000002 26679.14432119  2034.15145514
0.39100002 26856.96515026  1737.10858822
0.39200002 27036.04402545  1912.52984497
0.39300002 27215.51695169  2895.18683049
0.39400002 27396.32334099  1947.87868183
0.39500002 27576.68056617  1638.05490324
0.39600002 27757.47432664  1818.25344191
0.39700002 27938.05552053  2335.06279104
0.39800002 28119.87678547  2019.56964642
0.39900002 28300.69163635  2037.64989436
0.40000002 28481.68472098  2227.12544228
0.40100002 28661.99505952  1901.15022237
0.40200002 28843.37906483  1743.58234708
0.40300002 29023.19261990  1934.68611171
0.40400002 29202.55088787  2306.27156564
0.40500002 29381.43286176  2505.06108448
0.40600002 29559.94456363  2526.48858156
0.40700002 29737.47108370  2001.92664821
0.40800002 29914.55584644  2569.36132339
0.40900002 30089.68622569  1850.51579056
0.41000002 30264.88746492  2612.16256087
0.41100002 30438.48576167  1881.09850920
0.41200002 30610.40165830  2085.94591984
0.41300002 30781.54668161  2484.99438135
0.41400002 30951.29705695  1926.71833309
0.41500002 31120.12305528  2912.84365599
0.41600002 31286.16917327  2544.03496687
0.41700002 31451.61145038  2760.82258393
0.41800002 31616.15570196  1987.07548002
0.41900002 31777.09633588  2602.54431323
0.42000002 31937.15682456  2218.51470394
0.42100002 32096.03472405  2234.84700373
0.42200002 32252.73541821  2046.43615926
0.42300002 32407.10165521  2885.52846811
0.42400002 32559.51843605  2490.80327839
0.42500002 32710.34949086  2299.21057466
0.42600002 32857.79165608  2104.54165530
0.42700002 33004.45216659  2330.77452245
0.42800002 33148.27520863  3626.25573828
0.42900002 33290.54077653  2576.68797820
0.43000002 33430.36825623  2809.65543324
0.43100002 33566.52213237  2610.13288470
0.43200002 33701.31747160  2407.79074086
0.43300002 33833.25478408  3083.56298714
0.43400002 33963.14257326  3324.14273688
0.43500002 34090.21458748  2898.35018158
0.43600002 34215.52247549  2915.67588592
0.43700002 34337.26634689  2932.74605767
0.43800002 34455.82937820  2722.69976649
0.43900002 34572.86143741  2738.17075560
0.44000002 34686.39236713  2982.85645297
0.44100002 34797.90232546  2999.23134356
0.44200002 34906.42634698  3479.29821102
0.44300002 35012.40596978  3031.37425252
0.44400002 35115.07573223  2578.32455783
0.44500002 35214.09113224  2591.40508923
0.44600002 35311.14431069  3077.89603971
0.44700002 35405.34077366  3330.93461784
0.44800002 35495.87721048  3107.84167645
0.44900002 35584.66604646  2882.35808636
0.45000002 35670.23323485  2895.70967124
0.45100002 35751.54416691  3151.14125221
0.45200002 35830.86179745  2678.17789198
0.45300002 35906.62400103  2689.76533139
0.45400002 35980.01889620  3437.89096846
0.45500002 36050.15410099  3205.57985458
0.45600002 36116.87970504  2723.39344323
0.45700002 36180.71065457  2734.17643375
0.45800002 36240.82631838  2495.18101028
0.45900002 36298.07462472  2755.02399459
0.46000002 36353.16545979  4022.11441710
0.46100002 36403.89193090  2775.06881342
0.46200002 36452.22202752  3291.08902174
0.46300002 36496.99529962  3302.24829122
0.46400002 36538.23667062  2803.39634142
0.46500002 36577.22332029  2812.42283439
0.46600002 36612.38838053  4359.98647694
0.46700002 36644.37074092  3601.40892711
0.46800002 36673.86792061  2838.00740355
0.46900002 36699.45658134  3104.77417394
0.47000002 36721.68281767  3113.26441684
0.47100002 36741.18592284  3901.91412994
0.47200002 36757.28883584  2868.72274316
0.47300002 36770.68039423  3660.15369992
0.47400002 36779.80465501  3144.67344705
0.47500002 36786.75282773  3151.88913167
0.47600002 36790.90539943  2895.62834671
0.47700002 36790.83230129  2901.69308114
